Data from Apollo_Calib_20240827__AbsoluteIrradiance__275__03-44-02-039.txt Node

Date: Wed Aug 28 03:44:02 BST 2024
User: biology
Spectrometer: FLMT08252
Trigger mode: 0
Integration Time (sec): 5.000000E-1
Scans to average: 5
Electric dark correction enabled: true
Nonlinearity correction enabled: false
Boxcar width: 0
XAxis mode: Wavelengths
Number of Pixels in Spectrum: 3648
>>>>>Begin Spectral Data<<<<<
179.588	-0
179.809	-0
180.03	-0
180.251	-0
180.473	-0
180.694	0
180.915	0
181.136	-0
181.357	0
181.578	0
181.799	-0
182.02	-0
182.241	0
182.462	-0
182.683	0
182.904	-0
183.125	-0
183.346	0
183.567	0
183.788	-0
184.009	-0
184.23	0
184.451	0
184.672	-0
184.892	-0
185.113	0
185.334	0
185.555	-0
185.776	-0
185.996	0
186.217	0
186.438	0
186.659	-0
186.879	0
187.1	0
187.321	-0
187.541	0
187.762	0
187.983	0
188.203	0
188.424	0
188.644	0
188.865	0
189.086	0
189.306	0
189.527	0
189.747	0
189.968	-0
190.188	0
190.409	0
190.629	0
190.849	0
191.07	-0
191.29	0
191.511	0
191.731	-0
191.951	-0
192.172	0
192.392	0
192.612	0
192.833	0
193.053	0
193.273	0
193.493	0
193.714	-0
193.934	0
194.154	0
194.374	0
194.594	0
194.815	0
195.035	0
195.255	0
195.475	-0
195.695	0
195.915	0
196.135	-0
196.355	0
196.575	0
196.795	0
197.015	-0
197.235	-0
197.455	-0
197.675	0
197.895	-0
198.115	-0
198.335	0
198.555	0
198.775	0
198.995	0
199.214	0
199.434	0
199.654	-0
199.874	0
200.094	1.28
200.313	-0.06
200.533	-0.24
200.753	-0.72
200.973	1.69
201.192	1.01
201.412	-0.74
201.632	0.21
201.851	1.69
202.071	0.27
202.291	-0.37
202.51	-0.34
202.73	1.08
202.95	-0.23
203.169	-0.33
203.389	0.1
203.608	0.3
203.828	-0.13
204.047	0.05
204.267	0.89
204.486	0.31
204.706	0.37
204.925	0.27
205.145	-0.21
205.364	0.46
205.583	0.73
205.803	-0.01
206.022	0.08
206.242	0.22
206.461	-0.27
206.68	0.1
206.9	0.54
207.119	0.87
207.338	0.81
207.557	-0.11
207.777	0.18
207.996	-0.05
208.215	0.64
208.434	0.21
208.654	-0.15
208.873	0.37
209.092	0.63
209.311	-0.16
209.53	0.15
209.749	-0.02
209.968	0.02
210.187	0.07
210.407	-0.29
210.626	-0.09
210.845	0.65
211.064	0.07
211.283	0.03
211.502	0.43
211.721	0.16
211.94	0.04
212.159	0.28
212.377	0.44
212.596	0.43
212.815	0.01
213.034	0.3
213.253	0.55
213.472	0.5
213.691	0.01
213.91	-0.33
214.128	-0.17
214.347	0.48
214.566	-0.24
214.785	-0.09
215.003	0.23
215.222	0.25
215.441	0.12
215.66	-0.29
215.878	0.05
216.097	0.33
216.316	-0.01
216.534	-0.01
216.753	0.33
216.972	0.13
217.19	0.07
217.409	-0.05
217.627	-0.04
217.846	0.09
218.064	-0.03
218.283	-0.13
218.501	0.58
218.72	0.43
218.938	-0.29
219.157	-0.17
219.375	0.33
219.594	0.16
219.812	-0.11
220.031	0.08
220.249	0.5
220.467	0.47
220.686	-0.14
220.904	-0.29
221.122	-0.18
221.341	0.56
221.559	0.16
221.777	0.01
221.995	0.05
222.214	0.21
222.432	0.11
222.65	0.29
222.868	0.13
223.086	0.14
223.305	0.28
223.523	0.05
223.741	0.3
223.959	0.01
224.177	-0.04
224.395	0.01
224.613	0.26
224.831	0.21
225.049	-0.03
225.267	0.04
225.485	0.13
225.703	-0.01
225.921	0.09
226.139	-0.06
226.357	0.26
226.575	0.17
226.793	0.03
227.011	0.67
227.229	0.16
227.447	0.28
227.665	-0.04
227.883	0.01
228.1	0.09
228.318	0.09
228.536	-0.23
228.754	-0.04
228.972	0.07
229.189	0.18
229.407	0.02
229.625	0.06
229.843	0.22
230.06	0.35
230.278	0
230.496	-0.03
230.713	0.17
230.931	0.25
231.149	-0.02
231.366	-0.09
231.584	0.13
231.801	0.51
232.019	0.01
232.236	-0.07
232.454	-0.02
232.671	0.11
232.889	0.07
233.106	-0.03
233.324	0.11
233.541	-0.01
233.759	0.17
233.976	0.01
234.194	0.12
234.411	0.03
234.628	-0.01
234.846	0.06
235.063	0.04
235.28	0.21
235.498	0.14
235.715	-0.06
235.932	0.25
236.149	0.1
236.367	-0.06
236.584	0.2
236.801	-0.02
237.018	0.22
237.236	0.13
237.453	0.01
237.67	0.17
237.887	-0.05
238.104	0.01
238.321	-0
238.538	-0.01
238.755	0.15
238.973	-0.1
239.19	0.05
239.407	0.16
239.624	0.11
239.841	-0.04
240.058	-0.11
240.275	0.12
240.492	0.02
240.709	0.02
240.925	-0.02
241.142	-0.01
241.359	-0.01
241.576	-0.08
241.793	-0.01
242.01	0.12
242.227	0.18
242.444	0.09
242.66	0.22
242.877	0.03
243.094	0.08
243.311	0.15
243.527	0.04
243.744	0.13
243.961	0.03
244.178	0.02
244.394	0.05
244.611	0.17
244.828	0.21
245.044	-0.06
245.261	0.07
245.477	0.05
245.694	0.16
245.911	0.04
246.127	0.11
246.344	0.17
246.56	0.14
246.777	0.06
246.993	0.04
247.21	0.15
247.426	0.24
247.643	0
247.859	-0.05
248.076	-0.05
248.292	0.27
248.508	-0.07
248.725	0.17
248.941	0.16
249.157	0.2
249.374	0.05
249.59	0.04
249.806	0.01
250.023	0.05
250.239	-0.1
250.455	-0.04
250.671	0.09
250.888	0.1
251.104	0.14
251.32	0.04
251.536	0.01
251.752	0.05
251.969	0.02
252.185	0.01
252.401	0.19
252.617	0.18
252.833	0.02
253.049	0.04
253.265	0.12
253.481	0.14
253.697	-0.03
253.913	0.01
254.129	0.11
254.345	0.06
254.561	0.05
254.777	0.01
254.993	0.13
255.209	0.03
255.425	-0.05
255.641	-0.03
255.857	0.09
256.073	0.1
256.288	0.02
256.504	0
256.72	0.09
256.936	0.2
257.152	-0.06
257.367	-0.01
257.583	0.09
257.799	0.12
258.015	0
258.23	0.04
258.446	0.17
258.662	0.04
258.877	0.04
259.093	-0.08
259.309	0.04
259.524	0.07
259.74	-0.02
259.955	-0.04
260.171	0.08
260.387	0.1
260.602	0.08
260.818	0.05
261.033	0
261.249	0.04
261.464	-0.02
261.68	-0.04
261.895	0.08
262.11	0.15
262.326	-0.01
262.541	-0.07
262.757	0.12
262.972	0.08
263.187	0.01
263.403	0.06
263.618	0.1
263.833	0.1
264.049	-0.02
264.264	0.06
264.479	0.17
264.694	0.17
264.91	-0.06
265.125	0.03
265.34	0.09
265.555	0.19
265.77	0.06
265.986	0.06
266.201	0.11
266.416	0.17
266.631	0.01
266.846	0.04
267.061	0.06
267.276	0.15
267.491	-0.11
267.706	0.1
267.921	0.06
268.136	0.1
268.351	0.03
268.566	-0.09
268.781	0.15
268.996	0.1
269.211	0.04
269.426	-0.02
269.641	0.05
269.856	0.13
270.071	-0.04
270.285	-0.05
270.5	0.11
270.715	0.1
270.93	0.03
271.145	0.08
271.359	0.11
271.574	-0.03
271.789	0.05
272.004	-0.01
272.218	0.03
272.433	0.11
272.648	0
272.862	0.14
273.077	0.06
273.292	0.06
273.506	-0.01
273.721	0
273.936	0.07
274.15	0.12
274.365	0
274.579	0.08
274.794	0.13
275.008	0.14
275.223	-0.06
275.437	0.06
275.652	0.13
275.866	0.12
276.081	0.07
276.295	0.14
276.509	0.05
276.724	0.07
276.938	0.13
277.153	0.06
277.367	0.13
277.581	0.08
277.796	-0.04
278.01	-0.01
278.224	0.11
278.438	0.21
278.653	-0.04
278.867	0.02
279.081	0.12
279.295	0.06
279.51	0.05
279.724	-0.08
279.938	0.1
280.152	0.08
280.366	0
280.58	0.05
280.794	0.16
281.008	0.16
281.222	0.08
281.437	0.19
281.651	0.07
281.865	0.12
282.079	0.02
282.293	-0.06
282.507	0.01
282.721	0.02
282.935	0.05
283.148	-0.04
283.362	0.02
283.576	-0.02
283.79	0.04
284.004	-0.01
284.218	0.1
284.432	-0
284.646	0.03
284.859	0.03
285.073	0.02
285.287	0.04
285.501	0.05
285.714	0.03
285.928	0.04
286.142	0.08
286.356	0.06
286.569	0.02
286.783	0.15
286.997	0.06
287.21	0.01
287.424	0.08
287.637	0.06
287.851	0.03
288.065	0.03
288.278	0.04
288.492	0.04
288.705	0.03
288.919	0.06
289.132	-0.01
289.346	0.09
289.559	-0.06
289.773	-0.04
289.986	0.01
290.2	0.04
290.413	0.1
290.626	0
290.84	0
291.053	0.07
291.267	0.11
291.48	0.06
291.693	0.05
291.906	0.04
292.12	0.04
292.333	-0.02
292.546	0.07
292.76	0.1
292.973	0.09
293.186	0.13
293.399	0.04
293.612	0.12
293.826	0.04
294.039	0.03
294.252	0.02
294.465	0.1
294.678	0.05
294.891	0.02
295.104	-0.02
295.317	0.04
295.53	0.09
295.743	0.08
295.956	0.04
296.169	0.1
296.382	0.07
296.595	0.01
296.808	0.02
297.021	0.14
297.234	0.08
297.447	0.03
297.66	0.05
297.873	0.07
298.086	0.02
298.299	-0
298.511	-0.01
298.724	0.02
298.937	-0
299.15	0.04
299.363	0.04
299.575	0.08
299.788	0.06
300.001	-0.03
300.213	-0.01
300.426	0.01
300.639	-0
300.852	-0.02
301.064	0.12
301.277	0.13
301.489	0.11
301.702	0.06
301.915	0.08
302.127	0.06
302.34	0.04
302.552	0.09
302.765	-0.02
302.977	0.06
303.19	0.02
303.402	0.03
303.615	-0.03
303.827	0.02
304.04	0.02
304.252	0.07
304.464	-0.01
304.677	0.17
304.889	0.08
305.102	-0.03
305.314	0.02
305.526	0.09
305.739	0.07
305.951	0
306.163	-0.01
306.375	0.13
306.588	0.04
306.8	0.05
307.012	-0.04
307.224	0.08
307.436	0.07
307.649	-0.09
307.861	0.08
308.073	0.1
308.285	0.02
308.497	0.01
308.709	0
308.921	0.07
309.133	0.07
309.346	-0.01
309.558	0.04
309.77	0.05
309.982	0.08
310.194	0.08
310.406	0.01
310.617	0.14
310.829	0.08
311.041	0.08
311.253	0.01
311.465	0.02
311.677	0.08
311.889	0.03
312.101	0.05
312.313	0.1
312.524	0.1
312.736	-0.04
312.948	0.03
313.16	0.12
313.372	0.06
313.583	0.05
313.795	0.01
314.007	0.03
314.218	0.1
314.43	0.02
314.642	0.02
314.853	-0.05
315.065	0.06
315.277	0.04
315.488	0.03
315.7	0.05
315.912	0.08
316.123	0.01
316.335	-0
316.546	0.17
316.758	0.05
316.969	-0.01
317.181	0.03
317.392	0.07
317.604	0.09
317.815	0.05
318.026	-0.05
318.238	-0.01
318.449	0.09
318.661	0
318.872	-0.03
319.083	0.02
319.295	0.07
319.506	0
319.717	0.1
319.929	0.08
320.14	0.03
320.351	0.06
320.562	-0.03
320.774	0.04
320.985	0.09
321.196	0.01
321.407	-0.06
321.618	0.12
321.829	0.06
322.041	0.07
322.252	-0.02
322.463	0.07
322.674	0.05
322.885	-0
323.096	0.01
323.307	0.02
323.518	0.09
323.729	0.01
323.94	0.05
324.151	0.01
324.362	0.06
324.573	0.06
324.784	0.02
324.995	0.12
325.206	0.05
325.417	0.01
325.628	0.02
325.838	0.04
326.049	0.06
326.26	0.11
326.471	0
326.682	0.07
326.892	0.03
327.103	-0.04
327.314	0
327.525	0.13
327.735	0.03
327.946	0.03
328.157	0.04
328.368	0.07
328.578	0.01
328.789	0.07
328.999	0.06
329.21	0.05
329.421	0.13
329.631	0.01
329.842	0.02
330.052	0.04
330.263	0.07
330.473	0.11
330.684	0.03
330.894	0.02
331.105	0.08
331.315	0.05
331.526	-0.01
331.736	0.11
331.947	0.06
332.157	0.08
332.367	0
332.578	0.06
332.788	0.13
332.999	0.08
333.209	0.06
333.419	-0.04
333.629	0.07
333.84	0.05
334.05	0.04
334.26	0.14
334.47	0.04
334.681	0.06
334.891	0.03
335.101	0.09
335.311	0.12
335.521	0.03
335.732	0.03
335.942	0.13
336.152	0.07
336.362	0.09
336.572	0.08
336.782	0.11
336.992	0.06
337.202	0.03
337.412	0.02
337.622	0.05
337.832	0.06
338.042	0.01
338.252	0.01
338.462	0.04
338.672	0.06
338.882	0.01
339.092	0.02
339.302	0.1
339.511	0.06
339.721	0.04
339.931	0.01
340.141	0.11
340.351	0.11
340.561	0.08
340.77	0.04
340.98	0.07
341.19	0.08
341.4	0.03
341.609	0
341.819	0.05
342.029	-0.01
342.238	0.04
342.448	0.02
342.658	0.11
342.867	0.07
343.077	0.07
343.286	0.06
343.496	0.11
343.706	0.09
343.915	0.04
344.125	-0
344.334	0.06
344.544	-0.02
344.753	0.02
344.963	0.02
345.172	0.05
345.381	0.05
345.591	-0.02
345.8	0.03
346.01	0.11
346.219	0.07
346.428	-0.09
346.638	0.08
346.847	0.02
347.056	0.12
347.266	0.01
347.475	0.08
347.684	0.05
347.893	0.09
348.103	0.1
348.312	0.05
348.521	0.07
348.73	0.06
348.94	0.04
349.149	0.02
349.358	0.05
349.567	0.03
349.776	-0.01
349.985	0.04
350.194	0.05
350.403	0.12
350.612	-0.01
350.821	0.03
351.03	0.1
351.239	0.02
351.448	0.07
351.657	0.03
351.866	0.11
352.075	0.05
352.284	0.1
352.493	0.01
352.702	0.12
352.911	0.09
353.12	0.03
353.329	0.07
353.538	0.08
353.746	0.03
353.955	0.05
354.164	0.06
354.373	0.02
354.582	0.09
354.79	0.05
354.999	0.09
355.208	0.04
355.416	0.11
355.625	0
355.834	0.04
356.042	0.04
356.251	0.02
356.46	-0.01
356.668	0.08
356.877	0.13
357.085	0.06
357.294	-0.03
357.503	0.09
357.711	0.09
357.92	0.16
358.128	0.08
358.337	0.07
358.545	0.07
358.754	0.05
358.962	0.06
359.17	0.05
359.379	0.09
359.587	0.12
359.796	0.04
360.004	0.07
360.212	0.09
360.421	0.11
360.629	0.04
360.837	0.04
361.046	0.11
361.254	0.13
361.462	0.07
361.67	0.01
361.879	0.05
362.087	0.14
362.295	0.07
362.503	0.06
362.711	-0.02
362.92	0.03
363.128	0.03
363.336	0.04
363.544	-0.03
363.752	0.04
363.96	0.02
364.168	0.02
364.376	0.06
364.584	0.06
364.792	0.13
365	0.08
365.208	0.08
365.416	0.1
365.624	0.12
365.832	0.05
366.04	0.14
366.248	0.04
366.456	0.07
366.664	0.05
366.872	0.06
367.079	0.05
367.287	0.07
367.495	0.08
367.703	0.07
367.911	0.07
368.118	0.04
368.326	0.07
368.534	0.02
368.742	0.12
368.949	0.04
369.157	0.01
369.365	0.11
369.572	0.03
369.78	0.04
369.988	0.09
370.195	0.07
370.403	0.09
370.61	0.03
370.818	0.07
371.026	0.11
371.233	0.01
371.441	0.06
371.648	0.04
371.856	0.06
372.063	0.07
372.271	0.05
372.478	0.04
372.685	0.01
372.893	0.13
373.1	0.02
373.308	0.05
373.515	0.12
373.722	0.13
373.93	0.04
374.137	0.12
374.344	0.13
374.552	0.11
374.759	0.07
374.966	0.06
375.173	0.05
375.381	0.14
375.588	0.07
375.795	0.02
376.002	0.04
376.209	0.01
376.417	0.08
376.624	0.05
376.831	0.07
377.038	0.04
377.245	-0
377.452	0.09
377.659	0.1
377.866	0.05
378.073	0.05
378.28	0.04
378.487	0.13
378.694	0.09
378.901	0.04
379.108	0.06
379.315	0.15
379.522	0.14
379.729	0.1
379.936	0.06
380.143	0.09
380.35	0.1
380.557	0.04
380.763	0.11
380.97	0.05
381.177	0.11
381.384	0.1
381.591	0.05
381.797	0.09
382.004	0.14
382.211	0.08
382.418	0.09
382.624	0.1
382.831	0.09
383.038	0.05
383.244	0.06
383.451	0.08
383.658	0.1
383.864	0.06
384.071	0.05
384.277	0.15
384.484	0.07
384.69	0.15
384.897	0.1
385.103	0.08
385.31	0.05
385.516	0.1
385.723	0.07
385.929	0.1
386.136	0.05
386.342	0.12
386.549	0.09
386.755	0.2
386.961	0.15
387.168	0.09
387.374	0.11
387.58	0.17
387.787	0.12
387.993	0.14
388.199	0.06
388.406	0.1
388.612	0.06
388.818	0.08
389.024	0.12
389.231	0.13
389.437	0.19
389.643	0.12
389.849	0.14
390.055	0.1
390.261	0.16
390.467	0.13
390.674	0.13
390.88	0.12
391.086	0.16
391.292	0.07
391.498	0.19
391.704	0.16
391.91	0.13
392.116	0.11
392.322	0.02
392.528	0.14
392.734	0.12
392.94	0.2
393.146	0.13
393.352	0.15
393.557	0.15
393.763	0.16
393.969	0.22
394.175	0.14
394.381	0.2
394.587	0.1
394.792	0.18
394.998	0.25
395.204	0.28
395.41	0.16
395.615	0.23
395.821	0.27
396.027	0.24
396.233	0.28
396.438	0.26
396.644	0.36
396.85	0.27
397.055	0.26
397.261	0.3
397.466	0.3
397.672	0.33
397.878	0.35
398.083	0.34
398.289	0.3
398.494	0.4
398.7	0.43
398.905	0.25
399.111	0.43
399.316	0.36
399.522	0.41
399.727	0.43
399.932	0.43
400.138	0.47
400.343	0.5
400.549	0.5
400.754	0.55
400.959	0.58
401.165	0.56
401.37	0.64
401.575	0.61
401.78	0.65
401.986	0.63
402.191	0.66
402.396	0.73
402.601	0.83
402.807	0.86
403.012	0.83
403.217	0.95
403.422	0.89
403.627	0.97
403.832	1.02
404.037	1.13
404.243	1.07
404.448	1.19
404.653	1.21
404.858	1.3
405.063	1.31
405.268	1.35
405.473	1.38
405.678	1.5
405.883	1.73
406.088	1.7
406.293	1.65
406.498	1.79
406.703	1.83
406.907	1.91
407.112	2
407.317	2.15
407.522	2.24
407.727	2.33
407.932	2.4
408.136	2.64
408.341	2.62
408.546	2.78
408.751	2.89
408.956	2.96
409.16	3.19
409.365	3.32
409.57	3.36
409.774	3.52
409.979	3.65
410.184	3.75
410.388	3.82
410.593	4.13
410.798	4.3
411.002	4.48
411.207	4.63
411.411	4.88
411.616	4.85
411.82	5.24
412.025	5.37
412.229	5.55
412.434	5.72
412.638	5.91
412.843	6.06
413.047	6.43
413.252	6.47
413.456	6.92
413.66	7.06
413.865	7.2
414.069	7.41
414.273	7.68
414.478	7.95
414.682	8.1
414.886	8.38
415.091	8.49
415.295	8.98
415.499	9.3
415.703	9.32
415.908	9.76
416.112	9.9
416.316	10.47
416.52	10.69
416.724	10.85
416.929	11.2
417.133	11.79
417.337	11.74
417.541	12.25
417.745	12.39
417.949	12.65
418.153	13.17
418.357	13.39
418.561	14.03
418.765	14.12
418.969	14.27
419.173	15.05
419.377	15.11
419.581	15.63
419.785	15.95
419.989	16.2
420.193	16.78
420.397	16.94
420.601	17.06
420.804	17.59
421.008	17.44
421.212	17.86
421.416	17.52
421.62	17.67
421.823	17.64
422.027	17.77
422.231	17.47
422.435	17.4
422.638	17.2
422.842	17.43
423.046	17.69
423.249	17.87
423.453	17.5
423.657	17.78
423.86	17.66
424.064	17.87
424.268	17.59
424.471	17.48
424.675	17.6
424.878	17.4
425.082	17.31
425.285	17.85
425.489	17.17
425.692	17.03
425.896	16.46
426.099	16.45
426.303	16.57
426.506	16.32
426.71	16.31
426.913	16.29
427.116	16.03
427.32	15.48
427.523	15.19
427.726	15.15
427.93	15.05
428.133	14.93
428.336	14.88
428.54	14.52
428.743	14.29
428.946	14.29
429.149	13.67
429.353	13.21
429.556	12.75
429.759	12.28
429.962	12.02
430.165	11.81
430.368	10.84
430.571	10.5
430.775	10.17
430.978	9.87
431.181	9.54
431.384	9.19
431.587	9.02
431.79	8.98
431.993	8.68
432.196	8.6
432.399	8.62
432.602	8.47
432.805	8.16
433.008	8.31
433.211	7.96
433.414	7.9
433.616	7.61
433.819	7.33
434.022	7.27
434.225	7.12
434.428	6.78
434.631	7
434.833	6.54
435.036	6.55
435.239	6.32
435.442	6.22
435.645	6.03
435.847	5.87
436.05	5.9
436.253	5.74
436.455	5.56
436.658	5.28
436.861	5.37
437.063	5.13
437.266	4.95
437.468	5.05
437.671	4.98
437.874	4.75
438.076	4.55
438.279	4.56
438.481	4.36
438.684	4.41
438.886	4.23
439.089	4.15
439.291	4.09
439.494	4.05
439.696	3.86
439.899	3.96
440.101	3.91
440.303	3.71
440.506	3.9
440.708	3.62
440.91	3.52
441.113	3.48
441.315	3.34
441.517	3.23
441.72	3.27
441.922	3.03
442.124	2.89
442.326	2.94
442.529	2.88
442.731	2.69
442.933	2.79
443.135	2.51
443.337	2.41
443.539	2.37
443.742	2.3
443.944	2.38
444.146	2.27
444.348	2.27
444.55	2.07
444.752	2.08
444.954	1.94
445.156	1.97
445.358	1.89
445.56	1.95
445.762	1.76
445.964	1.79
446.166	1.67
446.368	1.68
446.57	1.66
446.772	1.62
446.974	1.53
447.175	1.48
447.377	1.45
447.579	1.44
447.781	1.3
447.983	1.49
448.184	1.25
448.386	1.28
448.588	1.22
448.79	1.23
448.991	1.26
449.193	1.2
449.395	1.16
449.597	1.19
449.798	1.14
450	1.09
450.202	1.11
450.403	1.06
450.605	1.06
450.806	0.96
451.008	0.89
451.21	0.98
451.411	0.97
451.613	0.87
451.814	0.87
452.016	0.99
452.217	0.82
452.419	0.88
452.62	0.81
452.821	0.87
453.023	0.88
453.224	0.79
453.426	0.75
453.627	0.68
453.828	0.76
454.03	0.7
454.231	0.79
454.432	0.66
454.634	0.77
454.835	0.61
455.036	0.62
455.238	0.7
455.439	0.78
455.64	0.55
455.841	0.59
456.042	0.76
456.244	0.64
456.445	0.59
456.646	0.57
456.847	0.52
457.048	0.59
457.249	0.59
457.45	0.8
457.651	0.45
457.852	0.54
458.054	0.46
458.255	0.48
458.456	0.54
458.657	0.51
458.858	0.36
459.058	0.47
459.259	0.46
459.46	0.43
459.661	0.42
459.862	0.59
460.063	0.36
460.264	0.44
460.465	0.31
460.666	0.54
460.866	0.38
461.067	0.39
461.268	0.37
461.469	0.35
461.67	0.38
461.87	0.33
462.071	0.34
462.272	0.27
462.473	0.31
462.673	0.34
462.874	0.3
463.075	0.35
463.275	0.27
463.476	0.35
463.676	0.3
463.877	0.31
464.078	0.31
464.278	0.3
464.479	0.29
464.679	0.28
464.88	0.31
465.08	0.36
465.281	0.26
465.481	0.22
465.682	0.25
465.882	0.31
466.083	0.22
466.283	0.23
466.483	0.25
466.684	0.17
466.884	0.2
467.085	0.22
467.285	0.28
467.485	0.16
467.686	0.2
467.886	0.23
468.086	0.19
468.286	0.22
468.487	0.24
468.687	0.18
468.887	0.19
469.087	0.19
469.287	0.16
469.488	0.17
469.688	0.26
469.888	0.22
470.088	0.23
470.288	0.22
470.488	0.23
470.688	0.15
470.888	0.14
471.088	0.13
471.288	0.23
471.488	0.21
471.688	0.17
471.888	0.13
472.088	0.24
472.288	0.24
472.488	0.12
472.688	0.12
472.888	0.16
473.088	0.16
473.288	0.16
473.488	0.15
473.688	0.24
473.887	0.15
474.087	0.1
474.287	0.14
474.487	0.12
474.687	0.15
474.886	0.14
475.086	0.15
475.286	0.12
475.486	0.14
475.685	0.14
475.885	0.11
476.085	0.14
476.284	0.19
476.484	0.15
476.684	0.13
476.883	0.16
477.083	0.15
477.282	0.12
477.482	0.18
477.681	0.17
477.881	0.13
478.08	0.08
478.28	0.08
478.479	0.14
478.679	0.2
478.878	0.09
479.078	0.07
479.277	0.12
479.477	0.09
479.676	0.14
479.875	0.1
480.075	0.02
480.274	0.14
480.473	0.12
480.673	0.06
480.872	0.11
481.071	0.11
481.271	0.1
481.47	0.08
481.669	0.08
481.868	0.05
482.067	0.09
482.267	0.06
482.466	0.04
482.665	0.06
482.864	0.07
483.063	0.06
483.262	0.08
483.461	0.14
483.661	0.11
483.86	0.11
484.059	0.07
484.258	0.08
484.457	0.07
484.656	0.07
484.855	0.11
485.054	0.01
485.253	0.06
485.452	0.04
485.651	0.06
485.849	0.05
486.048	0.05
486.247	0.02
486.446	0.09
486.645	0.05
486.844	0.05
487.043	0.04
487.241	0.1
487.44	0.05
487.639	0.05
487.838	0.1
488.037	0.06
488.235	0.12
488.434	0.06
488.633	0.05
488.831	0.07
489.03	0.1
489.229	0.06
489.427	0.05
489.626	0.1
489.825	0.11
490.023	0.04
490.222	0.05
490.42	0.08
490.619	0.12
490.817	0.06
491.016	0.04
491.214	0.12
491.413	0.04
491.611	0.05
491.81	0.04
492.008	0.06
492.207	0.08
492.405	0.07
492.604	0.03
492.802	0.04
493	0.06
493.199	0.07
493.397	0.07
493.595	0.06
493.794	0.03
493.992	0.1
494.19	0.04
494.388	0.07
494.587	0.03
494.785	0.05
494.983	0.01
495.181	0.05
495.379	0.05
495.578	0.05
495.776	0.06
495.974	0.06
496.172	0.05
496.37	0.02
496.568	0.03
496.766	0.04
496.964	0.06
497.162	0.05
497.36	0.04
497.558	0.05
497.756	0.07
497.954	0.05
498.152	0.01
498.35	0.04
498.548	0.07
498.746	0.08
498.944	0.03
499.142	0.03
499.34	0
499.538	0.04
499.736	0.02
499.933	0.07
500.131	0.07
500.329	0.04
500.527	0.08
500.725	0.08
500.922	0.07
501.12	0.07
501.318	0.07
501.516	0.02
501.713	0.05
501.911	0.02
502.109	0.02
502.306	0.06
502.504	0.03
502.701	0.02
502.899	0.04
503.097	0.11
503.294	0.02
503.492	0.02
503.689	0.06
503.887	0.06
504.084	0.11
504.282	0.05
504.479	0.01
504.677	0.07
504.874	0.02
505.072	0.04
505.269	0.03
505.466	0.06
505.664	0.04
505.861	0.02
506.059	0.01
506.256	0.05
506.453	0.03
506.651	0.1
506.848	0.07
507.045	0.06
507.242	0.05
507.44	0.02
507.637	0.03
507.834	0.04
508.031	0.1
508.229	0
508.426	0.07
508.623	0.05
508.82	0.04
509.017	0.01
509.214	0.03
509.411	0.05
509.608	0.04
509.805	0.04
510.003	0.02
510.2	0.02
510.397	0.06
510.594	0.01
510.791	0.01
510.988	0.01
511.184	0.06
511.381	0.04
511.578	0.02
511.775	0.08
511.972	0.03
512.169	0.04
512.366	0.04
512.563	0.06
512.76	0.02
512.956	0.06
513.153	0.02
513.35	0.04
513.547	0.02
513.744	0
513.94	0.02
514.137	0.05
514.334	0.04
514.53	0.04
514.727	0.02
514.924	0.09
515.12	0.01
515.317	0.01
515.514	0
515.71	0.01
515.907	0.03
516.103	0.02
516.3	0.04
516.497	0.05
516.693	0.05
516.89	0.03
517.086	0.01
517.283	0.03
517.479	0.04
517.676	0.01
517.872	0.02
518.068	-0
518.265	0.03
518.461	0.02
518.658	-0.01
518.854	0.03
519.05	0.01
519.247	0.01
519.443	0.05
519.639	0.03
519.836	0.03
520.032	0.04
520.228	0.04
520.424	0.06
520.621	0.04
520.817	0.02
521.013	0.03
521.209	0.06
521.405	0.08
521.601	0.03
521.798	0.03
521.994	0.08
522.19	0.01
522.386	-0
522.582	0.01
522.778	0.02
522.974	0.03
523.17	0.02
523.366	0.03
523.562	0.08
523.758	0.03
523.954	-0
524.15	0.02
524.346	0.03
524.542	0.03
524.738	0.02
524.934	0.03
525.129	-0.05
525.325	0.04
525.521	0.03
525.717	0.04
525.913	0.04
526.109	0.03
526.304	0.01
526.5	0.03
526.696	0.04
526.892	0.02
527.087	0.03
527.283	0.03
527.479	0.04
527.674	0.01
527.87	0.02
528.066	0.02
528.261	0.05
528.457	0.02
528.653	0.02
528.848	0.03
529.044	0.04
529.239	0.03
529.435	0.06
529.63	0.04
529.826	0.07
530.021	0.05
530.217	0.05
530.412	0.01
530.608	0.02
530.803	0.02
530.999	0.03
531.194	-0.03
531.389	0.02
531.585	-0.03
531.78	0.01
531.975	0.02
532.171	0.04
532.366	0.03
532.561	0.01
532.757	0.01
532.952	0.02
533.147	0.04
533.342	0.03
533.538	0.01
533.733	0.05
533.928	0.03
534.123	0
534.318	0.01
534.513	0.01
534.709	0.02
534.904	0.01
535.099	-0
535.294	0.03
535.489	0.02
535.684	0.01
535.879	-0
536.074	0.03
536.269	-0
536.464	0.05
536.659	0.01
536.854	0.02
537.049	0.03
537.244	0.05
537.439	0.01
537.634	0.06
537.828	0
538.023	0.01
538.218	-0.02
538.413	0.01
538.608	-0.01
538.803	0.05
538.997	-0.01
539.192	0.04
539.387	0.04
539.582	0.04
539.776	0.03
539.971	0.01
540.166	0.01
540.36	-0
540.555	0.02
540.75	0.01
540.944	0.02
541.139	-0.02
541.334	0.01
541.528	0.05
541.723	0.05
541.917	0.01
542.112	-0.02
542.306	0.03
542.501	0.04
542.695	0.02
542.89	0
543.084	0.03
543.279	0.01
543.473	0.02
543.668	0.03
543.862	0.01
544.056	0.03
544.251	0.02
544.445	0.02
544.64	0.01
544.834	-0
545.028	0.02
545.222	0.03
545.417	0.05
545.611	0.03
545.805	0.03
546	0.01
546.194	0.03
546.388	0
546.582	0.03
546.776	0.03
546.97	0.01
547.165	0.01
547.359	0.02
547.553	-0
547.747	0.03
547.941	0.03
548.135	0.02
548.329	0.04
548.523	0.04
548.717	-0.01
548.911	0
549.105	0.03
549.299	0.03
549.493	0.04
549.687	0.03
549.881	0.04
550.075	0.03
550.269	-0
550.463	0.04
550.657	0
550.85	0.02
551.044	-0.01
551.238	0.03
551.432	-0.01
551.626	-0.02
551.82	0.04
552.013	0
552.207	0.03
552.401	0.02
552.594	0.02
552.788	0.02
552.982	0.02
553.176	0.02
553.369	0.06
553.563	0.03
553.756	-0.01
553.95	0
554.144	0.02
554.337	0.03
554.531	0.04
554.724	0.03
554.918	0.01
555.111	0.04
555.305	0.02
555.498	0.07
555.692	0.04
555.885	0.01
556.079	0.04
556.272	0
556.466	0.05
556.659	0.04
556.852	-0
557.046	-0
557.239	0.05
557.432	0
557.626	-0
557.819	0.02
558.012	0.03
558.206	0.03
558.399	0.02
558.592	0.03
558.785	0.01
558.979	0.04
559.172	-0
559.365	0.03
559.558	0.03
559.751	-0.01
559.944	0.02
560.138	0.01
560.331	0.01
560.524	0
560.717	0.02
560.91	0.02
561.103	0.02
561.296	0.02
561.489	0.04
561.682	0.02
561.875	0.03
562.068	0.05
562.261	0.03
562.454	0.06
562.647	0.02
562.84	0.05
563.032	0.03
563.225	0.05
563.418	0
563.611	-0
563.804	0.01
563.997	-0.01
564.19	-0.02
564.382	0.03
564.575	0
564.768	0.03
564.961	0.01
565.153	0.01
565.346	0.02
565.539	0.01
565.731	0.02
565.924	0.05
566.117	0.03
566.309	0.01
566.502	0.03
566.695	0.02
566.887	0.02
567.08	-0
567.272	0
567.465	0.01
567.657	0.03
567.85	0.03
568.042	0.04
568.235	0.05
568.427	0.03
568.62	0.03
568.812	0.02
569.005	0
569.197	-0.03
569.389	0.03
569.582	0.01
569.774	0.01
569.966	-0
570.159	-0.02
570.351	0.02
570.543	-0.01
570.736	0.01
570.928	-0
571.12	0
571.312	-0.01
571.505	-0.03
571.697	0.05
571.889	-0
572.081	0.02
572.273	-0.05
572.465	0.05
572.658	0.01
572.85	0.03
573.042	-0.01
573.234	0.02
573.426	0.05
573.618	0
573.81	0.02
574.002	0.04
574.194	0.06
574.386	-0.02
574.578	-0.05
574.77	-0.01
574.962	0.01
575.154	-0.01
575.346	-0
575.538	0.02
575.729	-0.02
575.921	-0
576.113	0
576.305	0.04
576.497	0.02
576.689	0.01
576.88	0
577.072	0.05
577.264	-0.01
577.456	0.01
577.647	-0.05
577.839	-0.01
578.031	0.07
578.223	-0.02
578.414	-0.03
578.606	0.03
578.798	0.01
578.989	-0.01
579.181	0.01
579.372	0
579.564	0
579.755	0.02
579.947	0.01
580.139	0.04
580.33	-0.05
580.522	0
580.713	-0.06
580.905	0.01
581.096	0.04
581.287	0.02
581.479	-0
581.67	0.05
581.862	0
582.053	-0
582.244	-0.05
582.436	-0.02
582.627	0.02
582.818	-0.02
583.01	-0.02
583.201	0.06
583.392	0.04
583.583	0.03
583.775	-0.02
583.966	-0
584.157	-0.01
584.348	-0.02
584.54	-0.02
584.731	0.02
584.922	0.02
585.113	-0.02
585.304	0.02
585.495	0.05
585.686	-0.01
585.877	0.04
586.068	-0.01
586.259	0.03
586.45	0
586.641	-0.02
586.832	-0.04
587.023	0.03
587.214	0.02
587.405	0
587.596	-0.02
587.787	0.03
587.978	0.01
588.169	-0.01
588.36	-0.03
588.551	0.02
588.742	0.02
588.932	-0.01
589.123	0.03
589.314	0.03
589.505	0.04
589.696	0.01
589.886	0
590.077	-0.04
590.268	0.03
590.458	-0.05
590.649	-0.05
590.84	0.05
591.03	-0.02
591.221	-0.03
591.412	-0.04
591.602	0.01
591.793	0.03
591.984	-0.01
592.174	0.01
592.365	0.09
592.555	-0.02
592.746	0.03
592.936	0
593.127	0
593.317	0.04
593.508	0.01
593.698	-0
593.889	0.01
594.079	0.01
594.269	-0.01
594.46	0.01
594.65	-0.02
594.84	0.02
595.031	-0.02
595.221	0.01
595.411	-0.04
595.602	0.03
595.792	-0
595.982	0.01
596.172	0.06
596.363	0.03
596.553	0.04
596.743	-0.01
596.933	0.01
597.123	0.05
597.314	-0.02
597.504	-0.01
597.694	0.02
597.884	0.03
598.074	-0
598.264	-0.03
598.454	0.01
598.644	0.02
598.834	0.01
599.024	-0.05
599.214	0.01
599.404	0.02
599.594	-0.02
599.784	-0.02
599.974	0.08
600.164	0.02
600.354	-0.01
600.544	-0.05
600.734	0.02
600.924	0.05
601.114	-0.03
601.303	0.02
601.493	0.01
601.683	0.03
601.873	0.01
602.063	-0.04
602.252	0.03
602.442	-0.07
602.632	-0.03
602.821	-0.04
603.011	0.03
603.201	-0.02
603.39	-0.02
603.58	-0.05
603.77	0.02
603.959	0.03
604.149	0.01
604.339	0
604.528	0.05
604.718	0.05
604.907	-0.01
605.097	0.04
605.286	-0.04
605.476	0.03
605.665	0.04
605.855	0.02
606.044	0.05
606.234	0.03
606.423	-0.01
606.612	-0.02
606.802	0.01
606.991	0.03
607.181	0.03
607.37	-0.04
607.559	0
607.749	-0.03
607.938	-0.02
608.127	0.01
608.316	-0.01
608.506	0.02
608.695	0.01
608.884	-0.02
609.073	0.01
609.263	0.02
609.452	0.01
609.641	0.02
609.83	-0.03
610.019	0.03
610.208	-0.03
610.397	0
610.586	0.04
610.775	-0
610.965	-0.03
611.154	-0.01
611.343	-0
611.532	0.03
611.721	-0
611.91	-0.01
612.099	0.04
612.287	0.01
612.476	-0.03
612.665	0.01
612.854	-0.04
613.043	0.05
613.232	-0.02
613.421	-0.04
613.61	0.01
613.798	-0.02
613.987	0.02
614.176	0
614.365	0.01
614.554	0.03
614.742	0.04
614.931	-0.02
615.12	0.03
615.309	0
615.497	0.01
615.686	-0.04
615.875	-0.01
616.063	0.01
616.252	-0.02
616.44	-0.02
616.629	-0.01
616.818	0.04
617.006	0.02
617.195	0
617.383	0.01
617.572	0.01
617.76	-0.02
617.949	-0.01
618.137	0.04
618.326	0.06
618.514	-0.02
618.703	-0.01
618.891	0.07
619.079	-0.04
619.268	0.02
619.456	-0.01
619.644	0.05
619.833	0.01
620.021	-0.01
620.209	-0.05
620.398	0.01
620.586	-0
620.774	0.02
620.962	-0.02
621.151	0.08
621.339	0.01
621.527	-0.01
621.715	-0.04
621.903	-0.03
622.092	-0.02
622.28	0.02
622.468	0.01
622.656	-0.01
622.844	0.01
623.032	-0.01
623.22	-0.06
623.408	0.02
623.596	0.04
623.784	0.01
623.972	-0.03
624.16	-0.01
624.348	0.07
624.536	0.02
624.724	-0.01
624.912	0.05
625.1	0.02
625.288	-0
625.476	-0.01
625.664	0.01
625.851	-0.02
626.039	-0.04
626.227	0.02
626.415	0
626.603	-0.03
626.79	0.01
626.978	0.01
627.166	0.03
627.354	-0.01
627.541	-0.01
627.729	-0.04
627.917	0.01
628.104	0.08
628.292	-0.01
628.48	0.02
628.667	0.04
628.855	0.05
629.042	-0.01
629.23	-0.03
629.418	0.02
629.605	-0.01
629.793	-0.02
629.98	-0.02
630.168	-0.01
630.355	0
630.543	-0
630.73	-0.06
630.917	0.05
631.105	0.09
631.292	0.02
631.48	0.03
631.667	0.05
631.854	0.03
632.042	-0.01
632.229	-0.04
632.416	0.01
632.604	0.01
632.791	-0.05
632.978	0.01
633.165	0.06
633.353	0.09
633.54	0.02
633.727	-0.06
633.914	-0.05
634.101	-0.04
634.289	-0
634.476	-0.02
634.663	-0.05
634.85	0.04
635.037	-0.05
635.224	-0.05
635.411	0.02
635.598	0.03
635.785	-0.01
635.972	-0.01
636.159	0.02
636.346	0.01
636.533	0.01
636.72	-0.04
636.907	-0
637.094	0.01
637.281	-0.05
637.468	0.03
637.655	-0.01
637.842	-0.02
638.029	0.01
638.215	0.04
638.402	0.01
638.589	-0.01
638.776	-0
638.963	-0.04
639.149	0.02
639.336	0.07
639.523	-0
639.709	0
639.896	-0.02
640.083	0.07
640.27	-0
640.456	-0.03
640.643	0.01
640.829	-0.02
641.016	0.01
641.203	-0.04
641.389	0.03
641.576	0.02
641.762	-0.02
641.949	-0.01
642.135	0.05
642.322	0.02
642.508	-0.04
642.695	-0
642.881	-0.02
643.068	0.02
643.254	-0.02
643.441	0.03
643.627	-0.02
643.813	-0.05
644	0.02
644.186	-0.03
644.372	-0.04
644.559	0.07
644.745	0.01
644.931	-0.04
645.118	-0.02
645.304	0.02
645.49	-0.03
645.676	-0.02
645.862	0.02
646.049	0.06
646.235	0
646.421	0.07
646.607	0.07
646.793	-0.03
646.979	-0.02
647.165	-0
647.352	0.01
647.538	0.07
647.724	-0.02
647.91	0.02
648.096	0.02
648.282	0.06
648.468	-0.02
648.654	0
648.84	0.04
649.026	0.01
649.212	-0.01
649.397	-0.03
649.583	-0.04
649.769	0.05
649.955	-0.01
650.141	0.03
650.327	0.04
650.513	-0.03
650.698	0.04
650.884	-0.08
651.07	0.02
651.256	-0.01
651.442	-0.01
651.627	-0.02
651.813	0.02
651.999	0.03
652.184	0.01
652.37	-0.01
652.556	-0.02
652.741	0.05
652.927	-0.07
653.113	0.02
653.298	-0.02
653.484	0.01
653.669	-0.08
653.855	-0.02
654.04	0.03
654.226	0.03
654.412	0
654.597	-0.02
654.782	0.01
654.968	0.03
655.153	0
655.339	-0.05
655.524	-0.04
655.71	0.06
655.895	-0.02
656.08	0.01
656.266	0.03
656.451	0.03
656.636	-0.04
656.822	0.01
657.007	-0.02
657.192	-0.02
657.378	-0.04
657.563	0.01
657.748	0.04
657.933	0.04
658.118	-0.03
658.304	0
658.489	0.02
658.674	0.02
658.859	-0.04
659.044	0.03
659.229	0.01
659.414	-0.01
659.599	-0.01
659.785	-0.06
659.97	-0.05
660.155	0.02
660.34	-0.03
660.525	-0.02
660.71	-0.02
660.895	0.02
661.08	-0.03
661.264	-0.03
661.449	0.07
661.634	0.04
661.819	0
662.004	0
662.189	-0.09
662.374	0.02
662.559	-0.04
662.743	-0.05
662.928	0.02
663.113	0.03
663.298	-0.06
663.483	-0.02
663.667	0.01
663.852	-0.07
664.037	0.03
664.221	-0.04
664.406	-0.01
664.591	0.05
664.775	0
664.96	0
665.145	0.04
665.329	0
665.514	-0.03
665.698	-0.01
665.883	-0.07
666.068	0.02
666.252	-0.01
666.437	-0.05
666.621	0.01
666.806	0.03
666.99	-0.01
667.174	-0.07
667.359	0.1
667.543	-0
667.728	0
667.912	-0.05
668.096	0.06
668.281	-0.03
668.465	-0
668.649	-0
668.834	-0.04
669.018	0
669.202	-0.02
669.387	-0.04
669.571	0.05
669.755	-0.01
669.939	-0
670.124	0.01
670.308	0.07
670.492	0.04
670.676	0.01
670.86	0
671.044	-0.05
671.228	0.06
671.413	-0.04
671.597	-0.05
671.781	-0.04
671.965	0.04
672.149	-0.02
672.333	0
672.517	-0.03
672.701	0.05
672.885	-0.02
673.069	-0.08
673.253	0
673.437	-0.02
673.621	-0.03
673.804	-0.01
673.988	-0
674.172	-0.01
674.356	-0.01
674.54	-0.01
674.724	0.09
674.908	-0.03
675.091	-0.01
675.275	-0.01
675.459	0.07
675.643	0.06
675.826	-0.04
676.01	0
676.194	0
676.377	0.03
676.561	0.01
676.745	-0.02
676.928	0.03
677.112	0.04
677.296	-0.08
677.479	-0.02
677.663	-0.02
677.846	0.03
678.03	0
678.213	-0.01
678.397	0.04
678.58	-0.05
678.764	-0.01
678.947	-0.06
679.131	-0.07
679.314	0.02
679.498	-0
679.681	-0
679.865	0.03
680.048	-0.04
680.231	0.02
680.415	-0.02
680.598	-0.03
680.781	-0
680.965	-0.01
681.148	0.02
681.331	-0.02
681.514	0.07
681.698	-0.03
681.881	0.01
682.064	0.05
682.247	-0
682.43	-0.09
682.614	-0
682.797	0.06
682.98	0.04
683.163	-0.06
683.346	0.04
683.529	0
683.712	-0.04
683.895	0.05
684.078	-0.07
684.261	-0.03
684.444	-0.02
684.627	0.04
684.81	-0.04
684.993	-0.01
685.176	0.04
685.359	-0.04
685.542	0.01
685.725	0.06
685.908	0.02
686.091	-0.03
686.274	0.03
686.457	0
686.639	-0.02
686.822	0.01
687.005	0.02
687.188	0.08
687.371	0.11
687.553	0
687.736	0.05
687.919	0.1
688.102	0.04
688.284	0.01
688.467	0.04
688.65	0
688.832	-0
689.015	0.02
689.197	-0.06
689.38	0.06
689.563	0.1
689.745	-0.11
689.928	-0.01
690.11	0.01
690.293	0.02
690.475	-0.07
690.658	0.01
690.84	0
691.023	0.03
691.205	-0.08
691.388	0.03
691.57	0.05
691.752	0.04
691.935	-0.06
692.117	-0.01
692.3	0.04
692.482	0.01
692.664	-0.01
692.847	0.03
693.029	0.03
693.211	0.03
693.393	0.02
693.576	-0
693.758	0.04
693.94	-0.02
694.122	0.03
694.304	-0.01
694.487	-0.01
694.669	0.04
694.851	-0.01
695.033	0.01
695.215	-0.02
695.397	-0.02
695.579	0.01
695.761	-0.05
695.943	-0.05
696.125	0.09
696.308	0.02
696.49	-0.15
696.671	0.12
696.853	-0.02
697.035	0.1
697.217	-0.01
697.399	0.05
697.581	0.01
697.763	-0.04
697.945	-0.02
698.127	-0.03
698.309	0.09
698.491	0
698.672	0.02
698.854	0.11
699.036	0.02
699.218	-0.03
699.399	0.09
699.581	0.05
699.763	0.02
699.945	-0.01
700.126	-0.05
700.308	-0.03
700.49	-0.03
700.671	-0.06
700.853	-0.06
701.035	0.02
701.216	0.03
701.398	-0.02
701.579	-0.01
701.761	0.02
701.943	-0.03
702.124	-0.04
702.306	-0.01
702.487	0.11
702.669	0
702.85	-0.08
703.031	-0.09
703.213	0.13
703.394	0.07
703.576	-0.02
703.757	0.06
703.938	0.03
704.12	0.2
704.301	-0.05
704.483	-0.09
704.664	0.03
704.845	0.13
705.026	-0
705.208	0.04
705.389	0.04
705.57	0.01
705.751	-0.04
705.933	0.03
706.114	0.12
706.295	0.03
706.476	-0.08
706.657	0.13
706.838	0.03
707.02	0.07
707.201	-0.04
707.382	0.01
707.563	0.07
707.744	-0.06
707.925	-0.01
708.106	-0.03
708.287	0.06
708.468	0.13
708.649	0.03
708.83	0.05
709.011	-0.04
709.192	-0.01
709.373	-0.06
709.554	-0.04
709.734	0
709.915	0.06
710.096	-0.04
710.277	-0.15
710.458	0.02
710.639	0.05
710.819	-0.01
711	-0
711.181	0.07
711.362	0.04
711.542	0
711.723	-0.02
711.904	0.11
712.085	0.05
712.265	-0.07
712.446	-0.05
712.627	-0.07
712.807	0.03
712.988	0.07
713.168	-0.09
713.349	0.01
713.53	-0.12
713.71	-0.09
713.891	-0.12
714.071	0.07
714.252	-0.01
714.432	-0.06
714.613	-0.15
714.793	-0.02
714.974	0.06
715.154	0.09
715.334	0.05
715.515	0.03
715.695	-0.02
715.876	0
716.056	-0.08
716.236	0.02
716.417	-0
716.597	-0.05
716.777	0.15
716.957	0.06
717.138	0.04
717.318	0.02
717.498	-0.11
717.678	-0
717.859	0
718.039	-0.06
718.219	0.04
718.399	0.02
718.579	-0.06
718.759	-0.04
718.939	0.02
719.12	0.03
719.3	0.01
719.48	-0.2
719.66	-0.08
719.84	0.09
720.02	-0.03
720.2	-0.07
720.38	0.02
720.56	0.08
720.74	-0.09
720.92	-0.02
721.1	0.12
721.279	0.03
721.459	0.05
721.639	-0.1
721.819	0.04
721.999	-0.09
722.179	0.04
722.359	-0.04
722.538	-0.01
722.718	-0.05
722.898	-0.04
723.078	-0
723.257	-0.09
723.437	0.01
723.617	-0.01
723.797	-0.05
723.976	0.02
724.156	0.01
724.336	0.08
724.515	0.18
724.695	-0.12
724.874	-0.02
725.054	0.13
725.234	-0.1
725.413	0.04
725.593	-0.07
725.772	-0.01
725.952	0.05
726.131	-0.01
726.311	-0.01
726.49	-0.05
726.67	-0.1
726.849	-0.05
727.028	0.08
727.208	-0.03
727.387	0.03
727.567	-0.16
727.746	0.01
727.925	0
728.105	-0.1
728.284	-0.06
728.463	-0.04
728.643	0.01
728.822	-0.09
729.001	-0.03
729.18	-0.01
729.359	0.09
729.539	0
729.718	-0
729.897	0.03
730.076	-0.06
730.255	-0.17
730.434	-0
730.614	0.05
730.793	0.1
730.972	-0.05
731.151	0.07
731.33	0.1
731.509	0.09
731.688	0.06
731.867	-0.04
732.046	-0.14
732.225	0.21
732.404	-0.04
732.583	-0.05
732.762	-0.08
732.941	0.08
733.12	0.03
733.298	0.02
733.477	0.07
733.656	0.03
733.835	-0.02
734.014	0.05
734.193	-0.07
734.371	0.07
734.55	-0.04
734.729	-0.15
734.908	-0.08
735.086	0.01
735.265	0.06
735.444	-0.18
735.623	-0.14
735.801	-0.18
735.98	0.04
736.159	-0.02
736.337	0.02
736.516	-0.02
736.694	-0.11
736.873	-0.08
737.052	0.18
737.23	0.12
737.409	-0.09
737.587	0.06
737.766	-0.1
737.944	-0.02
738.123	0.08
738.301	0.06
738.479	0.01
738.658	0.08
738.836	-0.22
739.015	-0.04
739.193	0.06
739.371	-0.12
739.55	-0.05
739.728	-0.13
739.906	0.09
740.085	0.2
740.263	-0.01
740.441	-0.22
740.62	0.32
740.798	0.11
740.976	-0.1
741.154	-0.13
741.332	0.19
741.511	-0.02
741.689	0.07
741.867	0.13
742.045	0.02
742.223	-0
742.401	-0.14
742.579	-0.09
742.757	0.04
742.935	-0.08
743.114	-0.11
743.292	-0.1
743.47	-0.07
743.648	-0.02
743.826	-0.14
744.004	-0
744.181	0.05
744.359	0.01
744.537	-0.05
744.715	0.02
744.893	-0.03
745.071	0.03
745.249	0.01
745.427	-0.05
745.605	-0.03
745.782	-0.02
745.96	0.03
746.138	0.13
746.316	0.06
746.493	-0.02
746.671	0.08
746.849	-0.1
747.027	0.17
747.204	-0.11
747.382	0.03
747.56	-0.12
747.737	-0.01
747.915	-0.03
748.093	0.11
748.27	-0.07
748.448	-0.03
748.625	-0.15
748.803	-0.1
748.98	-0.15
749.158	0.06
749.335	0.1
749.513	-0.03
749.69	-0.05
749.868	0.03
750.045	0
750.223	-0.11
750.4	-0.18
750.578	0.22
750.755	0.03
750.932	-0.11
751.11	0.16
751.287	-0.18
751.464	0.13
751.642	-0.12
751.819	0.05
751.996	0.05
752.173	-0.11
752.351	-0.08
752.528	0.03
752.705	-0
752.882	-0.03
753.06	0.1
753.237	0.05
753.414	0.19
753.591	0.07
753.768	0.07
753.945	-0.11
754.122	0.01
754.299	0.15
754.476	-0.12
754.654	-0.11
754.831	0.04
755.008	0.08
755.185	0.01
755.362	-0.14
755.539	0.02
755.716	-0.1
755.892	-0.11
756.069	-0.04
756.246	-0
756.423	-0.02
756.6	0.19
756.777	-0.04
756.954	0.21
757.131	-0.03
757.307	-0.12
757.484	-0.18
757.661	0.02
757.838	-0.04
758.015	-0.18
758.191	0.03
758.368	0
758.545	0.11
758.721	0.07
758.898	-0.08
759.075	0.04
759.251	0.15
759.428	0.05
759.605	-0.1
759.781	0.02
759.958	-0.01
760.134	0.04
760.311	-0.1
760.488	0.19
760.664	0.21
760.841	-0.03
761.017	-0.05
761.194	0.14
761.37	0.12
761.547	-0.08
761.723	-0.01
761.899	0.1
762.076	0
762.252	-0.23
762.429	-0.03
762.605	0.05
762.781	0.01
762.958	0.15
763.134	-0.01
763.31	-0.01
763.486	0.16
763.663	-0.14
763.839	0.12
764.015	-0.29
764.191	-0.15
764.368	-0.04
764.544	-0.09
764.72	0.02
764.896	0.19
765.072	-0.09
765.248	-0.04
765.425	0.04
765.601	0.05
765.777	-0
765.953	-0.19
766.129	-0.17
766.305	-0.15
766.481	0.02
766.657	0.06
766.833	0.2
767.009	-0.11
767.185	0.07
767.361	0.04
767.537	-0.22
767.713	0.12
767.889	-0.03
768.065	0
768.24	-0.22
768.416	-0
768.592	-0.16
768.768	0.1
768.944	0.03
769.12	-0.17
769.295	-0.11
769.471	-0.11
769.647	-0.02
769.823	0.12
769.998	-0.07
770.174	-0.2
770.35	0.34
770.525	0.3
770.701	-0.05
770.877	-0.1
771.052	-0.11
771.228	0.14
771.403	0.1
771.579	0.08
771.755	0.2
771.93	0.04
772.106	-0.25
772.281	-0.13
772.457	-0.06
772.632	0.03
772.808	-0.12
772.983	-0.05
773.159	-0.14
773.334	0.01
773.509	-0.02
773.685	-0.13
773.86	0.38
774.036	0.19
774.211	0.06
774.386	-0.09
774.562	-0.01
774.737	0.22
774.912	-0.13
775.087	-0.02
775.263	0.01
775.438	0.1
775.613	0.03
775.788	0.03
775.964	0.17
776.139	0.27
776.314	-0.15
776.489	0.06
776.664	-0.02
776.839	-0.09
777.014	0.04
777.19	0.21
777.365	0.14
777.54	0.45
777.715	-0.12
777.89	-0.08
778.065	-0.08
778.24	-0.13
778.415	0.2
778.59	-0.23
778.765	-0.07
778.94	0.08
779.115	-0.13
779.289	-0.11
779.464	-0.04
779.639	-0.1
779.814	-0.21
779.989	-0.15
780.164	0.14
780.339	0.06
780.513	0.01
780.688	-0.15
780.863	0.03
781.038	0.18
781.212	-0.16
781.387	-0.08
781.562	0.48
781.737	-0.03
781.911	0.16
782.086	-0.06
782.261	0.01
782.435	0.3
782.61	-0
782.784	-0.13
782.959	0.19
783.134	-0.14
783.308	-0.21
783.483	-0.17
783.657	0.62
783.832	0.27
784.006	-0.39
784.181	0.07
784.355	0.2
784.53	-0.14
784.704	-0.06
784.878	0.29
785.053	0.08
785.227	0.09
785.402	0.25
785.576	-0.12
785.75	0.03
785.925	-0.19
786.099	-0.13
786.273	0.11
786.448	0.19
786.622	0.11
786.796	-0.11
786.97	-0.08
787.145	0.56
787.319	-0.26
787.493	-0.24
787.667	-0.51
787.841	-0.03
788.015	0.14
788.19	-0.22
788.364	-0.11
788.538	0.27
788.712	0.16
788.886	0.07
789.06	0.13
789.234	0.38
789.408	-0.31
789.582	-0.06
789.756	0.06
789.93	-0.26
790.104	-0.25
790.278	-0.06
790.452	-0.17
790.626	0.06
790.8	-0.17
790.973	0.2
791.147	0.29
791.321	0.12
791.495	0.08
791.669	0.05
791.843	0.25
792.016	0.03
792.19	0.46
792.364	-0.24
792.538	0.51
792.711	0.29
792.885	-0.12
793.059	-0.14
793.233	-0.43
793.406	0.13
793.58	-0.1
793.754	0.14
793.927	-0.11
794.101	0.19
794.274	-0.02
794.448	0.31
794.622	-0.2
794.795	0.27
794.969	-0.17
795.142	0.2
795.316	-0.26
795.489	-0.17
795.663	0.52
795.836	0.14
796.009	-0.32
796.183	0.36
796.356	-0.01
796.53	0.1
796.703	0.03
796.876	0.28
797.05	-0.08
797.223	0.1
797.396	0.04
797.57	0
797.743	0.29
797.916	0.17
798.09	-0.14
798.263	0.16
798.436	-0.1
798.609	-0.07
798.782	-0.14
798.956	0.04
799.129	-0.21
799.302	-0.15
799.475	-0.18
799.648	-0.23
799.821	-0.08
799.994	-0.23
800.167	-0.42
800.34	-0.03
800.514	0.03
800.687	-0.09
800.86	-0.3
801.033	0.1
801.206	0.32
801.379	-0.4
801.551	0.06
801.724	-0.06
801.897	0.46
802.07	-0.2
802.243	-0.44
802.416	-0.24
802.589	-0.31
802.762	-0.04
802.935	0.3
803.107	0.08
803.28	0.25
803.453	0.03
803.626	-0.21
803.798	-0.03
803.971	-0.37
804.144	-0.12
804.317	0.11
804.489	0.16
804.662	0
804.835	-0.22
805.007	-0.5
805.18	0.4
805.353	0.12
805.525	-0.03
805.698	-0.09
805.87	0.41
806.043	0.2
806.215	-0.44
806.388	-0.18
806.56	0.17
806.733	0.72
806.905	0.21
807.078	-0.03
807.25	-0.26
807.423	0.17
807.595	0.24
807.768	-0.06
807.94	0.06
808.112	0.01
808.285	-0.18
808.457	-0.17
808.629	0.08
808.802	0.32
808.974	0.02
809.146	-0.3
809.318	-0.27
809.491	0.15
809.663	0.25
809.835	0.1
810.007	0.21
810.18	-0.24
810.352	-0.37
810.524	-0.4
810.696	0.14
810.868	0.58
811.04	-0.2
811.212	0.06
811.384	0.52
811.556	0.32
811.728	-0.19
811.901	0.42
812.073	0.03
812.245	0.39
812.417	-0.29
812.589	-0.72
812.76	0.08
812.932	0.23
813.104	0.27
813.276	-0.3
813.448	0.57
813.62	0.14
813.792	0.14
813.964	-0.2
814.136	0.45
814.307	0.04
814.479	-0.38
814.651	-0.26
814.823	0.95
814.995	0.01
815.166	-0.27
815.338	-0.3
815.51	-0.69
815.681	0.86
815.853	0.17
816.025	-0.29
816.196	0.52
816.368	0.41
816.54	-0.44
816.711	-0.31
816.883	-0.16
817.054	1.1
817.226	-0.68
817.398	0.41
817.569	-0.21
817.741	0.13
817.912	-0.22
818.084	-0.02
818.255	0.12
818.426	-0.43
818.598	0.29
818.769	-0.71
818.941	0.55
819.112	0.42
819.283	0.32
819.455	-0.75
819.626	0.21
819.798	0.02
819.969	0.18
820.14	-0.22
820.311	-0.34
820.483	0.41
820.654	-0.36
820.825	0.21
820.996	-0.16
821.168	-0.51
821.339	-0.07
821.51	-0.54
821.681	0.07
821.852	0.26
822.023	-0.38
822.195	-0.91
822.366	0.58
822.537	-0.03
822.708	-0.29
822.879	-0.46
823.05	0.61
823.221	-0.34
823.392	0.04
823.563	-0.15
823.734	-0.07
823.905	-0.01
824.076	-0.35
824.247	-0.32
824.418	-0.29
824.589	0.71
824.759	-0.62
824.93	-0.2
825.101	-0.44
825.272	0.51
825.443	0.62
825.614	0.68
825.784	-0.19
825.955	0.82
826.126	0.8
826.297	0.1
826.467	1.13
826.638	0.58
826.809	-1.08
826.98	0.2
827.15	0.03
827.321	-0.15
827.492	0.88
827.662	0.25
827.833	1.1
828.003	-0.09
828.174	-0.96
828.345	-0.8
828.515	0.63
828.686	0.42
828.856	0.11
829.027	0.2
829.197	-0.18
829.368	0.04
829.538	-0.12
829.709	-0.12
829.879	-0.23
830.049	0.47
830.22	-0.38
830.39	-0.15
830.56	0.32
830.731	-0.37
830.901	-0.26
831.072	0.03
831.242	0.25
831.412	0.44
831.582	-0.33
831.753	-0.66
831.923	0.63
832.093	0.11
832.263	-0.5
832.434	-0.91
832.604	0.04
832.774	0.84
832.944	0.18
833.114	-0.29
833.284	0.5
833.454	-0.58
833.624	0.04
833.795	-0.32
833.965	0.51
834.135	0.41
834.305	-1.27
834.475	-0.72
834.645	-0.46
834.815	0.38
834.985	-0.96
835.155	-0.72
835.325	0.36
835.494	0.43
835.664	-0.05
835.834	-0.4
836.004	0.35
836.174	0.06
836.344	0.2
836.514	-0.71
836.684	-0.41
836.853	-0.29
837.023	-0.39
837.193	-0.42
837.363	0.77
837.532	1.07
837.702	-0.15
837.872	-0.71
838.041	0.72
838.211	1.65
838.381	-0.5
838.55	-0.02
838.72	1.93
838.89	1.47
839.059	-0.47
839.229	-0.84
839.398	1.42
839.568	0.02
839.738	-0.22
839.907	1.09
840.077	-0.22
840.246	-0.83
840.416	-0.91
840.585	-0.95
840.755	1.03
840.924	0.96
841.093	-0.67
841.263	-0.13
841.432	0.02
841.602	-0.15
841.771	-1.12
841.94	0.6
842.11	1.95
842.279	1.18
842.448	-1.11
842.617	-0.74
842.787	1.04
842.956	-0.44
843.125	-0.14
843.294	-0.21
843.464	0.59
843.633	0.64
843.802	-0.86
843.971	-0.49
844.14	0.94
844.309	1.26
844.479	-1
844.648	-0.36
844.817	-0.05
844.986	-0.36
845.155	-0.1
845.324	-0.28
845.493	-0.11
845.662	-0.5
845.831	0.23
846	0.64
846.169	-0.24
846.338	0.9
846.507	-0.25
846.676	0.41
846.844	-0.72
847.013	0.59
847.182	0.03
847.351	-0.88
847.52	0.23
847.689	0.85
847.858	-0.36
848.026	-0.01
848.195	-0.35
848.364	-1.04
848.533	-1.13
848.701	-0.64
848.87	0.15
849.039	0.72
849.207	0.41
849.376	0.43
849.545	1.02
849.713	-0.62
849.882	0.1
850.051	-0.45
850.219	0.37
850.388	-0.37
850.556	-1.36
850.725	-0.58
850.893	-0.63
851.062	-0.13
851.23	0.5
851.399	-1.69
851.567	-0.04
851.736	-0.05
851.904	-0.64
852.073	-0.9
852.241	0.56
852.41	-0.55
852.578	0.47
852.746	0.17
852.915	1.78
853.083	-0.06
853.251	-0.39
853.42	-0.35
853.588	-0.35
853.756	0.8
853.924	-0.74
854.093	-0.78
854.261	-0.39
854.429	-1.7
854.597	-0.7
854.765	-0.3
854.934	0.51
855.102	1.31
855.27	-0.22
855.438	0.31
855.606	1.27
855.774	1.09
855.942	-2.01
856.11	-2.58
856.278	0.31
856.446	0.48
856.614	0.05
856.782	-0.86
856.95	1.82
857.118	0.31
857.286	-0.1
857.454	-2.06
857.622	1.14
857.79	0.5
857.958	-1.16
858.126	0.22
858.294	-3.15
858.462	-0.34
858.629	0.43
858.797	-0.82
858.965	0.06
859.133	0.31
859.301	-0.27
859.468	0.73
859.636	-0.94
859.804	2.3
859.971	0.3
860.139	-0.46
860.307	1.42
860.474	0.8
860.642	-0.57
860.81	-1.18
860.977	-0.4
861.145	1.32
861.313	-0.48
861.48	1.03
861.648	0.74
861.815	0.9
861.983	-1.81
862.15	-0.3
862.318	1.48
862.485	1.2
862.653	-1.59
862.82	-1.87
862.988	-0.33
863.155	0.34
863.322	-1.77
863.49	-1.21
863.657	0.39
863.824	2.29
863.992	0.96
864.159	-0.02
864.326	1.67
864.494	-0.48
864.661	2.81
864.828	-0.38
864.996	1.35
865.163	0.91
865.33	-0.68
865.497	-3.55
865.664	-1.37
865.832	-2.19
865.999	-1.53
866.166	-2.06
866.333	-1.2
866.5	-1.88
866.667	0.91
866.834	0.76
867.001	0.8
867.168	-1.57
867.335	-0.32
867.502	-1.31
867.669	0.18
867.836	2.75
868.003	0.14
868.17	2.13
868.337	-2.36
868.504	2.7
868.671	-1.57
868.838	-1.31
869.005	0.76
869.172	-0.15
869.339	0.37
869.505	0.4
869.672	-0.64
869.839	1.94
870.006	-0.15
870.173	-1.7
870.339	-0.23
870.506	2.47
870.673	-0.75
870.84	0.46
871.006	-0.23
871.173	0.63
871.34	-0.04
871.506	-1.05
871.673	1.81
871.839	-1.63
872.006	0.56
872.173	-0.57
872.339	0.14
872.506	1.51
872.672	-0.81
872.839	-1.67
873.005	0.61
873.172	2.29
873.338	1.27
873.505	0.19
873.671	0.65
873.838	-0.43
874.004	-1.81
874.171	-2.33
874.337	0.37
874.503	1.09
874.67	0.04
874.836	0.63
875.002	1.72
875.169	0.32
875.335	0.27
875.501	-1.71
875.668	1.29
875.834	-0.15
876	-0.33
876.166	0.54
876.332	1.57
876.499	3.18
876.665	-1.7
876.831	-0.67
876.997	3.92
877.163	1.77
877.329	-1.97
877.495	0.32
877.662	0.69
877.828	0.08
877.994	0.41
878.16	-3.78
878.326	-0.36
878.492	0.9
878.658	0.95
878.824	0.73
878.99	0.23
879.156	-2.41
879.322	0.27
879.487	-1.54
879.653	0.31
879.819	1.39
879.985	0.18
880.151	1.54
880.317	-1.73
880.483	-0.57
880.648	0.1
880.814	-2.47
880.98	0.68
881.146	-3.15
881.312	-0.89
881.477	-1.18
881.643	-0.48
881.809	0.59
881.974	-0.58
882.14	-1.85
882.306	-0.09
882.471	2.42
882.637	-0.69
882.803	0.49
882.968	2.25
883.134	2.74
883.299	0.21
883.465	-1.21
883.63	0.25
883.796	-0.53
883.961	1.14
884.127	0.62
884.292	-4.93
884.458	-2.23
884.623	-2.22
