Data from Apollo_Calib_20240827__AbsoluteIrradiance__641__09-50-00-101.txt Node

Date: Wed Aug 28 09:50:00 BST 2024
User: biology
Spectrometer: FLMT08252
Trigger mode: 0
Integration Time (sec): 5.000000E-1
Scans to average: 5
Electric dark correction enabled: true
Nonlinearity correction enabled: false
Boxcar width: 0
XAxis mode: Wavelengths
Number of Pixels in Spectrum: 3648
>>>>>Begin Spectral Data<<<<<
179.588	-0
179.809	-0
180.03	-0
180.251	-0
180.473	-0
180.694	0
180.915	0
181.136	-0
181.357	0
181.578	-0
181.799	0
182.02	0
182.241	-0
182.462	-0
182.683	0
182.904	-0
183.125	-0
183.346	-0
183.567	0
183.788	-0
184.009	-0
184.23	0
184.451	0
184.672	-0
184.892	-0
185.113	-0
185.334	0
185.555	-0
185.776	-0
185.996	0
186.217	-0
186.438	-0
186.659	-0
186.879	-0
187.1	-0
187.321	-0
187.541	0
187.762	-0
187.983	-0
188.203	-0
188.424	0
188.644	-0
188.865	-0
189.086	-0
189.306	-0
189.527	0
189.747	0
189.968	-0
190.188	-0
190.409	-0
190.629	0
190.849	-0
191.07	-0
191.29	0
191.511	-0
191.731	-0
191.951	-0
192.172	-0
192.392	-0
192.612	-0
192.833	-0
193.053	0
193.273	-0
193.493	-0
193.714	-0
193.934	0
194.154	0
194.374	0
194.594	-0
194.815	0
195.035	-0
195.255	-0
195.475	-0
195.695	0
195.915	0
196.135	-0
196.355	0
196.575	0
196.795	0
197.015	-0
197.235	-0
197.455	-0
197.675	0
197.895	-0
198.115	-0
198.335	0
198.555	-0
198.775	-0
198.995	0
199.214	0
199.434	-0
199.654	-0
199.874	-0
200.094	0.48
200.313	-0.27
200.533	-1.02
200.753	-0.79
200.973	0.52
201.192	0.47
201.412	-0.56
201.632	0.23
201.851	0.48
202.071	-0.91
202.291	-0.63
202.51	-0.94
202.73	0.3
202.95	-0.14
203.169	-0.24
203.389	-0.13
203.608	-0.49
203.828	-0.33
204.047	-0.37
204.267	0.51
204.486	-0.27
204.706	0.24
204.925	0.07
205.145	-0.54
205.364	0.18
205.583	0.67
205.803	-0.16
206.022	-0.45
206.242	-0.19
206.461	-0.16
206.68	-0.31
206.9	-0.03
207.119	0.17
207.338	0.33
207.557	-0.41
207.777	-0.22
207.996	-0.29
208.215	0.49
208.434	-0.16
208.654	-0.52
208.873	-0.05
209.092	0.54
209.311	-0.24
209.53	-0.19
209.749	-0.1
209.968	-0.25
210.187	-0.42
210.407	-0.32
210.626	-0.23
210.845	-0.13
211.064	-0.08
211.283	-0.62
211.502	0.29
211.721	-0.13
211.94	-0.18
212.159	-0.07
212.377	0.05
212.596	0.29
212.815	-0.19
213.034	0.03
213.253	-0.03
213.472	0.13
213.691	-0.11
213.91	-0.47
214.128	-0.16
214.347	0.38
214.566	-0.46
214.785	-0.29
215.003	-0.03
215.222	-0.04
215.441	-0.16
215.66	-0.25
215.878	0.16
216.097	0.09
216.316	-0.09
216.534	-0.17
216.753	-0.09
216.972	0.01
217.19	-0.1
217.409	-0.24
217.627	-0.29
217.846	-0.28
218.064	-0.02
218.283	-0.17
218.501	0.38
218.72	0.18
218.938	-0.34
219.157	-0.12
219.375	0.13
219.594	0.12
219.812	-0.25
220.031	-0.15
220.249	0.52
220.467	0.24
220.686	-0.1
220.904	-0.28
221.122	-0.15
221.341	0.29
221.559	-0.07
221.777	-0.17
221.995	0.02
222.214	-0.05
222.432	-0.13
222.65	0.19
222.868	0.02
223.086	0.15
223.305	0.16
223.523	-0.19
223.741	0.13
223.959	-0.28
224.177	-0.21
224.395	-0.18
224.613	-0.01
224.831	0.04
225.049	-0.18
225.267	0.04
225.485	-0.02
225.703	0.05
225.921	-0.09
226.139	-0.12
226.357	0.05
226.575	0.09
226.793	-0.17
227.011	0.54
227.229	-0.1
227.447	0.09
227.665	-0.21
227.883	-0.2
228.1	-0.04
228.318	0.06
228.536	-0.3
228.754	-0.16
228.972	-0.02
229.189	0.15
229.407	-0.17
229.625	-0.1
229.843	0.06
230.06	0.05
230.278	-0.17
230.496	-0.05
230.713	-0.09
230.931	0.12
231.149	-0.12
231.366	-0.25
231.584	-0.1
231.801	0.24
232.019	-0.14
232.236	-0.1
232.454	-0.12
232.671	0.05
232.889	-0.08
233.106	-0.13
233.324	-0.02
233.541	-0
233.759	-0.13
233.976	-0
234.194	-0.13
234.411	-0.03
234.628	-0.06
234.846	-0.07
235.063	-0.05
235.28	0.02
235.498	-0.09
235.715	-0.1
235.932	0.14
236.149	-0.01
236.367	-0.11
236.584	0.01
236.801	-0.02
237.018	0.08
237.236	-0.04
237.453	-0.21
237.67	0.11
237.887	-0.07
238.104	-0.04
238.321	-0.09
238.538	-0.11
238.755	0.08
238.973	-0.18
239.19	-0.02
239.407	-0.01
239.624	-0.01
239.841	-0.16
240.058	-0.1
240.275	-0.05
240.492	-0.1
240.709	-0.03
240.925	-0.03
241.142	-0.08
241.359	-0.18
241.576	-0.17
241.793	-0.13
242.01	-0.04
242.227	0.09
242.444	0.03
242.66	-0.02
242.877	-0.01
243.094	-0.12
243.311	0.02
243.527	-0.03
243.744	-0.01
243.961	0.09
244.178	-0.07
244.394	-0.04
244.611	0.09
244.828	0.09
245.044	-0.14
245.261	-0.03
245.477	-0.02
245.694	0.06
245.911	-0.12
246.127	-0.02
246.344	0.06
246.56	0.09
246.777	-0.02
246.993	-0.01
247.21	0.05
247.426	-0.07
247.643	-0
247.859	-0.14
248.076	-0.12
248.292	0.2
248.508	-0.08
248.725	-0.01
248.941	-0.08
249.157	0.08
249.374	-0.11
249.59	-0.09
249.806	0.02
250.023	-0.01
250.239	-0.16
250.455	-0.1
250.671	-0.02
250.888	-0.01
251.104	-0.05
251.32	-0.08
251.536	0.01
251.752	-0.1
251.969	0
252.185	-0.04
252.401	0.11
252.617	0.07
252.833	-0.1
253.049	-0
253.265	0.03
253.481	0.05
253.697	0.04
253.913	-0.09
254.129	-0.02
254.345	0.04
254.561	-0.11
254.777	-0.09
254.993	0.06
255.209	0.03
255.425	-0.01
255.641	-0.03
255.857	-0.01
256.073	-0.02
256.288	-0.17
256.504	-0.09
256.72	0.01
256.936	0.01
257.152	-0.03
257.367	-0.06
257.583	0.05
257.799	0.02
258.015	-0.08
258.23	-0.05
258.446	0.08
258.662	-0.02
258.877	-0.1
259.093	-0.06
259.309	-0.05
259.524	-0.01
259.74	-0.04
259.955	-0.12
260.171	-0.03
260.387	-0.07
260.602	0.02
260.818	-0.05
261.033	-0.08
261.249	-0.05
261.464	-0.05
261.68	-0.12
261.895	-0.05
262.11	0.05
262.326	-0.08
262.541	-0.09
262.757	0.03
262.972	-0
263.187	0.01
263.403	0
263.618	0.08
263.833	-0.08
264.049	-0.04
264.264	0
264.479	0.03
264.694	0.02
264.91	-0.1
265.125	0.02
265.34	0.03
265.555	0.19
265.77	0.04
265.986	-0.03
266.201	0.08
266.416	0.09
266.631	-0.04
266.846	-0.05
267.061	0.02
267.276	0.01
267.491	-0.11
267.706	-0.01
267.921	0.01
268.136	-0
268.351	0.01
268.566	-0.09
268.781	0.07
268.996	0.01
269.211	-0.06
269.426	-0.08
269.641	0.01
269.856	-0
270.071	-0.11
270.285	-0.12
270.5	0.07
270.715	0.07
270.93	-0.02
271.145	-0.01
271.359	0.06
271.574	-0.09
271.789	-0.01
272.004	-0.1
272.218	-0.04
272.433	0.09
272.648	-0.06
272.862	0.03
273.077	-0.06
273.292	-0.02
273.506	-0.07
273.721	-0.04
273.936	0.04
274.15	0.05
274.365	-0.05
274.579	0.04
274.794	-0.02
275.008	0.04
275.223	-0.1
275.437	-0.05
275.652	0.04
275.866	0.01
276.081	-0.01
276.295	0.04
276.509	0.03
276.724	0.02
276.938	0.02
277.153	0.01
277.367	0.07
277.581	-0.04
277.796	-0.02
278.01	-0.05
278.224	0.04
278.438	0.09
278.653	-0.06
278.867	-0.05
279.081	-0.2
279.295	-0.09
279.51	0.06
279.724	-0.11
279.938	0.03
280.152	0.01
280.366	-0.05
280.58	0.02
280.794	0.09
281.008	0.02
281.222	0.05
281.437	0.05
281.651	-0.02
281.865	0.07
282.079	-0.06
282.293	-0.08
282.507	-0.1
282.721	0.01
282.935	-0.01
283.148	-0.1
283.362	-0.06
283.576	-0.05
283.79	-0.03
284.004	-0.07
284.218	0.06
284.432	-0.07
284.646	-0
284.859	-0.02
285.073	-0.09
285.287	0.06
285.501	0.03
285.714	-0.02
285.928	0.03
286.142	-0.03
286.356	-0.05
286.569	-0.03
286.783	0.03
286.997	-0.03
287.21	0.02
287.424	0.04
287.637	0
287.851	-0
288.065	0.01
288.278	-0.01
288.492	-0.01
288.705	-0.06
288.919	0.04
289.132	-0.08
289.346	0.07
289.559	-0.07
289.773	-0.05
289.986	-0.11
290.2	0.01
290.413	0.05
290.626	-0.1
290.84	-0.02
291.053	-0.03
291.267	0.05
291.48	0.04
291.693	-0
291.906	-0.07
292.12	-0.01
292.333	0
292.546	-0.03
292.76	0.07
292.973	-0.01
293.186	0.08
293.399	-0.02
293.612	-0
293.826	0
294.039	0.02
294.252	-0.03
294.465	0.01
294.678	0.01
294.891	-0.02
295.104	-0.07
295.317	-0.04
295.53	0.02
295.743	-0.01
295.956	-0
296.169	0.07
296.382	0.02
296.595	-0
296.808	-0
297.021	0.05
297.234	0.02
297.447	-0.02
297.66	-0.02
297.873	0.03
298.086	0.04
298.299	-0.04
298.511	-0.07
298.724	-0.04
298.937	-0.05
299.15	-0.04
299.363	-0.01
299.575	0.02
299.788	0
300.001	-0.02
300.213	-0.08
300.426	0
300.639	-0.04
300.852	-0.01
301.064	0.02
301.277	0.06
301.489	0
301.702	0.01
301.915	-0.01
302.127	-0.01
302.34	0.01
302.552	0.01
302.765	-0.02
302.977	0.06
303.19	-0.01
303.402	-0.04
303.615	-0.02
303.827	-0.05
304.04	-0.03
304.252	0.05
304.464	-0.04
304.677	0.08
304.889	-0.01
305.102	-0.01
305.314	-0.02
305.526	0.02
305.739	0.03
305.951	-0.04
306.163	-0.03
306.375	0.08
306.588	-0.04
306.8	-0.05
307.012	-0.07
307.224	-0
307.436	0.06
307.649	-0.04
307.861	0
308.073	0.05
308.285	-0.04
308.497	-0.05
308.709	-0.02
308.921	-0.04
309.133	0.08
309.346	-0.03
309.558	-0
309.77	0.01
309.982	0.06
310.194	0.03
310.406	-0.03
310.617	0.06
310.829	-0.03
311.041	0.01
311.253	-0.05
311.465	-0.01
311.677	-0.01
311.889	-0.02
312.101	-0.04
312.313	0.06
312.524	0.05
312.736	-0.08
312.948	-0.04
313.16	0.06
313.372	-0.01
313.583	0.04
313.795	-0.04
314.007	0.01
314.218	0.04
314.43	-0
314.642	-0.04
314.853	-0
315.065	0.03
315.277	-0.01
315.488	0
315.7	0.04
315.912	0.01
316.123	-0.01
316.335	-0
316.546	0.06
316.758	0.01
316.969	-0.03
317.181	-0.01
317.392	0.02
317.604	0.05
317.815	-0.04
318.026	-0.04
318.238	0.02
318.449	0.01
318.661	-0.06
318.872	-0.04
319.083	-0.04
319.295	-0.04
319.506	-0.04
319.717	0.01
319.929	0.01
320.14	-0.03
320.351	-0
320.562	-0.02
320.774	-0.01
320.985	-0.01
321.196	-0.05
321.407	-0.02
321.618	0
321.829	-0.01
322.041	-0
322.252	-0.01
322.463	-0.01
322.674	-0.01
322.885	-0.09
323.096	-0.04
323.307	-0.02
323.518	-0.02
323.729	-0.05
323.94	0.02
324.151	-0.01
324.362	0.01
324.573	0.02
324.784	-0.05
324.995	0.06
325.206	0.01
325.417	-0.07
325.628	-0.04
325.838	-0.02
326.049	-0.01
326.26	0.04
326.471	-0.07
326.682	0
326.892	0
327.103	-0.09
327.314	-0.07
327.525	0.02
327.735	0.06
327.946	-0.04
328.157	-0.05
328.368	0.01
328.578	-0.04
328.789	0.02
328.999	-0.01
329.21	-0.01
329.421	0.01
329.631	-0.05
329.842	-0.03
330.052	-0.02
330.263	0.06
330.473	0.04
330.684	-0.01
330.894	-0.02
331.105	0.01
331.315	-0.02
331.526	-0.07
331.736	0.07
331.947	0.02
332.157	0.01
332.367	-0.08
332.578	-0.04
332.788	0.04
332.999	-0.03
333.209	-0.01
333.419	-0.04
333.629	-0.04
333.84	0
334.05	-0.04
334.26	0.05
334.47	0.04
334.681	0.05
334.891	-0.03
335.101	0.04
335.311	0.07
335.521	-0.01
335.732	-0.02
335.942	0.07
336.152	-0.02
336.362	-0.02
336.572	0.03
336.782	0
336.992	-0.04
337.202	-0
337.412	-0.02
337.622	0.01
337.832	0.02
338.042	-0.03
338.252	-0.05
338.462	-0.03
338.672	-0
338.882	-0.05
339.092	-0.02
339.302	0.03
339.511	0.05
339.721	-0.07
339.931	-0.06
340.141	0.05
340.351	0.04
340.561	0.02
340.77	0.01
340.98	-0.02
341.19	-0.01
341.4	-0.09
341.609	-0.04
341.819	-0
342.029	-0.02
342.238	-0.02
342.448	-0.03
342.658	0.04
342.867	-0.02
343.077	-0.01
343.286	0.02
343.496	-0.02
343.706	0.04
343.915	-0.06
344.125	0.04
344.334	0.02
344.544	-0.07
344.753	-0.01
344.963	-0.03
345.172	-0.01
345.381	-0
345.591	-0.03
345.8	-0
346.01	0.03
346.219	0.04
346.428	-0.02
346.638	0
346.847	-0
347.056	0.03
347.266	-0.06
347.475	-0.02
347.684	-0.01
347.893	0.05
348.103	-0
348.312	0
348.521	-0
348.73	-0
348.94	0.02
349.149	-0.02
349.358	-0.03
349.567	0.01
349.776	-0.08
349.985	-0.03
350.194	0.01
350.403	0.04
350.612	-0.06
350.821	-0.02
351.03	-0.05
351.239	-0.05
351.448	-0
351.657	-0.02
351.866	0.06
352.075	-0.01
352.284	0.01
352.493	-0.04
352.702	0.07
352.911	0.01
353.12	-0.01
353.329	-0.03
353.538	0
353.746	-0.03
353.955	-0.04
354.164	-0.02
354.373	-0.01
354.582	0.05
354.79	-0
354.999	0.02
355.208	0
355.416	0.02
355.625	-0.04
355.834	-0.03
356.042	-0.01
356.251	-0.03
356.46	-0.02
356.668	0.01
356.877	0.04
357.085	0.08
357.294	-0.08
357.503	0.03
357.711	-0.03
357.92	0.11
358.128	-0.03
358.337	-0.04
358.545	0
358.754	-0.06
358.962	0.01
359.17	-0.02
359.379	0.01
359.587	0.03
359.796	-0.03
360.004	0.01
360.212	0.02
360.421	0.07
360.629	-0.01
360.837	0.01
361.046	0.03
361.254	0.06
361.462	-0.02
361.67	-0.06
361.879	0
362.087	0.06
362.295	-0.01
362.503	-0.03
362.711	-0.05
362.92	-0.05
363.128	-0.02
363.336	-0.05
363.544	-0.07
363.752	-0.02
363.96	-0.04
364.168	-0.02
364.376	0.01
364.584	0
364.792	0
365	0.02
365.208	-0.03
365.416	0.05
365.624	0.03
365.832	-0.05
366.04	0.06
366.248	-0.01
366.456	-0.03
366.664	-0.03
366.872	0
367.079	-0.03
367.287	-0.01
367.495	0
367.703	-0.02
367.911	-0.01
368.118	-0.01
368.326	-0.01
368.534	-0.07
368.742	0.04
368.949	-0.03
369.157	-0.05
369.365	0.02
369.572	-0.02
369.78	-0.04
369.988	0.04
370.195	0.03
370.403	0.01
370.61	-0.04
370.818	0.01
371.026	0.06
371.233	-0.06
371.441	-0
371.648	-0.02
371.856	-0.02
372.063	-0.01
372.271	-0.04
372.478	-0.03
372.685	-0.05
372.893	0.01
373.1	-0.03
373.308	-0.01
373.515	0.03
373.722	0.01
373.93	-0.03
374.137	0.04
374.344	0.11
374.552	0
374.759	0.01
374.966	0.04
375.173	-0
375.381	-0.02
375.588	-0.05
375.795	-0.06
376.002	-0.04
376.209	-0.05
376.417	0.01
376.624	-0.05
376.831	0
377.038	-0.02
377.245	-0.06
377.452	-0.02
377.659	-0.01
377.866	-0.02
378.073	0.01
378.28	-0.02
378.487	0.01
378.694	0.04
378.901	-0.03
379.108	-0.01
379.315	0.02
379.522	0.03
379.729	-0.02
379.936	-0.04
380.143	-0
380.35	-0.03
380.557	-0.02
380.763	-0.02
380.97	-0.01
381.177	0.03
381.384	0.05
381.591	-0.02
381.797	-0.03
382.004	0.02
382.211	-0
382.418	-0.03
382.624	0
382.831	-0.01
383.038	-0.05
383.244	0.02
383.451	-0.04
383.658	0.01
383.864	-0.03
384.071	-0.01
384.277	0.04
384.484	-0.03
384.69	0.02
384.897	-0.04
385.103	-0.02
385.31	-0.03
385.516	-0.05
385.723	-0.07
385.929	-0.02
386.136	-0.05
386.342	-0.01
386.549	-0.01
386.755	-0.01
386.961	0.01
387.168	-0.04
387.374	-0.01
387.58	0.04
387.787	0
387.993	0.01
388.199	-0.01
388.406	-0.04
388.612	-0.02
388.818	-0.06
389.024	-0.07
389.231	0.02
389.437	0.02
389.643	0.03
389.849	-0
390.055	-0.01
390.261	-0.02
390.467	0.02
390.674	-0.04
390.88	-0
391.086	-0.05
391.292	-0.03
391.498	0
391.704	0.04
391.91	-0.02
392.116	0
392.322	-0.1
392.528	-0.01
392.734	0.01
392.94	-0.06
393.146	-0.05
393.352	-0.03
393.557	-0.02
393.763	-0.02
393.969	0.02
394.175	0.01
394.381	-0.05
394.587	-0.06
394.792	-0.04
394.998	0.03
395.204	0.04
395.41	-0.04
395.615	0.01
395.821	0.01
396.027	-0.03
396.233	-0.05
396.438	-0.04
396.644	0.09
396.85	0.01
397.055	-0.03
397.261	-0.03
397.466	0.09
397.672	-0.02
397.878	-0.03
398.083	0.05
398.289	-0.04
398.494	0.04
398.7	0.03
398.905	-0.09
399.111	0.08
399.316	-0.06
399.522	-0.04
399.727	0.02
399.932	-0.04
400.138	-0.02
400.343	-0.02
400.549	0.01
400.754	-0.01
400.959	0.04
401.165	-0.01
401.37	0.02
401.575	0.04
401.78	-0
401.986	-0.04
402.191	0.01
402.396	-0.03
402.601	-0.04
402.807	-0.02
403.012	-0.01
403.217	0.02
403.422	-0.01
403.627	-0.03
403.832	-0.03
404.037	0.02
404.243	-0
404.448	-0.07
404.653	-0.02
404.858	0.05
405.063	-0.01
405.268	-0.03
405.473	-0.02
405.678	-0.06
405.883	0.15
406.088	-0.02
406.293	-0.05
406.498	-0.06
406.703	0.02
406.907	-0
407.112	-0.04
407.317	-0.04
407.522	-0.02
407.727	-0.09
407.932	-0
408.136	-0
408.341	-0.05
408.546	-0.01
408.751	-0
408.956	0
409.16	0.01
409.365	-0.01
409.57	0.03
409.774	-0.01
409.979	0.03
410.184	0.02
410.388	-0.02
410.593	0
410.798	-0.01
411.002	-0.04
411.207	0.01
411.411	0.03
411.616	-0.08
411.82	-0.09
412.025	0.03
412.229	-0.01
412.434	0.05
412.638	-0.02
412.843	-0.01
413.047	0.02
413.252	-0.05
413.456	-0.03
413.66	0.03
413.865	-0.06
414.069	0.05
414.273	-0.02
414.478	-0.05
414.682	-0.04
414.886	-0.06
415.091	-0.07
415.295	-0.07
415.499	0.02
415.703	-0.01
415.908	0.01
416.112	-0.11
416.316	-0
416.52	-0.02
416.724	-0.08
416.929	-0.06
417.133	0.07
417.337	-0.01
417.541	-0.03
417.745	-0.02
417.949	-0
418.153	-0.04
418.357	-0.05
418.561	0.09
418.765	-0
418.969	0.09
419.173	0.03
419.377	-0.03
419.581	0.08
419.785	-0.05
419.989	-0.06
420.193	-0.06
420.397	-0.04
420.601	0.05
420.804	-0
421.008	-0.04
421.212	-0.03
421.416	-0.02
421.62	-0.02
421.823	0.01
422.027	0.03
422.231	0.02
422.435	-0.06
422.638	0.03
422.842	-0.01
423.046	-0.03
423.249	0.03
423.453	-0.04
423.657	-0
423.86	0
424.064	-0.02
424.268	0.04
424.471	-0
424.675	0.07
424.878	0.03
425.082	-0.01
425.285	0.03
425.489	-0.04
425.692	-0.01
425.896	-0.03
426.099	-0.01
426.303	-0.08
426.506	-0.06
426.71	0.03
426.913	0.05
427.116	0.04
427.32	-0.01
427.523	-0.01
427.726	0.09
427.93	-0.07
428.133	-0.02
428.336	-0.02
428.54	-0.05
428.743	-0.01
428.946	0
429.149	-0.02
429.353	-0.01
429.556	-0.04
429.759	-0.07
429.962	-0.03
430.165	-0.02
430.368	-0.01
430.571	-0.03
430.775	0.01
430.978	-0.04
431.181	0.03
431.384	-0.02
431.587	-0.04
431.79	-0.04
431.993	-0.03
432.196	-0.03
432.399	0
432.602	0.04
432.805	-0.05
433.008	-0
433.211	-0.1
433.414	0.07
433.616	0.01
433.819	-0
434.022	-0.16
434.225	0.03
434.428	0.03
434.631	0.05
434.833	-0.02
435.036	-0.03
435.239	0.01
435.442	-0
435.645	-0.03
435.847	-0.04
436.05	0.03
436.253	-0.02
436.455	-0.07
436.658	-0.05
436.861	0.08
437.063	-0.06
437.266	-0.02
437.468	-0.06
437.671	0.08
437.874	0.02
438.076	-0.07
438.279	-0.09
438.481	-0.04
438.684	-0.06
438.886	-0.02
439.089	-0.07
439.291	0.01
439.494	0.02
439.696	-0.09
439.899	-0.03
440.101	-0.02
440.303	-0.05
440.506	0.03
440.708	-0.06
440.91	0.04
441.113	-0.07
441.315	0
441.517	-0.06
441.72	0.03
441.922	-0.07
442.124	-0.12
442.326	-0.03
442.529	0.03
442.731	-0.07
442.933	0.05
443.135	-0.05
443.337	-0.01
443.539	-0.05
443.742	-0.05
443.944	-0.04
444.146	-0.05
444.348	-0.01
444.55	-0.05
444.752	-0.03
444.954	-0.04
445.156	-0
445.358	-0.02
445.56	0.04
445.762	-0.02
445.964	-0.04
446.166	-0.02
446.368	-0.06
446.57	-0
446.772	-0.04
446.974	-0.03
447.175	-0.02
447.377	-0.08
447.579	-0.08
447.781	-0.09
447.983	0.08
448.184	-0.01
448.386	0.01
448.588	-0.04
448.79	-0.03
448.991	0
449.193	-0.05
449.395	-0.04
449.597	0.01
449.798	-0.02
450	0.01
450.202	-0.05
450.403	-0.02
450.605	-0.02
450.806	-0.04
451.008	-0.1
451.21	-0.04
451.411	-0.06
451.613	-0.04
451.814	-0.01
452.016	-0.05
452.217	0.02
452.419	0.04
452.62	-0.04
452.821	-0.04
453.023	0.05
453.224	0.02
453.426	-0.01
453.627	0.03
453.828	0.02
454.03	-0.02
454.231	-0
454.432	-0.1
454.634	0.03
454.835	-0.03
455.036	-0.07
455.238	0.02
455.439	0
455.64	-0.05
455.841	-0.06
456.042	0.05
456.244	0.02
456.445	-0.04
456.646	-0.09
456.847	-0.03
457.048	0
457.249	0.03
457.45	0.11
457.651	-0.07
457.852	0.05
458.054	0.02
458.255	-0.02
458.456	-0
458.657	-0.03
458.858	-0.07
459.058	-0.02
459.259	0.05
459.46	-0.01
459.661	-0.07
459.862	0.09
460.063	-0.03
460.264	0.05
460.465	-0.07
460.666	0.11
460.866	-0.02
461.067	0.04
461.268	-0.02
461.469	-0.02
461.67	-0.04
461.87	-0.02
462.071	-0.04
462.272	-0.03
462.473	-0.03
462.673	-0.01
462.874	-0.06
463.075	-0.02
463.275	-0.04
463.476	-0.04
463.676	-0
463.877	0.01
464.078	0
464.278	-0.02
464.479	-0.02
464.679	-0.02
464.88	-0.02
465.08	0.11
465.281	-0.03
465.481	-0.02
465.682	-0.06
465.882	0.01
466.083	-0.02
466.283	-0.02
466.483	-0.05
466.684	-0.09
466.884	-0.04
467.085	-0.02
467.285	-0
467.485	-0.06
467.686	-0.02
467.886	-0.06
468.086	-0.01
468.286	0.03
468.487	-0.01
468.687	-0.06
468.887	-0.03
469.087	0.01
469.287	-0.02
469.488	-0.09
469.688	-0.02
469.888	-0.01
470.088	0.05
470.288	0.06
470.488	-0.03
470.688	-0.03
470.888	-0.06
471.088	-0.04
471.288	0
471.488	-0.01
471.688	0.02
471.888	-0.01
472.088	0.07
472.288	0.02
472.488	-0.02
472.688	-0.01
472.888	-0
473.088	0.01
473.288	-0.01
473.488	-0
473.688	0.05
473.887	0
474.087	-0.02
474.287	0
474.487	-0.08
474.687	0.01
474.886	-0.05
475.086	-0.01
475.286	0.01
475.486	0
475.685	-0.02
475.885	-0.05
476.085	0.01
476.284	0.02
476.484	-0.04
476.684	0
476.883	0.04
477.083	0.01
477.282	-0.04
477.482	0.04
477.681	0.07
477.881	-0
478.08	-0.03
478.28	-0.02
478.479	-0
478.679	0.06
478.878	-0.03
479.078	-0.03
479.277	-0.03
479.477	-0.03
479.676	0.02
479.875	-0.02
480.075	-0.08
480.274	0.04
480.473	0.02
480.673	-0.03
480.872	0.06
481.071	0
481.271	-0.02
481.47	-0.05
481.669	-0.03
481.868	-0.01
482.067	-0.06
482.267	-0.06
482.466	-0.03
482.665	-0.03
482.864	-0.05
483.063	-0.07
483.262	0
483.461	0.04
483.661	0
483.86	-0.01
484.059	-0.02
484.258	0.01
484.457	-0.06
484.656	-0
484.855	0.03
485.054	-0.05
485.253	-0.03
485.452	-0.01
485.651	-0.02
485.849	0
486.048	-0.02
486.247	-0.06
486.446	0.01
486.645	-0.03
486.844	-0.04
487.043	-0.01
487.241	0.01
487.44	-0.02
487.639	-0.02
487.838	0
488.037	-0.01
488.235	0.02
488.434	0.01
488.633	-0.03
488.831	-0.01
489.03	0.02
489.229	-0.01
489.427	-0.02
489.626	0.04
489.825	0.04
490.023	0
490.222	-0.01
490.42	0
490.619	0.01
490.817	0.01
491.016	-0.04
491.214	0.02
491.413	-0.02
491.611	-0.01
491.81	-0.02
492.008	0.03
492.207	0.02
492.405	-0
492.604	-0.06
492.802	-0.02
493	-0
493.199	-0.03
493.397	-0
493.595	-0
493.794	-0
493.992	0.06
494.19	-0.02
494.388	0.01
494.587	-0.02
494.785	0.01
494.983	-0.05
495.181	-0.01
495.379	-0.02
495.578	-0.01
495.776	0
495.974	0.01
496.172	-0
496.37	-0.03
496.568	-0.03
496.766	-0.01
496.964	0.02
497.162	-0.01
497.36	-0.04
497.558	0.03
497.756	0.03
497.954	-0.01
498.152	-0.05
498.35	-0
498.548	-0.01
498.746	-0.01
498.944	-0.04
499.142	-0.02
499.34	-0.04
499.538	0.02
499.736	-0.03
499.933	0.03
500.131	-0
500.329	-0.01
500.527	0.01
500.725	0.02
500.922	0.01
501.12	0
501.318	0
501.516	-0.04
501.713	-0
501.911	-0.02
502.109	-0.04
502.306	-0.01
502.504	-0
502.701	-0.02
502.899	-0.02
503.097	0.03
503.294	-0
503.492	-0.01
503.689	0.01
503.887	0.01
504.084	0.05
504.282	-0
504.479	-0.02
504.677	-0.02
504.874	-0.04
505.072	-0.01
505.269	-0.01
505.466	0.01
505.664	0.01
505.861	-0.04
506.059	-0.04
506.256	0.01
506.453	-0.01
506.651	0.04
506.848	0.03
507.045	0
507.242	0
507.44	-0.02
507.637	0.01
507.834	-0.02
508.031	-0.02
508.229	-0.06
508.426	-0.01
508.623	-0
508.82	-0.02
509.017	-0.03
509.214	-0.02
509.411	-0.02
509.608	-0.04
509.805	-0.01
510.003	-0.02
510.2	-0.03
510.397	0.02
510.594	-0.04
510.791	-0.04
510.988	-0.01
511.184	0.01
511.381	-0.01
511.578	-0.02
511.775	-0
511.972	-0.03
512.169	-0.01
512.366	-0.01
512.563	0.02
512.76	-0.01
512.956	0.02
513.153	-0.02
513.35	0.02
513.547	-0.03
513.744	-0.03
513.94	-0.02
514.137	0
514.334	-0.01
514.53	0
514.727	0.01
514.924	0.02
515.12	-0.02
515.317	-0.04
515.514	0
515.71	-0.04
515.907	-0.01
516.103	-0
516.3	-0
516.497	0.02
516.693	-0.01
516.89	-0.01
517.086	-0.03
517.283	0.04
517.479	0
517.676	-0.01
517.872	-0.02
518.068	-0.01
518.265	-0.01
518.461	-0.02
518.658	-0.03
518.854	0
519.05	-0.01
519.247	-0.02
519.443	0
519.639	-0.01
519.836	-0.01
520.032	-0.01
520.228	-0.01
520.424	0.04
520.621	-0.01
520.817	-0
521.013	0
521.209	-0
521.405	0.02
521.601	-0.02
521.798	-0.01
521.994	0.02
522.19	-0.01
522.386	-0.02
522.582	-0.03
522.778	-0.02
522.974	-0.02
523.17	0
523.366	-0.02
523.562	0.01
523.758	-0.02
523.954	-0.01
524.15	-0.02
524.346	-0
524.542	-0.02
524.738	-0.02
524.934	-0.02
525.129	-0.07
525.325	0
525.521	0.01
525.717	0
525.913	0.01
526.109	-0.01
526.304	-0.02
526.5	-0.03
526.696	0.01
526.892	0.02
527.087	-0
527.283	-0.04
527.479	0.01
527.674	-0.03
527.87	0
528.066	-0
528.261	0.01
528.457	-0
528.653	-0.01
528.848	-0.02
529.044	-0
529.239	-0
529.435	0.04
529.63	-0.01
529.826	0.02
530.021	0
530.217	-0
530.412	-0.02
530.608	-0.02
530.803	-0.03
530.999	-0.02
531.194	-0.04
531.389	-0
531.585	-0.06
531.78	-0.01
531.975	0.01
532.171	0.02
532.366	-0.04
532.561	0
532.757	-0.04
532.952	-0
533.147	0
533.342	-0.01
533.538	-0.02
533.733	0.03
533.928	-0.01
534.123	-0.03
534.318	-0.06
534.513	-0.02
534.709	-0.01
534.904	-0.02
535.099	0
535.294	-0.01
535.489	-0.02
535.684	-0.02
535.879	-0.03
536.074	-0.01
536.269	-0.04
536.464	-0.02
536.659	-0
536.854	-0.01
537.049	0.01
537.244	0
537.439	-0.01
537.634	0
537.828	-0.01
538.023	-0.01
538.218	-0.04
538.413	-0.01
538.608	-0.03
538.803	0
538.997	-0.05
539.192	0
539.387	0.02
539.582	-0.01
539.776	-0.01
539.971	-0.01
540.166	-0.01
540.36	-0.04
540.555	0.01
540.75	-0.01
540.944	-0.01
541.139	-0.05
541.334	-0.04
541.528	0
541.723	0.01
541.917	-0.02
542.112	-0.04
542.306	-0.02
542.501	-0.02
542.695	-0
542.89	-0.04
543.084	-0
543.279	-0.02
543.473	-0.01
543.668	0
543.862	-0.02
544.056	-0
544.251	0.01
544.445	0
544.64	-0
544.834	-0.02
545.028	0
545.222	-0
545.417	0.01
545.611	-0
545.805	-0
546	-0.01
546.194	-0.02
546.388	-0.04
546.582	-0.01
546.776	-0.01
546.97	-0
547.165	0
547.359	0.01
547.553	-0.04
547.747	-0.01
547.941	-0
548.135	0.01
548.329	0.03
548.523	-0.01
548.717	-0
548.911	-0.02
549.105	0.01
549.299	-0.02
549.493	0.02
549.687	0.01
549.881	-0.01
550.075	-0.01
550.269	-0.03
550.463	0.01
550.657	-0.03
550.85	-0.01
551.044	-0.03
551.238	-0.01
551.432	-0.03
551.626	-0.01
551.82	-0.01
552.013	-0.03
552.207	-0.01
552.401	-0.01
552.594	-0.01
552.788	-0.02
552.982	-0.02
553.176	-0.01
553.369	0.03
553.563	0.01
553.756	-0.04
553.95	-0.04
554.144	-0.01
554.337	0
554.531	0.01
554.724	0.01
554.918	0.01
555.111	0.03
555.305	0.01
555.498	0.03
555.692	0.02
555.885	-0.01
556.079	0
556.272	-0.02
556.466	0.01
556.659	-0
556.852	-0.04
557.046	-0.02
557.239	0.01
557.432	-0.04
557.626	-0.02
557.819	-0
558.012	0.01
558.206	0.01
558.399	-0.03
558.592	-0
558.785	-0.01
558.979	0.01
559.172	-0.01
559.365	0.01
559.558	-0.02
559.751	-0.02
559.944	-0
560.138	-0.02
560.331	-0.01
560.524	-0.01
560.717	-0.01
560.91	-0
561.103	0.02
561.296	0
561.489	0
561.682	0
561.875	0
562.068	0.01
562.261	0.02
562.454	0.02
562.647	0.01
562.84	0.01
563.032	-0.02
563.225	-0
563.418	-0.03
563.611	-0.03
563.804	0
563.997	-0.04
564.19	-0.04
564.382	-0.07
564.575	-0.01
564.768	-0.01
564.961	-0.02
565.153	-0.01
565.346	0.03
565.539	0.02
565.731	0.01
565.924	0.02
566.117	0.01
566.309	-0.01
566.502	-0.04
566.695	-0.01
566.887	-0.02
567.08	-0.02
567.272	-0.02
567.465	-0.02
567.657	0.01
567.85	0.01
568.042	0.01
568.235	0.01
568.427	-0.02
568.62	-0.01
568.812	0.02
569.005	0.01
569.197	-0.06
569.389	-0.03
569.582	-0
569.774	0
569.966	-0.04
570.159	-0.06
570.351	0.03
570.543	-0.03
570.736	-0.02
570.928	-0.03
571.12	-0.01
571.312	-0.03
571.505	-0.03
571.697	0.01
571.889	-0.02
572.081	-0.01
572.273	-0.03
572.465	0.02
572.658	-0.02
572.85	0
573.042	0
573.234	-0.02
573.426	0.02
573.618	-0.03
573.81	-0.02
574.002	0.02
574.194	0.03
574.386	-0.04
574.578	-0.07
574.77	-0.03
574.962	-0.01
575.154	-0.04
575.346	-0.03
575.538	-0.02
575.729	-0.04
575.921	-0.03
576.113	-0.04
576.305	0.01
576.497	-0.03
576.689	-0.02
576.88	-0.04
577.072	0.01
577.264	-0.02
577.456	-0
577.647	-0.08
577.839	-0.05
578.031	0.02
578.223	-0.02
578.414	-0.03
578.606	-0
578.798	0
578.989	-0.04
579.181	-0.02
579.372	0.01
579.564	-0.03
579.755	-0.01
579.947	-0
580.139	0.01
580.33	-0.04
580.522	-0.05
580.713	-0.07
580.905	0.01
581.096	-0.01
581.287	-0.01
581.479	-0.02
581.67	0.02
581.862	-0.01
582.053	-0.03
582.244	-0.06
582.436	-0.02
582.627	-0.02
582.818	-0.01
583.01	-0.04
583.201	0.02
583.392	0.01
583.583	0
583.775	-0.02
583.966	-0.02
584.157	-0.01
584.348	-0.02
584.54	-0.06
584.731	-0
584.922	-0
585.113	-0.04
585.304	0.02
585.495	0.01
585.686	-0.01
585.877	-0.02
586.068	0
586.259	-0.01
586.45	-0.02
586.641	-0.04
586.832	-0.06
587.023	-0.02
587.214	-0.03
587.405	-0.01
587.596	-0.02
587.787	-0.01
587.978	-0
588.169	-0.04
588.36	-0.02
588.551	-0.02
588.742	-0.04
588.932	-0.02
589.123	-0.02
589.314	0.02
589.505	-0
589.696	0
589.886	-0.02
590.077	-0.04
590.268	-0.01
590.458	-0.06
590.649	-0.05
590.84	-0
591.03	-0.03
591.221	-0.06
591.412	-0.05
591.602	-0.02
591.793	0.02
591.984	-0.04
592.174	-0.04
592.365	0.04
592.555	-0.04
592.746	0
592.936	0.02
593.127	0.01
593.317	0
593.508	-0.04
593.698	-0.04
593.889	0.01
594.079	-0.02
594.269	-0.04
594.46	-0.01
594.65	-0.02
594.84	-0.02
595.031	-0.03
595.221	-0.02
595.411	-0.05
595.602	0.02
595.792	-0.02
595.982	-0.04
596.172	0.04
596.363	-0.02
596.553	-0
596.743	0.01
596.933	0
597.123	0.01
597.314	-0.02
597.504	-0.01
597.694	0.01
597.884	0.02
598.074	-0.03
598.264	-0.06
598.454	-0.02
598.644	-0.02
598.834	-0.01
599.024	-0.04
599.214	-0.01
599.404	0.01
599.594	-0.03
599.784	-0.02
599.974	0.01
600.164	0.02
600.354	-0.01
600.544	-0.06
600.734	-0.01
600.924	0.03
601.114	-0.04
601.303	-0.01
601.493	-0
601.683	-0.01
601.873	-0
602.063	-0.04
602.252	0.01
602.442	-0.09
602.632	-0.03
602.821	-0.05
603.011	0.03
603.201	-0.02
603.39	-0.01
603.58	-0.01
603.77	-0.01
603.959	0.01
604.149	-0.03
604.339	-0.01
604.528	0.01
604.718	0.01
604.907	-0.02
605.097	-0.03
605.286	-0.05
605.476	-0
605.665	0.01
605.855	-0.03
606.044	0.06
606.234	0
606.423	-0.02
606.612	-0.04
606.802	-0.02
606.991	0
607.181	0
607.37	-0.06
607.559	-0.03
607.749	-0.09
607.938	-0.03
608.127	-0.01
608.316	-0.03
608.506	-0.03
608.695	0
608.884	-0.04
609.073	-0.02
609.263	0
609.452	0.01
609.641	0.01
609.83	-0.02
610.019	0
610.208	-0.02
610.397	0.01
610.586	0.01
610.775	-0.06
610.965	-0.02
611.154	-0.03
611.343	-0.05
611.532	0.01
611.721	-0.04
611.91	-0.02
612.099	0.01
612.287	-0.02
612.476	-0.04
612.665	-0.04
612.854	-0.02
613.043	-0
613.232	-0.02
613.421	-0.04
613.61	-0.01
613.798	-0.02
613.987	0.02
614.176	-0.06
614.365	0.03
614.554	-0.02
614.742	0.01
614.931	-0.04
615.12	0.03
615.309	-0.02
615.497	0.02
615.686	-0.04
615.875	-0.03
616.063	-0.02
616.252	-0.05
616.44	-0.02
616.629	-0.01
616.818	0.02
617.006	-0.02
617.195	-0.01
617.383	-0.03
617.572	-0
617.76	-0.05
617.949	-0.01
618.137	-0.01
618.326	0.04
618.514	-0.04
618.703	-0.05
618.891	0.06
619.079	-0.03
619.268	-0.01
619.456	-0.04
619.644	0.03
619.833	-0.02
620.021	-0.04
620.209	-0.06
620.398	0
620.586	-0.02
620.774	-0.02
620.962	-0.01
621.151	0.06
621.339	-0.03
621.527	-0.07
621.715	-0.05
621.903	-0.03
622.092	-0.06
622.28	0.01
622.468	-0.03
622.656	-0.03
622.844	0.01
623.032	-0.04
623.22	-0.08
623.408	0.01
623.596	-0.01
623.784	-0.02
623.972	-0.03
624.16	-0.06
624.348	0.01
624.536	-0.01
624.724	-0.02
624.912	0.02
625.1	0.03
625.288	-0.07
625.476	-0.05
625.664	-0.02
625.851	-0.05
626.039	-0.01
626.227	-0.01
626.415	-0.01
626.603	-0.07
626.79	0.01
626.978	-0.02
627.166	0.04
627.354	-0.01
627.541	-0.05
627.729	-0.06
627.917	-0.01
628.104	0.02
628.292	0.02
628.48	-0.01
628.667	0
628.855	-0.01
629.042	0.01
629.23	-0.01
629.418	-0.04
629.605	-0.02
629.793	-0.01
629.98	-0.04
630.168	-0.05
630.355	-0.01
630.543	-0.01
630.73	-0.05
630.917	-0.02
631.105	0.07
631.292	-0.07
631.48	-0.02
631.667	0.01
631.854	0.01
632.042	-0.02
632.229	-0.05
632.416	-0.01
632.604	-0
632.791	-0.04
632.978	0.01
633.165	0
633.353	0.03
633.54	-0
633.727	-0.05
633.914	-0.04
634.101	-0.07
634.289	0.05
634.476	-0.05
634.663	-0.03
634.85	-0.01
635.037	-0.05
635.224	-0.07
635.411	0
635.598	-0.01
635.785	-0.01
635.972	-0.04
636.159	0.02
636.346	-0.06
636.533	-0.02
636.72	-0.05
636.907	-0.02
637.094	0.03
637.281	-0.01
637.468	-0.01
637.655	-0.01
637.842	-0.01
638.029	-0.03
638.215	0.03
638.402	-0.02
638.589	-0.05
638.776	-0.03
638.963	-0.03
639.149	0.03
639.336	0.03
639.523	-0.02
639.709	-0.05
639.896	0
640.083	0.04
640.27	-0.01
640.456	-0.05
640.643	-0
640.829	-0.04
641.016	-0.03
641.203	-0.06
641.389	0.02
641.576	-0.02
641.762	-0.02
641.949	-0.05
642.135	0.02
642.322	-0.02
642.508	-0.04
642.695	0.02
642.881	-0.02
643.068	-0.05
643.254	-0.04
643.441	0.03
643.627	0.01
643.813	-0.02
644	0.02
644.186	-0.05
644.372	-0.06
644.559	-0.01
644.745	-0
644.931	-0.03
645.118	-0.02
645.304	-0.01
645.49	-0.04
645.676	-0.02
645.862	-0
646.049	0.03
646.235	-0.04
646.421	0.03
646.607	0.02
646.793	-0
646.979	-0.05
647.165	-0.05
647.352	0
647.538	0.03
647.724	-0.04
647.91	-0.03
648.096	0.02
648.282	0.04
648.468	-0
648.654	-0.01
648.84	-0
649.026	0.02
649.212	-0.02
649.397	-0.04
649.583	-0.04
649.769	-0.01
649.955	-0.02
650.141	0.01
650.327	0.03
650.513	-0.02
650.698	0.03
650.884	-0.08
651.07	-0.04
651.256	0
651.442	-0.03
651.627	-0.03
651.813	0.01
651.999	-0.01
652.184	-0.02
652.37	-0.03
652.556	-0.05
652.741	0.01
652.927	-0.08
653.113	0.01
653.298	-0
653.484	-0.01
653.669	-0.08
653.855	-0.03
654.04	-0.01
654.226	0.02
654.412	-0.02
654.597	-0.01
654.782	-0.01
654.968	0.01
655.153	0
655.339	-0.03
655.524	-0.04
655.71	-0.02
655.895	-0.01
656.08	-0.04
656.266	0.03
656.451	0.02
656.636	-0.01
656.822	-0.01
657.007	-0.02
657.192	-0.04
657.378	-0.03
657.563	-0.02
657.748	-0.01
657.933	-0.01
658.118	-0.03
658.304	-0.06
658.489	0.01
658.674	0.04
658.859	-0.08
659.044	0
659.229	0.02
659.414	-0.04
659.599	-0.03
659.785	-0.07
659.97	0.02
660.155	0.04
660.34	0.01
660.525	-0.03
660.71	-0.05
660.895	0.04
661.08	-0.01
661.264	-0.03
661.449	0.06
661.634	0.06
661.819	0.01
662.004	0.03
662.189	-0.08
662.374	-0.04
662.559	-0.06
662.743	-0.03
662.928	-0.04
663.113	-0.06
663.298	-0.06
663.483	-0.03
663.667	0.01
663.852	-0.05
664.037	0.02
664.221	-0.06
664.406	-0.02
664.591	0.04
664.775	0.01
664.96	-0.07
665.145	0.01
665.329	0.02
665.514	-0.03
665.698	-0.02
665.883	-0.05
666.068	0.02
666.252	0.01
666.437	-0.07
666.621	0.01
666.806	0.03
666.99	0
667.174	-0.03
667.359	0.04
667.543	-0.02
667.728	-0.02
667.912	-0.06
668.096	0.05
668.281	0
668.465	0.01
668.649	-0.04
668.834	-0.03
669.018	-0.01
669.202	-0.06
669.387	-0.03
669.571	0.06
669.755	-0.05
669.939	-0.05
670.124	-0.01
670.308	0.02
670.492	0.04
670.676	0.01
670.86	-0.02
671.044	-0.06
671.228	0.04
671.413	-0.02
671.597	-0.02
671.781	-0.01
671.965	0
672.149	0
672.333	-0.03
672.517	-0.04
672.701	0.04
672.885	-0.03
673.069	-0.04
673.253	0.04
673.437	0.01
673.621	-0.02
673.804	-0.04
673.988	0.03
674.172	0.01
674.356	-0.07
674.54	-0.02
674.724	0.07
674.908	-0.01
675.091	0.04
675.275	-0.01
675.459	0.02
675.643	0.09
675.826	0.01
676.01	-0
676.194	-0.01
676.377	0.03
676.561	0.05
676.745	0.01
676.928	-0.01
677.112	0.07
677.296	-0.02
677.479	-0.03
677.663	0.02
677.846	0.02
678.03	-0.01
678.213	-0.05
678.397	0.04
678.58	-0.01
678.764	-0.01
678.947	-0.03
679.131	0.03
679.314	0.01
679.498	0.01
679.681	0.04
679.865	0.01
680.048	0.04
680.231	0.02
680.415	-0.02
680.598	0.02
680.781	-0.01
680.965	-0.01
681.148	0.03
681.331	-0.05
681.514	-0
681.698	-0.04
681.881	0.03
682.064	0.03
682.247	-0.01
682.43	-0.08
682.614	0.02
682.797	0.1
682.98	0.05
683.163	-0.04
683.346	0.03
683.529	-0.02
683.712	-0.02
683.895	0.06
684.078	-0.01
684.261	0.03
684.444	0.02
684.627	0.04
684.81	-0.02
684.993	0
685.176	0.02
685.359	-0.02
685.542	-0.04
685.725	0.13
685.908	-0
686.091	-0.02
686.274	0.03
686.457	0.05
686.639	0.03
686.822	0.06
687.005	0.06
687.188	0.08
687.371	0.11
687.553	0.05
687.736	0.11
687.919	0.12
688.102	0.12
688.284	0.05
688.467	0.06
688.65	0.01
688.832	0.05
689.015	0.05
689.197	0
689.38	0.11
689.563	0.1
689.745	0.02
689.928	-0.01
690.11	0.04
690.293	0.06
690.475	-0.03
690.658	0.05
690.84	0.04
691.023	0.01
691.205	0.06
691.388	0.07
691.57	0.1
691.752	0.07
691.935	-0.03
692.117	0.02
692.3	0.08
692.482	0.08
692.664	0.05
692.847	0.08
693.029	0.11
693.211	0.06
693.393	0.02
693.576	-0.02
693.758	0.04
693.94	0.06
694.122	0.04
694.304	0.11
694.487	0.11
694.669	0.15
694.851	-0.01
695.033	0.05
695.215	0.05
695.397	0.01
695.579	0.13
695.761	0.05
695.943	0
696.125	0.07
696.308	0.12
696.49	-0.07
696.671	0.16
696.853	0.06
697.035	0.2
697.217	0.1
697.399	0.16
697.581	0.07
697.763	0.15
697.945	0.07
698.127	0.12
698.309	0.15
698.491	0.15
698.672	0.14
698.854	0.16
699.036	0.17
699.218	0.11
699.399	0.15
699.581	0.15
699.763	0.14
699.945	0.1
700.126	0.08
700.308	0.15
700.49	0.13
700.671	-0
700.853	0.12
701.035	0.13
701.216	0.13
701.398	0.09
701.579	0.16
701.761	0.26
701.943	0.11
702.124	0.09
702.306	0.11
702.487	0.26
702.669	0.13
702.85	0.16
703.031	0.11
703.213	0.26
703.394	0.2
703.576	0.17
703.757	0.26
703.938	0.24
704.12	0.33
704.301	0.14
704.483	0.15
704.664	0.14
704.845	0.31
705.026	0.23
705.208	0.22
705.389	0.18
705.57	0.29
705.751	0.27
705.933	0.28
706.114	0.29
706.295	0.2
706.476	0.27
706.657	0.3
706.838	0.29
707.02	0.34
707.201	0.2
707.382	0.24
707.563	0.3
707.744	0.24
707.925	0.25
708.106	0.23
708.287	0.23
708.468	0.42
708.649	0.29
708.83	0.35
709.011	0.27
709.192	0.33
709.373	0.26
709.554	0.29
709.734	0.43
709.915	0.37
710.096	0.31
710.277	0.23
710.458	0.35
710.639	0.43
710.819	0.28
711	0.36
711.181	0.47
711.362	0.44
711.542	0.35
711.723	0.41
711.904	0.48
712.085	0.49
712.265	0.45
712.446	0.4
712.627	0.42
712.807	0.48
712.988	0.51
713.168	0.43
713.349	0.47
713.53	0.37
713.71	0.39
713.891	0.36
714.071	0.5
714.252	0.54
714.432	0.48
714.613	0.49
714.793	0.56
714.974	0.62
715.154	0.61
715.334	0.58
715.515	0.64
715.695	0.5
715.876	0.59
716.056	0.55
716.236	0.57
716.417	0.67
716.597	0.59
716.777	0.81
716.957	0.62
717.138	0.68
717.318	0.67
717.498	0.61
717.678	0.73
717.859	0.71
718.039	0.63
718.219	0.76
718.399	0.85
718.579	0.74
718.759	0.8
718.939	0.88
719.12	0.84
719.3	0.82
719.48	0.67
719.66	0.68
719.84	0.99
720.02	0.82
720.2	0.81
720.38	0.94
720.56	1.06
720.74	0.85
720.92	0.97
721.1	1.17
721.279	1.12
721.459	1.02
721.639	0.92
721.819	1.04
721.999	1
722.179	1.12
722.359	1.01
722.538	1.03
722.718	1.02
722.898	1.1
723.078	1.19
723.257	1.12
723.437	1.16
723.617	1.25
723.797	1.24
723.976	1.28
724.156	1.21
724.336	1.36
724.515	1.5
724.695	1.2
724.874	1.27
725.054	1.43
725.234	1.34
725.413	1.36
725.593	1.31
725.772	1.39
725.952	1.52
726.131	1.45
726.311	1.51
726.49	1.44
726.67	1.48
726.849	1.47
727.028	1.59
727.208	1.55
727.387	1.63
727.567	1.49
727.746	1.58
727.925	1.49
728.105	1.64
728.284	1.68
728.463	1.66
728.643	1.71
728.822	1.65
729.001	1.74
729.18	1.81
729.359	1.91
729.539	1.91
729.718	1.98
729.897	1.89
730.076	1.9
730.255	1.76
730.434	2.05
730.614	2.04
730.793	2.09
730.972	2.01
731.151	2.01
731.33	2.17
731.509	2.14
731.688	2.11
731.867	2.11
732.046	2.05
732.225	2.48
732.404	2.1
732.583	2.29
732.762	2.41
732.941	2.32
733.12	2.59
733.298	2.32
733.477	2.44
733.656	2.36
733.835	2.44
734.014	2.64
734.193	2.51
734.371	2.62
734.55	2.58
734.729	2.45
734.908	2.54
735.086	2.5
735.265	2.62
735.444	2.4
735.623	2.43
735.801	2.45
735.98	2.6
736.159	2.54
736.337	2.72
736.516	2.52
736.694	2.58
736.873	2.4
737.052	2.65
737.23	2.53
737.409	2.32
737.587	2.62
737.766	2.12
737.944	2.37
738.123	2.42
738.301	2.44
738.479	2.37
738.658	2.23
738.836	1.98
739.015	2.25
739.193	2.14
739.371	2.02
739.55	2.02
739.728	1.83
739.906	2.08
740.085	1.94
740.263	1.9
740.441	1.54
740.62	2.01
740.798	1.75
740.976	1.65
741.154	1.5
741.332	1.78
741.511	1.49
741.689	1.39
741.867	1.37
742.045	1.31
742.223	1.31
742.401	1.15
742.579	1.21
742.757	1.28
742.935	0.96
743.114	1.12
743.292	1.07
743.47	1.11
743.648	0.99
743.826	0.86
744.004	1.06
744.181	0.87
744.359	0.81
744.537	0.86
744.715	0.8
744.893	0.71
745.071	0.72
745.249	0.77
745.427	0.59
745.605	0.73
745.782	0.69
745.96	0.68
746.138	0.79
746.316	0.56
746.493	0.58
746.671	0.55
746.849	0.48
747.027	0.68
747.204	0.42
747.382	0.55
747.56	0.35
747.737	0.46
747.915	0.27
748.093	0.51
748.27	0.36
748.448	0.34
748.625	0.32
748.803	0.22
748.98	0.35
749.158	0.31
749.335	0.44
749.513	0.3
749.69	0.29
749.868	0.33
750.045	0.24
750.223	0.25
750.4	0.09
750.578	0.49
750.755	0.26
750.932	0.19
751.11	0.31
751.287	0.09
751.464	0.33
751.642	0.18
751.819	0.24
751.996	0.22
752.173	0.13
752.351	0.03
752.528	0.17
752.705	0.2
752.882	0.14
753.06	0.21
753.237	0.22
753.414	0.19
753.591	0.36
753.768	0.09
753.945	0.07
754.122	-0.02
754.299	0.09
754.476	0.02
754.654	0.12
754.831	0.31
755.008	0.11
755.185	0.14
755.362	-0.04
755.539	0.1
755.716	0.02
755.892	0.07
756.069	0.09
756.246	0.17
756.423	0.04
756.6	0.18
756.777	0.08
756.954	0.12
757.131	0.06
757.307	-0.02
757.484	-0.06
757.661	0.1
757.838	0.07
758.015	-0.05
758.191	0.06
758.368	0.12
758.545	0.25
758.721	0.04
758.898	-0.15
759.075	0.11
759.251	0.24
759.428	0.11
759.605	-0.06
759.781	-0.02
759.958	0.06
760.134	0.11
760.311	-0.06
760.488	0.05
760.664	0.13
760.841	0.07
761.017	-0.02
761.194	0.03
761.37	0.02
761.547	0.03
761.723	-0.08
761.899	0.15
762.076	0
762.252	-0.14
762.429	-0.12
762.605	0.12
762.781	-0.12
762.958	0.03
763.134	-0.02
763.31	-0.03
763.486	0.07
763.663	-0.13
763.839	0.12
764.015	-0.14
764.191	-0.1
764.368	-0.01
764.544	-0.13
764.72	0.05
764.896	0.14
765.072	-0.04
765.248	-0.08
765.425	-0.07
765.601	0.11
765.777	-0.02
765.953	-0.23
766.129	-0.01
766.305	-0.16
766.481	0.08
766.657	0.03
766.833	0.15
767.009	-0.09
767.185	-0.14
767.361	-0.09
767.537	-0.07
767.713	0.11
767.889	-0.1
768.065	0.05
768.24	0.08
768.416	0.18
768.592	-0.07
768.768	-0.04
768.944	-0.01
769.12	-0.08
769.295	-0.13
769.471	-0.02
769.647	-0.03
769.823	0.13
769.998	-0.09
770.174	-0.09
770.35	0.22
770.525	0.19
770.701	0.03
770.877	-0.01
771.052	-0.26
771.228	0.13
771.403	-0.11
771.579	0.02
771.755	0.25
771.93	-0.06
772.106	-0.16
772.281	-0.17
772.457	0.02
772.632	0.11
772.808	-0.17
772.983	-0.07
773.159	-0.3
773.334	0.2
773.509	-0.02
773.685	-0.09
773.86	0.24
774.036	0.14
774.211	-0
774.386	-0.03
774.562	-0.05
774.737	0.12
774.912	-0.09
775.087	0.16
775.263	0
775.438	-0.03
775.613	-0.04
775.788	0.01
775.964	0.09
776.139	0.32
776.314	-0.38
776.489	0.09
776.664	0.13
776.839	-0.13
777.014	0.07
777.19	0.02
777.365	0.16
777.54	0.26
777.715	-0.14
777.89	0.01
778.065	-0.09
778.24	-0.13
778.415	0.15
778.59	-0.25
778.765	-0.14
778.94	0.06
779.115	-0.06
779.289	-0.03
779.464	-0.01
779.639	0.11
779.814	-0.23
779.989	-0.33
780.164	0.22
780.339	0.06
780.513	-0.19
780.688	-0.07
780.863	-0.08
781.038	0.16
781.212	-0.35
781.387	-0
781.562	0.34
781.737	-0.09
781.911	0.05
782.086	-0.1
782.261	-0.04
782.435	0.19
782.61	-0.13
782.784	-0.19
782.959	0.23
783.134	-0.24
783.308	-0.22
783.483	-0.15
783.657	0.35
783.832	0
784.006	-0.34
784.181	-0.13
784.355	0.22
784.53	-0.38
784.704	-0.06
784.878	0.27
785.053	0.1
785.227	0.17
785.402	0.42
785.576	-0.24
785.75	-0.02
785.925	-0.08
786.099	0.08
786.273	-0
786.448	0.05
786.622	-0
786.796	0.04
786.97	-0.19
787.145	0.61
787.319	-0.5
787.493	-0.11
787.667	-0.55
787.841	-0.12
788.015	0.04
788.19	-0.14
788.364	0.08
788.538	-0.15
788.712	-0.01
788.886	-0.14
789.06	0.22
789.234	-0.03
789.408	-0.26
789.582	0.04
789.756	-0.11
789.93	-0.37
790.104	0.05
790.278	-0.25
790.452	-0.26
790.626	0.21
790.8	-0.23
790.973	0.1
791.147	0.11
791.321	0.25
791.495	0.09
791.669	-0.1
791.843	-0.11
792.016	-0.05
792.19	0.32
792.364	-0.29
792.538	0.56
792.711	0.23
792.885	-0.16
793.059	-0.18
793.233	-0.57
793.406	0.37
793.58	-0.12
793.754	-0.06
793.927	-0.05
794.101	0.04
794.274	-0.05
794.448	0.14
794.622	-0.26
794.795	-0.14
794.969	-0.28
795.142	0.29
795.316	-0.01
795.489	-0.11
795.663	0.16
795.836	0.04
796.009	-0.26
796.183	0.4
796.356	0.01
796.53	0.08
796.703	-0.15
796.876	0.47
797.05	-0.31
797.223	-0.1
797.396	-0.02
797.57	0.25
797.743	0.2
797.916	-0.02
798.09	-0.02
798.263	0.21
798.436	0.09
798.609	0.01
798.782	-0.19
798.956	-0.15
799.129	-0.22
799.302	-0.27
799.475	-0.11
799.648	-0.33
799.821	0.02
799.994	-0.02
800.167	-0.4
800.34	0.07
800.514	-0.15
800.687	-0.25
800.86	-0.24
801.033	-0.01
801.206	0.04
801.379	-0.46
801.551	0.22
801.724	0.27
801.897	0.12
802.07	-0.16
802.243	-0.73
802.416	0.12
802.589	-0.21
802.762	0.19
802.935	-0.03
803.107	-0.11
803.28	0.52
803.453	0.26
803.626	-0.43
803.798	-0.2
803.971	-0.02
804.144	0.29
804.317	0.27
804.489	-0.14
804.662	-0.06
804.835	-0
805.007	-0.24
805.18	0.28
805.353	0.19
805.525	-0.27
805.698	-0.54
805.87	-0.22
806.043	0.32
806.215	-0.39
806.388	-0.25
806.56	0.3
806.733	0.12
806.905	0.03
807.078	-0.15
807.25	-0.29
807.423	-0.09
807.595	-0.12
807.768	-0.03
807.94	-0.15
808.112	0.12
808.285	0.14
808.457	0.02
808.629	-0.05
808.802	0.14
808.974	-0.12
809.146	-0.21
809.318	-0.39
809.491	-0.08
809.663	0.34
809.835	-0.46
810.007	0.07
810.18	-0.17
810.352	-0.71
810.524	-0.19
810.696	0.29
810.868	0.22
811.04	-0.02
811.212	-0.31
811.384	0.21
811.556	-0.15
811.728	-0.22
811.901	0.64
812.073	-0.32
812.245	0
812.417	-0
812.589	-0.68
812.76	0.13
812.932	0.04
813.104	0.23
813.276	-0.31
813.448	0.1
813.62	0.09
813.792	0.07
813.964	0.03
814.136	0.36
814.307	-0.09
814.479	0.11
814.651	-0.17
814.823	-0.06
814.995	-0.33
815.166	-0.25
815.338	-0.56
815.51	-0.43
815.681	0.48
815.853	-0.19
816.025	-0.39
816.196	0.48
816.368	0.15
816.54	-0.74
816.711	-0.45
816.883	-0.1
817.054	0.81
817.226	-0.72
817.398	-0.16
817.569	-0.33
817.741	-0.04
817.912	-0.27
818.084	-0.25
818.255	0.07
818.426	-0.19
818.598	-0.14
818.769	-0.19
818.941	-0.01
819.112	0.52
819.283	-0.04
819.455	-0.27
819.626	-0.24
819.798	-0.06
819.969	0.06
820.14	-0.07
820.311	-0.25
820.483	-0.03
820.654	0.17
820.825	0.08
820.996	-0.44
821.168	0.01
821.339	-0
821.51	-0.49
821.681	-0.05
821.852	-0.44
822.023	-0.78
822.195	-0.15
822.366	0.25
822.537	0.09
822.708	-0.03
822.879	-0.34
823.05	0.39
823.221	-0.4
823.392	0.38
823.563	0.16
823.734	0.25
823.905	-0.32
824.076	-0
824.247	-0.57
824.418	-0.45
824.589	0.53
824.759	-0.05
824.93	-0.37
825.101	-0.63
825.272	-0.3
825.443	0.35
825.614	-0.07
825.784	-1.14
825.955	0.5
826.126	0.33
826.297	0.21
826.467	0.34
826.638	0.23
826.809	-1.21
826.98	0.07
827.15	0.45
827.321	-0.35
827.492	0.18
827.662	0.08
827.833	0.45
828.003	0.59
828.174	-0.59
828.345	-0.79
828.515	0.3
828.686	0.29
828.856	-0.4
829.027	0.45
829.197	-0.92
829.368	-0.19
829.538	-0.2
829.709	-0.65
829.879	0.27
830.049	-0.14
830.22	-0.62
830.39	-0.37
830.56	0.24
830.731	-0.52
830.901	-0.31
831.072	-0.14
831.242	-0.27
831.412	0.18
831.582	0.32
831.753	-0.65
831.923	0.24
832.093	0.34
832.263	-0.13
832.434	-0.05
832.604	-0.04
832.774	0.22
832.944	-0.1
833.114	-0.54
833.284	-0.22
833.454	-0.46
833.624	-0.69
833.795	-0.68
833.965	0.63
834.135	0.31
834.305	-0.42
834.475	-0.79
834.645	-0.23
834.815	-0.67
834.985	-0.73
835.155	-0.16
835.325	0.79
835.494	-0.05
835.664	-0.19
835.834	-0.6
836.004	-0.7
836.174	-0.45
836.344	0.22
836.514	-0.92
836.684	0.14
836.853	-0.16
837.023	-0.06
837.193	-0.69
837.363	0.41
837.532	0.13
837.702	-0.19
837.872	-0.27
838.041	0.32
838.211	1.39
838.381	-1.2
838.55	0.35
838.72	1.39
838.89	1.25
839.059	-0.08
839.229	-0.58
839.398	1.48
839.568	-0.3
839.738	0.05
839.907	0.75
840.077	-0.32
840.246	-0.33
840.416	-1.38
840.585	-1.03
840.755	0.58
840.924	1.06
841.093	-0.77
841.263	-0.73
841.432	-0.12
841.602	-0.78
841.771	-0.88
841.94	0.37
842.11	1.09
842.279	1.43
842.448	-0.62
842.617	-0.89
842.787	1.08
842.956	-1.12
843.125	0.5
843.294	0.08
843.464	1.27
843.633	-0.19
843.802	-1.03
843.971	-0.07
844.14	0.62
844.309	0.34
844.479	-0.92
844.648	-0.7
844.817	-0.26
844.986	0.23
845.155	-0.52
845.324	0.18
845.493	-0.36
845.662	-0.94
845.831	-0.03
846	-0.57
846.169	0.11
846.338	0.54
846.507	0.43
846.676	-0.25
846.844	-0.95
847.013	0.79
847.182	0.56
847.351	0.03
847.52	-0.1
847.689	0.21
847.858	0.01
848.026	-0.51
848.195	-0.59
848.364	-0.99
848.533	-1.04
848.701	0.03
848.87	-0.16
849.039	0.44
849.207	0.27
849.376	0.32
849.545	0.36
849.713	-0.8
849.882	-0.05
850.051	-0.43
850.219	0.23
850.388	-0.09
850.556	-0.65
850.725	-0.89
850.893	-0.98
851.062	-0.55
851.23	0.09
851.399	-1.12
851.567	-0.85
851.736	0.61
851.904	-0.91
852.073	-0.51
852.241	0.49
852.41	0.08
852.578	-0.08
852.746	-1.48
852.915	-0.56
853.083	-0.09
853.251	-1.18
853.42	0.11
853.588	-0.95
853.756	1.46
853.924	-0.79
854.093	-0.75
854.261	-1.28
854.429	-0.71
854.597	0.69
854.765	-1.17
854.934	-0.66
855.102	0.29
855.27	-0.63
855.438	0.4
855.606	0.43
855.774	0.09
855.942	-1.45
856.11	-2.13
856.278	0.26
856.446	0.51
856.614	-0.49
856.782	-0.24
856.95	1.24
857.118	0.85
857.286	0.5
857.454	-1.43
857.622	0.44
857.79	-0.66
857.958	-1.05
858.126	-0.58
858.294	-3.65
858.462	-0.43
858.629	-0.27
858.797	-2.02
858.965	0.12
859.133	0.35
859.301	-0.26
859.468	0.97
859.636	-1.05
859.804	0.57
859.971	0.71
860.139	-0.63
860.307	1.05
860.474	-0.3
860.642	-0.37
860.81	-0.9
860.977	0.57
861.145	0.72
861.313	-1.26
861.48	-0.64
861.648	1.45
861.815	0.07
861.983	-1.04
862.15	-0.97
862.318	0.1
862.485	0.34
862.653	-1.77
862.82	-1.28
862.988	2.81
863.155	1.34
863.322	-0.93
863.49	-1.8
863.657	-0.97
863.824	1.83
863.992	0.76
864.159	-0.74
864.326	0.72
864.494	-1.18
864.661	1.88
864.828	-1.34
864.996	0.33
865.163	2.13
865.33	-1.71
865.497	-2.1
865.664	-1.25
865.832	-2.26
865.999	-1.46
866.166	-1.86
866.333	-1.84
866.5	-0.65
866.667	-0.39
866.834	-0.77
867.001	1.31
867.168	-2.52
867.335	0.61
867.502	-1.13
867.669	-0.09
867.836	1.98
868.003	0.13
868.17	0.62
868.337	1.78
868.504	1.83
868.671	-1.74
868.838	-1.85
869.005	0.46
869.172	-0.64
869.339	-0.88
869.505	-2.27
869.672	-1.95
869.839	1.81
870.006	-0.3
870.173	-1.82
870.339	0.38
870.506	1.36
870.673	-1.25
870.84	1.34
871.006	-2.19
871.173	-0.32
871.34	0.65
871.506	-1.37
871.673	0.7
871.839	-0.85
872.006	0.31
872.173	-0.94
872.339	0.57
872.506	-0.33
872.672	-1.27
872.839	-2.23
873.005	0.15
873.172	4.2
873.338	3.03
873.505	-0.22
873.671	-0.49
873.838	-0.04
874.004	-0.22
874.171	-0.87
874.337	-0.04
874.503	1.97
874.67	-1.07
874.836	-1.99
875.002	1.79
875.169	-0.37
875.335	1.17
875.501	-1.49
875.668	2.85
875.834	-0.14
876	0.41
876.166	0.19
876.332	0.19
876.499	2.58
876.665	-1
876.831	-0.7
876.997	1.5
877.163	0.92
877.329	-0.02
877.495	-0.48
877.662	-0.52
877.828	-0.33
877.994	0.14
878.16	-0.3
878.326	-2.16
878.492	1.35
878.658	-1.02
878.824	-0.1
878.99	-0.26
879.156	-1.33
879.322	2.63
879.487	-2.19
879.653	-0.3
879.819	-0.88
879.985	-1.66
880.151	-0.3
880.317	0.45
880.483	0.95
880.648	1.77
880.814	-1.03
880.98	0.32
881.146	-3.53
881.312	-1.62
881.477	0.5
881.643	-1.77
881.809	1.39
881.974	2.16
882.14	-0.81
882.306	-0.47
882.471	2.6
882.637	-0.92
882.803	0.45
882.968	2.02
883.134	3.42
883.299	0.05
883.465	0.45
883.63	0.67
883.796	2.05
883.961	0.39
884.127	0.29
884.292	-3.92
884.458	-2.24
884.623	-2.23
