Data from Apollo_Calib_20240827__AbsoluteIrradiance__97__00-46-00-848.txt Node

Date: Wed Aug 28 00:46:00 BST 2024
User: biology
Spectrometer: FLMT08252
Trigger mode: 0
Integration Time (sec): 5.000000E-1
Scans to average: 5
Electric dark correction enabled: true
Nonlinearity correction enabled: false
Boxcar width: 0
XAxis mode: Wavelengths
Number of Pixels in Spectrum: 3648
>>>>>Begin Spectral Data<<<<<
179.588	-0
179.809	-0
180.03	-0
180.251	-0
180.473	-0
180.694	0
180.915	0
181.136	-0
181.357	0
181.578	-0
181.799	-0
182.02	-0
182.241	-0
182.462	0
182.683	0
182.904	-0
183.125	-0
183.346	0
183.567	0
183.788	-0
184.009	-0
184.23	0
184.451	0
184.672	-0
184.892	-0
185.113	0
185.334	0
185.555	-0
185.776	-0
185.996	0
186.217	-0
186.438	-0
186.659	-0
186.879	-0
187.1	-0
187.321	-0
187.541	-0
187.762	-0
187.983	-0
188.203	-0
188.424	-0
188.644	-0
188.865	0
189.086	-0
189.306	-0
189.527	-0
189.747	0
189.968	-0
190.188	0
190.409	-0
190.629	0
190.849	-0
191.07	-0
191.29	-0
191.511	-0
191.731	-0
191.951	-0
192.172	0
192.392	-0
192.612	-0
192.833	-0
193.053	0
193.273	0
193.493	-0
193.714	-0
193.934	0
194.154	0
194.374	-0
194.594	-0
194.815	-0
195.035	-0
195.255	-0
195.475	-0
195.695	-0
195.915	0
196.135	0
196.355	0
196.575	0
196.795	-0
197.015	-0
197.235	-0
197.455	-0
197.675	0
197.895	-0
198.115	-0
198.335	0
198.555	0
198.775	0
198.995	0
199.214	0
199.434	-0
199.654	-0
199.874	0
200.094	0.64
200.313	-0.27
200.533	-1.13
200.753	-0.83
200.973	0.44
201.192	0.22
201.412	-1.23
201.632	-0.37
201.851	0.76
202.071	-0.48
202.291	-0.59
202.51	-0.72
202.73	0.08
202.95	-0.07
203.169	-0.69
203.389	-0.24
203.608	-0.16
203.828	-0.81
204.047	-0.29
204.267	0.06
204.486	-0.48
204.706	-0.18
204.925	-0.16
205.145	-0.6
205.364	0.4
205.583	0.22
205.803	-0.42
206.022	-0.83
206.242	-0.05
206.461	-0.27
206.68	-0.6
206.9	0.12
207.119	0.35
207.338	0.55
207.557	-0.37
207.777	-0.01
207.996	-0.09
208.215	0.18
208.434	-0.13
208.654	-0.52
208.873	-0.19
209.092	0.4
209.311	-0.02
209.53	-0.01
209.749	-0.27
209.968	-0.17
210.187	-0.38
210.407	-0.57
210.626	-0.19
210.845	0.22
211.064	-0.05
211.283	-0.25
211.502	0.08
211.721	-0.07
211.94	-0.14
212.159	-0.18
212.377	0.19
212.596	0.29
212.815	-0.02
213.034	0.07
213.253	0.13
213.472	0.12
213.691	-0.22
213.91	-0.13
214.128	-0.25
214.347	0.33
214.566	-0.39
214.785	-0.34
215.003	0.35
215.222	0.01
215.441	-0.2
215.66	-0.43
215.878	-0.07
216.097	0.26
216.316	-0.34
216.534	-0.07
216.753	0.04
216.972	0.09
217.19	-0.05
217.409	-0.28
217.627	-0.19
217.846	-0.14
218.064	-0.09
218.283	-0.32
218.501	0.31
218.72	0.15
218.938	-0.32
219.157	-0.1
219.375	0.01
219.594	0.08
219.812	-0.28
220.031	-0.21
220.249	0.22
220.467	0.13
220.686	-0.16
220.904	-0.29
221.122	-0.25
221.341	0.28
221.559	-0.05
221.777	-0.24
221.995	0.05
222.214	0.06
222.432	-0.26
222.65	0.19
222.868	-0.03
223.086	-0
223.305	0.12
223.523	-0.06
223.741	0.34
223.959	-0.12
224.177	-0.27
224.395	-0.23
224.613	-0.07
224.831	0.06
225.049	-0.16
225.267	-0.05
225.485	-0.05
225.703	-0.06
225.921	0.04
226.139	-0.08
226.357	0.03
226.575	-0.05
226.793	0
227.011	0.33
227.229	0.1
227.447	0.18
227.665	-0.16
227.883	-0.08
228.1	0.07
228.318	0.01
228.536	-0.27
228.754	-0.21
228.972	0.04
229.189	0.05
229.407	-0.08
229.625	-0.11
229.843	0.1
230.06	0.04
230.278	-0.1
230.496	-0.1
230.713	-0.01
230.931	0.11
231.149	-0.13
231.366	-0.17
231.584	-0.11
231.801	0.19
232.019	-0.03
232.236	-0.16
232.454	-0.1
232.671	-0.06
232.889	-0.01
233.106	-0.08
233.324	-0.05
233.541	-0.19
233.759	-0.07
233.976	-0.16
234.194	-0.05
234.411	0.01
234.628	-0.15
234.846	-0.14
235.063	-0.05
235.28	0.01
235.498	-0.08
235.715	-0.13
235.932	0.12
236.149	-0.08
236.367	-0.07
236.584	0.03
236.801	0
237.018	-0.05
237.236	-0.07
237.453	-0.18
237.67	0.07
237.887	-0.12
238.104	-0.11
238.321	-0.09
238.538	-0.04
238.755	-0.01
238.973	-0.19
239.19	0.02
239.407	0.13
239.624	-0.02
239.841	-0.2
240.058	-0.09
240.275	0.01
240.492	0
240.709	0.01
240.925	-0.05
241.142	0.07
241.359	-0.15
241.576	-0.1
241.793	-0.08
242.01	0.03
242.227	0.04
242.444	0.09
242.66	0.14
242.877	-0.04
243.094	-0.12
243.311	-0.02
243.527	-0.09
243.744	0.05
243.961	0.08
244.178	-0.06
244.394	-0.06
244.611	0.04
244.828	0.19
245.044	-0.1
245.261	-0.03
245.477	0
245.694	-0.07
245.911	-0.1
246.127	0.01
246.344	0.2
246.56	0.02
246.777	-0.12
246.993	-0.02
247.21	0.02
247.426	-0.09
247.643	-0.16
247.859	-0.07
248.076	-0.09
248.292	0.12
248.508	-0.12
248.725	-0.02
248.941	0.03
249.157	0.05
249.374	-0.04
249.59	-0.06
249.806	0
250.023	-0.01
250.239	-0.06
250.455	-0.06
250.671	-0.08
250.888	-0.05
251.104	-0.02
251.32	-0.05
251.536	-0.01
251.752	-0.06
251.969	0.06
252.185	0
252.401	0.04
252.617	0.06
252.833	-0.02
253.049	-0.06
253.265	-0.07
253.481	0.09
253.697	-0.01
253.913	-0.11
254.129	0
254.345	-0.08
254.561	-0.06
254.777	-0.03
254.993	-0
255.209	-0.06
255.425	-0.1
255.641	-0.02
255.857	0.06
256.073	0.02
256.288	-0.11
256.504	-0.03
256.72	-0.03
256.936	0.08
257.152	0.01
257.367	-0.07
257.583	-0.01
257.799	-0
258.015	-0.1
258.23	-0.01
258.446	0.04
258.662	-0
258.877	-0.06
259.093	-0.11
259.309	0.06
259.524	-0.05
259.74	-0.11
259.955	-0.1
260.171	-0.05
260.387	0.01
260.602	0.05
260.818	-0.01
261.033	-0.06
261.249	-0.12
261.464	0
261.68	-0.03
261.895	-0
262.11	0.08
262.326	-0.08
262.541	-0.07
262.757	0.06
262.972	-0.04
263.187	0.03
263.403	-0.06
263.618	0.01
263.833	-0
264.049	-0.1
264.264	-0.03
264.479	0.03
264.694	0.06
264.91	-0.08
265.125	-0.02
265.34	0.07
265.555	0.11
265.77	0.04
265.986	-0.04
266.201	0.03
266.416	0.08
266.631	-0.08
266.846	-0.06
267.061	-0.03
267.276	0.01
267.491	-0.12
267.706	0.02
267.921	0.02
268.136	-0.04
268.351	-0.05
268.566	-0.09
268.781	0.09
268.996	0.04
269.211	-0.02
269.426	-0.1
269.641	-0.05
269.856	0.01
270.071	-0.05
270.285	-0.1
270.5	0.01
270.715	0.02
270.93	-0
271.145	-0.04
271.359	0.02
271.574	-0.08
271.789	-0.03
272.004	-0.07
272.218	-0.03
272.433	0.12
272.648	-0.06
272.862	0.07
273.077	-0.04
273.292	0.01
273.506	-0.05
273.721	-0.04
273.936	0.07
274.15	0.03
274.365	-0.04
274.579	0.04
274.794	0
275.008	0.07
275.223	-0.07
275.437	0.02
275.652	-0.03
275.866	0.01
276.081	-0.02
276.295	0.08
276.509	-0.02
276.724	-0.03
276.938	0.01
277.153	-0
277.367	0.05
277.581	-0.04
277.796	-0.07
278.01	-0.07
278.224	-0.01
278.438	0.11
278.653	-0.04
278.867	-0.04
279.081	-0.2
279.295	-0.07
279.51	0
279.724	-0.1
279.938	0
280.152	-0
280.366	-0.08
280.58	-0
280.794	0.09
281.008	0.02
281.222	0.04
281.437	0.08
281.651	-0.03
281.865	0.1
282.079	-0.02
282.293	-0.14
282.507	-0
282.721	-0.04
282.935	-0.03
283.148	-0.1
283.362	-0.03
283.576	-0.05
283.79	-0.05
284.004	-0.01
284.218	-0
284.432	-0.08
284.646	-0.02
284.859	-0.05
285.073	-0.04
285.287	-0.02
285.501	-0.02
285.714	-0.07
285.928	0.01
286.142	-0.01
286.356	-0.02
286.569	-0.07
286.783	0.1
286.997	-0
287.21	-0.03
287.424	-0.04
287.637	-0.01
287.851	0.01
288.065	0.03
288.278	0.02
288.492	0.01
288.705	0.01
288.919	0.02
289.132	-0.05
289.346	0.02
289.559	-0.08
289.773	-0.05
289.986	0.01
290.2	-0.03
290.413	0.04
290.626	-0.09
290.84	0
291.053	-0.03
291.267	0.08
291.48	-0.01
291.693	0.01
291.906	-0.04
292.12	0
292.333	-0.08
292.546	-0.04
292.76	0.05
292.973	0.02
293.186	0.02
293.399	0.04
293.612	0.08
293.826	-0
294.039	0.02
294.252	0.01
294.465	0.04
294.678	0.05
294.891	-0
295.104	-0.12
295.317	-0.05
295.53	0.04
295.743	0.02
295.956	0.03
296.169	0.08
296.382	0.05
296.595	-0.02
296.808	-0.04
297.021	0.01
297.234	0.06
297.447	-0.02
297.66	0.04
297.873	0.02
298.086	0.04
298.299	-0.02
298.511	-0.05
298.724	0.03
298.937	-0.03
299.15	-0.04
299.363	-0.01
299.575	0.05
299.788	0.03
300.001	-0.01
300.213	-0.01
300.426	-0.02
300.639	-0.03
300.852	-0.01
301.064	0.01
301.277	0.06
301.489	0.05
301.702	0.04
301.915	0.01
302.127	0.01
302.34	0.02
302.552	0.01
302.765	-0.01
302.977	0.01
303.19	-0.06
303.402	-0.02
303.615	-0.01
303.827	-0.06
304.04	-0.04
304.252	0.04
304.464	-0.02
304.677	0.07
304.889	0.01
305.102	-0.03
305.314	-0.03
305.526	0.04
305.739	0.01
305.951	-0.02
306.163	-0.04
306.375	0.06
306.588	-0.04
306.8	-0.01
307.012	-0.04
307.224	0.02
307.436	0.06
307.649	-0.07
307.861	0.03
308.073	-0
308.285	-0.03
308.497	-0.02
308.709	-0.05
308.921	0.01
309.133	0.03
309.346	0.01
309.558	0.01
309.77	0.01
309.982	0.07
310.194	0.02
310.406	-0.03
310.617	0.04
310.829	0.03
311.041	0.05
311.253	-0.05
311.465	-0.01
311.677	-0.03
311.889	-0.04
312.101	-0.03
312.313	0.02
312.524	0.02
312.736	-0.03
312.948	0.01
313.16	0.06
313.372	0.01
313.583	0.01
313.795	-0.02
314.007	-0.07
314.218	0.02
314.43	0.02
314.642	-0.03
314.853	-0.01
315.065	0.01
315.277	-0.03
315.488	-0.02
315.7	0.06
315.912	0.02
316.123	-0.01
316.335	-0.05
316.546	0.09
316.758	-0
316.969	0.01
317.181	-0.01
317.392	0
317.604	0.05
317.815	-0.06
318.026	-0.03
318.238	-0.03
318.449	0.02
318.661	-0.05
318.872	-0.02
319.083	-0.06
319.295	-0
319.506	-0.03
319.717	0
319.929	0.01
320.14	0.01
320.351	-0.01
320.562	-0.05
320.774	0.03
320.985	0.04
321.196	-0.04
321.407	-0.05
321.618	0.06
321.829	-0.02
322.041	0.03
322.252	-0.02
322.463	0.05
322.674	0.01
322.885	-0.04
323.096	-0.06
323.307	-0.04
323.518	0.04
323.729	-0.04
323.94	-0.03
324.151	-0.04
324.362	0.01
324.573	0.03
324.784	-0.02
324.995	0.05
325.206	-0
325.417	-0.03
325.628	-0.05
325.838	-0
326.049	0.01
326.26	0.03
326.471	-0
326.682	0.03
326.892	-0.01
327.103	-0.06
327.314	-0.04
327.525	0.03
327.735	0
327.946	-0.06
328.157	-0.02
328.368	0.04
328.578	0.01
328.789	0.02
328.999	0.02
329.21	-0.01
329.421	0.04
329.631	-0.01
329.842	-0.01
330.052	0
330.263	0.04
330.473	0.04
330.684	0.01
330.894	-0.01
331.105	0.04
331.315	0
331.526	-0.05
331.736	0.08
331.947	0.02
332.157	0.03
332.367	0.01
332.578	0.01
332.788	0.02
332.999	0.01
333.209	-0.01
333.419	-0.04
333.629	-0.03
333.84	0.05
334.05	-0.04
334.26	0.08
334.47	0.02
334.681	0.03
334.891	0.01
335.101	0.04
335.311	0.08
335.521	0
335.732	-0.05
335.942	0.03
336.152	0.03
336.362	0.02
336.572	-0.02
336.782	0.04
336.992	-0.01
337.202	-0.02
337.412	-0.03
337.622	0.03
337.832	-0
338.042	-0.02
338.252	0
338.462	-0.01
338.672	0.03
338.882	-0.06
339.092	0.01
339.302	0.09
339.511	0.05
339.721	-0.05
339.931	-0.01
340.141	0.07
340.351	0.01
340.561	0.04
340.77	0.05
340.98	0.02
341.19	0.03
341.4	-0.01
341.609	-0.03
341.819	-0.01
342.029	-0.06
342.238	-0.02
342.448	-0.06
342.658	-0.01
342.867	0
343.077	-0.01
343.286	0
343.496	-0.02
343.706	0.1
343.915	-0.09
344.125	0.02
344.334	0.03
344.544	-0.03
344.753	-0.03
344.963	0
345.172	-0.02
345.381	-0.05
345.591	-0.05
345.8	-0.01
346.01	0.01
346.219	0.01
346.428	-0.17
346.638	-0.02
346.847	-0.03
347.056	0.06
347.266	-0.02
347.475	0.02
347.684	0.03
347.893	0.01
348.103	0.07
348.312	-0.01
348.521	-0.02
348.73	0.03
348.94	0.03
349.149	-0.05
349.358	0.01
349.567	-0.01
349.776	-0.04
349.985	-0.02
350.194	-0
350.403	0.04
350.612	-0.03
350.821	0.01
351.03	-0
351.239	-0.04
351.448	-0.02
351.657	-0.04
351.866	0.04
352.075	-0
352.284	0.07
352.493	-0.06
352.702	0.02
352.911	0.01
353.12	0.03
353.329	-0.01
353.538	0.08
353.746	0.03
353.955	-0.02
354.164	-0.01
354.373	0.04
354.582	0.04
354.79	0.04
354.999	0.02
355.208	0
355.416	0.05
355.625	-0
355.834	-0.03
356.042	-0.04
356.251	-0
356.46	-0.03
356.668	0.02
356.877	0.09
357.085	0.05
357.294	-0.1
357.503	0.05
357.711	-0.02
357.92	0.11
358.128	0.02
358.337	0.01
358.545	0.01
358.754	0.01
358.962	0.02
359.17	-0.02
359.379	-0.01
359.587	0.03
359.796	-0.01
360.004	0.02
360.212	0.03
360.421	0.01
360.629	-0.01
360.837	0.02
361.046	0.04
361.254	0.09
361.462	0.01
361.67	0.01
361.879	-0
362.087	0.05
362.295	0
362.503	-0
362.711	-0.04
362.92	-0.05
363.128	-0.01
363.336	-0.07
363.544	-0.01
363.752	-0.06
363.96	-0.01
364.168	-0.01
364.376	-0.01
364.584	0.01
364.792	0.08
365	0.03
365.208	-0.01
365.416	0.01
365.624	0.07
365.832	0.02
366.04	0.08
366.248	0.04
366.456	0.03
366.664	0.02
366.872	0.03
367.079	0.01
367.287	0.04
367.495	0.07
367.703	0.07
367.911	0.02
368.118	0.04
368.326	0.02
368.534	0.06
368.742	0.12
368.949	0.02
369.157	0.07
369.365	0.12
369.572	0.04
369.78	0.05
369.988	0.17
370.195	0.17
370.403	0.18
370.61	0.1
370.818	0.19
371.026	0.25
371.233	0.15
371.441	0.2
371.648	0.2
371.856	0.23
372.063	0.24
372.271	0.27
372.478	0.3
372.685	0.29
372.893	0.4
373.1	0.36
373.308	0.36
373.515	0.46
373.722	0.44
373.93	0.46
374.137	0.54
374.344	0.61
374.552	0.6
374.759	0.6
374.966	0.65
375.173	0.68
375.381	0.71
375.588	0.74
375.795	0.68
376.002	0.77
376.209	0.78
376.417	0.9
376.624	0.94
376.831	1.01
377.038	1
377.245	0.93
377.452	1.14
377.659	1.22
377.866	1.22
378.073	1.34
378.28	1.32
378.487	1.47
378.694	1.54
378.901	1.62
379.108	1.67
379.315	1.78
379.522	1.92
379.729	1.89
379.936	1.95
380.143	2.01
380.35	2.1
380.557	2.26
380.763	2.28
380.97	2.33
381.177	2.43
381.384	2.55
381.591	2.55
381.797	2.64
382.004	2.73
382.211	2.8
382.418	2.79
382.624	2.83
382.831	2.86
383.038	2.97
383.244	2.8
383.451	2.85
383.658	2.78
383.864	2.8
384.071	2.67
384.277	2.8
384.484	2.69
384.69	2.61
384.897	2.49
385.103	2.4
385.31	2.29
385.516	2.3
385.723	2.17
385.929	2.11
386.136	1.95
386.342	2.04
386.549	1.89
386.755	1.85
386.961	1.77
387.168	1.7
387.374	1.62
387.58	1.53
387.787	1.48
387.993	1.46
388.199	1.33
388.406	1.3
388.612	1.22
388.818	1.16
389.024	1.12
389.231	1.15
389.437	1.13
389.643	1.07
389.849	0.99
390.055	0.94
390.261	0.92
390.467	0.92
390.674	0.83
390.88	0.85
391.086	0.84
391.292	0.77
391.498	0.81
391.704	0.8
391.91	0.77
392.116	0.68
392.322	0.59
392.528	0.69
392.734	0.62
392.94	0.68
393.146	0.62
393.352	0.61
393.557	0.53
393.763	0.59
393.969	0.5
394.175	0.56
394.381	0.53
394.587	0.45
394.792	0.47
394.998	0.47
395.204	0.5
395.41	0.36
395.615	0.42
395.821	0.43
396.027	0.38
396.233	0.36
396.438	0.34
396.644	0.41
396.85	0.33
397.055	0.31
397.261	0.28
397.466	0.41
397.672	0.27
397.878	0.28
398.083	0.26
398.289	0.21
398.494	0.27
398.7	0.27
398.905	0.12
399.111	0.23
399.316	0.19
399.522	0.22
399.727	0.19
399.932	0.15
400.138	0.2
400.343	0.22
400.549	0.2
400.754	0.19
400.959	0.16
401.165	0.16
401.37	0.17
401.575	0.27
401.78	0.13
401.986	0.13
402.191	0.16
402.396	0.14
402.601	0.2
402.807	0.17
403.012	0.13
403.217	0.17
403.422	0.12
403.627	0.12
403.832	0.1
404.037	0.13
404.243	0.16
404.448	0.11
404.653	0.11
404.858	0.13
405.063	0.09
405.268	0.1
405.473	0.09
405.678	0.09
405.883	0.23
406.088	0.1
406.293	0.04
406.498	0.07
406.703	0.08
406.907	0.08
407.112	0.03
407.317	0.11
407.522	0.14
407.727	0.04
407.932	0.11
408.136	0.13
408.341	0.09
408.546	0.12
408.751	0.12
408.956	0.07
409.16	0.1
409.365	0.07
409.57	0.07
409.774	0.07
409.979	0.11
410.184	0.04
410.388	0.03
410.593	0.09
410.798	0.04
411.002	0.06
411.207	0.08
411.411	0.08
411.616	-0.01
411.82	0.04
412.025	0.07
412.229	0.06
412.434	0.1
412.638	0.04
412.843	0.03
413.047	0.03
413.252	0.02
413.456	0.02
413.66	0.09
413.865	-0.01
414.069	0.11
414.273	0.03
414.478	0.01
414.682	0.04
414.886	0.02
415.091	-0.06
415.295	-0.04
415.499	0.02
415.703	0
415.908	0.08
416.112	-0.01
416.316	0.03
416.52	0.03
416.724	-0.03
416.929	-0.01
417.133	0.16
417.337	0.03
417.541	0.04
417.745	-0.01
417.949	0.03
418.153	0.05
418.357	-0.03
418.561	0.1
418.765	0.03
418.969	0.14
419.173	0.11
419.377	0.01
419.581	0.12
419.785	0.01
419.989	0.02
420.193	0.05
420.397	-0.03
420.601	0.09
420.804	0.04
421.008	0.07
421.212	0.05
421.416	0.08
421.62	0.02
421.823	0.05
422.027	0.08
422.231	0.06
422.435	0.02
422.638	0.08
422.842	0.04
423.046	-0.02
423.249	0.08
423.453	0.03
423.657	0.02
423.86	0.03
424.064	0.03
424.268	0.08
424.471	0.02
424.675	0.1
424.878	0.1
425.082	-0.03
425.285	0.08
425.489	0.01
425.692	-0
425.896	-0
426.099	0.04
426.303	-0.01
426.506	-0.05
426.71	0.08
426.913	0.07
427.116	0.09
427.32	0.05
427.523	0.04
427.726	0.07
427.93	-0.02
428.133	0.04
428.336	-0.02
428.54	-0
428.743	0.13
428.946	0.07
429.149	0.04
429.353	0.02
429.556	0
429.759	0
429.962	-0
430.165	-0.01
430.368	-0.03
430.571	0.03
430.775	0.04
430.978	0.03
431.181	0.05
431.384	0.06
431.587	0.03
431.79	0.06
431.993	0.04
432.196	0.01
432.399	-0.01
432.602	0.11
432.805	0.03
433.008	-0
433.211	-0.02
433.414	0.07
433.616	0.07
433.819	0.04
434.022	-0.01
434.225	0.11
434.428	0.06
434.631	0.14
434.833	0.04
435.036	0.02
435.239	0.09
435.442	0.05
435.645	-0.01
435.847	0.05
436.05	0.07
436.253	0.09
436.455	-0.01
436.658	0.03
436.861	0.09
437.063	0.01
437.266	-0.02
437.468	0.1
437.671	0.14
437.874	0.07
438.076	0.01
438.279	-0
438.481	-0
438.684	0.07
438.886	0.08
439.089	-0.05
439.291	0.05
439.494	0.1
439.696	-0.01
439.899	0.05
440.101	0.05
440.303	-0.02
440.506	0.14
440.708	0.03
440.91	0.08
441.113	0.02
441.315	0.08
441.517	0.03
441.72	0.11
441.922	0.02
442.124	-0.01
442.326	0.09
442.529	0.12
442.731	0.02
442.933	0.12
443.135	0.05
443.337	0.01
443.539	0.04
443.742	0.01
443.944	0.07
444.146	0.04
444.348	0.04
444.55	0.06
444.752	0.08
444.954	0.01
445.156	0.07
445.358	0.01
445.56	0.14
445.762	0.04
445.964	0.08
446.166	0.04
446.368	0.06
446.57	0.11
446.772	0.06
446.974	0.03
447.175	0.09
447.377	0.02
447.579	0.05
447.781	-0.03
447.983	0.12
448.184	0.07
448.386	0.1
448.588	0.04
448.79	0.07
448.991	0.08
449.193	0.03
449.395	0.08
449.597	0.11
449.798	0.08
450	0.03
450.202	0.06
450.403	0
450.605	0.11
450.806	0.07
451.008	0.02
451.21	0.02
451.411	0.03
451.613	0.04
451.814	0.06
452.016	0.11
452.217	0.1
452.419	0.12
452.62	0.07
452.821	0.1
453.023	0.1
453.224	0.1
453.426	0.06
453.627	0.05
453.828	0.14
454.03	0.05
454.231	0.08
454.432	-0.01
454.634	0.13
454.835	0.08
455.036	-0.03
455.238	0.11
455.439	0.14
455.64	0.02
455.841	0.02
456.042	0.19
456.244	0.05
456.445	0.02
456.646	0.03
456.847	0.01
457.048	0.07
457.249	0.1
457.45	0.21
457.651	-0.04
457.852	0.05
458.054	0.06
458.255	0.04
458.456	0.05
458.657	0.05
458.858	-0
459.058	0.07
459.259	0.11
459.46	0
459.661	0.04
459.862	0.13
460.063	0.02
460.264	0.05
460.465	-0.02
460.666	0.1
460.866	0.02
461.067	0.03
461.268	-0.02
461.469	0.02
461.67	0.01
461.87	0.03
462.071	0.01
462.272	-0.03
462.473	0.05
462.673	0.03
462.874	-0.03
463.075	0.06
463.275	-0.02
463.476	0.06
463.676	0.06
463.877	0.02
464.078	-0
464.278	0.07
464.479	0.02
464.679	0
464.88	-0.01
465.08	0.08
465.281	-0.04
465.481	-0.02
465.682	0.04
465.882	0.03
466.083	-0
466.283	0.04
466.483	-0.02
466.684	-0.01
466.884	-0.02
467.085	-0.01
467.285	0.07
467.485	0.01
467.686	0.01
467.886	-0.02
468.086	0.03
468.286	0.03
468.487	0.01
468.687	-0.04
468.887	0.03
469.087	0.08
469.287	-0
469.488	-0.02
469.688	0.06
469.888	0.08
470.088	0.01
470.288	0.09
470.488	0.07
470.688	-0.06
470.888	0.01
471.088	-0.01
471.288	0.05
471.488	0.08
471.688	0.04
471.888	-0
472.088	0.08
472.288	0.07
472.488	0.02
472.688	-0.03
472.888	0.02
473.088	0.02
473.288	-0.01
473.488	-0
473.688	0.05
473.887	0.01
474.087	-0.03
474.287	0.04
474.487	0
474.687	0.03
474.886	-0.02
475.086	-0.01
475.286	0.03
475.486	-0.01
475.685	0
475.885	0.01
476.085	-0.03
476.284	0.04
476.484	0.02
476.684	0.03
476.883	0.05
477.083	0.03
477.282	0.02
477.482	0.05
477.681	0.08
477.881	-0.04
478.08	-0.01
478.28	-0.04
478.479	0.03
478.679	0.08
478.878	-0
479.078	0
479.277	-0
479.477	0.02
479.676	0.05
479.875	0.03
480.075	-0.04
480.274	0.02
480.473	0.05
480.673	-0.04
480.872	0.02
481.071	-0.01
481.271	0.01
481.47	0.01
481.669	0.02
481.868	-0.01
482.067	-0.05
482.267	-0.02
482.466	-0.01
482.665	-0.02
482.864	-0.02
483.063	-0
483.262	0.01
483.461	0.05
483.661	0.02
483.86	0
484.059	0.04
484.258	0.01
484.457	0.02
484.656	0
484.855	0.05
485.054	-0.03
485.253	-0.02
485.452	-0.01
485.651	-0
485.849	-0.03
486.048	-0
486.247	-0.02
486.446	-0.01
486.645	-0.03
486.844	-0.01
487.043	0.02
487.241	0.01
487.44	-0.03
487.639	0.01
487.838	0.01
488.037	-0.01
488.235	0.04
488.434	0.01
488.633	-0.02
488.831	0.03
489.03	0.03
489.229	0.02
489.427	-0.01
489.626	0.03
489.825	0.04
490.023	0
490.222	0
490.42	0.04
490.619	0.05
490.817	0.02
491.016	-0.02
491.214	0.01
491.413	-0.01
491.611	-0
491.81	0.03
492.008	0.01
492.207	0
492.405	0.01
492.604	-0.04
492.802	0.01
493	0.01
493.199	-0.01
493.397	0.03
493.595	0.02
493.794	-0.01
493.992	0.03
494.19	-0.01
494.388	0.01
494.587	-0.01
494.785	-0.01
494.983	-0.02
495.181	-0
495.379	-0
495.578	-0
495.776	0
495.974	0.02
496.172	-0
496.37	-0.01
496.568	0.01
496.766	0
496.964	0.02
497.162	0.02
497.36	-0.03
497.558	0.02
497.756	0.03
497.954	0.01
498.152	-0.01
498.35	-0
498.548	-0
498.746	0
498.944	-0.01
499.142	-0
499.34	-0.04
499.538	-0.01
499.736	-0.03
499.933	0.03
500.131	0.03
500.329	0
500.527	0.02
500.725	0.01
500.922	-0
501.12	0.01
501.318	0.01
501.516	-0.03
501.713	-0
501.911	0
502.109	-0.04
502.306	0.01
502.504	0.01
502.701	-0.02
502.899	-0.02
503.097	0.03
503.294	0.01
503.492	-0.01
503.689	0.01
503.887	0.03
504.084	0.05
504.282	0.02
504.479	-0.02
504.677	0.03
504.874	-0.01
505.072	-0
505.269	-0.01
505.466	0.02
505.664	0.02
505.861	-0.02
506.059	-0.03
506.256	0.02
506.453	-0.01
506.651	-0
506.848	0.02
507.045	0
507.242	0.02
507.44	0
507.637	-0
507.834	-0
508.031	0.02
508.229	-0.05
508.426	0.02
508.623	0.02
508.82	-0
509.017	-0.03
509.214	-0.02
509.411	-0
509.608	-0.02
509.805	-0.01
510.003	-0.02
510.2	0.02
510.397	0.02
510.594	-0.04
510.791	-0.01
510.988	-0.02
511.184	0.01
511.381	0.01
511.578	-0
511.775	0.01
511.972	-0.03
512.169	-0
512.366	0.01
512.563	0.01
512.76	-0
512.956	0.02
513.153	-0.02
513.35	0.02
513.547	-0.02
513.744	-0.03
513.94	-0.02
514.137	0.02
514.334	-0
514.53	0.01
514.727	-0
514.924	0.06
515.12	-0.03
515.317	-0.03
515.514	-0.02
515.71	-0.03
515.907	-0
516.103	0.01
516.3	0
516.497	0.01
516.693	0.01
516.89	0
517.086	-0.05
517.283	0.03
517.479	0.03
517.676	0.01
517.872	0.01
518.068	-0.02
518.265	-0.01
518.461	0
518.658	-0.04
518.854	-0
519.05	-0.02
519.247	-0.01
519.443	0.02
519.639	-0
519.836	0
520.032	-0.01
520.228	0
520.424	0.04
520.621	0.03
520.817	0
521.013	0.02
521.209	0.01
521.405	0.04
521.601	0.01
521.798	0.01
521.994	0.03
522.19	-0.02
522.386	-0.04
522.582	0
522.778	-0
522.974	-0.02
523.17	0
523.366	0.02
523.562	0.03
523.758	-0.02
523.954	-0.02
524.15	-0.01
524.346	-0.01
524.542	-0.01
524.738	-0.03
524.934	-0.01
525.129	-0
525.325	0.02
525.521	-0
525.717	0.01
525.913	-0.01
526.109	-0.02
526.304	0.01
526.5	-0.02
526.696	0.03
526.892	-0
527.087	0.02
527.283	-0.03
527.479	0.02
527.674	-0.02
527.87	-0.02
528.066	0.01
528.261	0
528.457	0.02
528.653	0.01
528.848	-0.01
529.044	0.01
529.239	0.01
529.435	0.04
529.63	0.01
529.826	0.05
530.021	0.01
530.217	0.02
530.412	-0.01
530.608	-0.01
530.803	0.01
530.999	-0.02
531.194	-0.03
531.389	-0.01
531.585	-0.05
531.78	-0.02
531.975	-0.03
532.171	0
532.366	-0.02
532.561	-0.01
532.757	-0.04
532.952	-0
533.147	0.01
533.342	-0
533.538	-0
533.733	0.02
533.928	-0
534.123	0.01
534.318	-0.03
534.513	-0.02
534.709	0.02
534.904	-0.03
535.099	-0.01
535.294	0.01
535.489	0.02
535.684	-0.01
535.879	-0.01
536.074	0.01
536.269	-0.03
536.464	0.03
536.659	-0
536.854	-0.01
537.049	0
537.244	0.01
537.439	-0.02
537.634	0.03
537.828	0
538.023	-0
538.218	-0.03
538.413	0.01
538.608	-0.02
538.803	-0
538.997	-0.02
539.192	0.03
539.387	0.02
539.582	0
539.776	-0.01
539.971	-0.03
540.166	-0.02
540.36	-0.04
540.555	-0
540.75	-0.01
540.944	0
541.139	-0.03
541.334	0.01
541.528	0.03
541.723	-0.01
541.917	-0.01
542.112	-0.05
542.306	-0.01
542.501	0
542.695	0.01
542.89	-0.01
543.084	-0.01
543.279	-0
543.473	0.01
543.668	-0
543.862	0.01
544.056	0.02
544.251	0
544.445	0.01
544.64	-0.02
544.834	-0.04
545.028	0
545.222	0.01
545.417	0.01
545.611	-0
545.805	0.02
546	-0
546.194	-0.01
546.388	-0.02
546.582	0.01
546.776	-0
546.97	0.01
547.165	0
547.359	0
547.553	-0.02
547.747	-0
547.941	0.01
548.135	-0
548.329	0.02
548.523	0.02
548.717	-0.03
548.911	-0.01
549.105	-0
549.299	-0.01
549.493	-0
549.687	0.02
549.881	0.01
550.075	0.02
550.269	-0.04
550.463	0.02
550.657	-0.01
550.85	0.01
551.044	-0.03
551.238	-0
551.432	-0.02
551.626	-0.02
551.82	0.01
552.013	-0.03
552.207	0.01
552.401	0.01
552.594	0.02
552.788	-0.01
552.982	0.01
553.176	-0.01
553.369	0.03
553.563	-0
553.756	-0.04
553.95	-0.02
554.144	-0
554.337	0.04
554.531	-0.01
554.724	0
554.918	-0.02
555.111	0.02
555.305	-0
555.498	0.03
555.692	0.02
555.885	-0.02
556.079	0.01
556.272	-0.02
556.466	0.02
556.659	0.01
556.852	-0.01
557.046	-0.01
557.239	0.03
557.432	-0.03
557.626	-0.04
557.819	0.01
558.012	0.02
558.206	-0.01
558.399	-0.01
558.592	0
558.785	-0.03
558.979	-0
559.172	-0
559.365	0.01
559.558	-0
559.751	-0.01
559.944	-0
560.138	0.01
560.331	0
560.524	0.01
560.717	-0
560.91	-0.01
561.103	-0
561.296	0.02
561.489	0.01
561.682	0.01
561.875	0.04
562.068	0
562.261	-0
562.454	0.05
562.647	0.01
562.84	0.02
563.032	0
563.225	0.01
563.418	-0.03
563.611	-0.02
563.804	-0.01
563.997	-0.02
564.19	-0.01
564.382	0.01
564.575	0
564.768	-0
564.961	-0
565.153	-0.03
565.346	0.02
565.539	0.03
565.731	0.03
565.924	0.05
566.117	0.01
566.309	0.02
566.502	-0.01
566.695	-0
566.887	0.01
567.08	-0.02
567.272	0
567.465	-0.01
567.657	-0
567.85	0.01
568.042	-0.01
568.235	0.03
568.427	0.01
568.62	-0
568.812	0.01
569.005	0.02
569.197	-0.04
569.389	0.01
569.582	0.01
569.774	0.02
569.966	-0.02
570.159	-0.04
570.351	0
570.543	0
570.736	0
570.928	-0.04
571.12	0.01
571.312	-0.01
571.505	-0.04
571.697	0.02
571.889	-0.04
572.081	-0.02
572.273	-0.03
572.465	0.04
572.658	0.02
572.85	-0.01
573.042	-0.02
573.234	-0.02
573.426	0.03
573.618	-0.05
573.81	0.01
574.002	0.01
574.194	0.03
574.386	-0.05
574.578	-0.07
574.77	-0.04
574.962	-0.02
575.154	-0.02
575.346	-0.01
575.538	0.03
575.729	-0.01
575.921	-0.01
576.113	-0.04
576.305	0.03
576.497	-0.03
576.689	-0.01
576.88	-0.05
577.072	0
577.264	-0.01
577.456	-0.02
577.647	-0.06
577.839	0.02
578.031	0.01
578.223	-0.03
578.414	-0.03
578.606	0.04
578.798	0.02
578.989	0
579.181	0
579.372	0.01
579.564	-0.02
579.755	-0.01
579.947	0
580.139	-0.01
580.33	-0.04
580.522	-0.01
580.713	-0.05
580.905	-0
581.096	0.01
581.287	0
581.479	-0
581.67	0.01
581.862	-0.01
582.053	-0.02
582.244	-0.05
582.436	0.01
582.627	-0.01
582.818	-0
583.01	-0.05
583.201	0.02
583.392	0.01
583.583	-0.02
583.775	-0.01
583.966	-0.01
584.157	0.01
584.348	-0.01
584.54	-0.06
584.731	0
584.922	0.01
585.113	-0.03
585.304	0
585.495	0.04
585.686	0.01
585.877	-0
586.068	-0
586.259	0.01
586.45	-0.01
586.641	-0.01
586.832	-0.05
587.023	0.02
587.214	-0
587.405	-0.02
587.596	-0.05
587.787	0.04
587.978	0.01
588.169	-0.02
588.36	-0.02
588.551	0
588.742	-0.01
588.932	-0.02
589.123	-0.01
589.314	0.03
589.505	0.03
589.696	-0
589.886	-0.03
590.077	-0.03
590.268	0
590.458	-0.07
590.649	-0.03
590.84	0.02
591.03	-0.04
591.221	-0.03
591.412	-0.02
591.602	0.01
591.793	0.01
591.984	-0.05
592.174	-0.01
592.365	0.06
592.555	-0.03
592.746	0.01
592.936	0.01
593.127	-0.01
593.317	0.02
593.508	-0.02
593.698	-0.01
593.889	0.01
594.079	-0.01
594.269	-0.03
594.46	-0.01
594.65	-0
594.84	-0.02
595.031	-0.01
595.221	-0.02
595.411	-0.05
595.602	0.02
595.792	0.01
595.982	-0.03
596.172	0.03
596.363	-0.02
596.553	-0.01
596.743	-0.02
596.933	-0.03
597.123	0.03
597.314	-0.01
597.504	-0.05
597.694	0.03
597.884	0.02
598.074	-0.02
598.264	-0
598.454	-0.01
598.644	-0.03
598.834	-0.01
599.024	-0.09
599.214	-0.02
599.404	0.03
599.594	-0.03
599.784	-0.04
599.974	0.01
600.164	-0
600.354	-0.03
600.544	-0.07
600.734	0.01
600.924	-0.01
601.114	-0.01
601.303	-0.01
601.493	-0.02
601.683	-0.02
601.873	0.01
602.063	-0.04
602.252	0.02
602.442	-0.07
602.632	-0.03
602.821	-0.02
603.011	-0
603.201	-0.02
603.39	-0.02
603.58	-0.02
603.77	0
603.959	0.04
604.149	-0.02
604.339	-0.01
604.528	0.04
604.718	0.01
604.907	-0.02
605.097	-0.02
605.286	-0
605.476	0
605.665	0.02
605.855	-0.01
606.044	0
606.234	0.02
606.423	0
606.612	-0.03
606.802	-0.04
606.991	0.03
607.181	-0.01
607.37	-0.04
607.559	-0.03
607.749	-0.04
607.938	-0
608.127	0
608.316	-0.01
608.506	-0.01
608.695	-0.01
608.884	-0.02
609.073	-0.01
609.263	0.03
609.452	0.04
609.641	0
609.83	-0.03
610.019	0.01
610.208	-0.02
610.397	-0
610.586	-0.02
610.775	-0.03
610.965	0.01
611.154	-0.01
611.343	0
611.532	-0
611.721	-0.05
611.91	-0.01
612.099	0.02
612.287	-0.02
612.476	-0.04
612.665	-0
612.854	-0.02
613.043	0.02
613.232	-0
613.421	-0.03
613.61	0.01
613.798	-0.02
613.987	0
614.176	-0.02
614.365	0.03
614.554	-0.01
614.742	0.03
614.931	-0.03
615.12	0.03
615.309	-0.01
615.497	0.01
615.686	-0.02
615.875	-0.01
616.063	0.01
616.252	-0.04
616.44	-0.03
616.629	0.02
616.818	0.03
617.006	-0.02
617.195	-0
617.383	0.02
617.572	0.05
617.76	-0.04
617.949	-0.03
618.137	-0.02
618.326	0.01
618.514	-0.02
618.703	-0.05
618.891	0.03
619.079	-0.04
619.268	0.03
619.456	-0.03
619.644	0.05
619.833	-0.01
620.021	0
620.209	-0.07
620.398	0.02
620.586	-0.01
620.774	0.03
620.962	-0.01
621.151	0.04
621.339	0
621.527	-0.05
621.715	-0.04
621.903	-0.02
622.092	-0.06
622.28	0.02
622.468	0.02
622.656	-0.01
622.844	0
623.032	-0.01
623.22	-0.05
623.408	0.02
623.596	0.02
623.784	0.01
623.972	-0.04
624.16	-0
624.348	0.05
624.536	0
624.724	-0.04
624.912	0.04
625.1	-0
625.288	-0.03
625.476	-0.01
625.664	0.04
625.851	-0.02
626.039	0
626.227	0.03
626.415	0.02
626.603	-0.04
626.79	-0.03
626.978	-0.04
627.166	0
627.354	-0.02
627.541	-0.02
627.729	-0.04
627.917	0.04
628.104	0.02
628.292	0.03
628.48	-0
628.667	-0
628.855	0.01
629.042	0.03
629.23	-0.01
629.418	0.01
629.605	0.01
629.793	0.02
629.98	0.01
630.168	0
630.355	-0.01
630.543	0.03
630.73	-0
630.917	0.05
631.105	0.05
631.292	-0.04
631.48	-0.01
631.667	0.04
631.854	0.01
632.042	-0.01
632.229	-0.04
632.416	-0.01
632.604	0.01
632.791	-0.03
632.978	0.04
633.165	0.02
633.353	0.05
633.54	0.03
633.727	-0.03
633.914	0
634.101	-0.06
634.289	0.03
634.476	-0.03
634.663	-0.03
634.85	0.03
635.037	-0.05
635.224	-0.05
635.411	0.01
635.598	0.07
635.785	0.02
635.972	0
636.159	0.03
636.346	-0.01
636.533	0.01
636.72	0
636.907	-0.02
637.094	0.03
637.281	0.01
637.468	0.01
637.655	0.01
637.842	0.02
638.029	0
638.215	0.02
638.402	0
638.589	-0.02
638.776	0.01
638.963	-0.01
639.149	0.06
639.336	0.07
639.523	-0.01
639.709	-0.02
639.896	0.01
640.083	0.08
640.27	0.04
640.456	0
640.643	0.01
640.829	-0.02
641.016	-0.01
641.203	-0.01
641.389	0.06
641.576	0.04
641.762	0.03
641.949	-0.02
642.135	0.05
642.322	0.07
642.508	-0.05
642.695	0.03
642.881	-0.02
643.068	0.01
643.254	0.02
643.441	0.09
643.627	0
643.813	0.01
644	0.06
644.186	-0.02
644.372	0.02
644.559	0.05
644.745	0.03
644.931	0.02
645.118	0.04
645.304	0
645.49	0.02
645.676	0.02
645.862	0.03
646.049	0.09
646.235	0.04
646.421	0.08
646.607	0.09
646.793	0.02
646.979	0.01
647.165	0.08
647.352	0.03
647.538	0.1
647.724	0.05
647.91	0.07
648.096	0.06
648.282	0.09
648.468	0.02
648.654	0.04
648.84	0.05
649.026	0.02
649.212	0.07
649.397	0.01
649.583	-0
649.769	0.06
649.955	0.07
650.141	0.05
650.327	0.08
650.513	0.04
650.698	0.08
650.884	-0.01
651.07	0.07
651.256	0.07
651.442	0.04
651.627	0.06
651.813	0.02
651.999	0.06
652.184	0.07
652.37	0.09
652.556	0.05
652.741	0.14
652.927	-0
653.113	0.08
653.298	0.06
653.484	0.06
653.669	0.03
653.855	0.11
654.04	0.12
654.226	0.12
654.412	0.08
654.597	0.03
654.782	0.1
654.968	0.14
655.153	0.11
655.339	0.07
655.524	0.06
655.71	0.12
655.895	0.05
656.08	0.07
656.266	0.11
656.451	0.12
656.636	0.07
656.822	0.11
657.007	0.04
657.192	0.08
657.378	0.05
657.563	0.07
657.748	0.13
657.933	0.12
658.118	0.08
658.304	0.07
658.489	0.12
658.674	0.11
658.859	0.07
659.044	0.09
659.229	0.12
659.414	0.1
659.599	0.08
659.785	0.04
659.97	0.1
660.155	0.1
660.34	0.14
660.525	0.04
660.71	0.09
660.895	0.14
661.08	0.08
661.264	0.07
661.449	0.15
661.634	0.14
661.819	0.11
662.004	0.11
662.189	0.01
662.374	0.04
662.559	0.05
662.743	0.01
662.928	0.06
663.113	0.06
663.298	0
663.483	0.03
663.667	0.09
663.852	-0
664.037	0.09
664.221	0.03
664.406	0.08
664.591	0.08
664.775	0.08
664.96	0.02
665.145	0.04
665.329	0.02
665.514	-0.01
665.698	0.04
665.883	-0
666.068	0.09
666.252	0.03
666.437	-0
666.621	0.04
666.806	0.07
666.99	0.04
667.174	-0.02
667.359	0.07
667.543	-0.01
667.728	0.04
667.912	-0.03
668.096	0.03
668.281	-0.02
668.465	-0
668.649	0.01
668.834	-0.03
669.018	0
669.202	-0.04
669.387	-0.01
669.571	0.06
669.755	-0
669.939	-0.01
670.124	-0.01
670.308	0.02
670.492	0.06
670.676	0.03
670.86	-0.01
671.044	-0.05
671.228	0.04
671.413	-0.04
671.597	-0.01
671.781	-0.02
671.965	-0.01
672.149	0
672.333	-0.02
672.517	-0.06
672.701	0.05
672.885	-0.04
673.069	-0.07
673.253	0.05
673.437	-0.02
673.621	-0.01
673.804	-0.04
673.988	-0.01
674.172	-0
674.356	-0.05
674.54	-0.03
674.724	0.04
674.908	-0.01
675.091	0.04
675.275	-0
675.459	0.01
675.643	0.03
675.826	0.01
676.01	-0
676.194	-0.04
676.377	0.05
676.561	-0.01
676.745	-0.04
676.928	0.01
677.112	0.05
677.296	-0.02
677.479	-0.01
677.663	-0.06
677.846	0.05
678.03	-0
678.213	0
678.397	0.01
678.58	-0.01
678.764	-0.01
678.947	-0.04
679.131	-0.03
679.314	0
679.498	-0.04
679.681	0.02
679.865	0.07
680.048	0.01
680.231	-0
680.415	-0.01
680.598	-0.01
680.781	-0.01
680.965	-0.05
681.148	-0.02
681.331	-0.04
681.514	0.03
681.698	-0.04
681.881	-0.01
682.064	-0
682.247	-0.02
682.43	-0.07
682.614	0.04
682.797	0.03
682.98	0.01
683.163	-0.06
683.346	-0
683.529	-0.07
683.712	-0.03
683.895	0.03
684.078	-0.06
684.261	-0.02
684.444	-0.05
684.627	-0.01
684.81	-0.04
684.993	0
685.176	-0
685.359	-0.07
685.542	-0.02
685.725	0.07
685.908	-0.01
686.091	-0.03
686.274	-0
686.457	0
686.639	-0.05
686.822	0
687.005	0.01
687.188	0.02
687.371	0.07
687.553	0.01
687.736	0.02
687.919	0.08
688.102	0.03
688.284	-0.05
688.467	-0.01
688.65	-0.05
688.832	-0.01
689.015	0.03
689.197	-0.07
689.38	0.09
689.563	0.03
689.745	-0.07
689.928	-0.03
690.11	0.01
690.293	0.05
690.475	-0.02
690.658	-0.01
690.84	-0.06
691.023	-0.04
691.205	-0.01
691.388	0.03
691.57	0.03
691.752	0.06
691.935	-0.08
692.117	0.02
692.3	-0.01
692.482	0.01
692.664	-0.05
692.847	0.02
693.029	0.08
693.211	0.02
693.393	-0.03
693.576	-0.01
693.758	-0.04
693.94	-0.02
694.122	-0.1
694.304	-0.05
694.487	-0.03
694.669	0.06
694.851	-0.07
695.033	-0.03
695.215	-0.06
695.397	-0.01
695.579	-0.01
695.761	-0.02
695.943	-0.08
696.125	0.06
696.308	0.01
696.49	-0.1
696.671	0.1
696.853	0.01
697.035	0.07
697.217	0.01
697.399	0.04
697.581	-0.04
697.763	-0.01
697.945	-0.07
698.127	-0.06
698.309	0.03
698.491	-0.01
698.672	0.04
698.854	0.03
699.036	0.04
699.218	0.01
699.399	0.08
699.581	-0.04
699.763	-0.02
699.945	0.01
700.126	-0.05
700.308	-0.01
700.49	0
700.671	-0.05
700.853	-0.03
701.035	-0.03
701.216	-0.01
701.398	-0.09
701.579	0.01
701.761	0.01
701.943	-0.04
702.124	-0.05
702.306	0.02
702.487	0.12
702.669	-0.01
702.85	-0.05
703.031	-0.06
703.213	0.11
703.394	0.08
703.576	-0.03
703.757	0.05
703.938	0.03
704.12	0.13
704.301	-0.01
704.483	-0.04
704.664	0.01
704.845	0.04
705.026	0
705.208	-0.01
705.389	0
705.57	0.07
705.751	-0.01
705.933	-0.01
706.114	0.08
706.295	0.02
706.476	-0.05
706.657	0.07
706.838	0.01
707.02	0.01
707.201	0.04
707.382	-0.02
707.563	0.02
707.744	-0.07
707.925	-0
708.106	-0.06
708.287	-0.03
708.468	0.11
708.649	-0.01
708.83	0.06
709.011	-0.06
709.192	0.06
709.373	-0.06
709.554	0
709.734	0.08
709.915	-0.02
710.096	-0.06
710.277	-0.04
710.458	0.02
710.639	0.01
710.819	-0.04
711	-0.03
711.181	0.07
711.362	0.03
711.542	0.04
711.723	-0.03
711.904	-0
712.085	0.05
712.265	-0.02
712.446	0.01
712.627	0.01
712.807	0.02
712.988	0.05
713.168	-0.04
713.349	0.08
713.53	-0.15
713.71	-0.1
713.891	-0.07
714.071	0.02
714.252	0.02
714.432	-0
714.613	-0.14
714.793	-0.06
714.974	0.07
715.154	0.09
715.334	0.05
715.515	0.01
715.695	-0.08
715.876	-0.02
716.056	-0.03
716.236	-0.03
716.417	-0.03
716.597	-0.04
716.777	0.12
716.957	0.02
717.138	0.04
717.318	0.03
717.498	-0.1
717.678	0.01
717.859	0.02
718.039	-0.05
718.219	0.01
718.399	0.06
718.579	-0.02
718.759	-0.05
718.939	0.03
719.12	0.05
719.3	0.07
719.48	-0.09
719.66	-0.05
719.84	0.16
720.02	0.01
720.2	-0.07
720.38	0.04
720.56	0.13
720.74	-0.05
720.92	0.07
721.1	0.13
721.279	0.08
721.459	0.04
721.639	-0
721.819	0.09
721.999	0.07
722.179	0.01
722.359	-0.03
722.538	0.05
722.718	0.07
722.898	0.1
723.078	0.05
723.257	-0
723.437	0.03
723.617	0.04
723.797	-0.01
723.976	0.08
724.156	0.06
724.336	0.13
724.515	0.13
724.695	-0.04
724.874	-0.01
725.054	0.09
725.234	0.02
725.413	0.05
725.593	0.01
725.772	-0
725.952	0.02
726.131	0.06
726.311	0.02
726.49	0.02
726.67	-0.03
726.849	-0.01
727.028	0.12
727.208	-0
727.387	0.08
727.567	-0.01
727.746	0.09
727.925	-0.03
728.105	-0.1
728.284	0.04
728.463	0.01
728.643	0.06
728.822	-0.06
729.001	0.04
729.18	0.02
729.359	0.1
729.539	0.02
729.718	0.1
729.897	0.06
730.076	0.06
730.255	-0.02
730.434	0.04
730.614	0.06
730.793	0.09
730.972	0.02
731.151	0.1
731.33	0.14
731.509	0.12
731.688	0.07
731.867	0.14
732.046	-0.09
732.225	0.25
732.404	0.03
732.583	0.02
732.762	0.09
732.941	0.1
733.12	0
733.298	0.01
733.477	0.2
733.656	0.04
733.835	0.07
734.014	0.13
734.193	-0.07
734.371	0.18
734.55	0.15
734.729	-0.04
734.908	0.09
735.086	0
735.265	0.09
735.444	-0.02
735.623	-0.04
735.801	0.06
735.98	0.03
736.159	0.15
736.337	0.09
736.516	0.1
736.694	0.05
736.873	0.08
737.052	0.28
737.23	0.09
737.409	0
737.587	0.3
737.766	-0.09
737.944	-0.1
738.123	0.12
738.301	0.16
738.479	0.01
738.658	0.01
738.836	-0.12
739.015	0.14
739.193	0.13
739.371	-0.09
739.55	0.13
739.728	-0.03
739.906	0.14
740.085	0.2
740.263	0.08
740.441	-0.07
740.62	0.22
740.798	0.22
740.976	-0.05
741.154	-0
741.332	0.21
741.511	-0
741.689	0.03
741.867	0.09
742.045	0.06
742.223	0.04
742.401	-0.13
742.579	0.11
742.757	-0
742.935	-0.07
743.114	-0
743.292	-0.08
743.47	0.06
743.648	0.02
743.826	0.09
744.004	0.06
744.181	0.16
744.359	0.07
744.537	0.12
744.715	-0.01
744.893	0.07
745.071	-0.02
745.249	-0.11
745.427	-0.07
745.605	0.14
745.782	0.06
745.96	0.05
746.138	0.03
746.316	0.01
746.493	0.06
746.671	0.01
746.849	-0.05
747.027	0.12
747.204	-0.07
747.382	0.02
747.56	-0.11
747.737	-0.07
747.915	-0.08
748.093	0.08
748.27	-0.05
748.448	-0.07
748.625	-0.1
748.803	0.04
748.98	-0.09
749.158	0.01
749.335	0.06
749.513	-0.11
749.69	-0.02
749.868	0.03
750.045	0.05
750.223	-0.09
750.4	-0.17
750.578	0.18
750.755	0.01
750.932	-0.08
751.11	0.12
751.287	-0.11
751.464	0.04
751.642	-0.07
751.819	0.01
751.996	0.05
752.173	-0.04
752.351	-0.01
752.528	0.15
752.705	-0.13
752.882	-0.03
753.06	-0.01
753.237	0.05
753.414	0.18
753.591	0.09
753.768	-0.03
753.945	-0.03
754.122	0.01
754.299	0.07
754.476	-0.12
754.654	-0.07
754.831	0.04
755.008	0
755.185	-0.08
755.362	-0.04
755.539	-0.01
755.716	-0.14
755.892	0.04
756.069	-0.05
756.246	-0.07
756.423	-0.12
756.6	0.05
756.777	-0.06
756.954	0.09
757.131	0.04
757.307	-0.09
757.484	-0.18
757.661	0.03
757.838	0
758.015	-0.15
758.191	0.1
758.368	-0
758.545	0.2
758.721	0.17
758.898	0.04
759.075	0.01
759.251	0.06
759.428	0.03
759.605	-0.07
759.781	-0.11
759.958	0
760.134	0.01
760.311	-0.16
760.488	0.03
760.664	0.12
760.841	-0.1
761.017	-0.27
761.194	0.02
761.37	0.01
761.547	-0.04
761.723	-0.15
761.899	0.11
762.076	-0.05
762.252	-0.12
762.429	-0.02
762.605	0.15
762.781	-0.18
762.958	0.04
763.134	-0.07
763.31	-0.13
763.486	0.08
763.663	-0.24
763.839	0.01
764.015	-0.22
764.191	-0.13
764.368	-0.07
764.544	-0.04
764.72	-0.06
764.896	0.15
765.072	-0.02
765.248	-0.03
765.425	0.01
765.601	-0.08
765.777	0.03
765.953	-0.18
766.129	-0.06
766.305	-0.08
766.481	0.06
766.657	0.06
766.833	0.09
767.009	-0.11
767.185	-0.07
767.361	-0.02
767.537	-0.07
767.713	0.09
767.889	-0.03
768.065	0.06
768.24	-0.21
768.416	0.06
768.592	-0.15
768.768	0
768.944	0.03
769.12	-0.17
769.295	-0.12
769.471	0.02
769.647	-0
769.823	0.19
769.998	-0.1
770.174	-0.24
770.35	0.28
770.525	0.32
770.701	0.09
770.877	0.11
771.052	-0.02
771.228	-0.05
771.403	0.02
771.579	0.06
771.755	0.22
771.93	-0.11
772.106	-0.1
772.281	-0.07
772.457	-0.14
772.632	0.1
772.808	-0.16
772.983	-0.05
773.159	-0.28
773.334	0.22
773.509	-0.11
773.685	-0.19
773.86	0.27
774.036	0.19
774.211	0.07
774.386	-0.04
774.562	-0
774.737	0.15
774.912	-0.24
775.087	0.01
775.263	-0.06
775.438	-0.02
775.613	-0.25
775.788	-0.17
775.964	-0.02
776.139	0.27
776.314	-0.3
776.489	-0.06
776.664	-0.03
776.839	-0.11
777.014	0.19
777.19	-0
777.365	-0.05
777.54	0.23
777.715	-0.2
777.89	-0.13
778.065	-0.06
778.24	-0.08
778.415	0.01
778.59	-0.19
778.765	-0.13
778.94	-0.1
779.115	-0.26
779.289	-0.12
779.464	-0.01
779.639	-0.11
779.814	-0.28
779.989	-0.21
780.164	0.05
780.339	0.11
780.513	-0.11
780.688	-0.07
780.863	0
781.038	0.09
781.212	-0.04
781.387	-0.06
781.562	0.16
781.737	0.1
781.911	0.17
782.086	-0.14
782.261	-0.08
782.435	0.16
782.61	-0.05
782.784	-0.01
782.959	0.04
783.134	-0.26
783.308	-0.2
783.483	0
783.657	0.22
783.832	0.22
784.006	-0.29
784.181	-0.11
784.355	0.02
784.53	-0
784.704	-0.31
784.878	0.26
785.053	0.06
785.227	0.19
785.402	0.21
785.576	-0.09
785.75	-0.13
785.925	-0.05
786.099	0.02
786.273	0.26
786.448	0.08
786.622	0.03
786.796	-0.23
786.97	-0.14
787.145	0.36
787.319	-0.34
787.493	-0.22
787.667	-0.36
787.841	-0.11
788.015	-0.05
788.19	-0.27
788.364	0.22
788.538	-0.03
788.712	0.18
788.886	-0.01
789.06	0.25
789.234	-0.15
789.408	-0.18
789.582	-0.14
789.756	0.06
789.93	-0.27
790.104	-0.19
790.278	-0.07
790.452	-0.21
790.626	0.31
790.8	-0.09
790.973	0.03
791.147	0.09
791.321	0.25
791.495	0.13
791.669	0.09
791.843	0.03
792.016	0.05
792.19	0.42
792.364	-0.28
792.538	0.42
792.711	0.18
792.885	-0.29
793.059	-0.22
793.233	-0.55
793.406	0.04
793.58	0.06
793.754	-0.06
793.927	-0.07
794.101	-0.02
794.274	0.11
794.448	0.28
794.622	-0.2
794.795	0.33
794.969	-0.28
795.142	0.04
795.316	-0.14
795.489	-0
795.663	0.39
795.836	0
796.009	-0.22
796.183	0.33
796.356	-0.04
796.53	0.08
796.703	-0.15
796.876	0.66
797.05	-0.35
797.223	-0.08
797.396	0.08
797.57	-0.04
797.743	0.23
797.916	-0.13
798.09	0.23
798.263	-0.01
798.436	0.34
798.609	-0.3
798.782	-0.24
798.956	0.02
799.129	0.05
799.302	0.03
799.475	-0.38
799.648	-0.08
799.821	-0.18
799.994	-0.04
800.167	-0.45
800.34	0.15
800.514	0.14
800.687	-0.11
800.86	-0.34
801.033	0.03
801.206	-0.42
801.379	-0.11
801.551	0.07
801.724	0.11
801.897	0.05
802.07	-0.14
802.243	-0.67
802.416	-0.27
802.589	-0.25
802.762	0.04
802.935	-0.12
803.107	0.13
803.28	0.02
803.453	-0.01
803.626	-0.37
803.798	0.07
803.971	-0.05
804.144	0.16
804.317	0.11
804.489	-0.1
804.662	0.13
804.835	0.07
805.007	-0.27
805.18	0.48
805.353	0.03
805.525	-0.27
805.698	-0.11
805.87	0.43
806.043	-0.1
806.215	-0.25
806.388	0.11
806.56	0.17
806.733	0.18
806.905	-0.04
807.078	-0.15
807.25	-0.35
807.423	-0.13
807.595	-0.01
807.768	0.05
807.94	0.06
808.112	0.32
808.285	0.07
808.457	-0.24
808.629	-0.09
808.802	0.18
808.974	-0.14
809.146	0.06
809.318	-0.26
809.491	-0.1
809.663	0.15
809.835	-0.34
810.007	-0.18
810.18	-0.35
810.352	-0.08
810.524	-0.43
810.696	0.01
810.868	0.48
811.04	-0.12
811.212	-0.27
811.384	0.04
811.556	-0.12
811.728	0.07
811.901	0.43
812.073	-0.18
812.245	-0.52
812.417	0.13
812.589	-0.8
812.76	0.08
812.932	0.49
813.104	0.21
813.276	-0.14
813.448	0.16
813.62	0.05
813.792	0
813.964	0.18
814.136	0.01
814.307	-0.13
814.479	-0.12
814.651	-0.26
814.823	0.59
814.995	-0.27
815.166	0.14
815.338	-0.05
815.51	-0.61
815.681	0.81
815.853	-0.07
816.025	-0.54
816.196	0.25
816.368	-0.15
816.54	-0.63
816.711	-0.1
816.883	0.01
817.054	0.97
817.226	-0.61
817.398	-0.21
817.569	-0.19
817.741	-0.16
817.912	-0.03
818.084	-0.1
818.255	0.01
818.426	-0.17
818.598	-0.04
818.769	-0.38
818.941	0.28
819.112	0.48
819.283	-0.02
819.455	-0.73
819.626	0.13
819.798	0.09
819.969	-0.37
820.14	-0.36
820.311	-0.03
820.483	-0.11
820.654	0.5
820.825	-0.27
820.996	-0.53
821.168	-0.46
821.339	-0.11
821.51	-0.4
821.681	-0.24
821.852	0.03
822.023	-0.24
822.195	-0.69
822.366	0.29
822.537	0.44
822.708	-0.27
822.879	-0.17
823.05	0.64
823.221	-0.14
823.392	-0.07
823.563	-0.34
823.734	-0.2
823.905	0.11
824.076	-0.42
824.247	-0.68
824.418	0.15
824.589	-0.01
824.759	-0.44
824.93	0.02
825.101	-0.47
825.272	0.05
825.443	0.34
825.614	0.24
825.784	-0.87
825.955	1.31
826.126	0.69
826.297	0.04
826.467	0.14
826.638	0.72
826.809	-0.64
826.98	-0.16
827.15	-0.36
827.321	-0.09
827.492	0.82
827.662	0.34
827.833	0.54
828.003	0.25
828.174	-0.4
828.345	-0.68
828.515	0.42
828.686	0.24
828.856	-0.35
829.027	0.23
829.197	-0.17
829.368	0.21
829.538	-0.34
829.709	-0.23
829.879	0.16
830.049	-0.01
830.22	-0.54
830.39	0.09
830.56	0.18
830.731	-0.69
830.901	-0.02
831.072	0.02
831.242	-0.01
831.412	-0.07
831.582	0.15
831.753	-0.88
831.923	0.07
832.093	-0.41
832.263	0.08
832.434	-0.6
832.604	-0.37
832.774	0.14
832.944	-0.28
833.114	-0.07
833.284	0.33
833.454	-0.79
833.624	-0.7
833.795	-0.17
833.965	0.28
834.135	0.17
834.305	-0.72
834.475	-0.51
834.645	0.12
834.815	0.4
834.985	-0.47
835.155	-0.31
835.325	0.27
835.494	0.04
835.664	0.2
835.834	-0.24
836.004	0.06
836.174	-0.13
836.344	-0.17
836.514	-1.1
836.684	-0.28
836.853	0.01
837.023	-0.15
837.193	-0.03
837.363	0.18
837.532	0.93
837.702	-0.46
837.872	-0.83
838.041	0.55
838.211	0.78
838.381	-0.67
838.55	0.07
838.72	1.43
838.89	0.84
839.059	-0.47
839.229	-0.36
839.398	0.95
839.568	-0.03
839.738	-0.19
839.907	0.84
840.077	0.93
840.246	-0.66
840.416	-0.6
840.585	-0.84
840.755	0.84
840.924	0.16
841.093	-0.81
841.263	-0.58
841.432	1.09
841.602	-0.87
841.771	-0.88
841.94	-0.16
842.11	1.03
842.279	1.37
842.448	-1.42
842.617	-0.35
842.787	1.25
842.956	-0.65
843.125	0.14
843.294	0.57
843.464	0.95
843.633	-0.2
843.802	-0.28
843.971	-0.53
844.14	0.1
844.309	0.13
844.479	-0.86
844.648	-0.5
844.817	-0.63
844.986	0.06
845.155	-1.18
845.324	-0.2
845.493	-0.18
845.662	-1.19
845.831	0.35
846	0.71
846.169	-0.59
846.338	1.29
846.507	0.49
846.676	0.36
846.844	-0.12
847.013	0.91
847.182	-0.24
847.351	-0.88
847.52	0.14
847.689	0.27
847.858	-0.62
848.026	-0.11
848.195	-0.84
848.364	-0.69
848.533	-0.17
848.701	-0.11
848.87	0.42
849.039	-0.37
849.207	1.01
849.376	0.3
849.545	1.07
849.713	0.15
849.882	0.71
850.051	0.32
850.219	0.53
850.388	0.4
850.556	-0.47
850.725	-1.06
850.893	0.81
851.062	0.2
851.23	0.99
851.399	-1.42
851.567	-0.64
851.736	-0.09
851.904	-1.71
852.073	-0.68
852.241	0.42
852.41	0.2
852.578	-0.34
852.746	-1.52
852.915	0.55
853.083	0.06
853.251	-1.33
853.42	-0.25
853.588	0.08
853.756	0.27
853.924	0.09
854.093	-0.5
854.261	-0.47
854.429	-0.48
854.597	-0.37
854.765	-1.38
854.934	-0.03
855.102	1.41
855.27	-0.74
855.438	0.83
855.606	0.79
855.774	1.21
855.942	-2.22
856.11	-0.64
856.278	-0.06
856.446	0.93
856.614	-0.52
856.782	-0.42
856.95	1.08
857.118	0.7
857.286	0.02
857.454	0.18
857.622	0.48
857.79	0.07
857.958	-1.01
858.126	0.07
858.294	-2.42
858.462	-0.07
858.629	-1.04
858.797	-0.69
858.965	0.31
859.133	-0.44
859.301	-0.48
859.468	-0.01
859.636	-0.42
859.804	0.85
859.971	1.84
860.139	-0.77
860.307	1.12
860.474	-0.49
860.642	-0.22
860.81	-0.47
860.977	-0.38
861.145	-0.32
861.313	-0.83
861.48	-1.55
861.648	-0.31
861.815	-0.16
861.983	-1.07
862.15	-0.45
862.318	-0.69
862.485	1.54
862.653	-0.7
862.82	-1.68
862.988	0.18
863.155	0.69
863.322	-1.51
863.49	-1.21
863.657	-1.35
863.824	1.81
863.992	0.25
864.159	0.86
864.326	1.26
864.494	-1.38
864.661	2.2
864.828	-2.11
864.996	1.38
865.163	2.3
865.33	-0.61
865.497	-3.18
865.664	-0.37
865.832	-1.39
865.999	-0.4
866.166	-1.32
866.333	-1.94
866.5	0.1
866.667	-1.52
866.834	-1.24
867.001	1.86
867.168	-1.09
867.335	0.96
867.502	-0.5
867.669	-0.13
867.836	0.55
868.003	-0.9
868.17	1.07
868.337	1.54
868.504	1.61
868.671	-1.96
868.838	-0.06
869.005	-0.33
869.172	1.32
869.339	-1.08
869.505	-1.06
869.672	-1.16
869.839	0.3
870.006	0.22
870.173	-1.89
870.339	0.35
870.506	2.13
870.673	0.41
870.84	0.95
871.006	0.19
871.173	0.75
871.34	-0.7
871.506	-1.48
871.673	1.28
871.839	-1.29
872.006	0.59
872.173	-1.05
872.339	-0.45
872.506	1.87
872.672	-0.4
872.839	-2.23
873.005	-1.18
873.172	3.07
873.338	1.27
873.505	-1.24
873.671	-0.02
873.838	-1.1
874.004	-2.4
874.171	-2.34
874.337	0.72
874.503	1.79
874.67	0.08
874.836	-1.61
875.002	1.21
875.169	1.39
875.335	-0.59
875.501	-0.93
875.668	-0.07
875.834	-0.27
876	-0.53
876.166	2.41
876.332	-0.11
876.499	1.39
876.665	-1.49
876.831	-1.1
876.997	2.16
877.163	1.3
877.329	-1.48
877.495	1.37
877.662	0.6
877.828	1.46
877.994	-0.87
878.16	-0.83
878.326	-1.04
878.492	-0.21
878.658	-0.26
878.824	-1.1
878.99	0.8
879.156	-0.69
879.322	1.75
879.487	-1.63
879.653	0.35
879.819	-2.22
879.985	-1.62
880.151	-0.39
880.317	0.09
880.483	-0.41
880.648	0.43
880.814	-2.07
880.98	1.14
881.146	-2.46
881.312	-2.14
881.477	0.39
881.643	-1.32
881.809	3.09
881.974	1.16
882.14	-1.09
882.306	-0.28
882.471	2.01
882.637	-1.99
882.803	1.18
882.968	2.45
883.134	3.33
883.299	-0.26
883.465	-1.14
883.63	2.27
883.796	0.41
883.961	3.88
884.127	0.17
884.292	-5.61
884.458	-1.81
884.623	-1.81
