Data from Apollo_Calib_20240827__AbsoluteIrradiance__133__01-22-00-764.txt Node

Date: Wed Aug 28 01:22:00 BST 2024
User: biology
Spectrometer: FLMT08252
Trigger mode: 0
Integration Time (sec): 5.000000E-1
Scans to average: 5
Electric dark correction enabled: true
Nonlinearity correction enabled: false
Boxcar width: 0
XAxis mode: Wavelengths
Number of Pixels in Spectrum: 3648
>>>>>Begin Spectral Data<<<<<
179.588	-0
179.809	-0
180.03	-0
180.251	-0
180.473	-0
180.694	0
180.915	0
181.136	-0
181.357	0
181.578	0
181.799	0
182.02	-0
182.241	0
182.462	-0
182.683	0
182.904	-0
183.125	-0
183.346	0
183.567	-0
183.788	-0
184.009	-0
184.23	0
184.451	0
184.672	-0
184.892	-0
185.113	0
185.334	-0
185.555	-0
185.776	-0
185.996	0
186.217	-0
186.438	-0
186.659	-0
186.879	0
187.1	-0
187.321	-0
187.541	-0
187.762	0
187.983	-0
188.203	-0
188.424	-0
188.644	-0
188.865	-0
189.086	-0
189.306	-0
189.527	-0
189.747	-0
189.968	-0
190.188	-0
190.409	0
190.629	0
190.849	-0
191.07	-0
191.29	0
191.511	0
191.731	-0
191.951	-0
192.172	-0
192.392	-0
192.612	-0
192.833	-0
193.053	-0
193.273	0
193.493	-0
193.714	-0
193.934	0
194.154	0
194.374	0
194.594	-0
194.815	-0
195.035	0
195.255	0
195.475	-0
195.695	-0
195.915	0
196.135	-0
196.355	0
196.575	0
196.795	-0
197.015	-0
197.235	-0
197.455	-0
197.675	0
197.895	-0
198.115	-0
198.335	0
198.555	-0
198.775	-0
198.995	-0
199.214	0
199.434	-0
199.654	-0
199.874	-0
200.094	0.75
200.313	-0.08
200.533	-0.84
200.753	-0.75
200.973	0.63
201.192	-0.12
201.412	-0.86
201.632	-0.64
201.851	0.57
202.071	-1.04
202.291	-0.72
202.51	-0.59
202.73	0.11
202.95	-0.11
203.169	-0.78
203.389	-0.3
203.608	-0.31
203.828	-0.52
204.047	-0.39
204.267	0.24
204.486	0.06
204.706	0.04
204.925	-0.21
205.145	-0.1
205.364	0.15
205.583	0.31
205.803	-0.26
206.022	-0.33
206.242	-0.14
206.461	0.06
206.68	-0.08
206.9	-0.14
207.119	0.54
207.338	0.12
207.557	-0.21
207.777	-0.15
207.996	-0.14
208.215	0.29
208.434	-0.22
208.654	-0.76
208.873	0.04
209.092	0.21
209.311	-0.38
209.53	-0.23
209.749	-0.19
209.968	-0.24
210.187	-0.21
210.407	-0.64
210.626	-0.24
210.845	0.07
211.064	-0.19
211.283	-0.27
211.502	0.37
211.721	-0.12
211.94	-0.14
212.159	-0.04
212.377	0.22
212.596	0.45
212.815	0.09
213.034	0.14
213.253	0.11
213.472	0.27
213.691	-0.36
213.91	-0.29
214.128	-0.25
214.347	0.35
214.566	-0.23
214.785	-0.33
215.003	-0.08
215.222	-0.07
215.441	-0.28
215.66	-0.17
215.878	-0.06
216.097	0.02
216.316	-0.37
216.534	-0.19
216.753	-0.13
216.972	-0.13
217.19	-0.2
217.409	-0.18
217.627	-0.24
217.846	-0.15
218.064	-0.21
218.283	-0.27
218.501	0.19
218.72	0.14
218.938	-0.35
219.157	-0.12
219.375	0.11
219.594	-0.01
219.812	-0.12
220.031	-0.12
220.249	0.23
220.467	0.17
220.686	-0.12
220.904	-0.28
221.122	-0.32
221.341	0.29
221.559	-0.12
221.777	-0.29
221.995	-0.15
222.214	-0.15
222.432	-0.14
222.65	0.01
222.868	-0.12
223.086	0.06
223.305	0.05
223.523	-0.02
223.741	0.1
223.959	-0.22
224.177	-0.22
224.395	-0.28
224.613	-0.11
224.831	0.04
225.049	-0.11
225.267	-0.15
225.485	-0.17
225.703	-0.2
225.921	-0.16
226.139	-0.15
226.357	0.19
226.575	-0.05
226.793	-0.11
227.011	0.35
227.229	-0.09
227.447	0.09
227.665	-0.18
227.883	-0.3
228.1	0.06
228.318	0.01
228.536	-0.33
228.754	-0.18
228.972	-0.08
229.189	0.13
229.407	-0.19
229.625	-0.1
229.843	-0
230.06	0.01
230.278	-0.16
230.496	-0.01
230.713	-0.04
230.931	0.03
231.149	-0.09
231.366	-0.25
231.584	0.05
231.801	0.29
232.019	-0.18
232.236	-0.17
232.454	-0.13
232.671	0.07
232.889	-0.12
233.106	-0.2
233.324	-0.04
233.541	-0.04
233.759	-0.15
233.976	-0.18
234.194	-0.11
234.411	-0.05
234.628	-0.24
234.846	-0.05
235.063	-0.09
235.28	-0.13
235.498	-0.16
235.715	-0.21
235.932	0.07
236.149	-0.1
236.367	-0.22
236.584	0.08
236.801	-0.03
237.018	0.04
237.236	-0.08
237.453	-0.22
237.67	0.07
237.887	-0.14
238.104	-0.02
238.321	-0.13
238.538	-0.13
238.755	0.06
238.973	-0.18
239.19	-0.04
239.407	0.05
239.624	0
239.841	-0.17
240.058	-0.06
240.275	0.02
240.492	-0.2
240.709	-0.04
240.925	-0.07
241.142	0.03
241.359	-0.09
241.576	-0.16
241.793	-0.13
242.01	0.03
242.227	-0.03
242.444	-0.03
242.66	0.02
242.877	-0.08
243.094	-0.08
243.311	0.01
243.527	-0.05
243.744	-0.05
243.961	0.08
244.178	-0.14
244.394	-0.08
244.611	0.13
244.828	0.19
245.044	-0.09
245.261	-0.05
245.477	0.02
245.694	0.01
245.911	-0.11
246.127	0.02
246.344	0.02
246.56	0.04
246.777	-0.07
246.993	-0.06
247.21	0.03
247.426	0.03
247.643	-0.09
247.859	-0.1
248.076	-0.08
248.292	0.21
248.508	-0.12
248.725	-0.03
248.941	0.04
249.157	0.05
249.374	-0.11
249.59	-0.03
249.806	-0
250.023	0.06
250.239	-0.09
250.455	-0.06
250.671	-0.05
250.888	0.02
251.104	-0.02
251.32	-0.09
251.536	-0.03
251.752	-0.09
251.969	-0
252.185	-0.02
252.401	0.05
252.617	0.04
252.833	-0.07
253.049	-0.03
253.265	-0.06
253.481	-0.01
253.697	-0.08
253.913	-0.05
254.129	-0.01
254.345	-0
254.561	-0.06
254.777	-0.08
254.993	0.07
255.209	-0.06
255.425	-0.08
255.641	-0.07
255.857	0.07
256.073	-0.07
256.288	-0.17
256.504	-0.09
256.72	-0.02
256.936	0.07
257.152	-0.05
257.367	-0.07
257.583	0.01
257.799	0.01
258.015	-0.06
258.23	-0.09
258.446	0.13
258.662	-0
258.877	-0.14
259.093	-0.06
259.309	-0.03
259.524	0.02
259.74	-0.07
259.955	-0.14
260.171	-0.04
260.387	-0.05
260.602	0.05
260.818	0.04
261.033	-0.08
261.249	-0.06
261.464	-0.1
261.68	-0.1
261.895	-0.03
262.11	0.03
262.326	-0.09
262.541	-0.13
262.757	0.07
262.972	0
263.187	-0.05
263.403	-0.01
263.618	0.01
263.833	-0.05
264.049	-0.1
264.264	0.01
264.479	0.09
264.694	0.06
264.91	-0.13
265.125	-0.04
265.34	0
265.555	0.12
265.77	-0.03
265.986	-0.12
266.201	-0.02
266.416	0.05
266.631	-0.08
266.846	-0.05
267.061	-0.06
267.276	-0
267.491	-0.13
267.706	-0.02
267.921	-0.03
268.136	-0.05
268.351	-0.04
268.566	-0.11
268.781	0.02
268.996	0.03
269.211	-0.04
269.426	-0.11
269.641	-0.05
269.856	-0.01
270.071	-0.1
270.285	-0.13
270.5	-0.02
270.715	0.02
270.93	0.01
271.145	-0.04
271.359	-0.04
271.574	-0.13
271.789	-0.04
272.004	-0.09
272.218	-0.03
272.433	0.01
272.648	-0.08
272.862	0.06
273.077	-0.05
273.292	-0.03
273.506	-0.07
273.721	-0.02
273.936	0.01
274.15	0.01
274.365	-0.05
274.579	0.04
274.794	0.08
275.008	0.08
275.223	-0.08
275.437	-0
275.652	-0.01
275.866	-0.06
276.081	-0.02
276.295	-0.02
276.509	-0.06
276.724	-0.02
276.938	-0.02
277.153	0.03
277.367	0
277.581	-0.08
277.796	-0.05
278.01	-0.04
278.224	0.06
278.438	0.08
278.653	-0.04
278.867	0
279.081	-0.18
279.295	-0.04
279.51	-0.02
279.724	-0.16
279.938	0.02
280.152	0
280.366	-0.06
280.58	0.03
280.794	0.05
281.008	-0.01
281.222	0.01
281.437	0.09
281.651	0.03
281.865	0.04
282.079	-0.05
282.293	-0.1
282.507	-0.07
282.721	-0.05
282.935	-0.03
283.148	-0.14
283.362	-0.04
283.576	-0.04
283.79	-0.04
284.004	-0.07
284.218	0.05
284.432	-0.06
284.646	0
284.859	-0.03
285.073	-0.07
285.287	-0.04
285.501	-0.01
285.714	-0.03
285.928	-0.01
286.142	0.01
286.356	-0.03
286.569	-0.04
286.783	0.03
286.997	0
287.21	-0.03
287.424	0
287.637	-0.05
287.851	-0.06
288.065	0.03
288.278	-0.01
288.492	-0.04
288.705	-0.07
288.919	0.01
289.132	-0.1
289.346	0.04
289.559	-0.11
289.773	-0.11
289.986	-0.02
290.2	-0.03
290.413	0.07
290.626	-0.1
290.84	0.02
291.053	-0.03
291.267	-0.01
291.48	0
291.693	-0.02
291.906	-0.07
292.12	-0.09
292.333	-0.05
292.546	-0.07
292.76	0.02
292.973	0.01
293.186	0.02
293.399	-0.04
293.612	0.04
293.826	-0.03
294.039	-0.05
294.252	-0.04
294.465	0.01
294.678	0.03
294.891	-0.03
295.104	-0.06
295.317	0.03
295.53	-0.03
295.743	-0.01
295.956	-0.05
296.169	0.03
296.382	0.02
296.595	0.03
296.808	-0.05
297.021	0.08
297.234	0.01
297.447	-0.02
297.66	0
297.873	0.06
298.086	0.03
298.299	-0.03
298.511	-0.06
298.724	0.01
298.937	-0.06
299.15	-0.05
299.363	-0.01
299.575	-0.02
299.788	0.01
300.001	-0.03
300.213	-0.02
300.426	-0.02
300.639	0.01
300.852	-0.02
301.064	0.02
301.277	0.01
301.489	-0
301.702	0.05
301.915	-0.01
302.127	-0.02
302.34	0.01
302.552	0.02
302.765	-0.04
302.977	0.04
303.19	-0.05
303.402	-0.08
303.615	-0.01
303.827	-0.03
304.04	-0.03
304.252	0
304.464	-0.02
304.677	0.09
304.889	0.03
305.102	-0.06
305.314	-0.02
305.526	0.02
305.739	0.03
305.951	-0.06
306.163	-0.01
306.375	0.06
306.588	-0.11
306.8	-0.06
307.012	-0.07
307.224	-0.03
307.436	0.08
307.649	-0.11
307.861	0.02
308.073	0.02
308.285	-0.01
308.497	-0.04
308.709	-0.04
308.921	-0.01
309.133	-0
309.346	-0.02
309.558	-0.02
309.77	0.01
309.982	0.05
310.194	0.03
310.406	-0.05
310.617	0.04
310.829	0
311.041	0.01
311.253	-0.04
311.465	-0.01
311.677	0.01
311.889	-0.02
312.101	-0.04
312.313	0.04
312.524	0.01
312.736	-0.07
312.948	0
313.16	-0
313.372	-0.03
313.583	0
313.795	-0.02
314.007	-0.06
314.218	-0.05
314.43	-0.02
314.642	-0.03
314.853	-0.06
315.065	0.02
315.277	-0.04
315.488	0.05
315.7	0.04
315.912	0.02
316.123	0
316.335	-0.02
316.546	0.11
316.758	-0.03
316.969	-0.02
317.181	0.01
317.392	-0.04
317.604	0.02
317.815	-0.05
318.026	-0.07
318.238	-0.05
318.449	0.02
318.661	-0.07
318.872	-0.1
319.083	-0.03
319.295	0.03
319.506	-0.01
319.717	0.03
319.929	0.03
320.14	-0.05
320.351	-0
320.562	-0.04
320.774	-0.01
320.985	-0.03
321.196	-0.05
321.407	-0.13
321.618	0.04
321.829	0
322.041	-0
322.252	-0.02
322.463	-0
322.674	-0.02
322.885	-0.04
323.096	-0
323.307	-0.02
323.518	-0.01
323.729	-0.05
323.94	-0
324.151	-0.04
324.362	-0.04
324.573	0.02
324.784	-0.06
324.995	0.02
325.206	0.03
325.417	-0.04
325.628	-0.02
325.838	0.01
326.049	-0.02
326.26	0.03
326.471	-0.01
326.682	0
326.892	-0.07
327.103	-0.09
327.314	-0.07
327.525	0.05
327.735	-0.02
327.946	-0.07
328.157	-0.03
328.368	-0
328.578	-0.02
328.789	0.02
328.999	0
329.21	-0.03
329.421	-0.04
329.631	-0.05
329.842	-0.06
330.052	0.01
330.263	-0.01
330.473	0
330.684	-0.01
330.894	-0
331.105	-0
331.315	-0.03
331.526	-0.07
331.736	0.06
331.947	-0
332.157	-0
332.367	-0.03
332.578	0.01
332.788	0.01
332.999	0.01
333.209	-0.01
333.419	-0.03
333.629	-0.03
333.84	-0
334.05	-0.01
334.26	0.06
334.47	0.01
334.681	0.05
334.891	-0.04
335.101	0.01
335.311	0.03
335.521	0.01
335.732	-0.06
335.942	0.05
336.152	0.03
336.362	0
336.572	-0.02
336.782	0.03
336.992	-0.02
337.202	-0.04
337.412	-0.06
337.622	-0
337.832	-0.02
338.042	-0
338.252	-0.05
338.462	-0.04
338.672	-0.03
338.882	-0.03
339.092	0.03
339.302	0.05
339.511	-0.02
339.721	-0.03
339.931	-0.06
340.141	-0.01
340.351	0.04
340.561	0.02
340.77	0.01
340.98	0.01
341.19	-0.02
341.4	-0.03
341.609	-0.06
341.819	-0.03
342.029	-0.07
342.238	-0.02
342.448	-0.02
342.658	0.01
342.867	-0.02
343.077	-0.03
343.286	0
343.496	0.02
343.706	0.06
343.915	-0.04
344.125	0.01
344.334	0.01
344.544	-0.06
344.753	-0.06
344.963	-0.04
345.172	0
345.381	-0.04
345.591	-0.03
345.8	-0.05
346.01	0.01
346.219	0.01
346.428	-0.16
346.638	-0.01
346.847	-0.05
347.056	0.06
347.266	-0.04
347.475	-0.01
347.684	0
347.893	0
348.103	0.02
348.312	-0.01
348.521	-0.05
348.73	0.03
348.94	-0
349.149	-0
349.358	-0.04
349.567	-0.03
349.776	-0.08
349.985	-0.01
350.194	-0
350.403	0.03
350.612	-0.07
350.821	-0.06
351.03	-0.03
351.239	-0.07
351.448	-0.07
351.657	-0.08
351.866	0
352.075	-0.02
352.284	-0.01
352.493	-0.07
352.702	0.04
352.911	0.02
353.12	-0.01
353.329	-0.03
353.538	-0.02
353.746	-0.06
353.955	-0.05
354.164	0
354.373	0.01
354.582	0.03
354.79	0.03
354.999	0.02
355.208	-0.04
355.416	0.04
355.625	-0.08
355.834	-0.02
356.042	-0
356.251	-0.08
356.46	-0.1
356.668	0.04
356.877	0.05
357.085	0.01
357.294	-0.08
357.503	-0.03
357.711	-0
357.92	0.05
358.128	-0.05
358.337	-0.01
358.545	0.02
358.754	-0.02
358.962	0.02
359.17	-0.04
359.379	0
359.587	0.01
359.796	-0.02
360.004	0.03
360.212	-0.02
360.421	0.04
360.629	-0.02
360.837	-0.03
361.046	0.01
361.254	0.06
361.462	-0.01
361.67	-0.01
361.879	-0.01
362.087	0.04
362.295	-0
362.503	-0
362.711	-0.09
362.92	-0.02
363.128	-0.02
363.336	-0.07
363.544	-0.05
363.752	-0.03
363.96	-0.04
364.168	-0.04
364.376	-0.04
364.584	-0.02
364.792	0.02
365	0.03
365.208	-0.01
365.416	0.03
365.624	0.06
365.832	-0.03
366.04	0.02
366.248	0
366.456	-0.01
366.664	0.02
366.872	-0.03
367.079	-0.06
367.287	-0.01
367.495	0.03
367.703	0
367.911	-0.04
368.118	-0
368.326	-0.01
368.534	-0.05
368.742	0.05
368.949	-0.03
369.157	-0.06
369.365	-0
369.572	-0.03
369.78	-0.07
369.988	0.01
370.195	0.02
370.403	-0
370.61	-0.03
370.818	-0.02
371.026	0.05
371.233	-0.04
371.441	0.01
371.648	-0.02
371.856	0.01
372.063	-0.01
372.271	-0.03
372.478	-0.04
372.685	-0.04
372.893	0.02
373.1	-0.03
373.308	-0.08
373.515	0.06
373.722	-0
373.93	-0.01
374.137	0.02
374.344	0.03
374.552	-0.01
374.759	-0.01
374.966	-0.02
375.173	-0.03
375.381	-0.01
375.588	0
375.795	-0.1
376.002	-0.07
376.209	-0.01
376.417	-0.04
376.624	-0.03
376.831	0
377.038	-0.03
377.245	-0.09
377.452	-0.05
377.659	-0
377.866	-0.02
378.073	-0.02
378.28	-0
378.487	0.08
378.694	-0.01
378.901	-0.02
379.108	-0.04
379.315	0.02
379.522	0.08
379.729	0.03
379.936	-0.02
380.143	-0
380.35	-0.02
380.557	-0.04
380.763	0.01
380.97	-0.02
381.177	0.01
381.384	0.04
381.591	-0.05
381.797	-0.01
382.004	0.03
382.211	-0.03
382.418	-0.01
382.624	0.01
382.831	0.02
383.038	-0.01
383.244	0
383.451	-0.01
383.658	-0.01
383.864	-0.01
384.071	-0.06
384.277	0.03
384.484	-0.02
384.69	-0
384.897	-0.04
385.103	-0.04
385.31	-0.07
385.516	-0.05
385.723	-0.03
385.929	-0.01
386.136	-0.02
386.342	-0.01
386.549	-0.03
386.755	0.08
386.961	-0.01
387.168	-0.04
387.374	-0.03
387.58	-0.01
387.787	-0.01
387.993	0
388.199	-0.03
388.406	-0.02
388.612	0.02
388.818	-0.02
389.024	-0.03
389.231	-0.01
389.437	0.05
389.643	0.02
389.849	0
390.055	0.04
390.261	-0.06
390.467	-0.01
390.674	-0.06
390.88	-0.03
391.086	-0.01
391.292	-0.03
391.498	0.03
391.704	-0
391.91	-0.01
392.116	-0.02
392.322	-0.12
392.528	0.01
392.734	-0.04
392.94	-0.02
393.146	-0.04
393.352	-0.03
393.557	0.02
393.763	-0.02
393.969	-0.02
394.175	-0.02
394.381	0.01
394.587	-0.04
394.792	-0.03
394.998	-0.01
395.204	0.08
395.41	-0.05
395.615	0.02
395.821	0.02
396.027	0.02
396.233	-0.07
396.438	-0.05
396.644	0.02
396.85	-0.01
397.055	-0.04
397.261	0.02
397.466	0.08
397.672	-0.04
397.878	0.06
398.083	-0.01
398.289	-0.02
398.494	0.01
398.7	0.02
398.905	-0.06
399.111	0.02
399.316	-0.09
399.522	0.01
399.727	-0.04
399.932	-0.03
400.138	-0.04
400.343	0.05
400.549	-0.01
400.754	0
400.959	0.05
401.165	-0.02
401.37	-0.05
401.575	0.05
401.78	-0.03
401.986	-0.03
402.191	-0.04
402.396	-0.04
402.601	0.03
402.807	0.01
403.012	0.04
403.217	-0.01
403.422	-0.08
403.627	-0.05
403.832	-0.04
404.037	0.01
404.243	-0.03
404.448	-0.03
404.653	-0.02
404.858	0.03
405.063	0.05
405.268	-0.03
405.473	-0.07
405.678	-0.06
405.883	0.08
406.088	0.02
406.293	-0.06
406.498	-0.07
406.703	0.03
406.907	-0.02
407.112	-0.11
407.317	-0.03
407.522	0.01
407.727	-0.07
407.932	-0.02
408.136	0.06
408.341	-0.02
408.546	0.01
408.751	-0.01
408.956	-0.07
409.16	0.01
409.365	-0.04
409.57	-0.06
409.774	-0.04
409.979	-0.01
410.184	-0
410.388	-0.03
410.593	0.02
410.798	-0.04
411.002	-0.07
411.207	0.01
411.411	0
411.616	-0.03
411.82	-0.01
412.025	-0.01
412.229	-0.09
412.434	0.07
412.638	-0.02
412.843	-0.07
413.047	-0
413.252	-0.03
413.456	-0.05
413.66	-0.01
413.865	-0.06
414.069	0.04
414.273	-0.06
414.478	-0.07
414.682	-0.06
414.886	-0.04
415.091	-0.11
415.295	-0.08
415.499	-0.02
415.703	-0.04
415.908	0.01
416.112	-0.15
416.316	0.02
416.52	-0.04
416.724	-0.05
416.929	-0.07
417.133	0.03
417.337	-0.02
417.541	-0.03
417.745	-0.01
417.949	0.02
418.153	-0.02
418.357	-0.08
418.561	0.01
418.765	-0.02
418.969	0.05
419.173	0.03
419.377	-0.07
419.581	0.04
419.785	-0.02
419.989	-0.09
420.193	-0.08
420.397	-0.05
420.601	-0
420.804	0.03
421.008	-0.03
421.212	0.01
421.416	0.05
421.62	-0.04
421.823	-0.01
422.027	0.04
422.231	0.02
422.435	-0.01
422.638	0.02
422.842	-0.03
423.046	-0.02
423.249	0.02
423.453	0.01
423.657	-0.01
423.86	-0.01
424.064	-0.02
424.268	0.04
424.471	0.01
424.675	0.06
424.878	0.04
425.082	-0.03
425.285	0.01
425.489	-0.01
425.692	-0.02
425.896	-0.03
426.099	0
426.303	-0.04
426.506	-0.12
426.71	0.01
426.913	0.05
427.116	0
427.32	-0.05
427.523	0.02
427.726	0.07
427.93	-0.05
428.133	-0.01
428.336	-0.06
428.54	-0.08
428.743	0.03
428.946	0.05
429.149	-0.05
429.353	0.01
429.556	-0.02
429.759	-0.03
429.962	-0.03
430.165	0.03
430.368	-0
430.571	-0.04
430.775	-0.02
430.978	-0.06
431.181	0.03
431.384	-0.02
431.587	-0.03
431.79	-0.02
431.993	-0.04
432.196	-0.02
432.399	-0.03
432.602	0.02
432.805	-0.01
433.008	-0.06
433.211	-0.07
433.414	0.01
433.616	0.01
433.819	0.01
434.022	-0.14
434.225	0.04
434.428	-0.05
434.631	0.06
434.833	-0.02
435.036	-0.04
435.239	0.05
435.442	0.03
435.645	-0.04
435.847	0.02
436.05	0.05
436.253	0.02
436.455	-0.03
436.658	-0.01
436.861	0.09
437.063	-0.03
437.266	-0.01
437.468	0.02
437.671	0.12
437.874	-0.02
438.076	-0.06
438.279	-0.1
438.481	0.03
438.684	-0.07
438.886	0.06
439.089	-0.04
439.291	0
439.494	0.06
439.696	-0.03
439.899	0
440.101	0
440.303	-0.03
440.506	0.03
440.708	-0.01
440.91	0.06
441.113	-0.02
441.315	0.07
441.517	-0.02
441.72	0.07
441.922	-0.03
442.124	-0.02
442.326	0.05
442.529	0.08
442.731	-0.02
442.933	0.04
443.135	0.04
443.337	0
443.539	0.05
443.742	0.03
443.944	0.02
444.146	0
444.348	0.02
444.55	0.04
444.752	0.01
444.954	-0.01
445.156	0.05
445.358	0.05
445.56	0.1
445.762	0.02
445.964	0.03
446.166	0.03
446.368	0
446.57	0.06
446.772	0.02
446.974	0.03
447.175	0.04
447.377	0.01
447.579	0.03
447.781	-0.04
447.983	0.11
448.184	0.02
448.386	0.06
448.588	-0.04
448.79	0
448.991	0.02
449.193	0.03
449.395	0.05
449.597	0.08
449.798	0.08
450	0.09
450.202	0.04
450.403	0.03
450.605	0.09
450.806	0.04
451.008	-0.04
451.21	0.01
451.411	0.05
451.613	0.05
451.814	0.03
452.016	0.03
452.217	0.04
452.419	0.07
452.62	0.04
452.821	0.05
453.023	0.11
453.224	0.09
453.426	0.02
453.627	0.08
453.828	0.11
454.03	-0.01
454.231	0.09
454.432	0.06
454.634	0.13
454.835	-0
455.036	-0.06
455.238	0.08
455.439	0.11
455.64	-0.02
455.841	-0.04
456.042	0.13
456.244	-0
456.445	0
456.646	-0.02
456.847	0.04
457.048	0
457.249	0.07
457.45	0.2
457.651	-0.03
457.852	0.05
458.054	0.07
458.255	0
458.456	0.05
458.657	-0.01
458.858	-0.05
459.058	0.04
459.259	0.1
459.46	-0.03
459.661	-0.07
459.862	0.06
460.063	-0.05
460.264	0.1
460.465	-0.02
460.666	0.12
460.866	-0.01
461.067	0.01
461.268	-0.02
461.469	-0.02
461.67	0
461.87	-0.02
462.071	-0.03
462.272	-0.05
462.473	0.03
462.673	0.06
462.874	0.02
463.075	0.02
463.275	-0.01
463.476	-0.02
463.676	0.02
463.877	0.05
464.078	-0.02
464.278	0.05
464.479	0.03
464.679	0.03
464.88	-0.02
465.08	0.05
465.281	-0.06
465.481	0.04
465.682	-0.03
465.882	0.04
466.083	0.01
466.283	-0.02
466.483	0
466.684	0.02
466.884	-0.07
467.085	-0.02
467.285	0.02
467.485	-0.08
467.686	0.01
467.886	-0
468.086	-0.01
468.286	0.01
468.487	0.02
468.687	-0.04
468.887	-0.05
469.087	0.01
469.287	-0.01
469.488	-0.08
469.688	-0.01
469.888	0.02
470.088	0.06
470.288	0.04
470.488	-0.02
470.688	-0.05
470.888	-0.03
471.088	-0.01
471.288	0.01
471.488	0.04
471.688	0.02
471.888	-0.02
472.088	0.02
472.288	-0
472.488	-0.06
472.688	-0.03
472.888	-0.03
473.088	0
473.288	-0.04
473.488	-0.02
473.688	0.05
473.887	0
474.087	-0.03
474.287	-0
474.487	-0.04
474.687	-0.01
474.886	-0.06
475.086	-0.02
475.286	0.02
475.486	0.06
475.685	-0.02
475.885	-0.03
476.085	-0.05
476.284	0.02
476.484	-0.01
476.684	0.02
476.883	0.02
477.083	0
477.282	-0.01
477.482	0.07
477.681	0.02
477.881	-0
478.08	-0.03
478.28	-0.03
478.479	0.02
478.679	0.04
478.878	-0.03
479.078	-0.02
479.277	-0.04
479.477	-0.01
479.676	0.04
479.875	0.03
480.075	-0.05
480.274	0
480.473	-0.02
480.673	-0.02
480.872	0.01
481.071	-0.03
481.271	-0.01
481.47	-0.03
481.669	-0.02
481.868	-0.05
482.067	-0.03
482.267	-0.02
482.466	-0.04
482.665	-0.05
482.864	-0.05
483.063	-0.06
483.262	0
483.461	0.05
483.661	0.02
483.86	-0.01
484.059	0.01
484.258	-0.04
484.457	-0.02
484.656	0.02
484.855	0.03
485.054	-0.08
485.253	-0.01
485.452	-0.04
485.651	-0.03
485.849	-0.01
486.048	-0.03
486.247	-0.02
486.446	-0.02
486.645	-0.07
486.844	-0.04
487.043	-0
487.241	-0
487.44	-0.04
487.639	-0.02
487.838	0
488.037	-0.03
488.235	0.04
488.434	-0
488.633	-0.04
488.831	0.01
489.03	0.03
489.229	0.01
489.427	-0.02
489.626	0.03
489.825	0.03
490.023	-0.04
490.222	0
490.42	0.02
490.619	0.02
490.817	-0.01
491.016	-0.02
491.214	0.01
491.413	-0.02
491.611	-0.03
491.81	0
492.008	0.01
492.207	0.01
492.405	0
492.604	-0.05
492.802	-0.04
493	0
493.199	-0.01
493.397	0
493.595	-0.03
493.794	-0.02
493.992	0.07
494.19	-0
494.388	-0.01
494.587	-0.02
494.785	-0.01
494.983	-0.05
495.181	-0.02
495.379	-0.01
495.578	-0.01
495.776	0.01
495.974	-0
496.172	-0.01
496.37	-0.02
496.568	-0.06
496.766	-0.03
496.964	-0
497.162	-0.01
497.36	-0.05
497.558	0
497.756	0
497.954	-0.01
498.152	-0.03
498.35	-0
498.548	-0.03
498.746	-0.01
498.944	-0.06
499.142	-0.03
499.34	-0.04
499.538	-0.04
499.736	-0.02
499.933	0.04
500.131	0.01
500.329	-0.01
500.527	0.01
500.725	0.03
500.922	0.02
501.12	-0
501.318	-0
501.516	-0.03
501.713	0.01
501.911	-0.01
502.109	-0.05
502.306	0
502.504	-0
502.701	-0.02
502.899	-0
503.097	0.04
503.294	-0.01
503.492	0.01
503.689	0.01
503.887	-0
504.084	0.04
504.282	0
504.479	-0.04
504.677	-0.01
504.874	-0.03
505.072	-0.01
505.269	-0.01
505.466	0.01
505.664	0
505.861	-0.02
506.059	-0.04
506.256	0.03
506.453	-0.03
506.651	0.02
506.848	0.03
507.045	-0.01
507.242	-0.01
507.44	-0.01
507.637	-0.02
507.834	-0
508.031	-0
508.229	-0.03
508.426	-0.02
508.623	0.03
508.82	-0.03
509.017	-0.04
509.214	-0.03
509.411	-0.01
509.608	-0.05
509.805	-0.01
510.003	-0.02
510.2	-0.02
510.397	0.01
510.594	-0.03
510.791	-0.02
510.988	-0.02
511.184	0.04
511.381	-0.01
511.578	-0.01
511.775	0.02
511.972	-0.02
512.169	-0.03
512.366	-0.01
512.563	-0.01
512.76	-0.03
512.956	-0
513.153	-0.01
513.35	0.01
513.547	-0.02
513.744	-0.02
513.94	-0.04
514.137	0.01
514.334	-0
514.53	-0
514.727	-0
514.924	0.03
515.12	-0.01
515.317	-0.02
515.514	-0.04
515.71	-0.01
515.907	-0.03
516.103	-0.01
516.3	0.02
516.497	0.02
516.693	0.01
516.89	-0.02
517.086	-0.03
517.283	-0
517.479	0
517.676	-0.02
517.872	-0.02
518.068	-0.02
518.265	-0.02
518.461	-0.02
518.658	-0.01
518.854	0.02
519.05	-0
519.247	-0.03
519.443	0
519.639	-0
519.836	0
520.032	-0.01
520.228	-0.02
520.424	0.02
520.621	-0
520.817	-0.02
521.013	-0.01
521.209	-0.01
521.405	0.02
521.601	-0.01
521.798	-0.02
521.994	0
522.19	-0.03
522.386	-0.03
522.582	-0.01
522.778	0
522.974	0
523.17	-0.02
523.366	-0.01
523.562	0.03
523.758	-0
523.954	-0.02
524.15	-0
524.346	0.01
524.542	-0
524.738	-0.04
524.934	-0.02
525.129	-0.01
525.325	0.01
525.521	-0
525.717	0.02
525.913	0.01
526.109	-0.01
526.304	-0.01
526.5	-0.02
526.696	0.03
526.892	-0
527.087	-0.02
527.283	-0.04
527.479	0
527.674	-0.03
527.87	-0.05
528.066	-0.01
528.261	0.02
528.457	0.01
528.653	-0.01
528.848	-0.02
529.044	0.02
529.239	-0.01
529.435	0
529.63	0.01
529.826	0.03
530.021	-0.01
530.217	0
530.412	-0.03
530.608	-0.02
530.803	0.01
530.999	-0.01
531.194	-0.03
531.389	-0.01
531.585	-0.05
531.78	-0.02
531.975	-0
532.171	0.01
532.366	-0.02
532.561	-0.01
532.757	-0.04
532.952	0.01
533.147	0.02
533.342	-0.02
533.538	-0.01
533.733	0.01
533.928	0
534.123	-0.02
534.318	-0.03
534.513	-0.03
534.709	-0.01
534.904	-0.02
535.099	-0.01
535.294	-0.02
535.489	0.01
535.684	-0.01
535.879	-0.04
536.074	-0.01
536.269	-0.05
536.464	-0.02
536.659	-0
536.854	-0.02
537.049	-0.02
537.244	-0.02
537.439	-0.04
537.634	0.02
537.828	-0
538.023	-0.01
538.218	-0.06
538.413	-0.02
538.608	-0.05
538.803	0.01
538.997	-0.04
539.192	0.02
539.387	0.01
539.582	-0
539.776	0.02
539.971	-0.03
540.166	-0.02
540.36	-0.04
540.555	-0.01
540.75	-0.02
540.944	0.01
541.139	-0.06
541.334	-0.02
541.528	-0.01
541.723	0.01
541.917	-0.03
542.112	-0.05
542.306	-0.02
542.501	-0.03
542.695	-0.02
542.89	-0.04
543.084	-0.01
543.279	-0.01
543.473	-0.02
543.668	-0.03
543.862	-0.01
544.056	0
544.251	-0.02
544.445	-0.01
544.64	0.02
544.834	-0.05
545.028	0.02
545.222	0.01
545.417	0.02
545.611	-0.01
545.805	-0.01
546	-0.01
546.194	-0.01
546.388	-0.02
546.582	-0
546.776	-0.02
546.97	-0.02
547.165	0
547.359	0
547.553	-0.03
547.747	-0
547.941	-0.02
548.135	0
548.329	-0.01
548.523	-0.01
548.717	-0.03
548.911	-0.01
549.105	-0.02
549.299	-0.02
549.493	0.01
549.687	0
549.881	-0.01
550.075	-0.01
550.269	-0.06
550.463	-0.01
550.657	-0.02
550.85	0.01
551.044	-0.02
551.238	0
551.432	-0.02
551.626	-0.05
551.82	0.01
552.013	-0.03
552.207	-0.01
552.401	0.01
552.594	-0.01
552.788	-0.01
552.982	0
553.176	-0.04
553.369	0
553.563	0.02
553.756	-0.06
553.95	-0.04
554.144	-0
554.337	0.02
554.531	-0.01
554.724	-0
554.918	-0.04
555.111	0.01
555.305	-0.01
555.498	0.04
555.692	0.03
555.885	-0.03
556.079	-0
556.272	-0.02
556.466	-0.01
556.659	-0.01
556.852	-0.02
557.046	-0.02
557.239	0.02
557.432	-0.01
557.626	-0.02
557.819	-0
558.012	-0
558.206	0.01
558.399	-0.02
558.592	0.01
558.785	-0.04
558.979	-0
559.172	-0.01
559.365	-0.01
559.558	-0.01
559.751	-0.02
559.944	-0
560.138	-0.04
560.331	-0.03
560.524	-0.02
560.717	-0.03
560.91	-0.02
561.103	0
561.296	-0.02
561.489	-0.01
561.682	-0
561.875	0.04
562.068	0.01
562.261	-0
562.454	0
562.647	-0.01
562.84	0.02
563.032	-0.02
563.225	0.01
563.418	-0.03
563.611	-0.03
563.804	-0.01
563.997	-0.04
564.19	-0.05
564.382	0.01
564.575	-0.02
564.768	-0
564.961	-0.02
565.153	-0.02
565.346	0.01
565.539	0.02
565.731	0
565.924	0.01
566.117	0.02
566.309	-0
566.502	-0.02
566.695	-0.01
566.887	-0.01
567.08	-0.04
567.272	-0.02
567.465	-0.03
567.657	-0.01
567.85	0
568.042	-0
568.235	0.02
568.427	-0.01
568.62	-0.04
568.812	0.02
569.005	-0.02
569.197	-0.05
569.389	0
569.582	0.01
569.774	-0
569.966	-0.04
570.159	-0.03
570.351	0.01
570.543	-0.04
570.736	0.01
570.928	-0.05
571.12	-0
571.312	-0.02
571.505	-0.04
571.697	0.03
571.889	-0.03
572.081	-0.01
572.273	-0.02
572.465	0.03
572.658	-0.02
572.85	0.01
573.042	-0.02
573.234	-0.02
573.426	-0.01
573.618	-0.05
573.81	0.02
574.002	0.02
574.194	0.02
574.386	-0.05
574.578	-0.08
574.77	-0.03
574.962	-0.04
575.154	-0.01
575.346	-0.01
575.538	-0.01
575.729	-0.03
575.921	-0.04
576.113	-0.02
576.305	0.01
576.497	-0.01
576.689	-0.02
576.88	-0.02
577.072	0
577.264	-0.03
577.456	-0.02
577.647	-0.08
577.839	-0.02
578.031	0
578.223	-0.05
578.414	-0.05
578.606	0.01
578.798	-0.03
578.989	-0.02
579.181	0.02
579.372	-0.02
579.564	-0.03
579.755	0.01
579.947	-0.01
580.139	0.01
580.33	-0.03
580.522	-0.03
580.713	-0.08
580.905	-0.02
581.096	0.01
581.287	-0.04
581.479	-0.02
581.67	0.01
581.862	-0.02
582.053	-0.02
582.244	-0.05
582.436	-0.03
582.627	-0.01
582.818	-0.04
583.01	-0.04
583.201	0.02
583.392	-0
583.583	-0.03
583.775	-0.01
583.966	-0.01
584.157	-0.01
584.348	-0.02
584.54	-0.06
584.731	-0.01
584.922	-0.02
585.113	-0.02
585.304	0.01
585.495	0
585.686	-0
585.877	0.02
586.068	-0.01
586.259	0.01
586.45	-0.01
586.641	-0.04
586.832	-0.06
587.023	-0.01
587.214	-0.04
587.405	0.01
587.596	-0.02
587.787	0.01
587.978	-0.02
588.169	-0.04
588.36	-0.05
588.551	-0.01
588.742	-0.04
588.932	0.01
589.123	-0.03
589.314	0.03
589.505	0.02
589.696	0.01
589.886	-0.02
590.077	-0.07
590.268	-0.02
590.458	-0.06
590.649	-0.05
590.84	0
591.03	-0.06
591.221	-0.05
591.412	-0.04
591.602	0.02
591.793	0.02
591.984	-0.03
592.174	-0
592.365	0.01
592.555	-0.04
592.746	-0.01
592.936	-0.01
593.127	0.01
593.317	0.03
593.508	-0.03
593.698	-0.04
593.889	-0.02
594.079	-0.02
594.269	-0.03
594.46	-0
594.65	-0.01
594.84	-0.01
595.031	-0.05
595.221	-0.03
595.411	-0.04
595.602	0.02
595.792	-0.01
595.982	-0.04
596.172	0.03
596.363	-0
596.553	0.02
596.743	-0.01
596.933	-0.03
597.123	0.02
597.314	-0.03
597.504	-0.01
597.694	0.01
597.884	-0.01
598.074	-0.02
598.264	-0.04
598.454	-0.01
598.644	-0.03
598.834	-0.01
599.024	-0.08
599.214	-0.02
599.404	0.03
599.594	-0
599.784	-0.02
599.974	0.02
600.164	0.01
600.354	-0.06
600.544	-0.03
600.734	-0
600.924	0.02
601.114	-0.03
601.303	-0.02
601.493	0
601.683	-0.01
601.873	-0.01
602.063	-0.05
602.252	-0.01
602.442	-0.07
602.632	-0.02
602.821	-0.06
603.011	-0.02
603.201	-0.01
603.39	-0.04
603.58	-0.02
603.77	-0.02
603.959	-0
604.149	0.01
604.339	-0.01
604.528	0.01
604.718	-0.01
604.907	-0.03
605.097	-0.04
605.286	-0.05
605.476	-0.01
605.665	0.01
605.855	-0.01
606.044	0.03
606.234	-0.01
606.423	-0.02
606.612	-0.03
606.802	-0.01
606.991	0.01
607.181	-0.01
607.37	-0.06
607.559	-0.03
607.749	-0.06
607.938	-0.03
608.127	-0.03
608.316	-0.02
608.506	-0.02
608.695	0
608.884	-0.04
609.073	-0.01
609.263	0.02
609.452	0.03
609.641	-0.01
609.83	-0.04
610.019	0.01
610.208	-0.06
610.397	-0.03
610.586	-0.02
610.775	-0.04
610.965	-0.05
611.154	-0.04
611.343	-0.03
611.532	-0.02
611.721	-0.05
611.91	-0.06
612.099	0.01
612.287	-0.05
612.476	-0.05
612.665	-0
612.854	-0.03
613.043	0.02
613.232	-0.03
613.421	-0.08
613.61	-0.04
613.798	-0.04
613.987	0
614.176	0
614.365	0.01
614.554	0
614.742	-0.01
614.931	-0.01
615.12	-0
615.309	-0.01
615.497	-0.02
615.686	-0.04
615.875	-0.01
616.063	-0.02
616.252	-0
616.44	-0.03
616.629	-0.02
616.818	0.06
617.006	0
617.195	0.01
617.383	-0.01
617.572	0
617.76	0
617.949	-0.05
618.137	-0.01
618.326	0.06
618.514	-0.03
618.703	-0.04
618.891	0.05
619.079	-0.07
619.268	-0
619.456	-0.06
619.644	0.02
619.833	-0.03
620.021	-0.05
620.209	-0.08
620.398	0.01
620.586	-0.01
620.774	0.01
620.962	-0.02
621.151	0.03
621.339	-0.01
621.527	-0.06
621.715	-0.07
621.903	-0.03
622.092	-0.06
622.28	-0.01
622.468	-0.02
622.656	-0.01
622.844	0
623.032	-0.04
623.22	-0.1
623.408	0.03
623.596	0
623.784	0.01
623.972	-0.04
624.16	-0.03
624.348	0.06
624.536	-0
624.724	-0.04
624.912	0.01
625.1	0.04
625.288	-0.02
625.476	-0.05
625.664	0
625.851	-0.04
626.039	-0.03
626.227	-0
626.415	-0.02
626.603	-0.04
626.79	0.01
626.978	-0
627.166	0.02
627.354	-0.04
627.541	-0.04
627.729	-0.06
627.917	0
628.104	0
628.292	-0.02
628.48	-0.04
628.667	-0.01
628.855	0.01
629.042	0.01
629.23	-0.05
629.418	-0.02
629.605	-0.03
629.793	-0.05
629.98	-0.04
630.168	-0.02
630.355	0.01
630.543	0.04
630.73	-0.04
630.917	0.02
631.105	0.04
631.292	-0.04
631.48	-0.02
631.667	0.03
631.854	0.02
632.042	-0.01
632.229	-0.04
632.416	0.01
632.604	-0.01
632.791	-0.05
632.978	0.03
633.165	0.01
633.353	0.05
633.54	0.04
633.727	-0.06
633.914	-0.04
634.101	-0.09
634.289	0.04
634.476	-0.03
634.663	-0.04
634.85	0.01
635.037	-0.05
635.224	-0.04
635.411	0.04
635.598	0.04
635.785	0
635.972	0.01
636.159	0.03
636.346	-0
636.533	-0
636.72	-0.01
636.907	-0.02
637.094	0.05
637.281	-0.01
637.468	0.02
637.655	0.03
637.842	-0
638.029	-0.02
638.215	0.02
638.402	0.01
638.589	0
638.776	0.01
638.963	-0
639.149	0.04
639.336	0.05
639.523	0.01
639.709	0
639.896	0
640.083	0.07
640.27	0.05
640.456	-0.02
640.643	0
640.829	-0.03
641.016	-0.01
641.203	-0.05
641.389	0.07
641.576	-0.01
641.762	-0
641.949	-0.02
642.135	0.02
642.322	0.03
642.508	-0
642.695	0.05
642.881	-0
643.068	-0
643.254	0.02
643.441	0.06
643.627	-0.01
643.813	-0.02
644	0.06
644.186	-0.01
644.372	0.06
644.559	0.02
644.745	0.03
644.931	-0.01
645.118	0.06
645.304	0.02
645.49	-0.01
645.676	0
645.862	0.07
646.049	0.06
646.235	-0
646.421	0.11
646.607	0.07
646.793	0.03
646.979	0
647.165	0.04
647.352	0.03
647.538	0.08
647.724	0.06
647.91	0.05
648.096	0.05
648.282	0.05
648.468	0.02
648.654	0.03
648.84	0.04
649.026	0.04
649.212	0.03
649.397	0.02
649.583	0
649.769	0.05
649.955	0.06
650.141	0.07
650.327	0.1
650.513	0.03
650.698	0.06
650.884	-0.01
651.07	0.04
651.256	0.07
651.442	0.04
651.627	0.05
651.813	0.04
651.999	0.06
652.184	0.1
652.37	0.02
652.556	0.04
652.741	0.13
652.927	-0.01
653.113	0.05
653.298	0.07
653.484	0.08
653.669	0.01
653.855	0.08
654.04	0.08
654.226	0.08
654.412	0.06
654.597	0.05
654.782	0.11
654.968	0.14
655.153	0.09
655.339	0.09
655.524	0.07
655.71	0.1
655.895	0.09
656.08	0.08
656.266	0.09
656.451	0.06
656.636	0.03
656.822	0.07
657.007	0.06
657.192	0.08
657.378	0.08
657.563	0.08
657.748	0.14
657.933	0.08
658.118	0.07
658.304	0.09
658.489	0.1
658.674	0.11
658.859	0.06
659.044	0.11
659.229	0.11
659.414	0.05
659.599	0.09
659.785	0.04
659.97	0.08
660.155	0.11
660.34	0.07
660.525	0.11
660.71	0.1
660.895	0.14
661.08	0.07
661.264	0.04
661.449	0.15
661.634	0.11
661.819	0.1
662.004	0.09
662.189	-0.01
662.374	0.06
662.559	0.03
662.743	0.01
662.928	0.04
663.113	0.02
663.298	0
663.483	0.02
663.667	0.05
663.852	0
664.037	0.1
664.221	0.05
664.406	0.05
664.591	0.06
664.775	0.07
664.96	0.06
665.145	0.04
665.329	0.03
665.514	-0.02
665.698	0.03
665.883	-0.01
666.068	0.09
666.252	0.02
666.437	-0.02
666.621	0.03
666.806	0.07
666.99	0
667.174	-0.01
667.359	0.09
667.543	-0.02
667.728	0.01
667.912	-0.05
668.096	0.03
668.281	0.02
668.465	-0
668.649	0.04
668.834	-0.06
669.018	-0.02
669.202	0.01
669.387	-0.04
669.571	0.04
669.755	-0.03
669.939	0.01
670.124	-0.05
670.308	0.06
670.492	0.03
670.676	-0.02
670.86	0.01
671.044	-0.04
671.228	0.05
671.413	-0.04
671.597	-0.02
671.781	-0.05
671.965	0.02
672.149	-0.01
672.333	-0.02
672.517	-0.06
672.701	-0
672.885	-0.02
673.069	-0.05
673.253	0.01
673.437	-0.04
673.621	-0.01
673.804	-0.01
673.988	0
674.172	-0.02
674.356	-0.04
674.54	-0.02
674.724	0.06
674.908	0.01
675.091	0
675.275	-0.01
675.459	0.06
675.643	0.05
675.826	-0.04
676.01	-0
676.194	-0.04
676.377	0.02
676.561	0
676.745	-0.03
676.928	-0
677.112	0.01
677.296	-0.07
677.479	-0.04
677.663	-0.06
677.846	0
678.03	-0
678.213	-0.06
678.397	0
678.58	-0.02
678.764	-0.05
678.947	-0.04
679.131	-0.09
679.314	0
679.498	-0.02
679.681	-0
679.865	0.01
680.048	-0.03
680.231	-0.03
680.415	-0.03
680.598	-0.01
680.781	-0.03
680.965	-0.04
681.148	-0
681.331	-0.05
681.514	-0.01
681.698	-0.07
681.881	-0.02
682.064	-0.03
682.247	0.01
682.43	-0.08
682.614	-0.01
682.797	0.05
682.98	0.04
683.163	-0.05
683.346	-0.01
683.529	-0.04
683.712	-0.07
683.895	0.04
684.078	-0.05
684.261	-0.03
684.444	-0.02
684.627	0
684.81	-0.02
684.993	-0.05
685.176	-0
685.359	-0.06
685.542	-0.06
685.725	0.03
685.908	-0.01
686.091	-0.01
686.274	0.03
686.457	0
686.639	-0.05
686.822	-0.01
687.005	-0.02
687.188	-0.04
687.371	0.05
687.553	-0
687.736	-0.02
687.919	0.03
688.102	0.05
688.284	-0.02
688.467	0
688.65	-0.04
688.832	-0.08
689.015	-0.01
689.197	-0.08
689.38	0.13
689.563	0.1
689.745	-0.05
689.928	-0.07
690.11	-0.04
690.293	-0.07
690.475	-0.07
690.658	0.02
690.84	-0.08
691.023	-0.04
691.205	-0.06
691.388	-0.01
691.57	0.03
691.752	0
691.935	-0.09
692.117	-0.05
692.3	0.02
692.482	-0.03
692.664	-0.04
692.847	-0.02
693.029	0.02
693.211	-0.02
693.393	-0.05
693.576	-0.04
693.758	-0.05
693.94	-0.07
694.122	-0.07
694.304	-0
694.487	-0.03
694.669	0.03
694.851	-0.09
695.033	-0.01
695.215	-0.09
695.397	-0.07
695.579	-0.01
695.761	-0.06
695.943	-0.07
696.125	0.01
696.308	-0.01
696.49	-0.11
696.671	0.04
696.853	-0.06
697.035	0.07
697.217	-0.02
697.399	0.04
697.581	-0.05
697.763	-0.04
697.945	-0.08
698.127	-0.06
698.309	0.02
698.491	0.01
698.672	0.02
698.854	0.03
699.036	0.03
699.218	-0.04
699.399	0.08
699.581	-0.03
699.763	0.02
699.945	-0.04
700.126	-0.07
700.308	-0.01
700.49	-0.02
700.671	-0.05
700.853	-0.03
701.035	-0.06
701.216	-0.03
701.398	-0.04
701.579	-0.05
701.761	0.02
701.943	-0.07
702.124	-0.03
702.306	-0.05
702.487	0.09
702.669	-0.02
702.85	-0.02
703.031	-0.07
703.213	0.07
703.394	0.04
703.576	-0.05
703.757	0.07
703.938	0.07
704.12	0.13
704.301	-0.02
704.483	-0.08
704.664	0.03
704.845	0.06
705.026	0.04
705.208	-0
705.389	-0.02
705.57	0
705.751	-0
705.933	-0.03
706.114	0.08
706.295	0.02
706.476	-0.07
706.657	0.04
706.838	-0.05
707.02	0.01
707.201	-0.05
707.382	-0.04
707.563	0.03
707.744	-0.06
707.925	-0.02
708.106	-0.05
708.287	-0.02
708.468	0.09
708.649	0.05
708.83	-0.02
709.011	-0.01
709.192	0.05
709.373	-0.08
709.554	0.03
709.734	-0.02
709.915	0.03
710.096	-0.04
710.277	-0.11
710.458	-0.01
710.639	-0
710.819	-0.13
711	-0.06
711.181	0.14
711.362	0.03
711.542	0.05
711.723	0.02
711.904	0.1
712.085	0.04
712.265	-0.01
712.446	-0.07
712.627	0.03
712.807	-0.04
712.988	-0.04
713.168	-0.08
713.349	-0.08
713.53	-0.15
713.71	-0.08
713.891	-0.05
714.071	-0.05
714.252	-0.06
714.432	0
714.613	-0.05
714.793	0.02
714.974	0.11
715.154	0.06
715.334	0.03
715.515	0.02
715.695	-0.03
715.876	0
716.056	-0.05
716.236	-0.01
716.417	-0.04
716.597	-0.03
716.777	0.03
716.957	-0.02
717.138	0.01
717.318	0.02
717.498	-0.13
717.678	-0.01
717.859	0.01
718.039	-0.09
718.219	-0
718.399	0.05
718.579	-0.09
718.759	-0.02
718.939	-0
719.12	0.05
719.3	0.03
719.48	-0.14
719.66	-0.09
719.84	0.09
720.02	-0.03
720.2	-0.1
720.38	0.06
720.56	0.08
720.74	-0.04
720.92	0.07
721.1	0.03
721.279	0.11
721.459	0
721.639	-0.08
721.819	0.06
721.999	0.02
722.179	0.08
722.359	-0.1
722.538	-0.01
722.718	0.1
722.898	-0.03
723.078	-0.02
723.257	-0
723.437	0.09
723.617	0.04
723.797	0.02
723.976	-0.02
724.156	0.06
724.336	0.11
724.515	0.18
724.695	-0.07
724.874	0.02
725.054	0.08
725.234	-0.05
725.413	0
725.593	0.03
725.772	-0.02
725.952	0.03
726.131	0.07
726.311	0.04
726.49	0.08
726.67	-0.05
726.849	-0.07
727.028	0.1
727.208	-0.1
727.387	-0.01
727.567	0.01
727.746	0.07
727.925	0.08
728.105	-0
728.284	-0.01
728.463	0.08
728.643	0.08
728.822	0.02
729.001	0.01
729.18	0.09
729.359	0.09
729.539	0.07
729.718	0.05
729.897	0.09
730.076	-0.02
730.255	-0.04
730.434	0.02
730.614	0.09
730.793	0.13
730.972	0.04
731.151	0.11
731.33	0.24
731.509	0.07
731.688	0.07
731.867	0.06
732.046	-0.06
732.225	0.28
732.404	-0.03
732.583	-0.1
732.762	0.07
732.941	0.08
733.12	0.06
733.298	-0.02
733.477	0.08
733.656	0.06
733.835	-0.04
734.014	0.14
734.193	0.03
734.371	0.09
734.55	0.17
734.729	-0.16
734.908	0.18
735.086	0.04
735.265	0.06
735.444	-0.13
735.623	-0.06
735.801	0.01
735.98	0.04
736.159	0.08
736.337	0.1
736.516	0.06
736.694	0.15
736.873	0.01
737.052	0.21
737.23	0.18
737.409	0.02
737.587	0.26
737.766	-0.08
737.944	-0.01
738.123	0.15
738.301	0.19
738.479	0.07
738.658	0.07
738.836	-0.18
739.015	0.13
739.193	0.11
739.371	-0.06
739.55	0.04
739.728	-0
739.906	0.17
740.085	0.15
740.263	0.09
740.441	-0.07
740.62	0.29
740.798	0.15
740.976	0.02
741.154	-0.09
741.332	0.18
741.511	0.08
741.689	0.07
741.867	0.12
742.045	-0.07
742.223	0.13
742.401	-0.05
742.579	0
742.757	0.12
742.935	-0.11
743.114	0.03
743.292	0
743.47	-0.04
743.648	-0.08
743.826	-0.02
744.004	0.03
744.181	0.18
744.359	-0.02
744.537	0
744.715	-0.13
744.893	0.14
745.071	-0.03
745.249	-0.05
745.427	0.02
745.605	0.04
745.782	0.05
745.96	0.12
746.138	0.01
746.316	0.13
746.493	-0.08
746.671	0.07
746.849	0.04
747.027	0.02
747.204	-0.12
747.382	0.22
747.56	-0.13
747.737	-0.1
747.915	-0.11
748.093	0.02
748.27	-0.02
748.448	-0.07
748.625	-0.12
748.803	-0.02
748.98	-0.08
749.158	-0
749.335	0.07
749.513	0.03
749.69	-0.08
749.868	-0.1
750.045	-0.01
750.223	-0.05
750.4	-0.23
750.578	0.12
750.755	0.01
750.932	-0.11
751.11	0.14
751.287	-0.16
751.464	0.11
751.642	-0.13
751.819	0.03
751.996	0.02
752.173	-0.07
752.351	-0.1
752.528	-0.05
752.705	-0.16
752.882	-0.05
753.06	-0.04
753.237	0.08
753.414	0.14
753.591	0.03
753.768	-0.07
753.945	-0.09
754.122	-0.05
754.299	0.06
754.476	-0.08
754.654	-0.1
754.831	-0.04
755.008	0.05
755.185	-0.09
755.362	-0.19
755.539	0.03
755.716	-0.1
755.892	-0.11
756.069	0.01
756.246	-0.02
756.423	-0.1
756.6	0.11
756.777	-0.06
756.954	0.16
757.131	0.01
757.307	-0.12
757.484	-0.12
757.661	0
757.838	-0.08
758.015	-0.16
758.191	-0.02
758.368	-0.04
758.545	0.06
758.721	-0.03
758.898	-0.19
759.075	0.05
759.251	-0.05
759.428	0.06
759.605	-0.08
759.781	-0.08
759.958	0.04
760.134	-0.03
760.311	-0.17
760.488	0.04
760.664	0.07
760.841	-0.06
761.017	-0.13
761.194	0.03
761.37	0.08
761.547	0.02
761.723	-0.05
761.899	0.06
762.076	-0.11
762.252	-0.13
762.429	-0.09
762.605	0.02
762.781	-0.08
762.958	0.04
763.134	-0.04
763.31	-0.1
763.486	0.12
763.663	-0.25
763.839	0.02
764.015	-0.16
764.191	-0.13
764.368	-0.08
764.544	-0.05
764.72	-0.02
764.896	-0.03
765.072	-0.09
765.248	-0.08
765.425	0.01
765.601	-0.12
765.777	0
765.953	-0.21
766.129	-0.11
766.305	-0.11
766.481	0.09
766.657	-0.1
766.833	0.05
767.009	-0.14
767.185	-0.15
767.361	-0.05
767.537	-0.21
767.713	0.12
767.889	-0.11
768.065	-0.09
768.24	-0.32
768.416	0.1
768.592	-0.14
768.768	-0.14
768.944	-0.09
769.12	-0.14
769.295	-0.11
769.471	-0.08
769.647	-0.04
769.823	0.03
769.998	-0.11
770.174	-0.1
770.35	0.11
770.525	0.25
770.701	-0.14
770.877	-0.09
771.052	-0.19
771.228	0.04
771.403	-0.07
771.579	0.1
771.755	0.3
771.93	-0.15
772.106	-0.25
772.281	-0.25
772.457	-0.01
772.632	0.02
772.808	-0.11
772.983	-0.14
773.159	-0.22
773.334	0.07
773.509	0.03
773.685	-0.18
773.86	0.11
774.036	0.07
774.211	-0.05
774.386	-0.1
774.562	-0.1
774.737	0
774.912	-0.19
775.087	0.09
775.263	0.04
775.438	-0.08
775.613	-0.09
775.788	-0.14
775.964	0.11
776.139	0.33
776.314	-0.2
776.489	0.02
776.664	0.02
776.839	-0.23
777.014	-0.03
777.19	0.2
777.365	0.06
777.54	0.19
777.715	-0.01
777.89	-0.27
778.065	-0.12
778.24	-0.1
778.415	0.13
778.59	-0.25
778.765	-0.12
778.94	0.03
779.115	-0.03
779.289	-0.18
779.464	-0.05
779.639	0.01
779.814	-0.29
779.989	-0.23
780.164	0.04
780.339	-0.11
780.513	0.01
780.688	-0.2
780.863	-0.09
781.038	-0.08
781.212	-0.21
781.387	-0.01
781.562	0.28
781.737	-0.03
781.911	0.02
782.086	-0.1
782.261	-0.11
782.435	0.3
782.61	0.02
782.784	-0.08
782.959	0.16
783.134	-0.08
783.308	-0.33
783.483	-0.16
783.657	0.24
783.832	0.21
784.006	-0.24
784.181	-0.08
784.355	0.07
784.53	0.04
784.704	-0.09
784.878	-0.05
785.053	0.1
785.227	0.2
785.402	0.42
785.576	-0.26
785.75	-0.2
785.925	-0.12
786.099	-0.32
786.273	-0.01
786.448	0.29
786.622	-0.09
786.796	-0.21
786.97	-0.32
787.145	0.05
787.319	-0.47
787.493	-0.18
787.667	-0.46
787.841	-0.18
788.015	0.2
788.19	-0.36
788.364	-0.08
788.538	0.13
788.712	-0.03
788.886	-0.2
789.06	0.2
789.234	0.22
789.408	-0.32
789.582	-0.2
789.756	0.03
789.93	-0.45
790.104	-0.07
790.278	-0.31
790.452	-0.1
790.626	0.18
790.8	-0.23
790.973	0
791.147	0.02
791.321	0.11
791.495	0.16
791.669	-0.05
791.843	-0.03
792.016	0.03
792.19	0.29
792.364	-0.17
792.538	0.32
792.711	0.2
792.885	-0.1
793.059	-0.2
793.233	-0.61
793.406	0.2
793.58	0.09
793.754	0.17
793.927	0.03
794.101	0.19
794.274	0.09
794.448	0.2
794.622	-0.51
794.795	-0.02
794.969	-0.3
795.142	0.29
795.316	-0.14
795.489	-0.23
795.663	0.34
795.836	-0.05
796.009	-0.27
796.183	0.44
796.356	0.14
796.53	0.1
796.703	0.02
796.876	0.33
797.05	-0.17
797.223	-0.03
797.396	0.04
797.57	0.08
797.743	0.06
797.916	0.06
798.09	-0.06
798.263	0.08
798.436	0.04
798.609	-0.17
798.782	-0.24
798.956	-0.01
799.129	0.02
799.302	-0.16
799.475	-0.28
799.648	-0.36
799.821	-0.4
799.994	-0.08
800.167	-0.38
800.34	0.07
800.514	-0.04
800.687	-0.18
800.86	-0.09
801.033	0.07
801.206	0.02
801.379	-0.34
801.551	0.08
801.724	-0.01
801.897	0.38
802.07	-0.18
802.243	-0.9
802.416	-0.25
802.589	-0.11
802.762	-0.13
802.935	0.09
803.107	0.03
803.28	-0.05
803.453	0.25
803.626	-0.24
803.798	-0.28
803.971	-0.47
804.144	0.06
804.317	-0.06
804.489	0.09
804.662	-0.03
804.835	-0.04
805.007	-0.33
805.18	0.39
805.353	-0.22
805.525	-0.23
805.698	0.13
805.87	0.12
806.043	0.13
806.215	-0.17
806.388	-0.12
806.56	-0.14
806.733	0.34
806.905	-0.01
807.078	-0.39
807.25	-0.35
807.423	0.14
807.595	-0.29
807.768	-0.14
807.94	0.18
808.112	0.06
808.285	0.08
808.457	-0.07
808.629	-0.09
808.802	0.34
808.974	0.17
809.146	-0.01
809.318	-0.51
809.491	-0.02
809.663	0.18
809.835	-0.45
810.007	0.22
810.18	-0.08
810.352	-0.43
810.524	0.05
810.696	0.06
810.868	0.19
811.04	-0.17
811.212	-0.48
811.384	0.6
811.556	-0.19
811.728	-0.08
811.901	0.48
812.073	-0.26
812.245	0.4
812.417	-0.4
812.589	-0.81
812.76	0.22
812.932	0
813.104	0.32
813.276	-0.28
813.448	0.15
813.62	-0.32
813.792	-0.04
813.964	-0.49
814.136	-0.13
814.307	-0.32
814.479	0.01
814.651	-0.18
814.823	0.48
814.995	-0.53
815.166	-0.27
815.338	-0.51
815.51	-0.32
815.681	0.68
815.853	0.14
816.025	-0.25
816.196	0.77
816.368	0.11
816.54	-0.36
816.711	-0.4
816.883	0.15
817.054	0.51
817.226	-0.83
817.398	-0.03
817.569	0
817.741	0.31
817.912	-0.42
818.084	-0.04
818.255	-0.31
818.426	-0.59
818.598	-0.37
818.769	-0.66
818.941	0.18
819.112	0.48
819.283	-0.06
819.455	-0.52
819.626	-0.21
819.798	0.14
819.969	0.12
820.14	0.01
820.311	-0.54
820.483	0.18
820.654	0.3
820.825	0.04
820.996	-0.54
821.168	-0.53
821.339	-0.2
821.51	-0.53
821.681	-0.45
821.852	0.27
822.023	-0.44
822.195	-0.48
822.366	0.2
822.537	0.13
822.708	0.23
822.879	-0.48
823.05	0.55
823.221	-0.83
823.392	-0.11
823.563	0.12
823.734	-0.32
823.905	-0.26
824.076	-0.33
824.247	-0.48
824.418	-0.32
824.589	0.53
824.759	-0.26
824.93	-0.13
825.101	-1.15
825.272	0.07
825.443	0.52
825.614	0.65
825.784	-0.93
825.955	0.82
826.126	0.79
826.297	-0.05
826.467	0.25
826.638	0.26
826.809	-0.72
826.98	0.04
827.15	0.03
827.321	-0.22
827.492	0.43
827.662	-0.05
827.833	0.68
828.003	0.28
828.174	-0.19
828.345	-0.79
828.515	0.63
828.686	0.33
828.856	-0.5
829.027	0.01
829.197	-0.08
829.368	0.23
829.538	-0.66
829.709	-0.55
829.879	0.18
830.049	-0.44
830.22	-0.54
830.39	-0.34
830.56	0.05
830.731	-0.02
830.901	-0.64
831.072	-0.26
831.242	-0.09
831.412	0.19
831.582	-0.22
831.753	-0.66
831.923	0.37
832.093	-0.49
832.263	-0.16
832.434	-0.36
832.604	-1.34
832.774	0.3
832.944	0.05
833.114	-0.77
833.284	-0.03
833.454	-0.56
833.624	-0.25
833.795	-0.79
833.965	0.19
834.135	0.12
834.305	-0.75
834.475	-0.75
834.645	-0.4
834.815	0.44
834.985	-0.84
835.155	-0.92
835.325	-0.2
835.494	0.28
835.664	-0.73
835.834	-0.63
836.004	-0.57
836.174	0.06
836.344	-0.48
836.514	-1.2
836.684	-0.27
836.853	0.63
837.023	-0.33
837.193	-0.19
837.363	0.4
837.532	0.61
837.702	-0.94
837.872	-0.45
838.041	0.36
838.211	0.63
838.381	-1.33
838.55	-0.36
838.72	0.84
838.89	0.64
839.059	-0.13
839.229	-0.39
839.398	0.59
839.568	-0.78
839.738	-0.48
839.907	0.13
840.077	0.23
840.246	-1.19
840.416	-0.93
840.585	-0.75
840.755	0.48
840.924	0.41
841.093	-0.86
841.263	-0.62
841.432	0.08
841.602	-0.27
841.771	-0.69
841.94	-0.02
842.11	1.24
842.279	1.29
842.448	-1.31
842.617	-1.16
842.787	0.99
842.956	-0.66
843.125	-0.33
843.294	0.2
843.464	0.09
843.633	-0.68
843.802	-1.27
843.971	-0.48
844.14	0.26
844.309	0.48
844.479	-0.88
844.648	-1.58
844.817	-0.42
844.986	-0.68
845.155	-0.6
845.324	-0.79
845.493	-0.13
845.662	-1.31
845.831	-0.12
846	0.74
846.169	-0.16
846.338	0.44
846.507	-0.26
846.676	0.28
846.844	-0.47
847.013	1.07
847.182	0.19
847.351	-1.12
847.52	0.05
847.689	-0.3
847.858	-0.88
848.026	-0.65
848.195	-0.3
848.364	-0.98
848.533	-0.8
848.701	-1
848.87	-0.14
849.039	-0.03
849.207	1.71
849.376	0.63
849.545	0.87
849.713	-0.6
849.882	-0.9
850.051	-0.68
850.219	-0.51
850.388	0.73
850.556	-1.25
850.725	-0.76
850.893	-0.23
851.062	0.02
851.23	0.24
851.399	-0.79
851.567	-0.09
851.736	-1.16
851.904	-1.01
852.073	0.72
852.241	1
852.41	-0.64
852.578	-0.44
852.746	-1.43
852.915	0.47
853.083	0.05
853.251	-1.39
853.42	-0.98
853.588	0.3
853.756	1.04
853.924	-0.14
854.093	0.1
854.261	-0.33
854.429	-1.22
854.597	-0.9
854.765	-0.7
854.934	0.14
855.102	0.12
855.27	0.15
855.438	-0.07
855.606	-0.29
855.774	0.96
855.942	-1.98
856.11	-1.75
856.278	-0.12
856.446	0.32
856.614	-1.05
856.782	-0.95
856.95	0.03
857.118	-0.01
857.286	0.43
857.454	-0.55
857.622	0.63
857.79	0.21
857.958	-1.36
858.126	-1.14
858.294	-3.08
858.462	-0.3
858.629	-0.67
858.797	-1.43
858.965	1.03
859.133	-1.16
859.301	0.32
859.468	-0.19
859.636	-0.7
859.804	0.94
859.971	1.02
860.139	-1.09
860.307	0.01
860.474	0.38
860.642	-0.09
860.81	-0.57
860.977	-0.97
861.145	0.27
861.313	-0.58
861.48	0.21
861.648	1.14
861.815	-0.81
861.983	-1.15
862.15	-1.22
862.318	0.72
862.485	-0.04
862.653	-0.86
862.82	-0.86
862.988	0.58
863.155	-1.39
863.322	-1.33
863.49	-1.72
863.657	0.08
863.824	1.37
863.992	0.54
864.159	-0.46
864.326	-0.4
864.494	-1.75
864.661	2.53
864.828	-1.63
864.996	1.67
865.163	1.11
865.33	-2.51
865.497	-2.67
865.664	-1.35
865.832	-2.71
865.999	-0.76
866.166	-2.6
866.333	-2.3
866.5	-1.57
866.667	-1.49
866.834	-1.44
867.001	0.95
867.168	-2.45
867.335	0.62
867.502	-2.92
867.669	-0.56
867.836	2.18
868.003	-1.88
868.17	0.77
868.337	-1.08
868.504	1.87
868.671	-1.97
868.838	-1.62
869.005	0.25
869.172	0.97
869.339	-1.46
869.505	0.98
869.672	0.55
869.839	0.19
870.006	-1.91
870.173	-1.4
870.339	-0.65
870.506	0.98
870.673	-2.07
870.84	0.38
871.006	-1.11
871.173	-0.81
871.34	0.4
871.506	-1.78
871.673	-0.1
871.839	-1.5
872.006	0.7
872.173	-0.9
872.339	-1.45
872.506	0.99
872.672	-0.7
872.839	-2.76
873.005	0.22
873.172	3.77
873.338	0.28
873.505	0.22
873.671	-1.4
873.838	1.02
874.004	-1.55
874.171	-1.69
874.337	0.48
874.503	-0.74
874.67	-0.52
874.836	-0.55
875.002	2.16
875.169	0.26
875.335	-0.92
875.501	-1.95
875.668	1.55
875.834	-1.05
876	-1.03
876.166	1.56
876.332	0.59
876.499	2.27
876.665	-2.27
876.831	-0.15
876.997	1.92
877.163	0.7
877.329	-1.15
877.495	-0.68
877.662	0.95
877.828	0.95
877.994	-1.33
878.16	-3.44
878.326	-1.72
878.492	-1.37
878.658	-0.07
878.824	0.65
878.99	1.28
879.156	-3.05
879.322	1.66
879.487	-0.41
879.653	0.24
879.819	-1.02
879.985	-1.38
880.151	-0.07
880.317	-0.52
880.483	-1.74
880.648	-1.36
880.814	-2.11
880.98	0.54
881.146	-1.91
881.312	-1.99
881.477	-2.72
881.643	-0.47
881.809	1.02
881.974	1.75
882.14	-3.04
882.306	-0.34
882.471	2.9
882.637	-2.2
882.803	0.3
882.968	1.01
883.134	3.57
883.299	0.39
883.465	-0.34
883.63	0.82
883.796	1.47
883.961	1.71
884.127	-0.95
884.292	-4.14
884.458	-2.38
884.623	-2.38
