Data from Apollo_Calib_20240827__AbsoluteIrradiance__127__01-16-02-377.txt Node

Date: Wed Aug 28 01:16:02 BST 2024
User: biology
Spectrometer: FLMT08252
Trigger mode: 0
Integration Time (sec): 5.000000E-1
Scans to average: 5
Electric dark correction enabled: true
Nonlinearity correction enabled: false
Boxcar width: 0
XAxis mode: Wavelengths
Number of Pixels in Spectrum: 3648
>>>>>Begin Spectral Data<<<<<
179.588	-0
179.809	-0
180.03	-0
180.251	-0
180.473	-0
180.694	0
180.915	0
181.136	-0
181.357	0
181.578	0
181.799	-0
182.02	-0
182.241	0
182.462	-0
182.683	0
182.904	-0
183.125	-0
183.346	0
183.567	-0
183.788	-0
184.009	-0
184.23	-0
184.451	-0
184.672	-0
184.892	-0
185.113	-0
185.334	0
185.555	-0
185.776	-0
185.996	0
186.217	-0
186.438	-0
186.659	-0
186.879	0
187.1	-0
187.321	-0
187.541	-0
187.762	-0
187.983	-0
188.203	-0
188.424	0
188.644	-0
188.865	-0
189.086	-0
189.306	-0
189.527	-0
189.747	-0
189.968	-0
190.188	0
190.409	0
190.629	0
190.849	-0
191.07	-0
191.29	0
191.511	0
191.731	-0
191.951	-0
192.172	-0
192.392	-0
192.612	-0
192.833	-0
193.053	-0
193.273	0
193.493	-0
193.714	-0
193.934	0
194.154	0
194.374	0
194.594	0
194.815	-0
195.035	-0
195.255	-0
195.475	-0
195.695	0
195.915	0
196.135	0
196.355	0
196.575	0
196.795	-0
197.015	-0
197.235	-0
197.455	-0
197.675	-0
197.895	-0
198.115	-0
198.335	-0
198.555	-0
198.775	-0
198.995	-0
199.214	0
199.434	-0
199.654	-0
199.874	-0
200.094	0.45
200.313	-0.65
200.533	-0.76
200.753	-0.87
200.973	0.4
201.192	0.43
201.412	-0.9
201.632	-0.79
201.851	0.09
202.071	-0.63
202.291	-0.48
202.51	-0.78
202.73	0.1
202.95	-0.43
203.169	-0.77
203.389	-0.46
203.608	-0.22
203.828	-0.39
204.047	-0.19
204.267	0.27
204.486	-0.27
204.706	0.12
204.925	-0.01
205.145	-0.25
205.364	0.3
205.583	0.4
205.803	-0.18
206.022	-0.44
206.242	-0.25
206.461	-0.03
206.68	-0.16
206.9	-0.26
207.119	0.56
207.338	0.03
207.557	-0.28
207.777	-0.05
207.996	-0.46
208.215	0.23
208.434	-0.28
208.654	-0.48
208.873	-0.21
209.092	0.54
209.311	-0.09
209.53	-0.15
209.749	-0.24
209.968	-0.35
210.187	-0.1
210.407	-0.28
210.626	-0.19
210.845	0.26
211.064	-0.09
211.283	-0.19
211.502	0.12
211.721	-0.11
211.94	-0.05
212.159	0
212.377	0.05
212.596	0.2
212.815	-0.08
213.034	0.14
213.253	0.33
213.472	0.11
213.691	-0.26
213.91	-0.33
214.128	-0.04
214.347	0.44
214.566	-0.34
214.785	-0.36
215.003	0.07
215.222	-0.04
215.441	-0.02
215.66	-0.37
215.878	-0.15
216.097	0.13
216.316	-0.37
216.534	-0.29
216.753	-0.14
216.972	-0.15
217.19	-0.02
217.409	-0.12
217.627	-0.19
217.846	-0.19
218.064	-0.08
218.283	-0.2
218.501	0.34
218.72	0.02
218.938	-0.31
219.157	-0.2
219.375	0.1
219.594	-0.32
219.812	-0.23
220.031	-0.15
220.249	0.14
220.467	0.24
220.686	-0.1
220.904	-0.28
221.122	-0.27
221.341	0.12
221.559	-0.08
221.777	-0.24
221.995	-0.14
222.214	-0.03
222.432	-0.18
222.65	0.14
222.868	-0.03
223.086	0.06
223.305	0.04
223.523	-0.1
223.741	0.2
223.959	-0.2
224.177	-0.2
224.395	0.06
224.613	0.13
224.831	0.04
225.049	-0.03
225.267	-0.14
225.485	0.01
225.703	-0.12
225.921	-0.11
226.139	-0.16
226.357	0.14
226.575	-0.05
226.793	-0.07
227.011	0.37
227.229	0.02
227.447	0.04
227.665	-0.12
227.883	-0.24
228.1	-0.07
228.318	0.06
228.536	-0.33
228.754	-0.04
228.972	0.08
229.189	-0.1
229.407	-0.05
229.625	-0
229.843	0.05
230.06	0.1
230.278	-0.09
230.496	-0.11
230.713	0.11
230.931	0.13
231.149	-0.16
231.366	-0.26
231.584	-0.07
231.801	0.24
232.019	-0.07
232.236	-0.21
232.454	-0.04
232.671	0.08
232.889	-0.03
233.106	-0.17
233.324	0.04
233.541	-0.03
233.759	-0.01
233.976	-0.15
234.194	-0.01
234.411	0.03
234.628	-0.07
234.846	-0.12
235.063	-0.09
235.28	-0.15
235.498	-0
235.715	-0.12
235.932	0.09
236.149	-0.1
236.367	-0.05
236.584	-0.01
236.801	0.02
237.018	-0
237.236	0.03
237.453	-0.17
237.67	0.09
237.887	-0.05
238.104	-0.12
238.321	-0.17
238.538	-0.12
238.755	0.08
238.973	-0.18
239.19	-0.1
239.407	0.04
239.624	0.08
239.841	-0.16
240.058	-0.09
240.275	0.03
240.492	0.04
240.709	-0.03
240.925	0.03
241.142	0.03
241.359	-0.11
241.576	-0.04
241.793	-0.05
242.01	-0.02
242.227	0.1
242.444	-0.02
242.66	0.05
242.877	0.01
243.094	-0.07
243.311	0.02
243.527	-0.03
243.744	0.11
243.961	-0.04
244.178	-0.13
244.394	-0.08
244.611	0.12
244.828	0.11
245.044	-0.04
245.261	-0.02
245.477	0.1
245.694	-0.03
245.911	0.01
246.127	-0
246.344	0.1
246.56	0.05
246.777	-0.13
246.993	-0.05
247.21	-0.04
247.426	0.05
247.643	-0.05
247.859	-0.16
248.076	-0.09
248.292	0.15
248.508	-0.05
248.725	0
248.941	0.07
249.157	0.15
249.374	-0.15
249.59	-0.05
249.806	0.01
250.023	-0.01
250.239	-0.04
250.455	-0.03
250.671	-0.02
250.888	0.05
251.104	0.03
251.32	-0
251.536	0.05
251.752	-0.06
251.969	-0.03
252.185	0.04
252.401	0.17
252.617	0.04
252.833	-0.08
253.049	-0.01
253.265	0.03
253.481	0.04
253.697	-0.06
253.913	-0.08
254.129	-0.07
254.345	0.01
254.561	-0.04
254.777	-0.06
254.993	0.03
255.209	0.01
255.425	-0.04
255.641	-0.01
255.857	0.1
256.073	0
256.288	-0.15
256.504	-0.09
256.72	0.05
256.936	0.04
257.152	0
257.367	-0.08
257.583	-0.02
257.799	0.1
258.015	-0.11
258.23	-0
258.446	-0.01
258.662	-0.03
258.877	-0.04
259.093	-0.08
259.309	-0.03
259.524	-0.03
259.74	-0.08
259.955	-0.11
260.171	0.03
260.387	-0.03
260.602	0.06
260.818	0.01
261.033	-0.15
261.249	0.01
261.464	-0.04
261.68	-0.03
261.895	-0
262.11	0.02
262.326	-0.02
262.541	-0.13
262.757	0.07
262.972	0.08
263.187	0.02
263.403	0.01
263.618	0.02
263.833	0.03
264.049	-0.01
264.264	0.01
264.479	-0.01
264.694	0.13
264.91	-0.05
265.125	0.01
265.34	0.07
265.555	0.12
265.77	0.05
265.986	-0.08
266.201	0.05
266.416	0.07
266.631	-0.04
266.846	-0.03
267.061	0.03
267.276	0
267.491	-0.14
267.706	0.03
267.921	0.02
268.136	-0.02
268.351	0.02
268.566	-0.07
268.781	0.04
268.996	0.01
269.211	0
269.426	-0.04
269.641	0
269.856	0.06
270.071	-0.07
270.285	-0.11
270.5	0.07
270.715	0.09
270.93	0
271.145	-0.01
271.359	0.01
271.574	-0.08
271.789	-0.05
272.004	-0.06
272.218	0.01
272.433	0.05
272.648	-0.03
272.862	0.08
273.077	0.02
273.292	-0.02
273.506	-0.08
273.721	-0.05
273.936	0.05
274.15	0.09
274.365	-0.05
274.579	0.1
274.794	0.03
275.008	0.1
275.223	-0.12
275.437	-0.01
275.652	0.02
275.866	0.04
276.081	-0.02
276.295	0.06
276.509	-0.03
276.724	-0.01
276.938	-0.04
277.153	0.02
277.367	0.02
277.581	-0.01
277.796	-0.04
278.01	-0.03
278.224	0.03
278.438	0.11
278.653	0
278.867	-0.07
279.081	-0.17
279.295	0.02
279.51	0.02
279.724	-0.06
279.938	-0
280.152	-0.01
280.366	-0.05
280.58	0.01
280.794	0.09
281.008	0.06
281.222	0.01
281.437	0.08
281.651	-0
281.865	0.01
282.079	-0.03
282.293	-0.12
282.507	-0.08
282.721	0.01
282.935	0.02
283.148	-0.1
283.362	-0.03
283.576	-0.1
283.79	0.01
284.004	-0
284.218	-0.03
284.432	-0.04
284.646	-0
284.859	-0.02
285.073	-0.07
285.287	0.03
285.501	0.01
285.714	-0.02
285.928	0.03
286.142	-0.06
286.356	-0.03
286.569	-0.04
286.783	0.03
286.997	0.03
287.21	0.04
287.424	-0.01
287.637	0
287.851	-0.02
288.065	0
288.278	-0.04
288.492	0.02
288.705	-0.01
288.919	0.04
289.132	-0.07
289.346	0.08
289.559	-0.09
289.773	-0.08
289.986	-0.01
290.2	-0.01
290.413	0.05
290.626	-0.05
290.84	-0.02
291.053	-0.07
291.267	0.08
291.48	0.01
291.693	0.04
291.906	-0.02
292.12	-0.03
292.333	-0.01
292.546	-0.03
292.76	0.05
292.973	-0.01
293.186	0.01
293.399	-0.02
293.612	-0.01
293.826	-0.04
294.039	-0.01
294.252	0
294.465	0.06
294.678	0.03
294.891	0
295.104	-0.05
295.317	-0.01
295.53	-0.02
295.743	-0.01
295.956	0.01
296.169	0.06
296.382	0.05
296.595	0.03
296.808	-0.06
297.021	0.05
297.234	0.03
297.447	0.02
297.66	0.03
297.873	0
298.086	0.02
298.299	-0.05
298.511	-0.08
298.724	0.02
298.937	-0.03
299.15	-0.01
299.363	-0.02
299.575	0.02
299.788	0.01
300.001	-0.03
300.213	-0.03
300.426	-0.02
300.639	-0.06
300.852	-0.02
301.064	0.03
301.277	0.05
301.489	0.01
301.702	0.06
301.915	-0.02
302.127	-0.04
302.34	0.05
302.552	0.02
302.765	-0.01
302.977	0.01
303.19	-0.01
303.402	-0.04
303.615	0.01
303.827	-0.03
304.04	-0.01
304.252	0
304.464	-0.02
304.677	0.07
304.889	0.07
305.102	-0.03
305.314	-0
305.526	0.04
305.739	0.01
305.951	-0.04
306.163	-0.01
306.375	0.06
306.588	0.01
306.8	-0
307.012	-0.07
307.224	-0
307.436	0.11
307.649	-0.05
307.861	0.04
308.073	0
308.285	-0.03
308.497	-0.06
308.709	-0.02
308.921	0.02
309.133	0.06
309.346	0
309.558	0.04
309.77	0.03
309.982	0.03
310.194	0.06
310.406	-0.02
310.617	0.05
310.829	-0.02
311.041	0.04
311.253	-0.07
311.465	-0.01
311.677	0.01
311.889	0.01
312.101	-0.03
312.313	0.07
312.524	0.03
312.736	-0.04
312.948	0
313.16	0.03
313.372	0
313.583	0.01
313.795	0.01
314.007	-0.07
314.218	0.04
314.43	-0.02
314.642	-0.01
314.853	-0.08
315.065	0
315.277	-0.02
315.488	-0.01
315.7	0.05
315.912	0.02
316.123	0
316.335	0.01
316.546	0.08
316.758	0.01
316.969	-0.01
317.181	0.02
317.392	0.02
317.604	0.03
317.815	-0.04
318.026	-0.03
318.238	0.02
318.449	-0.01
318.661	-0.06
318.872	-0.07
319.083	-0.06
319.295	0.01
319.506	-0.04
319.717	0.02
319.929	0.03
320.14	0.01
320.351	0.02
320.562	-0.04
320.774	0.02
320.985	0
321.196	-0.01
321.407	-0.05
321.618	0.04
321.829	0.03
322.041	0.06
322.252	-0.01
322.463	-0.01
322.674	0.02
322.885	-0.03
323.096	-0.05
323.307	-0.04
323.518	-0.01
323.729	-0.03
323.94	0
324.151	-0.01
324.362	0.01
324.573	-0.01
324.784	-0
324.995	0.04
325.206	0.06
325.417	-0.05
325.628	-0.02
325.838	-0
326.049	-0.02
326.26	0.01
326.471	-0.02
326.682	0.03
326.892	0.02
327.103	-0.03
327.314	-0.07
327.525	0.07
327.735	-0.01
327.946	-0.05
328.157	-0.03
328.368	0.04
328.578	-0.04
328.789	0.02
328.999	0.01
329.21	-0
329.421	0.03
329.631	-0.05
329.842	-0.01
330.052	0.04
330.263	0.01
330.473	0.02
330.684	0.01
330.894	-0.01
331.105	-0.02
331.315	0.03
331.526	-0.08
331.736	0.06
331.947	0
332.157	0.03
332.367	-0.04
332.578	-0.01
332.788	0.08
332.999	0.02
333.209	-0.03
333.419	-0.02
333.629	0.02
333.84	0.05
334.05	-0
334.26	0.03
334.47	-0.01
334.681	0.05
334.891	-0
335.101	0.03
335.311	0.04
335.521	0.01
335.732	-0.05
335.942	0.04
336.152	0.04
336.362	0.02
336.572	0.02
336.782	0.04
336.992	-0
337.202	0.01
337.412	-0.02
337.622	0.05
337.832	-0.01
338.042	0.02
338.252	-0.05
338.462	-0.02
338.672	0.01
338.882	-0.04
339.092	0.02
339.302	0.05
339.511	0.01
339.721	-0.01
339.931	-0.05
340.141	0.02
340.351	0.05
340.561	0.03
340.77	0.01
340.98	-0.01
341.19	0.06
341.4	-0.03
341.609	-0.02
341.819	-0.04
342.029	-0.04
342.238	-0
342.448	-0.03
342.658	0.01
342.867	0
343.077	0.06
343.286	-0.02
343.496	0.03
343.706	0.06
343.915	-0
344.125	-0
344.334	0.04
344.544	-0.05
344.753	-0.03
344.963	-0.03
345.172	-0
345.381	-0
345.591	-0.03
345.8	0.03
346.01	0.01
346.219	0.05
346.428	-0.11
346.638	0.03
346.847	-0.03
347.056	0.05
347.266	-0.04
347.475	0.04
347.684	0.04
347.893	0.04
348.103	0.04
348.312	0.02
348.521	-0.02
348.73	0.01
348.94	-0.02
349.149	0.01
349.358	-0.02
349.567	-0.02
349.776	-0
349.985	0.01
350.194	0.04
350.403	0.08
350.612	-0.06
350.821	-0
351.03	0.01
351.239	-0.04
351.448	0
351.657	-0.01
351.866	0.06
352.075	0.01
352.284	0.06
352.493	-0.05
352.702	0.05
352.911	0.04
353.12	-0.01
353.329	0.01
353.538	0.05
353.746	0.01
353.955	-0.02
354.164	0.04
354.373	0.05
354.582	0.03
354.79	0.04
354.999	0.03
355.208	-0.02
355.416	0.08
355.625	-0.03
355.834	-0.01
356.042	-0
356.251	0.03
356.46	-0.04
356.668	0.03
356.877	0.09
357.085	0.02
357.294	-0.05
357.503	0.03
357.711	0.01
357.92	0.12
358.128	0.01
358.337	0.04
358.545	0
358.754	-0.01
358.962	0.11
359.17	-0.01
359.379	0.02
359.587	0.05
359.796	0.02
360.004	0.02
360.212	0.01
360.421	0.09
360.629	-0.01
360.837	0
361.046	0.05
361.254	0.09
361.462	0.02
361.67	-0.03
361.879	0.03
362.087	0.09
362.295	0.02
362.503	-0
362.711	-0.02
362.92	-0.01
363.128	0.03
363.336	-0
363.544	-0.02
363.752	-0.01
363.96	0.01
364.168	-0.04
364.376	0.04
364.584	0.03
364.792	0.03
365	0.05
365.208	0.03
365.416	0.03
365.624	0.1
365.832	0.02
366.04	0.07
366.248	0.07
366.456	0.05
366.664	0.02
366.872	0.01
367.079	0.02
367.287	0.05
367.495	0.09
367.703	0.03
367.911	0.05
368.118	0.02
368.326	0.05
368.534	0.01
368.742	0.13
368.949	0.04
369.157	0.07
369.365	0.19
369.572	0.11
369.78	0.1
369.988	0.15
370.195	0.19
370.403	0.18
370.61	0.23
370.818	0.22
371.026	0.29
371.233	0.23
371.441	0.26
371.648	0.27
371.856	0.37
372.063	0.33
372.271	0.4
372.478	0.42
372.685	0.47
372.893	0.52
373.1	0.53
373.308	0.56
373.515	0.71
373.722	0.71
373.93	0.68
374.137	0.77
374.344	0.82
374.552	0.85
374.759	0.9
374.966	0.93
375.173	0.99
375.381	1.09
375.588	1.09
375.795	1.07
376.002	1.18
376.209	1.2
376.417	1.38
376.624	1.42
376.831	1.49
377.038	1.53
377.245	1.54
377.452	1.72
377.659	1.84
377.866	1.87
378.073	1.95
378.28	2.01
378.487	2.14
378.694	2.26
378.901	2.38
379.108	2.44
379.315	2.59
379.522	2.71
379.729	2.77
379.936	2.8
380.143	2.96
380.35	3.05
380.557	3.24
380.763	3.29
380.97	3.39
381.177	3.52
381.384	3.72
381.591	3.89
381.797	3.92
382.004	4.1
382.211	4.23
382.418	4.26
382.624	4.51
382.831	4.47
383.038	4.62
383.244	4.65
383.451	4.61
383.658	4.62
383.864	4.86
384.071	4.75
384.277	4.88
384.484	4.79
384.69	4.75
384.897	4.79
385.103	4.77
385.31	4.63
385.516	4.66
385.723	4.49
385.929	4.41
386.136	4.19
386.342	4.16
386.549	4.12
386.755	4.04
386.961	3.88
387.168	3.69
387.374	3.57
387.58	3.5
387.787	3.35
387.993	3.16
388.199	3.03
388.406	2.88
388.612	2.78
388.818	2.7
389.024	2.52
389.231	2.47
389.437	2.46
389.643	2.33
389.849	2.29
390.055	2.15
390.261	2.03
390.467	2.11
390.674	1.97
390.88	1.89
391.086	1.93
391.292	1.82
391.498	1.77
391.704	1.81
391.91	1.63
392.116	1.51
392.322	1.44
392.528	1.52
392.734	1.44
392.94	1.37
393.146	1.38
393.352	1.32
393.557	1.24
393.763	1.26
393.969	1.16
394.175	1.09
394.381	1.12
394.587	1.06
394.792	1.02
394.998	1.07
395.204	1.07
395.41	0.87
395.615	0.94
395.821	0.89
396.027	0.89
396.233	0.81
396.438	0.82
396.644	0.91
396.85	0.76
397.055	0.73
397.261	0.71
397.466	0.77
397.672	0.65
397.878	0.66
398.083	0.61
398.289	0.56
398.494	0.57
398.7	0.54
398.905	0.43
399.111	0.58
399.316	0.41
399.522	0.49
399.727	0.41
399.932	0.44
400.138	0.4
400.343	0.39
400.549	0.4
400.754	0.41
400.959	0.39
401.165	0.4
401.37	0.38
401.575	0.47
401.78	0.35
401.986	0.34
402.191	0.34
402.396	0.34
402.601	0.32
402.807	0.27
403.012	0.31
403.217	0.34
403.422	0.32
403.627	0.3
403.832	0.27
404.037	0.31
404.243	0.29
404.448	0.23
404.653	0.24
404.858	0.25
405.063	0.26
405.268	0.27
405.473	0.21
405.678	0.21
405.883	0.34
406.088	0.29
406.293	0.18
406.498	0.16
406.703	0.24
406.907	0.19
407.112	0.17
407.317	0.22
407.522	0.23
407.727	0.17
407.932	0.18
408.136	0.27
408.341	0.18
408.546	0.16
408.751	0.18
408.956	0.16
409.16	0.15
409.365	0.16
409.57	0.17
409.774	0.14
409.979	0.15
410.184	0.15
410.388	0.12
410.593	0.16
410.798	0.15
411.002	0.13
411.207	0.15
411.411	0.12
411.616	0.12
411.82	0.09
412.025	0.14
412.229	0.09
412.434	0.19
412.638	0.09
412.843	0.09
413.047	0.14
413.252	0.06
413.456	0.1
413.66	0.2
413.865	0.06
414.069	0.2
414.273	0.1
414.478	0.08
414.682	0.1
414.886	0.05
415.091	0.01
415.295	0.01
415.499	0.14
415.703	0.07
415.908	0.11
416.112	-0.01
416.316	0.11
416.52	0.06
416.724	0.02
416.929	0.07
417.133	0.18
417.337	0.04
417.541	0.04
417.745	0.04
417.949	0.06
418.153	0.09
418.357	-0.01
418.561	0.15
418.765	0.05
418.969	0.14
419.173	0.08
419.377	0.06
419.581	0.15
419.785	0.03
419.989	-0.01
420.193	-0.01
420.397	0.07
420.601	0.12
420.804	0.13
421.008	0.04
421.212	0.09
421.416	0.13
421.62	-0.01
421.823	0.05
422.027	0.15
422.231	0.08
422.435	0.06
422.638	0.06
422.842	0.09
423.046	0.03
423.249	0.07
423.453	0.07
423.657	0.04
423.86	0.03
424.064	0.08
424.268	0.11
424.471	0.06
424.675	0.15
424.878	0.1
425.082	0.03
425.285	0.08
425.489	0.05
425.692	0.06
425.896	0.02
426.099	0.07
426.303	0.02
426.506	-0.01
426.71	0.05
426.913	0.1
427.116	0.09
427.32	0.07
427.523	0.04
427.726	0.14
427.93	0.05
428.133	0.07
428.336	0.01
428.54	0.01
428.743	0.09
428.946	0.09
429.149	0.02
429.353	0.14
429.556	0.03
429.759	0.07
429.962	0.01
430.165	0.09
430.368	0.1
430.571	0.01
430.775	0.09
430.978	0.05
431.181	0.08
431.384	0.09
431.587	0.05
431.79	0.03
431.993	0.11
432.196	0.04
432.399	0.02
432.602	0.16
432.805	0.1
433.008	0.05
433.211	-0.02
433.414	0.11
433.616	0.09
433.819	0.03
434.022	-0.02
434.225	0.15
434.428	0.11
434.631	0.18
434.833	0.08
435.036	0.07
435.239	0.06
435.442	0.09
435.645	0.07
435.847	0.07
436.05	0.11
436.253	0.09
436.455	-0
436.658	0.09
436.861	0.12
437.063	0.11
437.266	0.07
437.468	0.09
437.671	0.17
437.874	0.07
438.076	0.01
438.279	0.01
438.481	0.02
438.684	0.06
438.886	0.08
439.089	-0
439.291	0.06
439.494	0.13
439.696	0.03
439.899	0.09
440.101	0.05
440.303	0.01
440.506	0.11
440.708	0.05
440.91	0.09
441.113	0.04
441.315	0.09
441.517	0.03
441.72	0.14
441.922	0.05
442.124	0.05
442.326	0.11
442.529	0.14
442.731	0.03
442.933	0.15
443.135	0.06
443.337	0.05
443.539	0.08
443.742	0.07
443.944	0.12
444.146	0
444.348	0.09
444.55	0.05
444.752	0.05
444.954	0.06
445.156	0.1
445.358	0.03
445.56	0.17
445.762	0.01
445.964	0.08
446.166	0.05
446.368	0
446.57	0.15
446.772	0.08
446.974	0.07
447.175	0.12
447.377	0.02
447.579	0.09
447.781	-0.01
447.983	0.14
448.184	0.1
448.386	0.11
448.588	0.01
448.79	0.06
448.991	0.02
449.193	0.06
449.395	0.08
449.597	0.14
449.798	0.13
450	0.09
450.202	0.06
450.403	0.08
450.605	0.1
450.806	0.06
451.008	0.05
451.21	0.05
451.411	0.06
451.613	0.06
451.814	0.07
452.016	0.07
452.217	0.09
452.419	0.13
452.62	0.08
452.821	0.11
453.023	0.15
453.224	0.11
453.426	0.04
453.627	0.08
453.828	0.12
454.03	0.08
454.231	0.11
454.432	0.03
454.634	0.1
454.835	0.06
455.036	0.01
455.238	0.1
455.439	0.12
455.64	0
455.841	0.01
456.042	0.08
456.244	0.13
456.445	0.01
456.646	-0.03
456.847	0.03
457.048	0.09
457.249	0.06
457.45	0.25
457.651	-0
457.852	0.08
458.054	0.02
458.255	0.04
458.456	0.07
458.657	0.07
458.858	-0
459.058	0.04
459.259	0.11
459.46	0.01
459.661	0.02
459.862	0.11
460.063	-0.02
460.264	0.04
460.465	0.02
460.666	0.16
460.866	0.04
461.067	0.05
461.268	0.04
461.469	-0.01
461.67	0.04
461.87	0.04
462.071	0.01
462.272	0.03
462.473	0.08
462.673	0.07
462.874	-0.01
463.075	0.03
463.275	-0.05
463.476	0.03
463.676	0.05
463.877	0.02
464.078	0.02
464.278	0.01
464.479	-0
464.679	0.01
464.88	-0
465.08	0.14
465.281	-0
465.481	0.01
465.682	0.02
465.882	0.06
466.083	0.02
466.283	0.04
466.483	0.02
466.684	-0.02
466.884	0.03
467.085	0.03
467.285	0.11
467.485	-0.01
467.686	0.02
467.886	-0.01
468.086	0.01
468.286	0.03
468.487	0.05
468.687	-0.01
468.887	0.02
469.087	0.06
469.287	0.04
469.488	-0.05
469.688	0.05
469.888	0.04
470.088	0.05
470.288	0.09
470.488	0.03
470.688	0.01
470.888	-0.02
471.088	-0
471.288	0.05
471.488	0.05
471.688	0.05
471.888	0.03
472.088	0.09
472.288	0.04
472.488	0.02
472.688	-0
472.888	-0.01
473.088	0.01
473.288	0.05
473.488	0.03
473.688	0.1
473.887	0.03
474.087	-0.02
474.287	0.04
474.487	0
474.687	0.07
474.886	-0.01
475.086	0.01
475.286	0.01
475.486	0.04
475.685	0.02
475.885	0.04
476.085	-0.02
476.284	0.05
476.484	-0.01
476.684	0.03
476.883	0.03
477.083	0.03
477.282	0.02
477.482	0.04
477.681	0.07
477.881	0.01
478.08	-0
478.28	-0.01
478.479	0.03
478.679	0.06
478.878	0.01
479.078	0.03
479.277	0.02
479.477	0.01
479.676	0.03
479.875	-0
480.075	-0.03
480.274	0.04
480.473	0.04
480.673	-0.04
480.872	0.04
481.071	0
481.271	0.06
481.47	0.01
481.669	0.04
481.868	-0.02
482.067	-0.02
482.267	-0.02
482.466	-0
482.665	-0.01
482.864	-0
483.063	-0.02
483.262	0.03
483.461	0.06
483.661	0.06
483.86	-0.01
484.059	0.02
484.258	-0
484.457	0.04
484.656	0.01
484.855	0.01
485.054	-0.03
485.253	-0.02
485.452	-0.01
485.651	0.01
485.849	0.02
486.048	0.01
486.247	-0.01
486.446	-0.01
486.645	-0.01
486.844	-0.03
487.043	-0.02
487.241	0.01
487.44	-0
487.639	0.01
487.838	0.03
488.037	0
488.235	0.05
488.434	0.02
488.633	-0.01
488.831	0.03
489.03	0.03
489.229	0.01
489.427	0.02
489.626	0.05
489.825	0.05
490.023	0
490.222	-0.02
490.42	0.03
490.619	0.05
490.817	0.03
491.016	0.02
491.214	0.05
491.413	-0
491.611	0.03
491.81	0.02
492.008	0.03
492.207	-0.01
492.405	0.03
492.604	-0.03
492.802	-0.02
493	0
493.199	0.01
493.397	0.01
493.595	-0
493.794	0.02
493.992	0.05
494.19	0.01
494.388	0.03
494.587	-0
494.785	0.01
494.983	-0.01
495.181	-0.01
495.379	0.04
495.578	0.02
495.776	0.04
495.974	0.02
496.172	0
496.37	-0.02
496.568	-0.01
496.766	-0.02
496.964	0.02
497.162	-0
497.36	0
497.558	0.03
497.756	0.02
497.954	0
498.152	-0.04
498.35	0.01
498.548	-0.01
498.746	-0.02
498.944	-0.03
499.142	-0.02
499.34	-0.04
499.538	0.01
499.736	0
499.933	0.03
500.131	0.03
500.329	-0
500.527	0.04
500.725	0.03
500.922	0.01
501.12	0.01
501.318	0.02
501.516	-0.02
501.713	0.03
501.911	0
502.109	-0.02
502.306	0.02
502.504	0.01
502.701	-0.02
502.899	0
503.097	0.04
503.294	0.02
503.492	-0.01
503.689	0.02
503.887	0.03
504.084	0.03
504.282	0.01
504.479	-0.03
504.677	0
504.874	-0.03
505.072	-0.01
505.269	0
505.466	0.03
505.664	-0
505.861	0
506.059	0
506.256	0.03
506.453	-0.01
506.651	0.03
506.848	0.02
507.045	0.01
507.242	0.03
507.44	0.02
507.637	-0
507.834	-0
508.031	0.02
508.229	-0.04
508.426	-0
508.623	-0.01
508.82	-0.01
509.017	-0.05
509.214	-0.01
509.411	0.02
509.608	-0.01
509.805	-0
510.003	-0.03
510.2	0
510.397	0.03
510.594	-0
510.791	-0.02
510.988	-0
511.184	0.01
511.381	0.02
511.578	-0
511.775	0.02
511.972	0.01
512.169	0
512.366	0
512.563	0.02
512.76	-0
512.956	0.03
513.153	-0.02
513.35	0
513.547	-0.01
513.744	-0
513.94	-0.02
514.137	0.01
514.334	0.03
514.53	0
514.727	0
514.924	0.04
515.12	-0.01
515.317	-0.02
515.514	0
515.71	-0.03
515.907	0
516.103	-0
516.3	0.02
516.497	0.03
516.693	0.02
516.89	-0.01
517.086	-0.01
517.283	0.05
517.479	0
517.676	-0.01
517.872	-0.01
518.068	-0.03
518.265	-0.02
518.461	-0.01
518.658	-0.02
518.854	0.02
519.05	-0
519.247	-0.01
519.443	0.01
519.639	0.02
519.836	-0
520.032	0.01
520.228	0
520.424	0.02
520.621	0.01
520.817	-0
521.013	0
521.209	0.02
521.405	0.04
521.601	0.01
521.798	0.01
521.994	0.01
522.19	-0.03
522.386	-0.05
522.582	-0
522.778	-0.01
522.974	-0.01
523.17	-0.02
523.366	0.02
523.562	0.04
523.758	-0.01
523.954	-0.02
524.15	-0.01
524.346	0.03
524.542	-0.01
524.738	-0.01
524.934	-0
525.129	-0
525.325	0.02
525.521	-0.01
525.717	0.02
525.913	-0.02
526.109	-0.01
526.304	-0.01
526.5	-0.01
526.696	0.02
526.892	-0.01
527.087	-0
527.283	-0.02
527.479	0.01
527.674	-0.02
527.87	0
528.066	-0
528.261	0.03
528.457	-0.01
528.653	-0.01
528.848	-0.01
529.044	0.02
529.239	-0.01
529.435	0.03
529.63	-0
529.826	0.05
530.021	0.02
530.217	0.03
530.412	-0.01
530.608	-0.01
530.803	0.02
530.999	-0.02
531.194	-0.06
531.389	-0.01
531.585	-0.02
531.78	-0.01
531.975	0.01
532.171	0.01
532.366	0
532.561	-0.01
532.757	-0.02
532.952	0
533.147	0.01
533.342	0.01
533.538	0.01
533.733	0.01
533.928	-0.03
534.123	-0.01
534.318	-0.02
534.513	0
534.709	-0
534.904	-0.01
535.099	-0.01
535.294	-0.01
535.489	0.01
535.684	-0.02
535.879	-0.04
536.074	0.02
536.269	-0.03
536.464	-0
536.659	0
536.854	-0.01
537.049	0.01
537.244	-0
537.439	0.01
537.634	0.04
537.828	0.01
538.023	-0.02
538.218	-0.03
538.413	0.01
538.608	-0.03
538.803	0.01
538.997	-0.03
539.192	0.01
539.387	0.02
539.582	0.01
539.776	0
539.971	-0
540.166	-0.01
540.36	-0.03
540.555	0
540.75	-0.02
540.944	-0.01
541.139	-0.02
541.334	0
541.528	0.03
541.723	0.01
541.917	-0
542.112	-0.02
542.306	-0.02
542.501	-0.02
542.695	0.02
542.89	-0.03
543.084	-0.01
543.279	-0
543.473	0.01
543.668	-0.01
543.862	-0
544.056	0.02
544.251	-0.01
544.445	0
544.64	0
544.834	-0.04
545.028	0.02
545.222	0.02
545.417	0.02
545.611	0.02
545.805	0.01
546	-0.01
546.194	0
546.388	0
546.582	0.03
546.776	-0.01
546.97	0.01
547.165	0.03
547.359	0.02
547.553	-0.03
547.747	0
547.941	0
548.135	-0.01
548.329	0.03
548.523	0.01
548.717	0
548.911	-0
549.105	-0
549.299	0.01
549.493	0.02
549.687	0.01
549.881	0.01
550.075	-0
550.269	-0.03
550.463	0.01
550.657	-0.04
550.85	-0.01
551.044	-0.02
551.238	-0.01
551.432	-0
551.626	-0.02
551.82	0.01
552.013	-0.02
552.207	0
552.401	-0
552.594	-0.02
552.788	-0.02
552.982	-0
553.176	-0
553.369	0.02
553.563	0.02
553.756	-0.02
553.95	-0.02
554.144	-0
554.337	0.03
554.531	0.01
554.724	0.02
554.918	-0
555.111	0.03
555.305	0.02
555.498	0.03
555.692	0.02
555.885	-0
556.079	0.01
556.272	-0.01
556.466	0.02
556.659	0.02
556.852	-0
557.046	-0.03
557.239	0.03
557.432	-0.03
557.626	-0.01
557.819	0.02
558.012	0.02
558.206	-0
558.399	0
558.592	0
558.785	0.01
558.979	0.02
559.172	0.01
559.365	-0.01
559.558	0.01
559.751	0.01
559.944	0.01
560.138	0
560.331	-0.01
560.524	-0
560.717	0.02
560.91	-0.01
561.103	0.02
561.296	0.01
561.489	0.01
561.682	-0
561.875	0.04
562.068	0.02
562.261	0
562.454	0.03
562.647	-0
562.84	0.02
563.032	-0.03
563.225	0.05
563.418	0
563.611	-0.01
563.804	0.01
563.997	-0.02
564.19	-0.02
564.382	0.01
564.575	0.01
564.768	-0.01
564.961	-0.02
565.153	-0.02
565.346	0.02
565.539	0.02
565.731	0.01
565.924	0.03
566.117	-0
566.309	-0.01
566.502	-0.01
566.695	0
566.887	0
567.08	-0
567.272	-0.01
567.465	-0.02
567.657	-0.01
567.85	0.02
568.042	-0.01
568.235	0.02
568.427	-0.01
568.62	-0.01
568.812	0.01
569.005	-0
569.197	-0.04
569.389	-0.01
569.582	0.03
569.774	0.01
569.966	-0.05
570.159	-0.05
570.351	0.03
570.543	-0.02
570.736	-0
570.928	-0.02
571.12	-0.02
571.312	-0.02
571.505	-0.02
571.697	0.02
571.889	-0.03
572.081	-0
572.273	-0.02
572.465	0.04
572.658	0
572.85	0.01
573.042	-0.02
573.234	0.01
573.426	0.01
573.618	-0.04
573.81	0.03
574.002	0.04
574.194	0.04
574.386	-0.02
574.578	-0.08
574.77	-0.03
574.962	0
575.154	-0.02
575.346	-0
575.538	0.02
575.729	-0.02
575.921	-0.01
576.113	0
576.305	0.03
576.497	-0.02
576.689	-0.02
576.88	-0.03
577.072	0.01
577.264	-0.01
577.456	0
577.647	-0.06
577.839	-0
578.031	0.02
578.223	-0.04
578.414	-0.02
578.606	-0
578.798	-0.01
578.989	-0.03
579.181	0.01
579.372	-0
579.564	-0
579.755	-0
579.947	-0.02
580.139	0.02
580.33	-0.04
580.522	-0.02
580.713	-0.05
580.905	-0.02
581.096	0.01
581.287	0.01
581.479	-0
581.67	0.01
581.862	-0
582.053	-0.03
582.244	-0.04
582.436	0
582.627	0.02
582.818	-0.03
583.01	-0.04
583.201	0.01
583.392	0
583.583	0.01
583.775	-0
583.966	-0.03
584.157	-0.01
584.348	-0.02
584.54	-0.02
584.731	0.01
584.922	0.01
585.113	-0.01
585.304	0
585.495	0.03
585.686	-0.01
585.877	0
586.068	0.01
586.259	-0.01
586.45	-0.01
586.641	-0.03
586.832	-0.08
587.023	0.03
587.214	0.01
587.405	0.02
587.596	-0.01
587.787	0.05
587.978	0.02
588.169	-0.02
588.36	-0.02
588.551	-0.01
588.742	0.01
588.932	-0.02
589.123	-0.01
589.314	0
589.505	0
589.696	0.02
589.886	-0.02
590.077	-0.03
590.268	-0.02
590.458	-0.04
590.649	-0.04
590.84	0.03
591.03	-0.02
591.221	-0.03
591.412	-0.04
591.602	0.02
591.793	0.03
591.984	-0.02
592.174	0.01
592.365	0.06
592.555	-0.01
592.746	0
592.936	0.02
593.127	0.02
593.317	0.02
593.508	-0.02
593.698	-0.02
593.889	0.01
594.079	0.01
594.269	-0.02
594.46	-0.01
594.65	-0.01
594.84	0.01
595.031	-0.04
595.221	-0.03
595.411	-0.06
595.602	0.03
595.792	0.02
595.982	-0.05
596.172	0.05
596.363	-0.01
596.553	-0.01
596.743	0.01
596.933	-0.02
597.123	0.02
597.314	-0.02
597.504	-0.01
597.694	0.01
597.884	0.02
598.074	-0.02
598.264	-0.01
598.454	0
598.644	-0.02
598.834	-0.02
599.024	-0.05
599.214	-0.02
599.404	0.04
599.594	-0.02
599.784	-0.04
599.974	0.03
600.164	0.04
600.354	-0.04
600.544	-0.06
600.734	0.02
600.924	0.03
601.114	-0.02
601.303	0.01
601.493	-0
601.683	-0.01
601.873	0
602.063	-0.02
602.252	0.03
602.442	-0.06
602.632	-0.02
602.821	-0.03
603.011	-0
603.201	-0.01
603.39	-0.05
603.58	-0.01
603.77	-0.01
603.959	0.01
604.149	0.01
604.339	0.01
604.528	0.04
604.718	0.02
604.907	-0
605.097	-0.01
605.286	-0.04
605.476	0.01
605.665	0.02
605.855	-0.03
606.044	0.01
606.234	-0
606.423	-0.03
606.612	-0.04
606.802	-0.02
606.991	0.01
607.181	0.01
607.37	-0.05
607.559	-0
607.749	-0.05
607.938	-0
608.127	-0.03
608.316	-0.02
608.506	-0.01
608.695	-0.02
608.884	-0.02
609.073	0.01
609.263	0.01
609.452	0.02
609.641	0
609.83	-0.02
610.019	-0.01
610.208	-0.04
610.397	-0.02
610.586	-0.01
610.775	-0.03
610.965	-0.04
611.154	-0.04
611.343	-0.01
611.532	0.01
611.721	-0.02
611.91	-0.02
612.099	0.01
612.287	0.01
612.476	-0.04
612.665	0.02
612.854	-0.03
613.043	0.04
613.232	-0
613.421	-0.05
613.61	0.01
613.798	-0.04
613.987	0.01
614.176	-0.02
614.365	0.02
614.554	-0.01
614.742	0.03
614.931	-0.03
615.12	0.02
615.309	-0.03
615.497	0.01
615.686	-0.05
615.875	-0.01
616.063	0.01
616.252	-0.03
616.44	-0.01
616.629	-0.01
616.818	0.01
617.006	-0.03
617.195	-0
617.383	0.01
617.572	0.01
617.76	-0.03
617.949	-0.03
618.137	-0.03
618.326	0.05
618.514	-0
618.703	-0.04
618.891	0.05
619.079	-0.05
619.268	0
619.456	-0.03
619.644	0.02
619.833	-0
620.021	-0.03
620.209	-0.08
620.398	-0
620.586	-0.01
620.774	0.02
620.962	-0.03
621.151	0.05
621.339	-0.02
621.527	-0.02
621.715	-0.05
621.903	-0.02
622.092	-0.06
622.28	0.01
622.468	0.01
622.656	-0
622.844	0.02
623.032	-0.02
623.22	-0.06
623.408	0.01
623.596	0
623.784	0.02
623.972	-0.03
624.16	-0.01
624.348	0.03
624.536	0
624.724	-0.01
624.912	0.01
625.1	0.02
625.288	-0.02
625.476	-0.03
625.664	0.01
625.851	-0.05
626.039	-0.04
626.227	0.01
626.415	-0.04
626.603	-0.05
626.79	-0.01
626.978	-0.01
627.166	0.01
627.354	-0.03
627.541	-0
627.729	-0.02
627.917	0.03
628.104	0.02
628.292	0.01
628.48	-0.03
628.667	0
628.855	0.05
629.042	0.01
629.23	-0.03
629.418	-0.01
629.605	-0.02
629.793	-0.02
629.98	-0.03
630.168	0.02
630.355	-0
630.543	0.01
630.73	-0.04
630.917	0.02
631.105	0.05
631.292	-0.02
631.48	0.02
631.667	0.05
631.854	0.03
632.042	0
632.229	-0.07
632.416	0.04
632.604	-0.01
632.791	-0.05
632.978	0.03
633.165	0.02
633.353	0.07
633.54	-0
633.727	-0.06
633.914	-0.04
634.101	-0.07
634.289	0.04
634.476	0.01
634.663	-0.03
634.85	0.01
635.037	-0.02
635.224	-0.05
635.411	0.03
635.598	0.04
635.785	0.01
635.972	0.01
636.159	0.01
636.346	0
636.533	-0
636.72	-0.01
636.907	0.02
637.094	0.05
637.281	0.01
637.468	0.01
637.655	0.01
637.842	0
638.029	0
638.215	0.01
638.402	0.01
638.589	-0.02
638.776	-0
638.963	-0.04
639.149	0.08
639.336	0.04
639.523	-0.01
639.709	0.01
639.896	-0.02
640.083	0.09
640.27	0.02
640.456	-0.02
640.643	0.02
640.829	-0.03
641.016	0.03
641.203	-0.01
641.389	0.05
641.576	0.04
641.762	0.02
641.949	-0
642.135	0.08
642.322	0.06
642.508	-0.04
642.695	0.04
642.881	0.03
643.068	-0
643.254	0.03
643.441	0.06
643.627	0.01
643.813	-0.01
644	0.05
644.186	0.03
644.372	0.04
644.559	0.05
644.745	0.02
644.931	0.05
645.118	0.01
645.304	0.02
645.49	0.01
645.676	0.04
645.862	0.03
646.049	0.09
646.235	0.02
646.421	0.11
646.607	0.1
646.793	0.01
646.979	-0.01
647.165	0.03
647.352	0.06
647.538	0.07
647.724	0.05
647.91	0.06
648.096	0.09
648.282	0.06
648.468	0.04
648.654	0.06
648.84	0.04
649.026	0.05
649.212	0.04
649.397	-0
649.583	0.03
649.769	0.04
649.955	0.06
650.141	0.1
650.327	0.1
650.513	0.08
650.698	0.06
650.884	-0
651.07	0.06
651.256	0.06
651.442	0.04
651.627	0.07
651.813	0.07
651.999	0.04
652.184	0.09
652.37	0.02
652.556	0.04
652.741	0.09
652.927	-0.03
653.113	0.07
653.298	0.1
653.484	0.06
653.669	0.04
653.855	0.04
654.04	0.07
654.226	0.12
654.412	0.05
654.597	0.06
654.782	0.09
654.968	0.15
655.153	0.1
655.339	0.08
655.524	0.04
655.71	0.14
655.895	0.09
656.08	0.06
656.266	0.11
656.451	0.1
656.636	0.1
656.822	0.09
657.007	0.05
657.192	0.09
657.378	0.06
657.563	0.06
657.748	0.13
657.933	0.11
658.118	0.07
658.304	0.09
658.489	0.12
658.674	0.12
658.859	0.06
659.044	0.12
659.229	0.13
659.414	0.08
659.599	0.08
659.785	0.03
659.97	0.09
660.155	0.1
660.34	0.18
660.525	0.08
660.71	0.09
660.895	0.12
661.08	0.07
661.264	0.08
661.449	0.11
661.634	0.12
661.819	0.11
662.004	0.12
662.189	0
662.374	0.06
662.559	0.04
662.743	-0.01
662.928	0.05
663.113	0.02
663.298	-0
663.483	0.03
663.667	0.07
663.852	0.05
664.037	0.08
664.221	0.02
664.406	0.07
664.591	0.05
664.775	0.06
664.96	0.04
665.145	0.04
665.329	0.07
665.514	0.01
665.698	0.03
665.883	-0.01
666.068	0.06
666.252	0.03
666.437	-0
666.621	0.03
666.806	0.04
666.99	0.03
667.174	-0.04
667.359	0.06
667.543	-0.01
667.728	0
667.912	-0.04
668.096	0.05
668.281	0
668.465	-0
668.649	-0
668.834	-0.06
669.018	0.02
669.202	-0.02
669.387	-0.05
669.571	0.02
669.755	-0.02
669.939	-0.02
670.124	0.01
670.308	0.04
670.492	0.03
670.676	0.01
670.86	-0.02
671.044	-0.05
671.228	0.02
671.413	-0.02
671.597	-0.02
671.781	-0.04
671.965	0.05
672.149	-0.04
672.333	-0.02
672.517	-0.05
672.701	0.01
672.885	-0
673.069	-0.09
673.253	-0.02
673.437	0.02
673.621	-0.05
673.804	-0.01
673.988	0.01
674.172	0
674.356	-0.07
674.54	-0.01
674.724	0.05
674.908	0.03
675.091	-0.02
675.275	-0.06
675.459	0.01
675.643	0.07
675.826	0.01
676.01	-0.01
676.194	-0
676.377	0.02
676.561	0.05
676.745	-0.01
676.928	-0.02
677.112	0.01
677.296	-0.03
677.479	-0.04
677.663	-0.04
677.846	0.05
678.03	-0.07
678.213	-0.02
678.397	0.04
678.58	-0.02
678.764	-0.01
678.947	-0.05
679.131	-0.01
679.314	0.01
679.498	-0.05
679.681	-0.02
679.865	0.03
680.048	-0.03
680.231	-0.03
680.415	-0.02
680.598	-0.02
680.781	-0.02
680.965	-0.01
681.148	-0.02
681.331	-0.05
681.514	-0.01
681.698	-0.04
681.881	-0
682.064	-0.01
682.247	-0.02
682.43	-0.07
682.614	0
682.797	-0.01
682.98	0
683.163	-0.02
683.346	0.02
683.529	-0.07
683.712	-0.08
683.895	0.03
684.078	-0.07
684.261	-0.04
684.444	-0.05
684.627	-0
684.81	-0.02
684.993	-0.01
685.176	-0.05
685.359	-0.04
685.542	-0.05
685.725	0.06
685.908	-0.02
686.091	-0.01
686.274	-0.01
686.457	0
686.639	-0.04
686.822	0
687.005	0.01
687.188	0
687.371	0.02
687.553	0.01
687.736	0.03
687.919	0.03
688.102	0.03
688.284	-0.01
688.467	0.02
688.65	-0.03
688.832	-0.03
689.015	-0.03
689.197	-0.05
689.38	0.05
689.563	0.06
689.745	-0.06
689.928	-0.05
690.11	-0.04
690.293	0.04
690.475	-0.09
690.658	-0.02
690.84	0
691.023	-0.03
691.205	-0.06
691.388	0.01
691.57	0
691.752	-0
691.935	-0.07
692.117	-0.03
692.3	-0
692.482	-0.03
692.664	-0.07
692.847	0.01
693.029	0.05
693.211	0.02
693.393	-0.02
693.576	-0.03
693.758	0.02
693.94	-0.07
694.122	-0.06
694.304	-0.02
694.487	-0.01
694.669	0.05
694.851	-0.07
695.033	-0
695.215	-0.04
695.397	-0.01
695.579	0
695.761	-0.07
695.943	-0.08
696.125	0.09
696.308	0.01
696.49	-0.12
696.671	0.1
696.853	-0.05
697.035	0.05
697.217	-0.01
697.399	0.02
697.581	-0.08
697.763	-0.04
697.945	-0.08
698.127	-0.04
698.309	0.03
698.491	-0.03
698.672	-0.01
698.854	0.02
699.036	0.03
699.218	-0.02
699.399	0.01
699.581	0.03
699.763	0
699.945	-0.09
700.126	-0.05
700.308	0.04
700.49	-0.03
700.671	-0.12
700.853	-0.04
701.035	-0.01
701.216	-0.03
701.398	-0.1
701.579	-0.01
701.761	0.05
701.943	-0.05
702.124	-0.04
702.306	-0.03
702.487	0.06
702.669	-0.05
702.85	-0.11
703.031	-0.04
703.213	0.08
703.394	0.05
703.576	-0.06
703.757	0.01
703.938	0.07
704.12	0.09
704.301	-0.03
704.483	-0.08
704.664	0.01
704.845	0.06
705.026	0.04
705.208	-0.02
705.389	-0
705.57	-0.03
705.751	0.01
705.933	-0.06
706.114	0.08
706.295	0.01
706.476	-0.11
706.657	0.1
706.838	0.05
707.02	0.02
707.201	-0.05
707.382	-0.01
707.563	0.03
707.744	-0.08
707.925	-0.04
708.106	0
708.287	-0.01
708.468	0.11
708.649	-0.05
708.83	0.03
709.011	-0.08
709.192	0.07
709.373	-0.09
709.554	-0.01
709.734	0.03
709.915	0.02
710.096	0.01
710.277	-0.1
710.458	0.01
710.639	0.04
710.819	-0.1
711	-0.04
711.181	0.03
711.362	0.06
711.542	-0.06
711.723	-0.02
711.904	0.05
712.085	0.01
712.265	0.05
712.446	-0.1
712.627	-0
712.807	0.04
712.988	-0.06
713.168	-0.1
713.349	0.02
713.53	-0.1
713.71	-0.05
713.891	-0.06
714.071	-0.01
714.252	-0.02
714.432	-0.05
714.613	-0.05
714.793	-0.01
714.974	0.02
715.154	0.11
715.334	0.06
715.515	0.12
715.695	-0.05
715.876	0.03
716.056	-0.03
716.236	-0.02
716.417	0.02
716.597	-0.02
716.777	0.17
716.957	-0.01
717.138	-0.05
717.318	0.02
717.498	-0.03
717.678	-0.03
717.859	-0.02
718.039	-0.13
718.219	0.04
718.399	0.08
718.579	-0.1
718.759	-0.08
718.939	0.03
719.12	0.04
719.3	0.03
719.48	-0.16
719.66	-0.08
719.84	0.02
720.02	0.01
720.2	-0.02
720.38	-0.02
720.56	0.07
720.74	-0.02
720.92	0.02
721.1	0.13
721.279	0.12
721.459	-0.04
721.639	-0.04
721.819	0.08
721.999	0.08
722.179	0.1
722.359	0.02
722.538	0.04
722.718	-0
722.898	-0.01
723.078	0.02
723.257	-0.05
723.437	0.09
723.617	-0.01
723.797	0.06
723.976	0.02
724.156	0
724.336	0.03
724.515	0.11
724.695	-0.06
724.874	-0.03
725.054	0.13
725.234	0.01
725.413	0.07
725.593	0.03
725.772	0.04
725.952	0.02
726.131	0.04
726.311	0.04
726.49	0.03
726.67	-0.03
726.849	0.05
727.028	0.08
727.208	-0.03
727.387	0.01
727.567	0.03
727.746	0.05
727.925	-0.05
728.105	-0.01
728.284	-0.09
728.463	-0.05
728.643	0.08
728.822	-0.03
729.001	0.02
729.18	0.05
729.359	0.08
729.539	0.02
729.718	0.01
729.897	0.18
730.076	-0.01
730.255	-0
730.434	0.14
730.614	0.09
730.793	0.06
730.972	0.09
731.151	0.11
731.33	0.11
731.509	0.17
731.688	0.06
731.867	0.02
732.046	-0.12
732.225	0.2
732.404	0.04
732.583	0.03
732.762	0.04
732.941	0.15
733.12	0.04
733.298	0.03
733.477	0.15
733.656	-0
733.835	0.02
734.014	0.16
734.193	0.06
734.371	0.14
734.55	0.03
734.729	-0.08
734.908	0.05
735.086	0.12
735.265	0.11
735.444	-0.03
735.623	-0.02
735.801	0.04
735.98	0.09
736.159	-0.01
736.337	0.12
736.516	0.1
736.694	0.03
736.873	0.01
737.052	0.15
737.23	0.18
737.409	0.02
737.587	0.16
737.766	-0.06
737.944	-0.02
738.123	0.03
738.301	0.04
738.479	-0.08
738.658	0.1
738.836	-0.08
739.015	0.1
739.193	0.16
739.371	-0.05
739.55	-0.04
739.728	-0
739.906	0.23
740.085	0.13
740.263	0.06
740.441	-0.11
740.62	0.12
740.798	0.04
740.976	-0.09
741.154	0.04
741.332	0.2
741.511	0.06
741.689	0.03
741.867	0.16
742.045	0.05
742.223	0.02
742.401	-0.05
742.579	-0.11
742.757	0.12
742.935	-0.14
743.114	0.01
743.292	-0.01
743.47	0.05
743.648	0.14
743.826	0.04
744.004	0.06
744.181	0.06
744.359	-0.03
744.537	-0.04
744.715	0.02
744.893	-0.05
745.071	-0.17
745.249	0.02
745.427	-0.1
745.605	0.03
745.782	-0.01
745.96	0.05
746.138	0.06
746.316	0.14
746.493	-0.02
746.671	0
746.849	-0.15
747.027	0.05
747.204	-0.1
747.382	-0.04
747.56	-0.16
747.737	0.01
747.915	-0.1
748.093	0.05
748.27	0.01
748.448	-0.11
748.625	-0.1
748.803	-0.09
748.98	-0.08
749.158	-0.03
749.335	0.07
749.513	-0.16
749.69	0
749.868	0.01
750.045	0.02
750.223	-0.09
750.4	-0.28
750.578	0.16
750.755	-0.03
750.932	-0.16
751.11	0.06
751.287	-0.19
751.464	0.04
751.642	-0.08
751.819	-0
751.996	-0.04
752.173	0.02
752.351	-0.14
752.528	-0.02
752.705	-0.06
752.882	-0.04
753.06	0.06
753.237	0.03
753.414	0.1
753.591	0.08
753.768	-0.02
753.945	-0.09
754.122	-0.02
754.299	0.08
754.476	-0
754.654	0.03
754.831	0.03
755.008	0.04
755.185	-0.08
755.362	-0.12
755.539	-0.02
755.716	-0.05
755.892	-0.04
756.069	-0.07
756.246	-0.06
756.423	-0.07
756.6	0.05
756.777	-0.02
756.954	0.17
757.131	-0.02
757.307	-0.16
757.484	-0.09
757.661	-0
757.838	-0.01
758.015	-0.13
758.191	0.04
758.368	-0.01
758.545	0.06
758.721	0.03
758.898	-0.04
759.075	0.1
759.251	0.08
759.428	0.02
759.605	-0.18
759.781	-0.03
759.958	-0
760.134	0.08
760.311	-0.18
760.488	0.1
760.664	0.05
760.841	-0.1
761.017	-0.07
761.194	0.09
761.37	-0.01
761.547	-0.05
761.723	0
761.899	0.03
762.076	-0.13
762.252	-0.11
762.429	-0.05
762.605	0.03
762.781	-0.12
762.958	0.07
763.134	0
763.31	-0.14
763.486	0.12
763.663	-0.17
763.839	-0.02
764.015	-0.23
764.191	-0.11
764.368	-0.02
764.544	-0.1
764.72	-0.04
764.896	0.08
765.072	-0.03
765.248	0.01
765.425	-0.11
765.601	-0.07
765.777	-0.03
765.953	-0.22
766.129	-0.19
766.305	-0.12
766.481	0.09
766.657	-0.01
766.833	0.11
767.009	-0.03
767.185	-0.07
767.361	-0.02
767.537	-0.33
767.713	0.03
767.889	-0.16
768.065	-0.02
768.24	-0.29
768.416	0.03
768.592	-0.06
768.768	-0.09
768.944	-0.07
769.12	-0.18
769.295	-0.13
769.471	0.02
769.647	-0.14
769.823	0.01
769.998	-0.14
770.174	-0.28
770.35	0.27
770.525	0.16
770.701	-0.01
770.877	0.03
771.052	-0.11
771.228	0.03
771.403	0.02
771.579	0.1
771.755	0.21
771.93	-0.05
772.106	-0.15
772.281	-0.27
772.457	-0.09
772.632	-0.06
772.808	-0.14
772.983	0.01
773.159	-0.17
773.334	0.07
773.509	0.03
773.685	-0.19
773.86	0.27
774.036	0.07
774.211	0.1
774.386	-0.02
774.562	-0.03
774.737	-0.08
774.912	-0.16
775.087	0.08
775.263	-0.11
775.438	0.07
775.613	-0.22
775.788	-0.08
775.964	0.1
776.139	0.3
776.314	-0.25
776.489	-0.04
776.664	-0.05
776.839	-0.15
777.014	0.12
777.19	0.16
777.365	0.17
777.54	0.23
777.715	-0.11
777.89	-0.16
778.065	-0.11
778.24	0.05
778.415	0.07
778.59	-0.19
778.765	-0.11
778.94	-0.11
779.115	-0.04
779.289	-0.04
779.464	-0.08
779.639	0.07
779.814	-0.19
779.989	-0.23
780.164	0.24
780.339	-0.02
780.513	-0.15
780.688	-0.17
780.863	0.08
781.038	0.12
781.212	-0.31
781.387	-0.06
781.562	0.12
781.737	-0.05
781.911	0.03
782.086	-0.05
782.261	-0.22
782.435	0.16
782.61	-0.2
782.784	-0.09
782.959	0.13
783.134	-0.14
783.308	-0.16
783.483	-0.08
783.657	0.11
783.832	0.1
784.006	-0.37
784.181	-0.32
784.355	0.08
784.53	-0.01
784.704	-0.29
784.878	0.25
785.053	-0.02
785.227	0.33
785.402	0.13
785.576	-0.3
785.75	-0.1
785.925	-0.09
786.099	-0.03
786.273	0.07
786.448	-0.11
786.622	0.01
786.796	-0.22
786.97	-0.06
787.145	0.3
787.319	-0.24
787.493	0.07
787.667	-0.44
787.841	-0.06
788.015	0.24
788.19	-0.07
788.364	0.09
788.538	0.07
788.712	0.18
788.886	-0.22
789.06	0.14
789.234	0.06
789.408	-0.36
789.582	-0.12
789.756	-0.18
789.93	-0.16
790.104	0.01
790.278	-0.04
790.452	-0.21
790.626	-0.02
790.8	-0.08
790.973	0.31
791.147	0.33
791.321	0.24
791.495	0.13
791.669	-0.05
791.843	0.03
792.016	-0.01
792.19	0.35
792.364	-0.22
792.538	0.45
792.711	0.03
792.885	-0.17
793.059	-0.33
793.233	-0.6
793.406	0.09
793.58	-0.13
793.754	-0.01
793.927	-0.03
794.101	0.35
794.274	0.14
794.448	0.09
794.622	-0.26
794.795	0.29
794.969	-0.07
795.142	0.28
795.316	-0.02
795.489	-0.31
795.663	0.53
795.836	-0.18
796.009	-0.32
796.183	0.28
796.356	0.08
796.53	-0.06
796.703	-0.2
796.876	0.38
797.05	-0.08
797.223	-0.26
797.396	0.04
797.57	0.1
797.743	0.12
797.916	-0.12
798.09	0.07
798.263	0
798.436	-0.01
798.609	-0.36
798.782	-0.21
798.956	-0.21
799.129	-0.07
799.302	-0.1
799.475	-0.03
799.648	0.05
799.821	-0.13
799.994	0.04
800.167	-0.55
800.34	-0
800.514	-0.08
800.687	-0.35
800.86	-0.34
801.033	-0.08
801.206	-0.23
801.379	-0.2
801.551	0.07
801.724	0.45
801.897	0.12
802.07	-0.38
802.243	-0.71
802.416	-0.04
802.589	-0.05
802.762	-0.05
802.935	-0.11
803.107	-0.01
803.28	0.09
803.453	0.08
803.626	-0.24
803.798	-0.1
803.971	-0.29
804.144	0.17
804.317	-0.03
804.489	0.26
804.662	-0.42
804.835	-0.04
805.007	-0.2
805.18	0.51
805.353	0.03
805.525	-0.4
805.698	-0.33
805.87	0.29
806.043	0.17
806.215	-0.25
806.388	-0.55
806.56	0.12
806.733	-0.04
806.905	0.02
807.078	-0.12
807.25	-0.28
807.423	-0.26
807.595	0.01
807.768	-0.13
807.94	0.28
808.112	-0.06
808.285	-0.39
808.457	-0.02
808.629	-0.24
808.802	0.06
808.974	0.26
809.146	-0.03
809.318	-0.64
809.491	-0.15
809.663	-0
809.835	-0.07
810.007	-0.41
810.18	0.11
810.352	-0.53
810.524	-0.27
810.696	0.03
810.868	0.11
811.04	-0.15
811.212	-0.01
811.384	-0.1
811.556	-0.17
811.728	-0.08
811.901	0.34
812.073	-0.19
812.245	0.18
812.417	0.06
812.589	-0.71
812.76	-0.04
812.932	0.64
813.104	0.61
813.276	-0.12
813.448	-0.05
813.62	-0.08
813.792	-0.08
813.964	-0.14
814.136	0.05
814.307	-0.6
814.479	0.07
814.651	-0.16
814.823	0.76
814.995	-0.06
815.166	0.19
815.338	-0.32
815.51	-0.43
815.681	0.53
815.853	-0.23
816.025	0
816.196	-0.1
816.368	0.05
816.54	-0.77
816.711	-0.36
816.883	0.23
817.054	0.83
817.226	-0.63
817.398	-0.86
817.569	-0.34
817.741	0.24
817.912	0.04
818.084	-0.15
818.255	-0.02
818.426	-0.16
818.598	0.01
818.769	-0.37
818.941	-0.05
819.112	0.58
819.283	0.54
819.455	-0.3
819.626	-0.11
819.798	0.06
819.969	-0.02
820.14	0.2
820.311	-0.13
820.483	0.03
820.654	-0.26
820.825	-0.16
820.996	-0.17
821.168	-0.7
821.339	-0.17
821.51	-0.56
821.681	-0.3
821.852	0.28
822.023	-0.66
822.195	-0.64
822.366	-0.02
822.537	-0.18
822.708	0.23
822.879	-0.23
823.05	0.74
823.221	-0.13
823.392	0.29
823.563	-0.13
823.734	-0.31
823.905	-0.18
824.076	-0.15
824.247	-0.03
824.418	-0.23
824.589	0.32
824.759	-0.63
824.93	0.14
825.101	-0.67
825.272	0.12
825.443	0.6
825.614	0.26
825.784	-1.39
825.955	0.88
826.126	0.13
826.297	-0.08
826.467	0.4
826.638	0.42
826.809	-0.92
826.98	-0.3
827.15	0
827.321	0.03
827.492	0.74
827.662	-0.1
827.833	0.87
828.003	-0.2
828.174	-0.81
828.345	-0.62
828.515	0.76
828.686	0.09
828.856	-0.39
829.027	0.06
829.197	-0.33
829.368	0.47
829.538	-0.66
829.709	-0.41
829.879	0.15
830.049	-0.53
830.22	-0.33
830.39	-0.39
830.56	0.49
830.731	-0.54
830.901	-0.62
831.072	-0.08
831.242	0.07
831.412	-0.21
831.582	-0.11
831.753	-0.47
831.923	0.58
832.093	-0.44
832.263	-0.27
832.434	-0.99
832.604	-1.1
832.774	-0.09
832.944	-0.03
833.114	-0.27
833.284	0.25
833.454	-0.66
833.624	-0.86
833.795	-0.54
833.965	0.35
834.135	0.62
834.305	-1.3
834.475	-0.59
834.645	0.13
834.815	-0.6
834.985	-0.87
835.155	-0.27
835.325	0.61
835.494	0.15
835.664	-0.05
835.834	-0.74
836.004	0.05
836.174	-0.48
836.344	-0.25
836.514	-0.93
836.684	-0.08
836.853	-0.08
837.023	-0.13
837.193	-0.48
837.363	0.66
837.532	0.05
837.702	-0.87
837.872	-0.48
838.041	-0.29
838.211	0.67
838.381	-1
838.55	-0.08
838.72	1.3
838.89	0.96
839.059	-0.21
839.229	-0.94
839.398	1.11
839.568	-0.88
839.738	0.09
839.907	0.89
840.077	0.39
840.246	-0.91
840.416	-0.92
840.585	-0.56
840.755	1.02
840.924	0.29
841.093	-0.3
841.263	-0.72
841.432	0.18
841.602	-1.03
841.771	-0.38
841.94	0.09
842.11	0.75
842.279	0.82
842.448	-0.48
842.617	-0.37
842.787	0.72
842.956	-0.19
843.125	-0.1
843.294	0.35
843.464	1.37
843.633	-0.07
843.802	-1.23
843.971	0.17
844.14	0.61
844.309	0.39
844.479	-0.17
844.648	-0.97
844.817	-0.59
844.986	-0.48
845.155	-0.56
845.324	-0.37
845.493	-0.49
845.662	-0.67
845.831	0.02
846	0.14
846.169	-0
846.338	0.89
846.507	-0.23
846.676	0.28
846.844	-0.36
847.013	0.75
847.182	0.15
847.351	-0.53
847.52	-0.47
847.689	0.43
847.858	0.15
848.026	-0.55
848.195	-0.25
848.364	-0.06
848.533	-0.8
848.701	-0.68
848.87	0.04
849.039	0.45
849.207	0.28
849.376	1.07
849.545	0.52
849.713	-0.87
849.882	-0.33
850.051	-0.03
850.219	-0.24
850.388	-0.27
850.556	-0.63
850.725	-0.45
850.893	-0.1
851.062	-0.01
851.23	0.03
851.399	-0.22
851.567	-1
851.736	0.1
851.904	-0.68
852.073	-0.73
852.241	0.25
852.41	-0.83
852.578	-0.68
852.746	-1.81
852.915	0.23
853.083	-0.87
853.251	-1.17
853.42	-1.01
853.588	-0.82
853.756	0.87
853.924	0.56
854.093	-0.41
854.261	-0.06
854.429	-1.94
854.597	0.57
854.765	-1.76
854.934	0.2
855.102	0.02
855.27	-0.45
855.438	-0.63
855.606	1.01
855.774	1.4
855.942	-1.17
856.11	-0.89
856.278	0.14
856.446	0.64
856.614	-1.03
856.782	-0.97
856.95	0.33
857.118	-0.56
857.286	0.04
857.454	-0.31
857.622	1.03
857.79	0.4
857.958	-1.25
858.126	-0.71
858.294	-3.37
858.462	-0.82
858.629	-1.22
858.797	-1.49
858.965	-0.22
859.133	-0.74
859.301	-0.57
859.468	0.37
859.636	-1.34
859.804	0.48
859.971	0.97
860.139	-1.36
860.307	0.93
860.474	0.5
860.642	-0.93
860.81	-0.53
860.977	-0.95
861.145	0.6
861.313	-1.01
861.48	0.32
861.648	1.31
861.815	-0.89
861.983	-1.34
862.15	-0.4
862.318	-0.82
862.485	0.5
862.653	-1.12
862.82	-0.92
862.988	1.67
863.155	1.95
863.322	-2.44
863.49	-1.17
863.657	-1.82
863.824	1.2
863.992	-0.13
864.159	-0.15
864.326	1.57
864.494	-0.33
864.661	1.22
864.828	-0.92
864.996	0.73
865.163	2.73
865.33	-0.49
865.497	-2.14
865.664	-0.42
865.832	-2.15
865.999	0.24
866.166	-1.63
866.333	-2.36
866.5	-0.7
866.667	-1.16
866.834	-0.44
867.001	0.77
867.168	-1.35
867.335	-0.38
867.502	-2.13
867.669	0.39
867.836	1.04
868.003	-0.01
868.17	1.06
868.337	-2.24
868.504	1.62
868.671	-1.98
868.838	-1.64
869.005	-0.04
869.172	0.12
869.339	-0.28
869.505	1
869.672	-0.64
869.839	2.21
870.006	-2.12
870.173	0.04
870.339	-0.47
870.506	0.86
870.673	-0.67
870.84	-0.37
871.006	0.4
871.173	-0.63
871.34	-0.41
871.506	-2.16
871.673	-0.19
871.839	-1.82
872.006	-0.8
872.173	-0.83
872.339	-1.1
872.506	1.38
872.672	-0.18
872.839	-1.37
873.005	0.19
873.172	2.16
873.338	0.72
873.505	-0.55
873.671	-1.32
873.838	-0.7
874.004	-2.46
874.171	-1.77
874.337	-0.51
874.503	2.5
874.67	-0.85
874.836	-0.03
875.002	1.79
875.169	0.41
875.335	-0.57
875.501	-1.24
875.668	0.52
875.834	-0.95
876	-1.06
876.166	0.17
876.332	0.99
876.499	2.77
876.665	-1.39
876.831	-1.33
876.997	2.26
877.163	-0.89
877.329	-1.8
877.495	-1.27
877.662	0.25
877.828	1.25
877.994	-0.05
878.16	-2.38
878.326	-1.56
878.492	-1.27
878.658	-1.05
878.824	-0.4
878.99	0.31
879.156	-2.1
879.322	3.31
879.487	-1.71
879.653	-1.34
879.819	0.51
879.985	-0.88
880.151	0.64
880.317	-0.09
880.483	-0.42
880.648	0.29
880.814	-2.1
880.98	-0.46
881.146	-3.56
881.312	-0.46
881.477	-1.31
881.643	-0.63
881.809	2.85
881.974	1.4
882.14	-2.53
882.306	-0.88
882.471	1.06
882.637	0.72
882.803	1.15
882.968	3.26
883.134	2.35
883.299	-0.55
883.465	-0.53
883.63	0.85
883.796	0.18
883.961	1.98
884.127	0.42
884.292	-3
884.458	-2.3
884.623	-2.3
