Data from Apollo_Calib_20240827__AbsoluteIrradiance__67__00-16-02-517.txt Node

Date: Wed Aug 28 00:16:02 BST 2024
User: biology
Spectrometer: FLMT08252
Trigger mode: 0
Integration Time (sec): 5.000000E-1
Scans to average: 5
Electric dark correction enabled: true
Nonlinearity correction enabled: false
Boxcar width: 0
XAxis mode: Wavelengths
Number of Pixels in Spectrum: 3648
>>>>>Begin Spectral Data<<<<<
179.588	-0
179.809	-0
180.03	-0
180.251	-0
180.473	-0
180.694	0
180.915	0
181.136	-0
181.357	0
181.578	-0
181.799	-0
182.02	-0
182.241	-0
182.462	-0
182.683	0
182.904	0
183.125	-0
183.346	0
183.567	-0
183.788	-0
184.009	-0
184.23	0
184.451	-0
184.672	-0
184.892	-0
185.113	0
185.334	0
185.555	-0
185.776	-0
185.996	0
186.217	0
186.438	-0
186.659	-0
186.879	0
187.1	-0
187.321	-0
187.541	-0
187.762	-0
187.983	0
188.203	-0
188.424	-0
188.644	-0
188.865	-0
189.086	-0
189.306	-0
189.527	-0
189.747	0
189.968	-0
190.188	0
190.409	-0
190.629	0
190.849	-0
191.07	-0
191.29	0
191.511	-0
191.731	-0
191.951	-0
192.172	-0
192.392	-0
192.612	-0
192.833	0
193.053	-0
193.273	0
193.493	-0
193.714	-0
193.934	0
194.154	0
194.374	0
194.594	-0
194.815	-0
195.035	-0
195.255	-0
195.475	-0
195.695	0
195.915	0
196.135	-0
196.355	0
196.575	0
196.795	-0
197.015	-0
197.235	-0
197.455	-0
197.675	0
197.895	-0
198.115	-0
198.335	0
198.555	-0
198.775	-0
198.995	-0
199.214	0
199.434	-0
199.654	-0
199.874	-0
200.094	0.3
200.313	0.02
200.533	-0.72
200.753	-0.91
200.973	0.22
201.192	0.38
201.412	-1.02
201.632	-0.58
201.851	0.35
202.071	-0.78
202.291	-0.83
202.51	-0.69
202.73	0.01
202.95	-0.59
203.169	-0.79
203.389	-0.31
203.608	-0.25
203.828	-0.92
204.047	0.13
204.267	0.12
204.486	-0.2
204.706	-0.22
204.925	0.07
205.145	-0.37
205.364	-0.08
205.583	0.51
205.803	-0.54
206.022	-0.44
206.242	-0.28
206.461	-0.31
206.68	-0.68
206.9	0.14
207.119	0.18
207.338	0.56
207.557	-0.56
207.777	-0.39
207.996	-0.38
208.215	0.46
208.434	-0.4
208.654	-0.71
208.873	-0.04
209.092	0.37
209.311	-0.16
209.53	-0.22
209.749	-0.29
209.968	-0.12
210.187	-0.36
210.407	-0.7
210.626	-0.18
210.845	0.06
211.064	-0.31
211.283	-0.51
211.502	0.07
211.721	-0.15
211.94	-0.31
212.159	0.06
212.377	0.3
212.596	0.26
212.815	-0.1
213.034	-0.02
213.253	0.1
213.472	0.05
213.691	-0.2
213.91	-0.43
214.128	-0.34
214.347	0.18
214.566	-0.49
214.785	-0.45
215.003	0.02
215.222	-0.04
215.441	0.01
215.66	-0.29
215.878	-0.04
216.097	0.17
216.316	-0.19
216.534	-0.19
216.753	-0.11
216.972	-0.07
217.19	-0.13
217.409	-0.41
217.627	-0.34
217.846	-0.12
218.064	-0.11
218.283	-0.27
218.501	0.3
218.72	0.05
218.938	-0.16
219.157	-0.24
219.375	0.15
219.594	0.11
219.812	-0.17
220.031	-0.25
220.249	0.21
220.467	0.23
220.686	-0.13
220.904	-0.3
221.122	-0.25
221.341	0.25
221.559	-0.21
221.777	-0.33
221.995	-0.05
222.214	-0.19
222.432	-0.14
222.65	0.07
222.868	0.04
223.086	-0.08
223.305	0.01
223.523	-0.06
223.741	0.21
223.959	0.01
224.177	-0.29
224.395	-0.1
224.613	-0.05
224.831	0.11
225.049	-0.2
225.267	-0.02
225.485	0.02
225.703	-0.27
225.921	-0.05
226.139	-0.18
226.357	0.05
226.575	-0.05
226.793	-0.23
227.011	0.26
227.229	-0.05
227.447	0.09
227.665	-0.19
227.883	-0.25
228.1	-0.23
228.318	-0.05
228.536	-0.28
228.754	-0.15
228.972	0.06
229.189	-0.1
229.407	-0.16
229.625	-0.15
229.843	0.16
230.06	-0.03
230.278	-0.12
230.496	-0.2
230.713	0.08
230.931	0.24
231.149	-0.14
231.366	-0.31
231.584	-0.06
231.801	0.24
232.019	-0.24
232.236	-0.16
232.454	-0.27
232.671	-0.01
232.889	0.05
233.106	-0.14
233.324	-0.11
233.541	-0.14
233.759	-0.07
233.976	-0.1
234.194	-0.07
234.411	-0.02
234.628	-0.12
234.846	-0.17
235.063	0.02
235.28	-0.17
235.498	-0.05
235.715	-0.17
235.932	0.07
236.149	-0.13
236.367	-0.21
236.584	-0.02
236.801	-0.05
237.018	0.06
237.236	0.01
237.453	-0.23
237.67	0.05
237.887	-0.1
238.104	-0.05
238.321	-0.19
238.538	-0.08
238.755	0.02
238.973	-0.2
239.19	-0.11
239.407	-0.03
239.624	-0.03
239.841	-0.18
240.058	-0.21
240.275	0.04
240.492	-0.14
240.709	-0.09
240.925	-0.08
241.142	-0.08
241.359	-0.06
241.576	-0.16
241.793	-0.18
242.01	-0.08
242.227	0
242.444	0.06
242.66	-0
242.877	-0.01
243.094	-0.07
243.311	-0.02
243.527	-0.02
243.744	-0.07
243.961	0.06
244.178	-0.12
244.394	-0.06
244.611	0.05
244.828	0.07
245.044	-0.17
245.261	-0.09
245.477	0.06
245.694	-0.05
245.911	-0.18
246.127	-0.06
246.344	0.04
246.56	0.04
246.777	-0.09
246.993	-0.04
247.21	-0.04
247.426	-0.18
247.643	-0.09
247.859	-0.09
248.076	-0.13
248.292	0.17
248.508	-0.1
248.725	0.02
248.941	-0.12
249.157	0.04
249.374	-0.12
249.59	0.03
249.806	0.02
250.023	0.04
250.239	-0.1
250.455	-0.08
250.671	-0.05
250.888	-0.03
251.104	0.04
251.32	-0.17
251.536	-0.06
251.752	-0.06
251.969	-0.05
252.185	-0.07
252.401	0.12
252.617	-0.02
252.833	-0.09
253.049	-0.02
253.265	-0.01
253.481	-0.02
253.697	-0.03
253.913	-0.14
254.129	-0.03
254.345	-0.04
254.561	-0.08
254.777	-0.06
254.993	0.01
255.209	0.04
255.425	-0.07
255.641	-0.09
255.857	0.01
256.073	-0.05
256.288	-0.16
256.504	-0.1
256.72	-0.01
256.936	0.05
257.152	-0.05
257.367	-0.12
257.583	-0.02
257.799	0
258.015	-0.1
258.23	-0.09
258.446	0.14
258.662	-0.02
258.877	-0.09
259.093	-0.11
259.309	-0
259.524	-0.02
259.74	-0.08
259.955	-0.14
260.171	-0.04
260.387	-0.07
260.602	0.04
260.818	0.01
261.033	-0.06
261.249	-0.02
261.464	-0.04
261.68	-0.14
261.895	-0
262.11	-0.01
262.326	-0.08
262.541	-0.16
262.757	-0
262.972	0.07
263.187	-0.03
263.403	-0.04
263.618	0.02
263.833	-0.12
264.049	-0.06
264.264	-0.07
264.479	0.05
264.694	0.11
264.91	-0.14
265.125	-0.06
265.34	0.02
265.555	0.1
265.77	0.04
265.986	-0.09
266.201	0.05
266.416	0.04
266.631	-0.05
266.846	-0.1
267.061	0.03
267.276	0
267.491	-0.16
267.706	0.02
267.921	-0.03
268.136	-0.1
268.351	-0.04
268.566	-0.09
268.781	0.08
268.996	0.03
269.211	-0.05
269.426	-0.06
269.641	-0.07
269.856	-0.06
270.071	-0.06
270.285	-0.1
270.5	0.02
270.715	0.08
270.93	-0.01
271.145	0.01
271.359	0.05
271.574	-0.06
271.789	-0.02
272.004	-0.04
272.218	-0.13
272.433	0.02
272.648	-0.08
272.862	0.01
273.077	-0.03
273.292	-0.01
273.506	-0.02
273.721	-0.05
273.936	0.02
274.15	0.04
274.365	-0.09
274.579	-0.03
274.794	0.05
275.008	-0.03
275.223	-0.08
275.437	-0.09
275.652	0.06
275.866	-0.02
276.081	-0.04
276.295	0.02
276.509	-0.03
276.724	0.02
276.938	-0.01
277.153	-0.02
277.367	-0.06
277.581	-0.05
277.796	-0.06
278.01	-0.11
278.224	0.03
278.438	0.1
278.653	-0.08
278.867	-0.05
279.081	-0.03
279.295	-0.06
279.51	0.01
279.724	-0.13
279.938	-0.02
280.152	0.02
280.366	-0.07
280.58	-0.01
280.794	0.03
281.008	-0.05
281.222	0.03
281.437	0.11
281.651	-0.05
281.865	0.07
282.079	-0.03
282.293	-0.12
282.507	-0.1
282.721	-0.01
282.935	0
283.148	-0.13
283.362	-0.06
283.576	-0.09
283.79	-0.01
284.004	-0.08
284.218	0.03
284.432	-0.03
284.646	-0.01
284.859	-0.06
285.073	-0.03
285.287	-0.04
285.501	-0.04
285.714	-0.06
285.928	-0.05
286.142	-0.01
286.356	-0.07
286.569	-0.01
286.783	0.07
286.997	0.01
287.21	-0.03
287.424	-0.02
287.637	-0.01
287.851	-0.02
288.065	0.04
288.278	-0.04
288.492	-0.05
288.705	-0.03
288.919	0.01
289.132	-0.07
289.346	0.02
289.559	-0.09
289.773	-0.05
289.986	-0.06
290.2	0
290.413	0.04
290.626	-0.1
290.84	-0.02
291.053	-0.02
291.267	0.01
291.48	-0.03
291.693	-0.03
291.906	0.01
292.12	-0.03
292.333	-0.1
292.546	-0.02
292.76	0.05
292.973	0.01
293.186	0.01
293.399	-0.05
293.612	0.02
293.826	-0.02
294.039	-0.06
294.252	-0.06
294.465	-0
294.678	0
294.891	0.04
295.104	-0.07
295.317	-0.01
295.53	-0
295.743	0.03
295.956	-0.01
296.169	0.05
296.382	0.05
296.595	-0.02
296.808	-0.04
297.021	0.02
297.234	0.08
297.447	-0.01
297.66	-0.01
297.873	0.01
298.086	-0.01
298.299	-0.03
298.511	-0.05
298.724	-0.01
298.937	-0.05
299.15	-0.04
299.363	-0.01
299.575	0.03
299.788	0.01
300.001	0
300.213	-0.01
300.426	-0.05
300.639	-0.05
300.852	-0.08
301.064	0.04
301.277	0.04
301.489	0.05
301.702	0.03
301.915	-0.03
302.127	-0
302.34	-0.01
302.552	0
302.765	-0.07
302.977	0.02
303.19	-0.02
303.402	-0.07
303.615	0.02
303.827	-0.02
304.04	-0.07
304.252	0.02
304.464	-0.02
304.677	0.1
304.889	0.02
305.102	-0.05
305.314	-0.09
305.526	-0.03
305.739	0.04
305.951	-0.05
306.163	-0.03
306.375	0.05
306.588	-0.01
306.8	-0.01
307.012	-0.05
307.224	-0
307.436	0
307.649	-0.07
307.861	-0.01
308.073	0.02
308.285	-0.03
308.497	-0.06
308.709	-0.07
308.921	-0.02
309.133	0.03
309.346	-0.03
309.558	-0.03
309.77	0.01
309.982	0.02
310.194	-0
310.406	-0.05
310.617	0.09
310.829	-0.04
311.041	-0.04
311.253	-0.04
311.465	-0.04
311.677	-0.02
311.889	0.04
312.101	-0.08
312.313	0.02
312.524	0.05
312.736	-0.07
312.948	-0.02
313.16	0.07
313.372	-0.02
313.583	0.03
313.795	0.01
314.007	-0.05
314.218	-0.01
314.43	-0.02
314.642	-0.06
314.853	-0.1
315.065	0.01
315.277	-0.05
315.488	-0.03
315.7	0.01
315.912	-0.02
316.123	-0.02
316.335	-0.04
316.546	0.07
316.758	-0.04
316.969	-0.06
317.181	0
317.392	0.02
317.604	0.04
317.815	-0.06
318.026	-0.05
318.238	-0.03
318.449	0.01
318.661	-0.09
318.872	-0.07
319.083	-0.06
319.295	-0.02
319.506	-0.03
319.717	0.02
319.929	-0.04
320.14	0.01
320.351	0
320.562	-0.06
320.774	0.01
320.985	0
321.196	-0.06
321.407	-0.05
321.618	-0
321.829	-0.04
322.041	0.01
322.252	0.02
322.463	-0.03
322.674	-0.03
322.885	-0.04
323.096	0
323.307	-0.02
323.518	-0
323.729	-0.04
323.94	-0.04
324.151	-0.01
324.362	-0.05
324.573	-0.02
324.784	-0.03
324.995	-0
325.206	-0.04
325.417	-0.02
325.628	-0.03
325.838	-0
326.049	0
326.26	0
326.471	-0.02
326.682	0.02
326.892	-0.02
327.103	-0.07
327.314	-0.04
327.525	0.08
327.735	-0
327.946	-0.04
328.157	-0.05
328.368	0.05
328.578	-0.03
328.789	-0
328.999	0.02
329.21	-0.01
329.421	0.01
329.631	-0.05
329.842	-0.06
330.052	0.01
330.263	0.02
330.473	0.01
330.684	-0.03
330.894	-0.03
331.105	-0.01
331.315	-0.02
331.526	-0.05
331.736	0.04
331.947	-0.02
332.157	-0.02
332.367	-0.05
332.578	0.01
332.788	0.04
332.999	0.02
333.209	-0.03
333.419	-0.06
333.629	0.01
333.84	0.01
334.05	-0.02
334.26	0.02
334.47	-0.02
334.681	0.04
334.891	-0.02
335.101	0.04
335.311	0.02
335.521	-0.01
335.732	-0.06
335.942	0.04
336.152	0.01
336.362	0.03
336.572	-0.02
336.782	0
336.992	-0.02
337.202	-0.04
337.412	-0.07
337.622	0.01
337.832	-0.03
338.042	-0.03
338.252	-0.06
338.462	-0.04
338.672	-0.03
338.882	0.03
339.092	0
339.302	0.09
339.511	0.01
339.721	-0.04
339.931	-0.04
340.141	0.02
340.351	0.03
340.561	0
340.77	0
340.98	0
341.19	0.02
341.4	-0.04
341.609	-0.09
341.819	-0.03
342.029	-0.03
342.238	-0
342.448	-0.05
342.658	0.01
342.867	-0.03
343.077	0
343.286	0.02
343.496	-0.01
343.706	0.08
343.915	-0.05
344.125	-0.04
344.334	0
344.544	-0.09
344.753	-0.05
344.963	-0.03
345.172	-0.05
345.381	-0
345.591	-0.05
345.8	0
346.01	0.05
346.219	0.01
346.428	-0.15
346.638	-0.02
346.847	-0.01
347.056	0.04
347.266	-0.04
347.475	0
347.684	-0
347.893	0.04
348.103	-0.01
348.312	-0.05
348.521	-0.01
348.73	-0.01
348.94	-0.02
349.149	-0.02
349.358	-0.04
349.567	-0.06
349.776	-0.06
349.985	-0.07
350.194	0.07
350.403	-0
350.612	-0.05
350.821	-0.04
351.03	0.01
351.239	-0.05
351.448	0.01
351.657	-0.03
351.866	0.01
352.075	0.03
352.284	0.05
352.493	-0.05
352.702	0.02
352.911	0.03
353.12	-0
353.329	0
353.538	0
353.746	-0.01
353.955	-0.05
354.164	0.02
354.373	-0.03
354.582	0.04
354.79	-0
354.999	0.01
355.208	-0.01
355.416	0.03
355.625	-0.06
355.834	-0.04
356.042	-0
356.251	-0.01
356.46	-0.03
356.668	-0.01
356.877	0.04
357.085	0.03
357.294	-0.07
357.503	0.01
357.711	-0.02
357.92	0.11
358.128	-0.02
358.337	-0.02
358.545	0.02
358.754	-0.04
358.962	-0
359.17	0
359.379	0.01
359.587	0.01
359.796	-0
360.004	0.04
360.212	-0.02
360.421	0.06
360.629	-0.04
360.837	-0.04
361.046	0.03
361.254	0.04
361.462	-0.01
361.67	-0.03
361.879	-0.03
362.087	0.04
362.295	-0.05
362.503	-0.01
362.711	-0.06
362.92	-0.02
363.128	-0.01
363.336	-0.01
363.544	-0.09
363.752	-0.03
363.96	-0.03
364.168	-0.06
364.376	-0.02
364.584	0.03
364.792	0.02
365	0.02
365.208	-0.03
365.416	-0.01
365.624	0
365.832	-0.04
366.04	0.08
366.248	0.02
366.456	-0.01
366.664	-0.02
366.872	-0.02
367.079	0.01
367.287	-0.02
367.495	0.02
367.703	0
367.911	-0.05
368.118	-0.01
368.326	0
368.534	-0.04
368.742	0.09
368.949	-0.04
369.157	-0.03
369.365	0.01
369.572	0.04
369.78	-0.04
369.988	0.02
370.195	-0
370.403	0.03
370.61	-0
370.818	-0.02
371.026	0.02
371.233	-0.04
371.441	0.03
371.648	0.02
371.856	0.01
372.063	0.03
372.271	-0.02
372.478	-0.03
372.685	0.03
372.893	-0.02
373.1	-0.02
373.308	-0.02
373.515	0.09
373.722	0.01
373.93	-0
374.137	0.04
374.344	0.06
374.552	0.06
374.759	0.03
374.966	-0.01
375.173	-0
375.381	0.07
375.588	-0
375.795	-0.04
376.002	0.03
376.209	-0
376.417	0.03
376.624	0.02
376.831	0.05
377.038	-0
377.245	-0.06
377.452	0.05
377.659	0.04
377.866	0.07
378.073	0.06
378.28	0.05
378.487	0.09
378.694	0.12
378.901	0.05
379.108	0.05
379.315	0.13
379.522	0.18
379.729	0.09
379.936	0.08
380.143	0.09
380.35	0.1
380.557	0.1
380.763	0.09
380.97	0.08
381.177	0.11
381.384	0.08
381.591	0.11
381.797	0.08
382.004	0.1
382.211	0.09
382.418	0.11
382.624	0.1
382.831	0.11
383.038	0.08
383.244	0.11
383.451	0.07
383.658	0.12
383.864	0.11
384.071	0.05
384.277	0.13
384.484	0.08
384.69	0.11
384.897	0.02
385.103	0.06
385.31	0.01
385.516	0.04
385.723	0.04
385.929	0.06
386.136	-0
386.342	0.06
386.549	0.08
386.755	0.11
386.961	0.05
387.168	0.04
387.374	0.05
387.58	0.09
387.787	0.03
387.993	0.05
388.199	-0.01
388.406	-0
388.612	0.08
388.818	-0.02
389.024	0.05
389.231	0.04
389.437	0.09
389.643	0.03
389.849	0.02
390.055	0.01
390.261	0.04
390.467	0.04
390.674	-0.01
390.88	-0
391.086	0.04
391.292	-0.02
391.498	0.06
391.704	0.01
391.91	0.04
392.116	-0.02
392.322	-0.1
392.528	0.03
392.734	-0.03
392.94	0.01
393.146	-0
393.352	0.01
393.557	-0.01
393.763	-0.01
393.969	0.02
394.175	0.03
394.381	0.01
394.587	-0.05
394.792	-0.05
394.998	0.06
395.204	0.07
395.41	-0.02
395.615	-0
395.821	0.01
396.027	-0
396.233	-0.01
396.438	0
396.644	0.04
396.85	0
397.055	-0.03
397.261	0.04
397.466	0
397.672	-0.01
397.878	0.03
398.083	0.02
398.289	-0.01
398.494	0.01
398.7	0
398.905	-0.08
399.111	0.02
399.316	-0.06
399.522	0.04
399.727	-0
399.932	-0.01
400.138	-0.01
400.343	0.04
400.549	0.01
400.754	0.02
400.959	0
401.165	-0.02
401.37	-0.01
401.575	0.08
401.78	-0.02
401.986	-0.05
402.191	-0.04
402.396	-0
402.601	0.03
402.807	0.06
403.012	0.01
403.217	0.03
403.422	0.01
403.627	-0.03
403.832	-0.05
404.037	0.03
404.243	0.02
404.448	-0.05
404.653	0.01
404.858	0.02
405.063	0.03
405.268	-0.05
405.473	-0.05
405.678	-0.07
405.883	0.11
406.088	0
406.293	-0.1
406.498	-0.02
406.703	0.06
406.907	-0.01
407.112	-0.03
407.317	0
407.522	-0.01
407.727	-0.08
407.932	0.01
408.136	0.07
408.341	-0.07
408.546	-0.07
408.751	-0.03
408.956	-0.03
409.16	0.03
409.365	-0.04
409.57	-0.02
409.774	-0.02
409.979	0.04
410.184	-0.02
410.388	0.01
410.593	0.03
410.798	0.02
411.002	-0.06
411.207	0.01
411.411	0.01
411.616	-0.03
411.82	-0.03
412.025	-0.03
412.229	-0.02
412.434	0.09
412.638	0.03
412.843	-0.03
413.047	0
413.252	-0.04
413.456	-0.01
413.66	0.04
413.865	-0.05
414.069	0.04
414.273	-0.04
414.478	-0.04
414.682	-0.07
414.886	-0.03
415.091	-0.07
415.295	-0.08
415.499	-0.01
415.703	-0.01
415.908	-0.01
416.112	-0.12
416.316	0.01
416.52	-0.03
416.724	-0.07
416.929	-0.02
417.133	0.07
417.337	-0.05
417.541	-0.02
417.745	-0.02
417.949	-0.01
418.153	-0.04
418.357	-0.03
418.561	0.08
418.765	-0.03
418.969	0.09
419.173	0.02
419.377	-0.07
419.581	0.04
419.785	-0.06
419.989	-0.11
420.193	-0.03
420.397	-0.07
420.601	0.06
420.804	0.01
421.008	-0.05
421.212	-0
421.416	-0
421.62	-0.03
421.823	-0.03
422.027	0.1
422.231	-0
422.435	-0.02
422.638	0.01
422.842	-0.03
423.046	-0.05
423.249	-0.01
423.453	0.05
423.657	0.02
423.86	-0.03
424.064	-0.06
424.268	0.05
424.471	-0.01
424.675	0.06
424.878	0.06
425.082	-0.02
425.285	0.07
425.489	-0.03
425.692	0
425.896	-0.04
426.099	0.03
426.303	-0.06
426.506	-0.06
426.71	0.03
426.913	0.02
427.116	0.01
427.32	-0
427.523	-0.04
427.726	0.08
427.93	-0.08
428.133	0
428.336	-0.07
428.54	-0.06
428.743	0.04
428.946	0.04
429.149	-0.07
429.353	-0.03
429.556	-0.02
429.759	-0.02
429.962	-0.03
430.165	-0
430.368	-0.02
430.571	-0.05
430.775	0.03
430.978	-0.04
431.181	0.03
431.384	0.04
431.587	-0.03
431.79	0.03
431.993	-0.06
432.196	-0.03
432.399	-0.03
432.602	0.07
432.805	-0
433.008	-0.04
433.211	-0.12
433.414	0.03
433.616	0.04
433.819	-0.04
434.022	-0.1
434.225	0.06
434.428	-0.01
434.631	0.11
434.833	-0.03
435.036	0.01
435.239	0.05
435.442	0
435.645	-0.02
435.847	0.01
436.05	0.06
436.253	0.01
436.455	0
436.658	0.03
436.861	0.08
437.063	-0.02
437.266	0.03
437.468	-0.01
437.671	0.15
437.874	0.02
438.076	-0.04
438.279	-0.07
438.481	0.02
438.684	-0.01
438.886	0.04
439.089	-0.07
439.291	-0
439.494	0.03
439.696	-0.03
439.899	0.02
440.101	0.01
440.303	-0.06
440.506	0.04
440.708	0.03
440.91	0.07
441.113	0
441.315	0.01
441.517	-0.04
441.72	0.09
441.922	-0.06
442.124	-0.06
442.326	0.03
442.529	0.09
442.731	-0.05
442.933	0.12
443.135	0.02
443.337	-0.02
443.539	0.05
443.742	-0.03
443.944	0.03
444.146	-0
444.348	0.01
444.55	-0.02
444.752	-0
444.954	0.02
445.156	0.1
445.358	-0.05
445.56	0.07
445.762	0
445.964	-0.01
446.166	-0.01
446.368	-0.02
446.57	0.1
446.772	0.07
446.974	-0
447.175	0.07
447.377	0
447.579	0.03
447.781	-0.02
447.983	0.11
448.184	0.04
448.386	0.09
448.588	-0.01
448.79	0.06
448.991	0.04
449.193	0.05
449.395	0.07
449.597	0.05
449.798	0.03
450	0.08
450.202	0.06
450.403	0.03
450.605	0.1
450.806	0.04
451.008	-0
451.21	0.07
451.411	0.01
451.613	0.03
451.814	-0
452.016	0.07
452.217	0.02
452.419	0.07
452.62	0
452.821	0.1
453.023	0.1
453.224	0.1
453.426	0.02
453.627	0.05
453.828	0.11
454.03	0.03
454.231	0.08
454.432	0.02
454.634	0.13
454.835	-0.02
455.036	-0.07
455.238	0.09
455.439	0.08
455.64	-0.05
455.841	0.01
456.042	0.18
456.244	0.06
456.445	0.03
456.646	-0.02
456.847	0.01
457.048	0.09
457.249	0.04
457.45	0.18
457.651	-0.04
457.852	0.09
458.054	-0.01
458.255	-0.01
458.456	-0.01
458.657	0.04
458.858	-0.05
459.058	0.05
459.259	0.06
459.46	0
459.661	-0.02
459.862	0.12
460.063	0.01
460.264	0.08
460.465	-0.02
460.666	0.13
460.866	-0.01
461.067	-0.04
461.268	0
461.469	-0
461.67	0.01
461.87	0.01
462.071	0.04
462.272	-0.05
462.473	0.01
462.673	0.01
462.874	-0.03
463.075	0.02
463.275	-0.04
463.476	0.03
463.676	0.04
463.877	0.01
464.078	-0.02
464.278	0.09
464.479	-0.04
464.679	0
464.88	-0.02
465.08	0.08
465.281	-0.04
465.481	-0.05
465.682	0.02
465.882	0.03
466.083	0.01
466.283	0.04
466.483	-0.01
466.684	-0.06
466.884	-0.02
467.085	-0.01
467.285	0.06
467.485	-0.03
467.686	0
467.886	-0.02
468.086	0.03
468.286	0.01
468.487	0.02
468.687	-0.08
468.887	-0.03
469.087	0.03
469.287	-0.03
469.488	-0.05
469.688	0
469.888	0.03
470.088	0.08
470.288	0.09
470.488	0.02
470.688	-0.05
470.888	-0.03
471.088	-0.06
471.288	0.04
471.488	0.03
471.688	0.05
471.888	-0.02
472.088	0.07
472.288	0.07
472.488	-0.05
472.688	-0.06
472.888	-0.01
473.088	-0.01
473.288	0.03
473.488	-0
473.688	0.05
473.887	0.01
474.087	-0.02
474.287	-0.01
474.487	-0.03
474.687	-0.01
474.886	-0.06
475.086	-0.02
475.286	-0.02
475.486	0.01
475.685	-0.02
475.885	-0.02
476.085	-0.03
476.284	0.04
476.484	-0.02
476.684	0.01
476.883	0.06
477.083	0.03
477.282	-0.03
477.482	0.03
477.681	0.05
477.881	0.01
478.08	-0.03
478.28	-0.07
478.479	0.02
478.679	0.07
478.878	-0.03
479.078	-0.06
479.277	-0.01
479.477	-0.02
479.676	0
479.875	-0.01
480.075	-0.07
480.274	0.04
480.473	0.03
480.673	-0.05
480.872	0.02
481.071	-0.03
481.271	0.01
481.47	-0.03
481.669	-0.01
481.868	-0.03
482.067	-0.01
482.267	-0.05
482.466	-0.03
482.665	-0.03
482.864	-0.05
483.063	-0.03
483.262	0.01
483.461	0.04
483.661	0.01
483.86	-0.02
484.059	0.02
484.258	-0.01
484.457	-0.03
484.656	0.01
484.855	0.02
485.054	-0.06
485.253	-0.03
485.452	-0.01
485.651	-0.02
485.849	-0.01
486.048	-0.02
486.247	-0.03
486.446	0.01
486.645	-0.05
486.844	-0.03
487.043	-0.01
487.241	-0.02
487.44	-0.02
487.639	-0.03
487.838	0.02
488.037	-0.01
488.235	0.02
488.434	-0
488.633	-0.04
488.831	-0.01
489.03	0.03
489.229	-0
489.427	-0.02
489.626	0.04
489.825	0.03
490.023	-0
490.222	-0.02
490.42	0.02
490.619	0.04
490.817	0.02
491.016	-0.02
491.214	0.02
491.413	-0.03
491.611	-0.01
491.81	-0
492.008	0.02
492.207	0.01
492.405	-0.03
492.604	-0.04
492.802	-0.01
493	-0.01
493.199	-0.03
493.397	-0.02
493.595	0.01
493.794	-0.02
493.992	0.03
494.19	-0.02
494.388	-0.01
494.587	-0.02
494.785	0.01
494.983	-0.05
495.181	-0.01
495.379	-0.01
495.578	-0.02
495.776	0.01
495.974	0.01
496.172	-0.01
496.37	-0.01
496.568	-0.03
496.766	-0.02
496.964	0.02
497.162	0
497.36	-0.05
497.558	0.01
497.756	0.02
497.954	-0.01
498.152	-0.02
498.35	-0.02
498.548	-0.02
498.746	-0.01
498.944	-0.02
499.142	-0.01
499.34	-0.03
499.538	-0
499.736	-0.04
499.933	0.02
500.131	0.02
500.329	0
500.527	0.02
500.725	0.02
500.922	-0
501.12	-0
501.318	-0.01
501.516	-0.02
501.713	0.01
501.911	0
502.109	-0.03
502.306	0
502.504	-0.01
502.701	-0.04
502.899	-0.02
503.097	0.02
503.294	-0.01
503.492	-0.02
503.689	-0
503.887	0
504.084	0.04
504.282	-0.03
504.479	-0.04
504.677	-0.02
504.874	-0.05
505.072	-0.02
505.269	-0.02
505.466	0.01
505.664	0
505.861	-0.05
506.059	-0.02
506.256	0.01
506.453	-0.01
506.651	0.03
506.848	0
507.045	-0.01
507.242	0
507.44	-0.02
507.637	-0
507.834	-0.01
508.031	0.01
508.229	-0.04
508.426	-0.02
508.623	0.02
508.82	-0.02
509.017	-0.04
509.214	-0.03
509.411	-0.01
509.608	-0.03
509.805	-0.01
510.003	-0.02
510.2	-0.03
510.397	0.03
510.594	-0.02
510.791	-0.03
510.988	0
511.184	0.03
511.381	-0.01
511.578	-0.03
511.775	0
511.972	-0
512.169	-0.02
512.366	-0.01
512.563	0
512.76	-0.04
512.956	0.01
513.153	-0.02
513.35	-0
513.547	-0.03
513.744	-0.03
513.94	-0.04
514.137	-0.02
514.334	-0.01
514.53	-0.02
514.727	0.01
514.924	0.02
515.12	-0.02
515.317	-0.05
515.514	-0.03
515.71	-0.05
515.907	-0.01
516.103	-0.01
516.3	0
516.497	0.03
516.693	0.02
516.89	-0.01
517.086	-0.03
517.283	-0.01
517.479	-0.01
517.676	-0.03
517.872	-0.02
518.068	-0.03
518.265	-0.03
518.461	-0.02
518.658	-0.03
518.854	-0.03
519.05	-0.02
519.247	-0.01
519.443	0.01
519.639	0.01
519.836	0.02
520.032	-0
520.228	-0.01
520.424	0.03
520.621	0.02
520.817	-0.01
521.013	0.04
521.209	-0.02
521.405	0.01
521.601	-0.03
521.798	-0.01
521.994	0.02
522.19	-0.01
522.386	-0.03
522.582	-0.01
522.778	-0.03
522.974	-0.02
523.17	0
523.366	-0.01
523.562	0.01
523.758	0
523.954	-0.02
524.15	-0.03
524.346	0.02
524.542	-0.02
524.738	-0.02
524.934	-0.03
525.129	-0.02
525.325	0
525.521	-0.03
525.717	0.01
525.913	-0.01
526.109	-0
526.304	-0.02
526.5	-0.01
526.696	0.02
526.892	-0.01
527.087	0
527.283	-0.03
527.479	0.01
527.674	-0.02
527.87	-0.02
528.066	-0.01
528.261	-0
528.457	-0.01
528.653	-0.04
528.848	-0.03
529.044	-0.01
529.239	-0
529.435	0.03
529.63	-0.01
529.826	0.03
530.021	-0.01
530.217	-0
530.412	-0.03
530.608	-0.01
530.803	-0.01
530.999	-0
531.194	-0.04
531.389	0
531.585	-0.06
531.78	-0.01
531.975	-0.01
532.171	0.01
532.366	0
532.561	0.01
532.757	-0.01
532.952	-0.03
533.147	-0
533.342	-0.02
533.538	-0.03
533.733	0.01
533.928	-0
534.123	-0.01
534.318	-0.03
534.513	0
534.709	-0.02
534.904	-0.03
535.099	-0.03
535.294	-0
535.489	-0
535.684	-0.01
535.879	-0.04
536.074	-0
536.269	-0.05
536.464	-0.01
536.659	-0.01
536.854	-0.03
537.049	0
537.244	0
537.439	-0.03
537.634	0.02
537.828	0
538.023	-0.02
538.218	-0.05
538.413	0
538.608	-0.06
538.803	-0.01
538.997	-0.06
539.192	0
539.387	0.01
539.582	-0
539.776	-0
539.971	-0.01
540.166	-0.03
540.36	-0.03
540.555	-0
540.75	-0.02
540.944	-0.01
541.139	-0.05
541.334	-0.01
541.528	-0
541.723	-0
541.917	-0.01
542.112	-0.06
542.306	-0.02
542.501	-0.02
542.695	-0.01
542.89	-0.02
543.084	-0
543.279	-0.01
543.473	-0.03
543.668	-0.01
543.862	-0.03
544.056	0.01
544.251	-0.02
544.445	0
544.64	-0.03
544.834	-0.03
545.028	-0.02
545.222	-0.01
545.417	0.02
545.611	-0.04
545.805	-0.03
546	-0.01
546.194	-0.01
546.388	-0.01
546.582	0
546.776	-0.01
546.97	-0.02
547.165	-0.01
547.359	0.02
547.553	-0.04
547.747	-0.01
547.941	0
548.135	-0.01
548.329	-0
548.523	-0.01
548.717	-0.02
548.911	-0.04
549.105	0
549.299	-0
549.493	0.01
549.687	0.03
549.881	0.01
550.075	-0.01
550.269	-0.03
550.463	0.02
550.657	-0.03
550.85	-0.02
551.044	-0.04
551.238	-0.01
551.432	-0.04
551.626	-0.03
551.82	-0.01
552.013	-0.02
552.207	-0.02
552.401	0.01
552.594	-0.01
552.788	-0.02
552.982	-0.01
553.176	-0
553.369	-0.01
553.563	0
553.756	-0.06
553.95	-0.04
554.144	0
554.337	0
554.531	-0.01
554.724	-0.02
554.918	-0.02
555.111	0.03
555.305	-0
555.498	0.03
555.692	0.01
555.885	-0.02
556.079	0.02
556.272	-0.03
556.466	0.01
556.659	0.01
556.852	-0.01
557.046	-0.01
557.239	-0.01
557.432	-0.03
557.626	-0.04
557.819	0.02
558.012	-0.01
558.206	0.01
558.399	-0
558.592	0.01
558.785	-0.03
558.979	0
559.172	-0.01
559.365	0.01
559.558	-0
559.751	-0.01
559.944	-0.03
560.138	-0.02
560.331	0.01
560.524	0.01
560.717	-0.01
560.91	-0
561.103	0.02
561.296	0
561.489	-0.01
561.682	-0.01
561.875	0.02
562.068	0.03
562.261	-0.02
562.454	0.03
562.647	0
562.84	0.01
563.032	-0.01
563.225	0
563.418	-0.01
563.611	-0.03
563.804	-0
563.997	-0.05
564.19	-0.04
564.382	0
564.575	-0.01
564.768	-0
564.961	-0.01
565.153	-0.02
565.346	-0
565.539	0
565.731	0.03
565.924	0.01
566.117	-0
566.309	-0
566.502	-0.02
566.695	-0.01
566.887	-0.01
567.08	-0.04
567.272	-0.03
567.465	-0.04
567.657	0
567.85	0
568.042	0
568.235	0.02
568.427	-0
568.62	0.01
568.812	0.02
569.005	-0.02
569.197	-0.04
569.389	0
569.582	0.03
569.774	-0.02
569.966	-0.03
570.159	-0.03
570.351	-0
570.543	-0.04
570.736	-0.02
570.928	-0.02
571.12	0.01
571.312	-0.02
571.505	-0.02
571.697	0.02
571.889	-0.02
572.081	-0.02
572.273	-0.02
572.465	0.02
572.658	-0.03
572.85	-0.01
573.042	-0.02
573.234	-0.04
573.426	0.02
573.618	-0.03
573.81	-0.02
574.002	0.02
574.194	0.04
574.386	-0.04
574.578	-0.08
574.77	-0.03
574.962	-0.04
575.154	-0.07
575.346	-0.01
575.538	-0.01
575.729	-0.03
575.921	-0.02
576.113	-0.03
576.305	0.02
576.497	0.01
576.689	-0.03
576.88	-0.04
577.072	0.01
577.264	-0.02
577.456	-0.01
577.647	-0.09
577.839	-0
578.031	0.05
578.223	-0.05
578.414	-0.03
578.606	0.02
578.798	-0.01
578.989	-0.03
579.181	-0.02
579.372	-0.01
579.564	-0.01
579.755	0
579.947	-0.01
580.139	-0
580.33	-0.06
580.522	-0.04
580.713	-0.07
580.905	-0.03
581.096	-0
581.287	-0.01
581.479	-0.01
581.67	0.03
581.862	-0.01
582.053	-0.04
582.244	-0.05
582.436	-0.02
582.627	0.01
582.818	-0.04
583.01	-0.05
583.201	0.01
583.392	0.01
583.583	0.01
583.775	-0.02
583.966	-0.04
584.157	-0.03
584.348	-0.05
584.54	-0.05
584.731	-0.01
584.922	-0.03
585.113	-0.05
585.304	0.01
585.495	0.01
585.686	-0.01
585.877	-0.01
586.068	-0.01
586.259	0.01
586.45	-0.01
586.641	-0.04
586.832	-0.09
587.023	-0.01
587.214	-0.01
587.405	-0.02
587.596	-0.03
587.787	0.03
587.978	-0.02
588.169	-0.04
588.36	-0.02
588.551	-0.01
588.742	-0.01
588.932	-0.01
589.123	-0.01
589.314	0.01
589.505	0
589.696	-0
589.886	-0.03
590.077	-0.06
590.268	-0.01
590.458	-0.05
590.649	-0.04
590.84	0.03
591.03	-0.03
591.221	-0.05
591.412	-0.05
591.602	0.01
591.793	0.01
591.984	-0.05
592.174	-0.01
592.365	0.05
592.555	-0.02
592.746	0.01
592.936	-0
593.127	0.01
593.317	0.03
593.508	-0.02
593.698	0.01
593.889	0.01
594.079	0
594.269	-0.03
594.46	-0.04
594.65	-0.04
594.84	-0.02
595.031	-0.03
595.221	-0.01
595.411	-0.02
595.602	-0.01
595.792	-0.02
595.982	-0.04
596.172	0.04
596.363	-0
596.553	0.02
596.743	0.01
596.933	-0.03
597.123	0.03
597.314	-0.04
597.504	-0.02
597.694	0
597.884	-0.01
598.074	-0.04
598.264	-0.06
598.454	0
598.644	-0.03
598.834	-0.03
599.024	-0.08
599.214	-0
599.404	0.03
599.594	-0.03
599.784	-0.05
599.974	0.02
600.164	0.01
600.354	-0.05
600.544	-0.05
600.734	0
600.924	0
601.114	-0.01
601.303	-0.01
601.493	-0.02
601.683	-0.03
601.873	-0.01
602.063	-0.07
602.252	0.02
602.442	-0.08
602.632	-0.03
602.821	-0.07
603.011	0.01
603.201	0
603.39	-0.03
603.58	-0.03
603.77	0.01
603.959	0.03
604.149	-0.03
604.339	-0.04
604.528	0.02
604.718	0.01
604.907	-0.02
605.097	-0.03
605.286	0
605.476	0.01
605.665	-0
605.855	-0.01
606.044	0.02
606.234	0.01
606.423	-0.03
606.612	-0.02
606.802	0
606.991	0.01
607.181	0
607.37	-0.06
607.559	-0.03
607.749	-0.05
607.938	-0.01
608.127	-0
608.316	-0.03
608.506	0.01
608.695	-0.03
608.884	-0.04
609.073	-0.03
609.263	0.01
609.452	0.02
609.641	0.02
609.83	-0.02
610.019	-0.01
610.208	-0.05
610.397	-0.03
610.586	-0.02
610.775	-0.04
610.965	-0.02
611.154	-0.05
611.343	-0
611.532	-0
611.721	-0.05
611.91	-0.03
612.099	0
612.287	-0.05
612.476	-0.04
612.665	0.02
612.854	-0.03
613.043	0.03
613.232	-0.03
613.421	-0.05
613.61	-0.02
613.798	-0.03
613.987	0
614.176	-0.01
614.365	0.02
614.554	-0.02
614.742	-0.02
614.931	-0.02
615.12	0.01
615.309	-0.02
615.497	-0.02
615.686	-0.04
615.875	-0.03
616.063	-0.02
616.252	-0.03
616.44	-0.05
616.629	-0.01
616.818	-0
617.006	0.01
617.195	-0.02
617.383	0.01
617.572	-0.01
617.76	-0.03
617.949	-0.01
618.137	-0
618.326	0.03
618.514	-0.02
618.703	-0.02
618.891	0.01
619.079	-0.07
619.268	0.05
619.456	-0.01
619.644	0.01
619.833	-0.02
620.021	-0.02
620.209	-0.05
620.398	0.01
620.586	-0.03
620.774	0.02
620.962	-0.02
621.151	0.04
621.339	-0.04
621.527	-0.06
621.715	-0.03
621.903	-0.03
622.092	-0.09
622.28	0
622.468	-0.01
622.656	-0.02
622.844	-0
623.032	-0.01
623.22	-0.04
623.408	0.02
623.596	0.03
623.784	0
623.972	-0.01
624.16	-0.04
624.348	0.04
624.536	-0.03
624.724	-0.04
624.912	0.06
625.1	0.03
625.288	-0.04
625.476	-0.02
625.664	0.02
625.851	-0
626.039	-0
626.227	-0.01
626.415	-0.04
626.603	-0.09
626.79	0
626.978	0
627.166	0
627.354	0
627.541	-0.03
627.729	-0.06
627.917	0.01
628.104	0.03
628.292	-0.01
628.48	-0.02
628.667	-0.01
628.855	0
629.042	-0.01
629.23	-0.03
629.418	-0.01
629.605	-0.02
629.793	-0.02
629.98	-0.01
630.168	-0.03
630.355	-0.02
630.543	-0
630.73	-0.02
630.917	0.02
631.105	0.04
631.292	-0.05
631.48	-0.04
631.667	0.05
631.854	0
632.042	-0.01
632.229	-0.04
632.416	-0.01
632.604	-0
632.791	-0.03
632.978	-0.01
633.165	-0
633.353	0.05
633.54	0.1
633.727	-0.07
633.914	0.01
634.101	-0.06
634.289	0.05
634.476	-0.02
634.663	-0.04
634.85	0.03
635.037	-0.03
635.224	-0.02
635.411	0.01
635.598	0.03
635.785	-0.04
635.972	-0.02
636.159	0.04
636.346	-0.01
636.533	0
636.72	-0
636.907	-0.03
637.094	0.04
637.281	-0.04
637.468	0.01
637.655	0.03
637.842	0.01
638.029	-0.04
638.215	0.03
638.402	0.02
638.589	0.01
638.776	-0.02
638.963	-0.04
639.149	0.04
639.336	0.08
639.523	-0.02
639.709	-0.02
639.896	0.01
640.083	0.03
640.27	-0.02
640.456	-0.01
640.643	0.03
640.829	-0.04
641.016	-0
641.203	-0.05
641.389	0.07
641.576	0.02
641.762	-0.02
641.949	-0.03
642.135	0.02
642.322	0.01
642.508	-0.06
642.695	0
642.881	-0.01
643.068	-0
643.254	0.01
643.441	0.02
643.627	0.01
643.813	-0.02
644	0.08
644.186	0
644.372	0.03
644.559	0.06
644.745	0.02
644.931	-0.01
645.118	0
645.304	0.02
645.49	-0.02
645.676	-0.01
645.862	0.02
646.049	0.11
646.235	0.03
646.421	0.08
646.607	0.08
646.793	0
646.979	0
647.165	0.03
647.352	0.06
647.538	0.06
647.724	0.01
647.91	0.06
648.096	0.07
648.282	0.04
648.468	0.02
648.654	0.06
648.84	0.08
649.026	0.02
649.212	0.07
649.397	0.01
649.583	0.01
649.769	0.06
649.955	0.03
650.141	0.06
650.327	0.12
650.513	0.04
650.698	0.06
650.884	-0.02
651.07	0.07
651.256	0.05
651.442	0.05
651.627	0.07
651.813	0.05
651.999	0.04
652.184	0.1
652.37	0.05
652.556	0.01
652.741	0.09
652.927	-0.02
653.113	0.05
653.298	0.06
653.484	0.03
653.669	0.02
653.855	0.05
654.04	0.1
654.226	0.09
654.412	0.07
654.597	0.03
654.782	0.12
654.968	0.07
655.153	0.06
655.339	0.09
655.524	0.04
655.71	0.12
655.895	0.06
656.08	0.07
656.266	0.12
656.451	0.08
656.636	0.03
656.822	0.08
657.007	0.07
657.192	0.06
657.378	0.06
657.563	0.07
657.748	0.09
657.933	0.1
658.118	0.07
658.304	0.09
658.489	0.12
658.674	0.13
658.859	0.05
659.044	0.13
659.229	0.1
659.414	0.07
659.599	0.07
659.785	0.05
659.97	0.06
660.155	0.13
660.34	0.09
660.525	0.08
660.71	0.09
660.895	0.14
661.08	0.08
661.264	0.05
661.449	0.17
661.634	0.14
661.819	0.11
662.004	0.11
662.189	-0.01
662.374	0.02
662.559	0.04
662.743	0.01
662.928	0.07
663.113	0.04
663.298	0
663.483	0.04
663.667	0.05
663.852	0.04
664.037	0.08
664.221	0.04
664.406	0.09
664.591	0.07
664.775	0.05
664.96	-0.02
665.145	0.02
665.329	0.06
665.514	0.01
665.698	0.03
665.883	-0
666.068	0.1
666.252	0.02
666.437	0.01
666.621	0
666.806	0.08
666.99	0
667.174	-0
667.359	0.05
667.543	0.01
667.728	0.04
667.912	-0.05
668.096	0.03
668.281	-0.01
668.465	-0
668.649	0.02
668.834	-0.04
669.018	-0
669.202	0
669.387	-0.02
669.571	0.05
669.755	-0.05
669.939	-0
670.124	0.02
670.308	0.06
670.492	0.01
670.676	-0.01
670.86	-0
671.044	-0.03
671.228	0.01
671.413	-0.03
671.597	-0.02
671.781	-0.05
671.965	0.03
672.149	-0.04
672.333	-0
672.517	-0.06
672.701	0.01
672.885	-0.04
673.069	-0.04
673.253	-0
673.437	-0.05
673.621	-0.01
673.804	-0.01
673.988	-0.01
674.172	0.01
674.356	-0.08
674.54	-0.04
674.724	0.05
674.908	-0
675.091	0.03
675.275	0.02
675.459	-0
675.643	-0.05
675.826	0
676.01	-0
676.194	-0.03
676.377	0.07
676.561	0.01
676.745	0.02
676.928	-0.02
677.112	0.01
677.296	-0.05
677.479	-0.03
677.663	-0.04
677.846	-0.04
678.03	-0.07
678.213	-0.06
678.397	-0.02
678.58	0.01
678.764	-0.02
678.947	-0.02
679.131	-0.01
679.314	-0.01
679.498	-0.02
679.681	-0.01
679.865	0.05
680.048	-0
680.231	-0.02
680.415	-0.02
680.598	-0.05
680.781	-0.04
680.965	-0.03
681.148	0.05
681.331	-0.01
681.514	-0
681.698	-0.04
681.881	0.01
682.064	-0.01
682.247	-0
682.43	-0.05
682.614	0.01
682.797	0.05
682.98	-0.02
683.163	-0.04
683.346	0.02
683.529	-0.05
683.712	-0.05
683.895	-0
684.078	-0.03
684.261	-0.03
684.444	0.02
684.627	0.03
684.81	-0
684.993	-0.03
685.176	-0.03
685.359	-0.05
685.542	-0.03
685.725	0.01
685.908	-0.04
686.091	-0.07
686.274	0.03
686.457	0
686.639	-0.04
686.822	0.02
687.005	-0.01
687.188	0.02
687.371	0.02
687.553	-0.01
687.736	-0.02
687.919	0.06
688.102	0.02
688.284	-0.02
688.467	-0.03
688.65	-0.06
688.832	-0.05
689.015	-0.01
689.197	-0.05
689.38	0.04
689.563	0.04
689.745	-0.05
689.928	-0.04
690.11	-0.01
690.293	0.06
690.475	-0.11
690.658	-0
690.84	-0.05
691.023	-0.01
691.205	-0.09
691.388	-0.04
691.57	0.03
691.752	0
691.935	-0.11
692.117	0
692.3	0.04
692.482	-0.04
692.664	-0.08
692.847	-0.01
693.029	0.03
693.211	0.01
693.393	-0.03
693.576	0.02
693.758	0.01
693.94	0.01
694.122	-0.05
694.304	-0.02
694.487	-0.02
694.669	0.03
694.851	-0.06
695.033	0.01
695.215	-0.04
695.397	-0.11
695.579	0.07
695.761	-0.05
695.943	-0.09
696.125	0.05
696.308	0.01
696.49	-0.09
696.671	0.09
696.853	-0.06
697.035	0.08
697.217	-0.08
697.399	-0.02
697.581	-0.07
697.763	-0
697.945	-0.08
698.127	0.02
698.309	0.04
698.491	-0
698.672	0.06
698.854	0.04
699.036	0.04
699.218	-0.07
699.399	-0
699.581	0.02
699.763	-0.04
699.945	-0.06
700.126	-0.09
700.308	-0.02
700.49	-0.03
700.671	-0.08
700.853	-0.03
701.035	-0.03
701.216	0.01
701.398	-0.04
701.579	-0.03
701.761	0.06
701.943	-0.08
702.124	-0.06
702.306	-0.02
702.487	0.11
702.669	0.02
702.85	-0.06
703.031	-0.05
703.213	0.09
703.394	0.09
703.576	-0.06
703.757	0.07
703.938	0.1
704.12	0.13
704.301	0.01
704.483	-0.06
704.664	0.01
704.845	0.1
705.026	0.01
705.208	0.02
705.389	-0.03
705.57	0.05
705.751	-0.02
705.933	0.01
706.114	0.03
706.295	0.03
706.476	-0.06
706.657	0.11
706.838	0.05
707.02	0.03
707.201	-0.08
707.382	-0.06
707.563	-0.01
707.744	-0.06
707.925	-0.04
708.106	-0.07
708.287	-0.04
708.468	0.06
708.649	-0.08
708.83	0.03
709.011	-0.04
709.192	0.09
709.373	-0.1
709.554	-0.02
709.734	0.06
709.915	0.03
710.096	0.02
710.277	-0.11
710.458	0.03
710.639	0.02
710.819	-0.14
711	-0.08
711.181	0.04
711.362	0.05
711.542	0
711.723	-0.05
711.904	0.01
712.085	0.02
712.265	-0.03
712.446	-0.14
712.627	-0.07
712.807	0.01
712.988	-0.07
713.168	-0.08
713.349	0.05
713.53	-0.12
713.71	-0.06
713.891	-0.07
714.071	0.04
714.252	-0.07
714.432	-0.02
714.613	-0.15
714.793	-0.05
714.974	0.05
715.154	0.07
715.334	0.07
715.515	0.04
715.695	-0.05
715.876	-0.05
716.056	0.02
716.236	-0.05
716.417	0.01
716.597	-0.09
716.777	0.12
716.957	0.02
717.138	0.05
717.318	-0.04
717.498	-0.12
717.678	0.02
717.859	0.08
718.039	-0.06
718.219	0.01
718.399	0.07
718.579	-0.01
718.759	-0.07
718.939	0.07
719.12	-0.03
719.3	0.01
719.48	-0.11
719.66	-0.11
719.84	0.08
720.02	-0.01
720.2	-0.01
720.38	-0
720.56	0.04
720.74	0.01
720.92	0.04
721.1	0.03
721.279	0.05
721.459	0
721.639	-0.05
721.819	0.03
721.999	0
722.179	-0.01
722.359	-0.03
722.538	0.02
722.718	-0.02
722.898	0
723.078	-0.02
723.257	-0.05
723.437	0
723.617	0.07
723.797	0.03
723.976	0.01
724.156	0.02
724.336	0.12
724.515	0.1
724.695	-0.11
724.874	-0
725.054	0.13
725.234	-0.06
725.413	0.12
725.593	0.08
725.772	0.01
725.952	0.01
726.131	0.05
726.311	0.06
726.49	0.06
726.67	-0.07
726.849	0.04
727.028	0.03
727.208	0.08
727.387	0.09
727.567	-0.03
727.746	0.05
727.925	-0.11
728.105	0.02
728.284	-0.01
728.463	-0.03
728.643	0.09
728.822	-0.05
729.001	-0.05
729.18	0.01
729.359	0.03
729.539	0.05
729.718	0.03
729.897	0.07
730.076	0.02
730.255	-0.09
730.434	0.05
730.614	0.06
730.793	0.05
730.972	0.02
731.151	0.04
731.33	0.08
731.509	0.1
731.688	0.04
731.867	0.02
732.046	-0.1
732.225	0.26
732.404	-0.05
732.583	-0.02
732.762	0.05
732.941	0.16
733.12	0.08
733.298	-0.01
733.477	0.14
733.656	0.04
733.835	-0.1
734.014	0.15
734.193	-0.06
734.371	0.13
734.55	0.12
734.729	-0.04
734.908	0.07
735.086	0.13
735.265	0.07
735.444	-0.1
735.623	-0.04
735.801	-0.03
735.98	0.13
736.159	0.13
736.337	0.16
736.516	0.06
736.694	0.02
736.873	0.06
737.052	0.14
737.23	0.11
737.409	-0.04
737.587	0.25
737.766	-0.05
737.944	-0.01
738.123	0.19
738.301	0.15
738.479	-0.06
738.658	0.14
738.836	-0.16
739.015	0.06
739.193	0.13
739.371	-0.06
739.55	0.02
739.728	-0.04
739.906	0.1
740.085	0.13
740.263	0.1
740.441	-0.13
740.62	0.13
740.798	0.21
740.976	-0.07
741.154	0.03
741.332	0.1
741.511	-0.01
741.689	0.13
741.867	0.05
742.045	0.06
742.223	-0.06
742.401	-0.2
742.579	0
742.757	0.1
742.935	-0.09
743.114	0.06
743.292	-0.14
743.47	0.02
743.648	0.06
743.826	0.16
744.004	0.04
744.181	0.02
744.359	-0.02
744.537	-0.03
744.715	-0.05
744.893	-0.08
745.071	-0.01
745.249	0.04
745.427	0.01
745.605	0.12
745.782	0.1
745.96	0.1
746.138	-0
746.316	0.06
746.493	0.01
746.671	-0
746.849	0.03
747.027	0.13
747.204	-0.14
747.382	0.04
747.56	-0.14
747.737	-0.05
747.915	-0.03
748.093	0.02
748.27	-0.07
748.448	0.08
748.625	-0.11
748.803	-0.16
748.98	-0.07
749.158	0.12
749.335	0.02
749.513	-0.08
749.69	-0.05
749.868	-0.03
750.045	0.01
750.223	-0.06
750.4	-0.14
750.578	0.06
750.755	-0.04
750.932	-0.14
751.11	0.12
751.287	-0.14
751.464	0.11
751.642	-0.11
751.819	0.02
751.996	0.01
752.173	-0
752.351	-0.06
752.528	0.02
752.705	-0.08
752.882	-0.12
753.06	-0.08
753.237	0.05
753.414	0.2
753.591	0.15
753.768	-0
753.945	-0.04
754.122	-0.11
754.299	0.07
754.476	-0.05
754.654	-0.03
754.831	0.03
755.008	0.07
755.185	-0.04
755.362	-0.06
755.539	0.02
755.716	-0.13
755.892	-0.08
756.069	-0.04
756.246	-0.03
756.423	-0.01
756.6	0.13
756.777	-0
756.954	0.12
757.131	-0.01
757.307	-0.03
757.484	-0.18
757.661	-0.09
757.838	0.02
758.015	-0.17
758.191	-0.02
758.368	-0.03
758.545	0.1
758.721	0.06
758.898	-0.06
759.075	0.01
759.251	-0
759.428	0.09
759.605	-0.08
759.781	-0.12
759.958	0
760.134	-0.01
760.311	-0.15
760.488	0.17
760.664	0.13
760.841	-0.05
761.017	-0.21
761.194	-0
761.37	0.05
761.547	0.05
761.723	0
761.899	-0.01
762.076	-0.12
762.252	-0.15
762.429	-0.04
762.605	0.06
762.781	0
762.958	0.16
763.134	0.02
763.31	-0.11
763.486	0.05
763.663	-0.23
763.839	-0.08
764.015	-0.18
764.191	-0.06
764.368	-0.13
764.544	-0.11
764.72	-0.08
764.896	0.07
765.072	-0.01
765.248	-0.09
765.425	-0.06
765.601	-0.02
765.777	-0.01
765.953	-0.2
766.129	-0.07
766.305	-0.08
766.481	0.04
766.657	0.07
766.833	0.1
767.009	-0.13
767.185	-0.14
767.361	0.02
767.537	-0.17
767.713	0.14
767.889	-0
768.065	-0
768.24	-0.29
768.416	0.09
768.592	-0.18
768.768	-0.06
768.944	-0
769.12	-0.1
769.295	-0.03
769.471	-0.08
769.647	-0.02
769.823	0.09
769.998	-0.15
770.174	-0.15
770.35	0.18
770.525	0.21
770.701	-0.08
770.877	-0.02
771.052	-0.18
771.228	0.08
771.403	0.02
771.579	0.09
771.755	0.23
771.93	-0.07
772.106	-0.29
772.281	-0.18
772.457	-0.11
772.632	-0.12
772.808	-0.23
772.983	-0.06
773.159	-0.3
773.334	-0
773.509	-0.04
773.685	-0.12
773.86	0.24
774.036	0.18
774.211	-0.15
774.386	-0.25
774.562	-0.13
774.737	0.13
774.912	-0.14
775.087	-0
775.263	-0.04
775.438	0.07
775.613	-0.14
775.788	-0.06
775.964	0.08
776.139	0.2
776.314	-0.06
776.489	0.07
776.664	-0.12
776.839	-0.12
777.014	0.12
777.19	0.06
777.365	0.17
777.54	0.16
777.715	0
777.89	-0.06
778.065	-0.25
778.24	-0.05
778.415	0.09
778.59	-0.11
778.765	-0.13
778.94	0.14
779.115	-0.2
779.289	-0.01
779.464	0.02
779.639	-0.05
779.814	-0.3
779.989	-0.12
780.164	0.23
780.339	0.02
780.513	-0.14
780.688	-0.12
780.863	-0.12
781.038	0.09
781.212	-0.2
781.387	-0.12
781.562	0.1
781.737	0.14
781.911	0.14
782.086	-0.09
782.261	-0.08
782.435	0.1
782.61	0.02
782.784	0.04
782.959	0.35
783.134	-0.21
783.308	-0.24
783.483	0.02
783.657	0.06
783.832	0.19
784.006	-0.43
784.181	-0.11
784.355	0.02
784.53	0.07
784.704	-0.01
784.878	0.15
785.053	0.06
785.227	0.3
785.402	0.21
785.576	-0.4
785.75	-0.08
785.925	-0.19
786.099	-0.06
786.273	0.01
786.448	0.23
786.622	-0.06
786.796	-0.07
786.97	-0.16
787.145	0.4
787.319	-0.42
787.493	-0.16
787.667	-0.42
787.841	-0.03
788.015	0.16
788.19	-0.2
788.364	0.05
788.538	0.11
788.712	0.11
788.886	-0.24
789.06	0.09
789.234	-0.1
789.408	-0.31
789.582	-0.03
789.756	-0.02
789.93	-0.11
790.104	0.01
790.278	-0.21
790.452	-0.25
790.626	-0.05
790.8	-0.05
790.973	0.1
791.147	0.11
791.321	0.17
791.495	0.09
791.669	0.15
791.843	0.03
792.016	-0.01
792.19	0.31
792.364	-0.14
792.538	0.49
792.711	0.13
792.885	0.04
793.059	-0.13
793.233	-0.46
793.406	0.32
793.58	-0.06
793.754	0.01
793.927	0.03
794.101	0.27
794.274	0.07
794.448	0.36
794.622	-0.39
794.795	0.1
794.969	-0.14
795.142	0.34
795.316	-0.16
795.489	-0.19
795.663	0.02
795.836	-0.06
796.009	-0.41
796.183	0.3
796.356	0.09
796.53	-0.18
796.703	-0.07
796.876	0.48
797.05	-0.12
797.223	-0.26
797.396	0.15
797.57	-0.03
797.743	0.21
797.916	-0.2
798.09	-0.16
798.263	0.07
798.436	-0.12
798.609	-0.29
798.782	-0.22
798.956	0.05
799.129	-0.03
799.302	-0.35
799.475	-0.37
799.648	-0.42
799.821	-0.27
799.994	-0.02
800.167	-0.41
800.34	0.1
800.514	0.1
800.687	-0.24
800.86	-0.16
801.033	-0.44
801.206	-0.02
801.379	-0.39
801.551	0.23
801.724	0.1
801.897	0.5
802.07	-0.05
802.243	-0.54
802.416	0.15
802.589	-0.19
802.762	-0.06
802.935	-0.13
803.107	-0.04
803.28	0.06
803.453	-0.02
803.626	-0.3
803.798	-0.11
803.971	-0.21
804.144	0.02
804.317	-0.04
804.489	-0.03
804.662	0.03
804.835	-0.27
805.007	-0.54
805.18	0.36
805.353	0.2
805.525	-0.33
805.698	-0.36
805.87	0.39
806.043	0.52
806.215	-0.41
806.388	-0.47
806.56	-0.01
806.733	0.35
806.905	-0.34
807.078	-0.27
807.25	-0.33
807.423	0.18
807.595	0.01
807.768	-0.08
807.94	0.15
808.112	-0.2
808.285	-0.04
808.457	-0.07
808.629	-0.24
808.802	0.09
808.974	-0.33
809.146	-0.13
809.318	-0.45
809.491	-0.26
809.663	0.17
809.835	-0.52
810.007	0.02
810.18	0.12
810.352	-0.33
810.524	-0.25
810.696	-0.08
810.868	0.25
811.04	-0.26
811.212	-0.18
811.384	0.43
811.556	-0.17
811.728	0.13
811.901	0.44
812.073	-0.53
812.245	0.35
812.417	0.12
812.589	-0.62
812.76	-0.14
812.932	0.02
813.104	0.51
813.276	-0.09
813.448	-0.04
813.62	0.1
813.792	0.04
813.964	0.03
814.136	-0.06
814.307	-0.74
814.479	-0
814.651	-0.18
814.823	0.44
814.995	-0.27
815.166	0.21
815.338	-0.4
815.51	-0.4
815.681	0.84
815.853	-0.05
816.025	-0.4
816.196	0.05
816.368	-0.31
816.54	-0.5
816.711	-0.57
816.883	-0.11
817.054	0.87
817.226	-0.51
817.398	0.39
817.569	-0.28
817.741	-0.12
817.912	-0.33
818.084	-0.16
818.255	-0.09
818.426	-0.65
818.598	-0.08
818.769	-0.49
818.941	0.02
819.112	0.33
819.283	0.26
819.455	-0.46
819.626	0
819.798	0.36
819.969	0.02
820.14	-0.32
820.311	-0.31
820.483	0.07
820.654	0.17
820.825	-0.3
820.996	0.03
821.168	-0.62
821.339	-0.31
821.51	-0.47
821.681	-0.38
821.852	0.58
822.023	-0.23
822.195	-0.75
822.366	0.14
822.537	0.13
822.708	0
822.879	-0.52
823.05	0.56
823.221	0.06
823.392	0.07
823.563	0.06
823.734	-0.15
823.905	-0.24
824.076	-0.28
824.247	-0.38
824.418	0.16
824.589	0.56
824.759	-0.46
824.93	0.37
825.101	-1
825.272	0.53
825.443	0.88
825.614	0.46
825.784	-1.04
825.955	0.62
826.126	0.46
826.297	-0.25
826.467	0.41
826.638	0.07
826.809	-0.34
826.98	0.01
827.15	0.14
827.321	0.05
827.492	0.56
827.662	-0.12
827.833	0.71
828.003	0.47
828.174	-0.5
828.345	-0.69
828.515	0.59
828.686	-0.41
828.856	-0.14
829.027	-0.31
829.197	-0.38
829.368	0.29
829.538	-0.46
829.709	-0.72
829.879	0.06
830.049	-0.12
830.22	0.04
830.39	-0.27
830.56	0.02
830.731	-0.19
830.901	-0.42
831.072	-0.58
831.242	0.22
831.412	0.27
831.582	-0.21
831.753	-0.95
831.923	0.33
832.093	0.08
832.263	-0.49
832.434	-0.35
832.604	-0.26
832.774	-0.21
832.944	-0.08
833.114	-0.01
833.284	-0.26
833.454	-0
833.624	-0.7
833.795	-0.41
833.965	0.8
834.135	0.87
834.305	-1.08
834.475	-0.31
834.645	-0.29
834.815	-0.05
834.985	-0.96
835.155	-0.35
835.325	-0.5
835.494	-0.3
835.664	-0.16
835.834	-0.93
836.004	0.23
836.174	0.17
836.344	-0.21
836.514	-1.28
836.684	-0.38
836.853	-0.03
837.023	-0.29
837.193	-0.71
837.363	0.37
837.532	0.12
837.702	-0.17
837.872	-0.44
838.041	0.71
838.211	0.49
838.381	-0.75
838.55	-0.25
838.72	2.05
838.89	1.14
839.059	-0.13
839.229	-0.93
839.398	0.67
839.568	-0.55
839.738	0.1
839.907	0.34
840.077	0.04
840.246	-0.22
840.416	-1.05
840.585	-0.76
840.755	0.5
840.924	0.73
841.093	-0.79
841.263	-0.64
841.432	-0.11
841.602	-1.4
841.771	-0.51
841.94	-0.69
842.11	1.31
842.279	1.06
842.448	-0.63
842.617	0.29
842.787	0.67
842.956	-0.59
843.125	-0.43
843.294	0.22
843.464	0.31
843.633	-0.08
843.802	-0.82
843.971	-0.39
844.14	-0.01
844.309	-0.08
844.479	-0.15
844.648	-0.68
844.817	-1.06
844.986	-0.53
845.155	-0.7
845.324	-0.45
845.493	0.03
845.662	-0.62
845.831	0.08
846	0.31
846.169	-0.63
846.338	0.37
846.507	-0.07
846.676	-0.05
846.844	-0.87
847.013	0.4
847.182	-0.25
847.351	-0.63
847.52	-0.91
847.689	0.42
847.858	0.27
848.026	-0.63
848.195	-0.86
848.364	-0.93
848.533	-1.16
848.701	-0.82
848.87	0.13
849.039	0.96
849.207	0.68
849.376	0.78
849.545	0.76
849.713	-0.52
849.882	-0.41
850.051	-0.12
850.219	1.02
850.388	0.22
850.556	-0.66
850.725	-1.41
850.893	0.61
851.062	-1.05
851.23	0.37
851.399	-1.35
851.567	-0.67
851.736	-1.07
851.904	-1
852.073	0.05
852.241	-0.36
852.41	0.12
852.578	-0.28
852.746	-0.05
852.915	0.18
853.083	0.83
853.251	-1.38
853.42	-0.86
853.588	-0.76
853.756	1.16
853.924	-0.3
854.093	-1.23
854.261	-0.52
854.429	-1.7
854.597	-0.14
854.765	-1.03
854.934	0.29
855.102	1.08
855.27	-1.37
855.438	0.86
855.606	1.23
855.774	0.75
855.942	-1.16
856.11	-2.26
856.278	0.49
856.446	-0.12
856.614	-0.82
856.782	-1.09
856.95	0.72
857.118	0.51
857.286	-0.35
857.454	-1.13
857.622	0.94
857.79	-0.07
857.958	-0.86
858.126	-0.71
858.294	-1.95
858.462	-1.25
858.629	-1.27
858.797	-2.39
858.965	-0.07
859.133	0.14
859.301	-0.98
859.468	-0.27
859.636	-1.68
859.804	0.72
859.971	0.98
860.139	-1.25
860.307	0.05
860.474	-0.41
860.642	-2
860.81	-1.08
860.977	0.37
861.145	0.86
861.313	0.08
861.48	0.94
861.648	0.94
861.815	-0.48
861.983	-1.15
862.15	-1
862.318	0.71
862.485	0.82
862.653	-0.95
862.82	-0.58
862.988	1.13
863.155	0.98
863.322	-1.53
863.49	-1.4
863.657	-0.24
863.824	2.02
863.992	1.29
864.159	-2.11
864.326	0.56
864.494	-0.6
864.661	1.91
864.828	-1.5
864.996	0.54
865.163	1.34
865.33	0.4
865.497	-2.74
865.664	-0.63
865.832	-2.25
865.999	-1.53
866.166	-0.74
866.333	-1.04
866.5	-1.78
866.667	0.39
866.834	-0.87
867.001	0.21
867.168	-2.96
867.335	0.17
867.502	-2.41
867.669	0.23
867.836	2
868.003	-0.72
868.17	1.06
868.337	-1.12
868.504	2.26
868.671	-2.9
868.838	-1.69
869.005	0.34
869.172	0.1
869.339	-0.98
869.505	-0.85
869.672	-1.02
869.839	0.6
870.006	0
870.173	-1.48
870.339	-0.34
870.506	3.41
870.673	-2.07
870.84	-0.26
871.006	-0.46
871.173	0.47
871.34	-1.18
871.506	0.04
871.673	0.78
871.839	-2.09
872.006	-0.19
872.173	-0.8
872.339	0.25
872.506	0.07
872.672	-1.53
872.839	-2.63
873.005	-0.6
873.172	2.54
873.338	0.69
873.505	2.1
873.671	-2.08
873.838	0.16
874.004	-2.21
874.171	-1.19
874.337	0.36
874.503	1.98
874.67	-1.22
874.836	0.25
875.002	1.51
875.169	-0.6
875.335	0.16
875.501	-1.36
875.668	-3.31
875.834	-0.9
876	0.27
876.166	-0.39
876.332	-0.41
876.499	1.97
876.665	-1.63
876.831	0.19
876.997	2
877.163	0.43
877.329	0.15
877.495	-0.07
877.662	1.23
877.828	2.46
877.994	0.19
878.16	-2.64
878.326	-0.75
878.492	1.13
878.658	-1.11
878.824	-1.04
878.99	0.43
879.156	-2.1
879.322	2.49
879.487	-0.78
879.653	-2.03
879.819	-0.67
879.985	-0.92
880.151	0
880.317	-0.67
880.483	-0.87
880.648	0.98
880.814	-4.27
880.98	0.23
881.146	-1.89
881.312	-2.85
881.477	-0.93
881.643	0.38
881.809	1.47
881.974	1.72
882.14	-2.83
882.306	-0.84
882.471	4.81
882.637	-1.8
882.803	-0.09
882.968	1.22
883.134	2.87
883.299	0
883.465	-0.01
883.63	1.98
883.796	1.29
883.961	0.72
884.127	0.69
884.292	-4.52
884.458	-2.04
884.623	-2.04
