Data from Apollo_Calib_20240827__AbsoluteIrradiance__263__03-32-02-064.txt Node

Date: Wed Aug 28 03:32:02 BST 2024
User: biology
Spectrometer: FLMT08252
Trigger mode: 0
Integration Time (sec): 5.000000E-1
Scans to average: 5
Electric dark correction enabled: true
Nonlinearity correction enabled: false
Boxcar width: 0
XAxis mode: Wavelengths
Number of Pixels in Spectrum: 3648
>>>>>Begin Spectral Data<<<<<
179.588	-0
179.809	-0
180.03	-0
180.251	-0
180.473	-0
180.694	0
180.915	0
181.136	-0
181.357	0
181.578	-0
181.799	-0
182.02	-0
182.241	0
182.462	0
182.683	0
182.904	0
183.125	-0
183.346	0
183.567	0
183.788	0
184.009	-0
184.23	0
184.451	0
184.672	-0
184.892	-0
185.113	0
185.334	0
185.555	-0
185.776	-0
185.996	0
186.217	0
186.438	0
186.659	-0
186.879	0
187.1	0
187.321	-0
187.541	-0
187.762	0
187.983	0
188.203	0
188.424	0
188.644	0
188.865	-0
189.086	-0
189.306	-0
189.527	-0
189.747	0
189.968	-0
190.188	0
190.409	0
190.629	0
190.849	-0
191.07	-0
191.29	0
191.511	0
191.731	-0
191.951	-0
192.172	0
192.392	0
192.612	-0
192.833	0
193.053	0
193.273	0
193.493	-0
193.714	0
193.934	0
194.154	0
194.374	0
194.594	0
194.815	0
195.035	0
195.255	-0
195.475	-0
195.695	0
195.915	0
196.135	-0
196.355	0
196.575	0
196.795	0
197.015	-0
197.235	-0
197.455	-0
197.675	0
197.895	-0
198.115	-0
198.335	0
198.555	0
198.775	0
198.995	0
199.214	0
199.434	0
199.654	-0
199.874	0
200.094	1.5
200.313	-0.43
200.533	-0.21
200.753	-0.83
200.973	0.94
201.192	0.51
201.412	-1.13
201.632	-0.52
201.851	1.2
202.071	-0.45
202.291	-0.14
202.51	-0.42
202.73	0.6
202.95	-0.08
203.169	-0.67
203.389	-0.23
203.608	0.28
203.828	-0.27
204.047	0.15
204.267	0.54
204.486	0.23
204.706	0.73
204.925	-0.04
205.145	-0.55
205.364	0.47
205.583	0.93
205.803	-0.05
206.022	-0.45
206.242	0.08
206.461	0.06
206.68	-0.09
206.9	-0.15
207.119	0.7
207.338	0.68
207.557	-0.39
207.777	0.08
207.996	0.12
208.215	0.89
208.434	-0.3
208.654	-0.31
208.873	0.15
209.092	0.65
209.311	-0.34
209.53	0.12
209.749	0.07
209.968	-0.16
210.187	0.06
210.407	-0.38
210.626	0.11
210.845	0.32
211.064	0.21
211.283	-0.15
211.502	0.57
211.721	0.25
211.94	0
212.159	0.06
212.377	0.24
212.596	0.68
212.815	0.18
213.034	-0.01
213.253	0.33
213.472	0.24
213.691	0.05
213.91	-0.22
214.128	0.02
214.347	0.34
214.566	-0.13
214.785	-0.29
215.003	0.44
215.222	0.32
215.441	-0.04
215.66	-0.43
215.878	0.17
216.097	0.38
216.316	-0.08
216.534	-0
216.753	0.28
216.972	0.03
217.19	0.01
217.409	-0.01
217.627	-0.16
217.846	-0.07
218.064	-0.1
218.283	-0.19
218.501	0.3
218.72	0.33
218.938	-0.24
219.157	-0.07
219.375	0.13
219.594	0.11
219.812	-0.07
220.031	-0.18
220.249	0.43
220.467	0.34
220.686	-0.04
220.904	-0.21
221.122	0.01
221.341	0.44
221.559	0.13
221.777	-0.01
221.995	0.07
222.214	0.13
222.432	0.05
222.65	0.16
222.868	-0
223.086	0.13
223.305	0.22
223.523	-0.01
223.741	0.35
223.959	-0.03
224.177	-0.21
224.395	-0.18
224.613	0.07
224.831	0.27
225.049	-0.12
225.267	-0.08
225.485	-0.01
225.703	-0.22
225.921	0.13
226.139	-0.15
226.357	0.18
226.575	0.14
226.793	-0.02
227.011	0.66
227.229	0.16
227.447	0.15
227.665	-0.08
227.883	-0.17
228.1	0.05
228.318	0.12
228.536	-0.24
228.754	-0.01
228.972	0.05
229.189	0.09
229.407	0.02
229.625	-0.04
229.843	0.24
230.06	0.1
230.278	-0.05
230.496	0.02
230.713	0.14
230.931	0.27
231.149	-0.03
231.366	-0.28
231.584	0.03
231.801	0.45
232.019	0.05
232.236	-0.09
232.454	0.01
232.671	0.07
232.889	-0.07
233.106	-0.16
233.324	0.02
233.541	0.04
233.759	0.06
233.976	-0.04
234.194	0.07
234.411	0.06
234.628	-0.06
234.846	-0.03
235.063	0.11
235.28	0.09
235.498	0.03
235.715	-0.05
235.932	0.16
236.149	0.02
236.367	-0.1
236.584	0.08
236.801	-0.04
237.018	0.02
237.236	0
237.453	-0.08
237.67	0.17
237.887	0.14
238.104	-0.01
238.321	-0.08
238.538	0.01
238.755	0.14
238.973	-0.15
239.19	-0.06
239.407	0.03
239.624	0.16
239.841	-0.1
240.058	-0.01
240.275	0.09
240.492	-0.07
240.709	0.09
240.925	-0.09
241.142	0.02
241.359	-0.06
241.576	-0.03
241.793	-0.05
242.01	-0.03
242.227	0.13
242.444	0.05
242.66	0.11
242.877	0.07
243.094	-0.02
243.311	0.14
243.527	0.04
243.744	0.03
243.961	0.08
244.178	-0.03
244.394	-0
244.611	0.13
244.828	0.13
245.044	-0.01
245.261	0.01
245.477	0.08
245.694	0.11
245.911	-0.03
246.127	0
246.344	0.11
246.56	0.08
246.777	0.03
246.993	0.05
247.21	0.09
247.426	0.05
247.643	-0.04
247.859	0.03
248.076	0.04
248.292	0.29
248.508	0.04
248.725	0.1
248.941	0.13
249.157	0.21
249.374	0.05
249.59	0.03
249.806	0
250.023	0.06
250.239	-0.05
250.455	-0.07
250.671	0.06
250.888	0.14
251.104	0.06
251.32	0.02
251.536	0.06
251.752	-0.03
251.969	0.03
252.185	0
252.401	0.19
252.617	0.13
252.833	0
253.049	0.12
253.265	0.03
253.481	0.08
253.697	0.03
253.913	-0.07
254.129	0.04
254.345	-0
254.561	0.02
254.777	0.02
254.993	0.07
255.209	0.03
255.425	-0.03
255.641	-0.02
255.857	0.17
256.073	0.06
256.288	-0.11
256.504	-0.03
256.72	0.04
256.936	0.17
257.152	0
257.367	0.06
257.583	0.07
257.799	0.13
258.015	-0.06
258.23	-0.01
258.446	0.17
258.662	0.02
258.877	-0.09
259.093	-0.06
259.309	0.03
259.524	0.05
259.74	0.03
259.955	-0.17
260.171	0.04
260.387	0.03
260.602	0.1
260.818	0.01
261.033	-0.08
261.249	0.02
261.464	0.02
261.68	-0.08
261.895	0.04
262.11	0.14
262.326	-0.06
262.541	-0.07
262.757	0.16
262.972	0.07
263.187	0.02
263.403	-0
263.618	0.13
263.833	0.02
264.049	-0.01
264.264	0.01
264.479	0.09
264.694	0.14
264.91	-0.06
265.125	-0.09
265.34	0.09
265.555	0.2
265.77	0.11
265.986	-0.03
266.201	0.12
266.416	0.14
266.631	0.03
266.846	0.06
267.061	0.02
267.276	0.07
267.491	-0.08
267.706	0.09
267.921	0.11
268.136	0.05
268.351	0.01
268.566	-0.14
268.781	0.17
268.996	0.08
269.211	0.02
269.426	-0.04
269.641	0.03
269.856	0.1
270.071	-0
270.285	-0.08
270.5	0.1
270.715	0.1
270.93	0.05
271.145	0.04
271.359	0.11
271.574	0.02
271.789	0.06
272.004	-0.06
272.218	-0.03
272.433	0.07
272.648	-0.01
272.862	0.08
273.077	0.08
273.292	0.08
273.506	-0
273.721	0.04
273.936	0.05
274.15	0.12
274.365	0.05
274.579	0.02
274.794	0.11
275.008	0.09
275.223	-0.03
275.437	0.02
275.652	0.06
275.866	0.04
276.081	0.02
276.295	0.11
276.509	0.01
276.724	-0.01
276.938	-0.04
277.153	0.05
277.367	0.06
277.581	-0.01
277.796	-0.03
278.01	-0.03
278.224	0.1
278.438	0.15
278.653	0.01
278.867	0.03
279.081	0.09
279.295	0.02
279.51	0.04
279.724	-0.07
279.938	0.1
280.152	0.01
280.366	-0
280.58	0.04
280.794	0.11
281.008	0.08
281.222	0.11
281.437	0.14
281.651	0.05
281.865	0.08
282.079	0
282.293	-0.05
282.507	0
282.721	0.04
282.935	-0
283.148	-0.08
283.362	0.02
283.576	-0.02
283.79	0.02
284.004	0.01
284.218	0.09
284.432	-0.06
284.646	0.03
284.859	-0.04
285.073	0.01
285.287	-0.01
285.501	0.01
285.714	0.05
285.928	0.05
286.142	0.05
286.356	-0.02
286.569	0.01
286.783	0.12
286.997	0.08
287.21	0.05
287.424	0.03
287.637	0.06
287.851	-0.03
288.065	0.08
288.278	-0.01
288.492	0.03
288.705	-0
288.919	0.05
289.132	-0.07
289.346	0.08
289.559	-0.07
289.773	-0.04
289.986	0.01
290.2	0.08
290.413	0.06
290.626	-0.03
290.84	-0
291.053	0.03
291.267	0.09
291.48	0.04
291.693	0.01
291.906	-0
292.12	-0.01
292.333	-0.04
292.546	0.02
292.76	0.09
292.973	0.03
293.186	0.07
293.399	-0
293.612	0.05
293.826	0.02
294.039	0.04
294.252	-0.01
294.465	0.09
294.678	0.06
294.891	0.01
295.104	-0.04
295.317	0.04
295.53	0.02
295.743	-0.01
295.956	0.05
296.169	0.1
296.382	0.08
296.595	0.02
296.808	0.03
297.021	0.06
297.234	0.08
297.447	0.03
297.66	0.05
297.873	0.06
298.086	0.08
298.299	0
298.511	-0.02
298.724	-0.01
298.937	-0.03
299.15	0.02
299.363	0.03
299.575	0.02
299.788	0.09
300.001	-0
300.213	-0.08
300.426	0.03
300.639	0.02
300.852	0
301.064	0.04
301.277	0.09
301.489	0.09
301.702	0.05
301.915	0.01
302.127	0.02
302.34	0.07
302.552	0.02
302.765	-0.01
302.977	0.05
303.19	0.05
303.402	-0.01
303.615	0.03
303.827	0.01
304.04	0.03
304.252	0.09
304.464	-0.01
304.677	0.16
304.889	0.07
305.102	-0.04
305.314	0.01
305.526	0.08
305.739	0.05
305.951	0
306.163	0.01
306.375	0.13
306.588	-0
306.8	-0.05
307.012	-0
307.224	0.07
307.436	0.09
307.649	-0.04
307.861	0.06
308.073	0.06
308.285	0.01
308.497	-0.01
308.709	-0.01
308.921	0
309.133	0.06
309.346	0.01
309.558	0.02
309.77	0.04
309.982	0.07
310.194	0.08
310.406	0.02
310.617	0.08
310.829	0.02
311.041	0.05
311.253	-0.04
311.465	0.02
311.677	0.07
311.889	0.01
312.101	-0
312.313	0.08
312.524	0.1
312.736	-0.03
312.948	0.02
313.16	0.1
313.372	0.1
313.583	0.06
313.795	0
314.007	0.03
314.218	0.09
314.43	0.02
314.642	0.04
314.853	-0.05
315.065	0.09
315.277	0.03
315.488	0.07
315.7	0.04
315.912	0.03
316.123	-0
316.335	0.02
316.546	0.12
316.758	0.03
316.969	-0.01
317.181	0.02
317.392	0.04
317.604	0.07
317.815	-0.05
318.026	-0.04
318.238	0.05
318.449	0.07
318.661	-0.03
318.872	-0.01
319.083	-0.03
319.295	0.1
319.506	-0.01
319.717	0.05
319.929	0.07
320.14	0.03
320.351	0.06
320.562	0.05
320.774	0.06
320.985	0.03
321.196	-0.01
321.407	-0.01
321.618	0.11
321.829	0.07
322.041	0.03
322.252	0.03
322.463	0.07
322.674	0.02
322.885	-0.01
323.096	0.04
323.307	0.01
323.518	0.02
323.729	0.01
323.94	0.01
324.151	0.03
324.362	0.07
324.573	0.05
324.784	-0.02
324.995	0.08
325.206	0.02
325.417	-0.02
325.628	0.02
325.838	0.02
326.049	0.08
326.26	0.05
326.471	0.04
326.682	0.09
326.892	0.07
327.103	-0.01
327.314	-0
327.525	0.08
327.735	0.06
327.946	-0.01
328.157	-0.01
328.368	0.06
328.578	-0.01
328.789	0.04
328.999	0.01
329.21	0.03
329.421	0.08
329.631	-0.01
329.842	0.01
330.052	0.03
330.263	0.05
330.473	0.09
330.684	0.02
330.894	0.02
331.105	0.02
331.315	0.02
331.526	-0.02
331.736	0.12
331.947	0.05
332.157	0.06
332.367	-0.06
332.578	0.05
332.788	0.05
332.999	0.05
333.209	-0
333.419	0
333.629	0.05
333.84	0.07
334.05	0.05
334.26	0.1
334.47	0.01
334.681	0.08
334.891	0.01
335.101	0.03
335.311	0.14
335.521	0.04
335.732	-0
335.942	0.09
336.152	0.01
336.362	0.07
336.572	0.08
336.782	0.11
336.992	0.04
337.202	0.03
337.412	-0.02
337.622	0.03
337.832	0.01
338.042	0.01
338.252	-0.01
338.462	0.04
338.672	0.05
338.882	-0.01
339.092	0.04
339.302	0.12
339.511	0.08
339.721	0.01
339.931	0
340.141	0.08
340.351	0.07
340.561	0.04
340.77	0.04
340.98	0
341.19	0.05
341.4	-0.02
341.609	-0.05
341.819	0.04
342.029	-0.02
342.238	0.05
342.448	0.01
342.658	0.06
342.867	0.02
343.077	0.05
343.286	0.06
343.496	0.05
343.706	0.07
343.915	-0.03
344.125	0
344.334	0.08
344.544	-0.01
344.753	-0.01
344.963	0.04
345.172	0.03
345.381	0.04
345.591	0.01
345.8	0.04
346.01	0.08
346.219	0.11
346.428	-0.07
346.638	0.03
346.847	0.05
347.056	0.1
347.266	-0.03
347.475	0.06
347.684	0.08
347.893	0.09
348.103	0.06
348.312	0.03
348.521	0.03
348.73	0.05
348.94	0.02
349.149	0
349.358	0.05
349.567	0.02
349.776	-0.06
349.985	0.01
350.194	0.08
350.403	0.08
350.612	-0.03
350.821	0.01
351.03	0.02
351.239	-0.01
351.448	0.04
351.657	0.01
351.866	0.1
352.075	0.06
352.284	-0.02
352.493	-0.03
352.702	0.07
352.911	0.08
353.12	0.03
353.329	0.01
353.538	0.07
353.746	0.03
353.955	0.01
354.164	0.05
354.373	0.01
354.582	0.07
354.79	0.02
354.999	0.09
355.208	0
355.416	0.1
355.625	-0.02
355.834	-0.02
356.042	0.05
356.251	0.02
356.46	-0.01
356.668	0.05
356.877	0.12
357.085	0.07
357.294	-0
357.503	0.05
357.711	-0
357.92	0.18
358.128	0.04
358.337	0.01
358.545	0.04
358.754	0.05
358.962	0.08
359.17	0.01
359.379	0.06
359.587	0.07
359.796	0.03
360.004	0.07
360.212	0.09
360.421	0.08
360.629	0.02
360.837	0.03
361.046	0.11
361.254	0.13
361.462	0.04
361.67	0.02
361.879	0.06
362.087	0.09
362.295	0.06
362.503	0.02
362.711	-0
362.92	-0
363.128	0.02
363.336	-0.01
363.544	0.01
363.752	0.03
363.96	0.02
364.168	0.04
364.376	0.08
364.584	0.09
364.792	0.1
365	0.07
365.208	0.02
365.416	0.07
365.624	0.01
365.832	0.02
366.04	0.12
366.248	0.05
366.456	0.05
366.664	0.05
366.872	0.04
367.079	0.03
367.287	0.02
367.495	0.07
367.703	0.05
367.911	0.04
368.118	0.04
368.326	0.04
368.534	-0.01
368.742	0.08
368.949	-0.02
369.157	0.03
369.365	0.08
369.572	0.03
369.78	0.01
369.988	0.12
370.195	0.04
370.403	0.05
370.61	0.08
370.818	0.05
371.026	0.1
371.233	0.03
371.441	0.02
371.648	0.05
371.856	0.1
372.063	0.08
372.271	-0.01
372.478	0.02
372.685	0.02
372.893	0.07
373.1	0.04
373.308	0.06
373.515	0.17
373.722	0.13
373.93	0.03
374.137	0.08
374.344	0.13
374.552	0.09
374.759	0.08
374.966	0.05
375.173	0.06
375.381	0.06
375.588	0.07
375.795	-0
376.002	0.03
376.209	-0.04
376.417	0.07
376.624	0.01
376.831	0.07
377.038	0.05
377.245	-0.05
377.452	0.06
377.659	0.04
377.866	0.02
378.073	0.07
378.28	0.05
378.487	0.1
378.694	0.07
378.901	0.02
379.108	0.05
379.315	0.09
379.522	0.15
379.729	0.1
379.936	0.04
380.143	0.03
380.35	0.06
380.557	0.06
380.763	0.05
380.97	0.06
381.177	0.04
381.384	0.04
381.591	0
381.797	0.08
382.004	0.09
382.211	0.09
382.418	0.07
382.624	0.13
382.831	0.12
383.038	0.04
383.244	0.03
383.451	0.08
383.658	0.1
383.864	0.06
384.071	0.07
384.277	0.12
384.484	0.02
384.69	0.09
384.897	0.06
385.103	0.06
385.31	0.03
385.516	0.05
385.723	0.04
385.929	0.04
386.136	0.05
386.342	0.08
386.549	0.07
386.755	0.11
386.961	0.09
387.168	0.05
387.374	0.09
387.58	0.09
387.787	0.08
387.993	0.1
388.199	0.05
388.406	0.05
388.612	0.08
388.818	0.04
389.024	0.04
389.231	0.11
389.437	0.11
389.643	0.08
389.849	0.08
390.055	0.1
390.261	0.09
390.467	0.05
390.674	0.07
390.88	0.06
391.086	0.17
391.292	0.08
391.498	0.14
391.704	0.14
391.91	0.1
392.116	0.06
392.322	0.05
392.528	0.06
392.734	0.06
392.94	0.13
393.146	0.12
393.352	0.13
393.557	0.14
393.763	0.1
393.969	0.16
394.175	0.11
394.381	0.13
394.587	0.11
394.792	0.13
394.998	0.2
395.204	0.22
395.41	0.13
395.615	0.19
395.821	0.17
396.027	0.19
396.233	0.2
396.438	0.18
396.644	0.28
396.85	0.22
397.055	0.21
397.261	0.2
397.466	0.28
397.672	0.2
397.878	0.26
398.083	0.23
398.289	0.22
398.494	0.29
398.7	0.29
398.905	0.18
399.111	0.34
399.316	0.21
399.522	0.31
399.727	0.28
399.932	0.3
400.138	0.33
400.343	0.37
400.549	0.33
400.754	0.43
400.959	0.43
401.165	0.45
401.37	0.48
401.575	0.59
401.78	0.51
401.986	0.46
402.191	0.5
402.396	0.51
402.601	0.62
402.807	0.61
403.012	0.62
403.217	0.74
403.422	0.65
403.627	0.71
403.832	0.78
404.037	0.81
404.243	0.86
404.448	0.79
404.653	0.85
404.858	0.98
405.063	0.98
405.268	1
405.473	1
405.678	1.07
405.883	1.31
406.088	1.27
406.293	1.26
406.498	1.32
406.703	1.37
406.907	1.42
407.112	1.45
407.317	1.61
407.522	1.72
407.727	1.72
407.932	1.83
408.136	2.1
408.341	1.98
408.546	2.07
408.751	2.24
408.956	2.28
409.16	2.49
409.365	2.43
409.57	2.52
409.774	2.67
409.979	2.76
410.184	2.84
410.388	2.95
410.593	3.18
410.798	3.25
411.002	3.4
411.207	3.63
411.411	3.75
411.616	3.79
411.82	4
412.025	4.12
412.229	4.26
412.434	4.49
412.638	4.65
412.843	4.7
413.047	4.81
413.252	5
413.456	5.34
413.66	5.49
413.865	5.59
414.069	5.68
414.273	5.97
414.478	6.15
414.682	6.29
414.886	6.57
415.091	6.59
415.295	6.8
415.499	7.22
415.703	7.28
415.908	7.63
416.112	7.71
416.316	8.26
416.52	8.47
416.724	8.58
416.929	8.79
417.133	9.25
417.337	9.23
417.541	9.73
417.745	9.77
417.949	10.03
418.153	10.56
418.357	10.69
418.561	11.12
418.765	11.17
418.969	11.57
419.173	12.18
419.377	12.04
419.581	12.78
419.785	12.94
419.989	13.09
420.193	13.57
420.397	13.62
420.601	13.9
420.804	14.18
421.008	14.08
421.212	14.36
421.416	14.2
421.62	14.3
421.823	14.24
422.027	14.57
422.231	14.19
422.435	14.17
422.638	13.98
422.842	14.23
423.046	14.3
423.249	14.51
423.453	14.37
423.657	14.39
423.86	14.39
424.064	14.55
424.268	14.38
424.471	14.23
424.675	14.48
424.878	14.14
425.082	14.29
425.285	14.51
425.489	13.97
425.692	13.88
425.896	13.41
426.099	13.42
426.303	13.41
426.506	13.37
426.71	13.36
426.913	13.15
427.116	13.07
427.32	12.61
427.523	12.31
427.726	12.33
427.93	12.29
428.133	12.08
428.336	11.97
428.54	11.69
428.743	11.52
428.946	11.55
429.149	10.96
429.353	10.62
429.556	10.31
429.759	9.93
429.962	9.68
430.165	9.46
430.368	8.69
430.571	8.45
430.775	8.12
430.978	7.87
431.181	7.59
431.384	7.42
431.587	7.17
431.79	7.25
431.993	6.87
432.196	6.85
432.399	6.83
432.602	6.69
432.805	6.55
433.008	6.52
433.211	6.37
433.414	6.29
433.616	6.13
433.819	5.79
434.022	5.74
434.225	5.72
434.428	5.44
434.631	5.56
434.833	5.18
435.036	5.14
435.239	4.99
435.442	4.88
435.645	4.76
435.847	4.78
436.05	4.69
436.253	4.57
436.455	4.41
436.658	4.21
436.861	4.27
437.063	4.16
437.266	3.97
437.468	3.93
437.671	3.9
437.874	3.87
438.076	3.55
438.279	3.58
438.481	3.47
438.684	3.59
438.886	3.38
439.089	3.24
439.291	3.25
439.494	3.18
439.696	3.05
439.899	3.08
440.101	3.08
440.303	2.9
440.506	3.01
440.708	2.89
440.91	2.82
441.113	2.7
441.315	2.68
441.517	2.5
441.72	2.58
441.922	2.28
442.124	2.31
442.326	2.28
442.529	2.3
442.731	2.12
442.933	2.14
443.135	2.01
443.337	1.94
443.539	1.91
443.742	1.8
443.944	1.88
444.146	1.73
444.348	1.65
444.55	1.54
444.752	1.62
444.954	1.47
445.156	1.48
445.358	1.44
445.56	1.53
445.762	1.41
445.964	1.44
446.166	1.31
446.368	1.28
446.57	1.35
446.772	1.2
446.974	1.12
447.175	1.16
447.377	1.09
447.579	1.13
447.781	1
447.983	1.1
448.184	1.03
448.386	1.06
448.588	0.85
448.79	0.99
448.991	0.86
449.193	0.9
449.395	0.93
449.597	0.95
449.798	0.85
450	0.82
450.202	0.8
450.403	0.79
450.605	0.84
450.806	0.75
451.008	0.65
451.21	0.67
451.411	0.7
451.613	0.63
451.814	0.72
452.016	0.73
452.217	0.67
452.419	0.69
452.62	0.57
452.821	0.61
453.023	0.68
453.224	0.62
453.426	0.55
453.627	0.56
453.828	0.58
454.03	0.55
454.231	0.6
454.432	0.51
454.634	0.61
454.835	0.43
455.036	0.48
455.238	0.53
455.439	0.55
455.64	0.42
455.841	0.45
456.042	0.57
456.244	0.46
456.445	0.44
456.646	0.35
456.847	0.42
457.048	0.47
457.249	0.48
457.45	0.66
457.651	0.37
457.852	0.43
458.054	0.35
458.255	0.31
458.456	0.42
458.657	0.33
458.858	0.31
459.058	0.35
459.259	0.35
459.46	0.31
459.661	0.3
459.862	0.4
460.063	0.28
460.264	0.37
460.465	0.24
460.666	0.38
460.866	0.25
461.067	0.26
461.268	0.27
461.469	0.24
461.67	0.25
461.87	0.22
462.071	0.2
462.272	0.18
462.473	0.23
462.673	0.27
462.874	0.21
463.075	0.24
463.275	0.2
463.476	0.25
463.676	0.23
463.877	0.28
464.078	0.21
464.278	0.23
464.479	0.18
464.679	0.25
464.88	0.23
465.08	0.35
465.281	0.18
465.481	0.2
465.682	0.17
465.882	0.28
466.083	0.22
466.283	0.16
466.483	0.19
466.684	0.13
466.884	0.18
467.085	0.17
467.285	0.26
467.485	0.13
467.686	0.18
467.886	0.12
468.086	0.16
468.286	0.1
468.487	0.19
468.687	0.13
468.887	0.14
469.087	0.17
469.287	0.18
469.488	0.07
469.688	0.22
469.888	0.18
470.088	0.24
470.288	0.22
470.488	0.2
470.688	0.12
470.888	0.15
471.088	0.11
471.288	0.14
471.488	0.18
471.688	0.16
471.888	0.11
472.088	0.15
472.288	0.17
472.488	0.12
472.688	0.12
472.888	0.09
473.088	0.13
473.288	0.13
473.488	0.12
473.688	0.2
473.887	0.12
474.087	0.08
474.287	0.16
474.487	0.13
474.687	0.13
474.886	0.1
475.086	0.1
475.286	0.1
475.486	0.13
475.685	0.09
475.885	0.09
476.085	0.13
476.284	0.12
476.484	0.08
476.684	0.14
476.883	0.16
477.083	0.12
477.282	0.09
477.482	0.17
477.681	0.14
477.881	0.12
478.08	0.05
478.28	0.04
478.479	0.11
478.679	0.15
478.878	0.03
479.078	0.07
479.277	0.04
479.477	0.07
479.676	0.12
479.875	0.06
480.075	-0
480.274	0.07
480.473	0.06
480.673	0.06
480.872	0.1
481.071	0.07
481.271	0.09
481.47	0.05
481.669	0.07
481.868	0.03
482.067	0.04
482.267	0.02
482.466	0.05
482.665	0.04
482.864	0.03
483.063	0.02
483.262	0.07
483.461	0.14
483.661	0.08
483.86	0.07
484.059	0.06
484.258	0.09
484.457	0.05
484.656	0.07
484.855	0.09
485.054	0.01
485.253	0.04
485.452	0.02
485.651	0.07
485.849	0.04
486.048	0.04
486.247	0.03
486.446	0.06
486.645	0.02
486.844	0.05
487.043	0.03
487.241	0.11
487.44	0.05
487.639	0.03
487.838	0.05
488.037	0.05
488.235	0.13
488.434	0.06
488.633	0.03
488.831	0.06
489.03	0.08
489.229	0.05
489.427	0.05
489.626	0.11
489.825	0.12
490.023	0.05
490.222	0.02
490.42	0.05
490.619	0.07
490.817	0.06
491.016	0.03
491.214	0.09
491.413	0.04
491.611	0.02
491.81	0.06
492.008	0.04
492.207	0.04
492.405	0.06
492.604	-0.02
492.802	0.01
493	0.03
493.199	0.02
493.397	0.05
493.595	0.04
493.794	0.05
493.992	0.08
494.19	0.03
494.388	0.05
494.587	0.03
494.785	0.04
494.983	-0.01
495.181	0.04
495.379	0.04
495.578	0.04
495.776	0.06
495.974	0.04
496.172	0.03
496.37	0.03
496.568	-0.01
496.766	0.01
496.964	0.08
497.162	0.01
497.36	0.02
497.558	0.06
497.756	0.04
497.954	0.03
498.152	0.02
498.35	0.05
498.548	0.03
498.746	0.03
498.944	0
499.142	-0.01
499.34	0
499.538	0
499.736	0.01
499.933	0.07
500.131	0.05
500.329	0.04
500.527	0.06
500.725	0.05
500.922	0.03
501.12	0.04
501.318	0.03
501.516	-0.02
501.713	0.06
501.911	0.02
502.109	0.01
502.306	0.03
502.504	0.02
502.701	0.02
502.899	0.01
503.097	0.07
503.294	0.03
503.492	0.04
503.689	0.05
503.887	0.04
504.084	0.07
504.282	0.02
504.479	-0.01
504.677	0.04
504.874	-0.02
505.072	0.03
505.269	0.03
505.466	0.04
505.664	0.03
505.861	-0.02
506.059	-0.01
506.256	0.05
506.453	0.03
506.651	0.07
506.848	0.03
507.045	0.04
507.242	0.03
507.44	0.02
507.637	0.03
507.834	0.03
508.031	0.05
508.229	0.01
508.426	0.04
508.623	0.04
508.82	0
509.017	-0
509.214	0.02
509.411	0.04
509.608	-0.01
509.805	0.02
510.003	0
510.2	-0
510.397	0.05
510.594	0.02
510.791	0.02
510.988	-0.01
511.184	0.03
511.381	0.02
511.578	-0.01
511.775	0.07
511.972	-0.01
512.169	0.03
512.366	0.05
512.563	0.03
512.76	0.03
512.956	0.02
513.153	-0
513.35	0.04
513.547	0.01
513.744	0.01
513.94	-0.01
514.137	0.05
514.334	0.02
514.53	0.03
514.727	0.05
514.924	0.08
515.12	0.02
515.317	-0.01
515.514	0.01
515.71	0.02
515.907	0.01
516.103	0.02
516.3	0.03
516.497	0.04
516.693	0.04
516.89	0.01
517.086	-0
517.283	0.05
517.479	0.03
517.676	0.02
517.872	0.04
518.068	0.01
518.265	0.02
518.461	0.02
518.658	-0.01
518.854	0.03
519.05	-0.01
519.247	0.01
519.443	0.02
519.639	0.03
519.836	0.01
520.032	0
520.228	0.01
520.424	0.07
520.621	0.03
520.817	0.01
521.013	0.04
521.209	0.03
521.405	0.05
521.601	0.03
521.798	0.03
521.994	0.06
522.19	-0.02
522.386	-0.01
522.582	0.03
522.778	0.01
522.974	0.01
523.17	0.04
523.366	0.04
523.562	0.05
523.758	0.02
523.954	-0.01
524.15	0.03
524.346	0.03
524.542	0.03
524.738	0
524.934	0.02
525.129	0.01
525.325	0.03
525.521	0.02
525.717	0.05
525.913	0.04
526.109	0.03
526.304	0
526.5	0.01
526.696	0.02
526.892	0.02
527.087	0.02
527.283	-0.02
527.479	0.01
527.674	0.01
527.87	0.01
528.066	0.01
528.261	0.02
528.457	0.03
528.653	0.02
528.848	0.01
529.044	0.02
529.239	0.02
529.435	0.05
529.63	0.03
529.826	0.07
530.021	0.02
530.217	0.04
530.412	0.01
530.608	0.01
530.803	0.03
530.999	0.01
531.194	-0.03
531.389	0.03
531.585	-0.03
531.78	-0
531.975	-0
532.171	0.04
532.366	0.02
532.561	0.01
532.757	-0.01
532.952	-0
533.147	0.03
533.342	0.01
533.538	0.01
533.733	0.05
533.928	0.01
534.123	0.01
534.318	-0.03
534.513	0.01
534.709	0.02
534.904	-0.01
535.099	-0.02
535.294	0.03
535.489	0.04
535.684	0.02
535.879	-0.02
536.074	0.04
536.269	-0
536.464	0.01
536.659	-0
536.854	0.01
537.049	0.02
537.244	0.01
537.439	0.02
537.634	0.06
537.828	0.01
538.023	0
538.218	-0.04
538.413	0
538.608	0
538.803	0.04
538.997	-0.03
539.192	0.04
539.387	0.04
539.582	0.02
539.776	0.03
539.971	-0
540.166	0.03
540.36	-0.01
540.555	0.01
540.75	-0.01
540.944	0.02
541.139	-0.02
541.334	0
541.528	0.01
541.723	0.02
541.917	-0.01
542.112	-0.01
542.306	-0
542.501	0
542.695	0.02
542.89	0.01
543.084	0.02
543.279	0
543.473	0.02
543.668	0.01
543.862	0.02
544.056	0.03
544.251	-0.01
544.445	0.02
544.64	-0
544.834	-0.03
545.028	0.02
545.222	0.02
545.417	0.02
545.611	0.02
545.805	0.02
546	0.01
546.194	0
546.388	-0.01
546.582	0.02
546.776	0.01
546.97	0.02
547.165	0.02
547.359	0.04
547.553	-0.01
547.747	0.03
547.941	0.02
548.135	0.01
548.329	0.02
548.523	0.02
548.717	-0
548.911	0.01
549.105	0.01
549.299	0.02
549.493	0.03
549.687	0.03
549.881	0.04
550.075	0.01
550.269	-0.02
550.463	0.03
550.657	0
550.85	0.01
551.044	-0.02
551.238	0.02
551.432	-0.02
551.626	-0.02
551.82	0.02
552.013	-0.01
552.207	0.02
552.401	0.03
552.594	0.03
552.788	0.01
552.982	0.02
553.176	0
553.369	0.03
553.563	0.02
553.756	-0.03
553.95	-0.02
554.144	0.02
554.337	0.05
554.531	0.01
554.724	0.01
554.918	-0
555.111	0.04
555.305	-0.01
555.498	0.06
555.692	0.03
555.885	0
556.079	0
556.272	-0.01
556.466	0.03
556.659	0.01
556.852	0
557.046	0
557.239	0.02
557.432	-0.03
557.626	-0.01
557.819	0.02
558.012	0.03
558.206	0.01
558.399	0.01
558.592	0.01
558.785	0
558.979	0.03
559.172	0.02
559.365	0.03
559.558	0.04
559.751	-0.01
559.944	0.01
560.138	0.01
560.331	0.01
560.524	-0.01
560.717	0
560.91	0.02
561.103	0.02
561.296	0.02
561.489	0.03
561.682	0.01
561.875	0.04
562.068	0.02
562.261	0.02
562.454	0.04
562.647	0.01
562.84	0.01
563.032	-0
563.225	0.02
563.418	-0
563.611	-0.03
563.804	-0.02
563.997	-0.02
564.19	-0.03
564.382	-0.01
564.575	0.01
564.768	0.01
564.961	-0.01
565.153	-0.01
565.346	0.05
565.539	0.04
565.731	0.04
565.924	0.02
566.117	0.01
566.309	0.02
566.502	-0.01
566.695	0.02
566.887	0.01
567.08	-0.01
567.272	0
567.465	0.02
567.657	0.04
567.85	0.02
568.042	0.05
568.235	0.06
568.427	0.02
568.62	0.02
568.812	0.03
569.005	0
569.197	-0.03
569.389	0.02
569.582	0.02
569.774	0.03
569.966	-0.01
570.159	-0.02
570.351	0.03
570.543	0
570.736	-0.01
570.928	-0.01
571.12	0.02
571.312	-0.01
571.505	-0.04
571.697	0.03
571.889	-0.01
572.081	0.01
572.273	-0.02
572.465	0.03
572.658	0
572.85	0.02
573.042	-0.02
573.234	0.01
573.426	0.03
573.618	-0.04
573.81	0.02
574.002	0.04
574.194	0.06
574.386	-0.02
574.578	-0.06
574.77	-0.02
574.962	0.01
575.154	-0.04
575.346	0.02
575.538	0.01
575.729	-0.02
575.921	-0.01
576.113	-0.02
576.305	0.04
576.497	-0.01
576.689	0
576.88	-0.01
577.072	0.03
577.264	0.01
577.456	0
577.647	-0.06
577.839	-0.01
578.031	0.04
578.223	-0.02
578.414	-0.03
578.606	0.01
578.798	0.02
578.989	-0.03
579.181	0.05
579.372	0.01
579.564	0.01
579.755	0.01
579.947	0.02
580.139	0.02
580.33	-0.05
580.522	-0.01
580.713	-0.07
580.905	-0.02
581.096	0.03
581.287	0.01
581.479	0
581.67	0.04
581.862	-0.01
582.053	-0.02
582.244	-0.06
582.436	0
582.627	0.01
582.818	0.01
583.01	-0.04
583.201	0.03
583.392	0.04
583.583	-0.01
583.775	-0.01
583.966	-0.01
584.157	-0.01
584.348	-0.03
584.54	-0.05
584.731	0.01
584.922	-0
585.113	-0.03
585.304	0.06
585.495	0.04
585.686	0.02
585.877	0.02
586.068	0
586.259	0.03
586.45	0.03
586.641	-0.01
586.832	-0.06
587.023	-0
587.214	0
587.405	0.03
587.596	-0.03
587.787	0.01
587.978	0
588.169	-0.03
588.36	-0.01
588.551	0.02
588.742	-0.04
588.932	0.02
589.123	0
589.314	0.05
589.505	0.02
589.696	0.03
589.886	-0.03
590.077	-0.05
590.268	-0.01
590.458	-0.05
590.649	-0.03
590.84	0.04
591.03	-0.01
591.221	-0.04
591.412	-0.04
591.602	0.03
591.793	0.03
591.984	-0.04
592.174	-0.01
592.365	0.07
592.555	-0.02
592.746	0.03
592.936	-0.01
593.127	0.01
593.317	0.05
593.508	-0.01
593.698	-0.01
593.889	0
594.079	0
594.269	-0.02
594.46	-0.02
594.65	-0
594.84	-0.01
595.031	-0.05
595.221	-0.01
595.411	-0.01
595.602	0.01
595.792	-0
595.982	-0.02
596.172	0.06
596.363	0
596.553	0.02
596.743	0.01
596.933	-0.01
597.123	0.05
597.314	-0.01
597.504	-0.02
597.694	0.04
597.884	0.04
598.074	0
598.264	-0.04
598.454	0.02
598.644	0
598.834	0.01
599.024	-0.06
599.214	-0.01
599.404	0.01
599.594	-0.02
599.784	-0.02
599.974	0.05
600.164	0.01
600.354	-0.01
600.544	-0.05
600.734	0.03
600.924	0.03
601.114	-0.01
601.303	-0
601.493	0.02
601.683	0.03
601.873	0.02
602.063	-0.04
602.252	0.03
602.442	-0.07
602.632	-0.01
602.821	-0.03
603.011	0.03
603.201	-0.04
603.39	-0.03
603.58	-0.03
603.77	-0.01
603.959	0.04
604.149	-0
604.339	-0.03
604.528	0.04
604.718	0.02
604.907	-0
605.097	-0.02
605.286	-0.03
605.476	-0.01
605.665	0.03
605.855	-0.01
606.044	0.06
606.234	0.02
606.423	-0.04
606.612	-0.03
606.802	-0.02
606.991	0.03
607.181	0.01
607.37	-0.05
607.559	-0
607.749	-0.05
607.938	0.01
608.127	0
608.316	0.02
608.506	0.02
608.695	-0.02
608.884	-0.04
609.073	-0
609.263	0.02
609.452	0
609.641	0.01
609.83	-0.05
610.019	0.01
610.208	-0.03
610.397	-0
610.586	0.02
610.775	-0.02
610.965	0.01
611.154	-0.04
611.343	0.03
611.532	0.01
611.721	-0.06
611.91	-0
612.099	0.04
612.287	-0.03
612.476	-0.04
612.665	0
612.854	-0.01
613.043	0.03
613.232	-0.01
613.421	-0.04
613.61	-0
613.798	-0.03
613.987	0.03
614.176	0
614.365	0.03
614.554	0.05
614.742	0.02
614.931	-0
615.12	0.01
615.309	-0.03
615.497	0.02
615.686	-0.04
615.875	-0.02
616.063	0.02
616.252	-0.02
616.44	-0.02
616.629	0
616.818	0.02
617.006	0.01
617.195	-0.01
617.383	0.01
617.572	-0
617.76	-0.01
617.949	-0.01
618.137	0.01
618.326	0.05
618.514	0.01
618.703	-0.03
618.891	0.07
619.079	-0.06
619.268	0.04
619.456	-0.03
619.644	0.06
619.833	-0.02
620.021	-0.01
620.209	-0.08
620.398	0.02
620.586	0
620.774	0.01
620.962	0.02
621.151	0.07
621.339	0.01
621.527	-0.02
621.715	-0.05
621.903	-0.03
622.092	-0.04
622.28	0.01
622.468	-0.02
622.656	-0
622.844	0
623.032	-0.02
623.22	-0.05
623.408	0.02
623.596	0.01
623.784	0.01
623.972	-0.04
624.16	-0.02
624.348	0.04
624.536	-0.02
624.724	-0.04
624.912	0.05
625.1	0.01
625.288	-0.07
625.476	-0.01
625.664	0.06
625.851	-0.03
626.039	0.03
626.227	0.02
626.415	-0.02
626.603	-0.05
626.79	-0
626.978	-0.03
627.166	0
627.354	0
627.541	-0.02
627.729	-0.06
627.917	0.05
628.104	0.04
628.292	0
628.48	-0.02
628.667	0.02
628.855	-0.02
629.042	0
629.23	0.01
629.418	-0.02
629.605	-0.01
629.793	-0.02
629.98	-0.01
630.168	-0.03
630.355	-0.01
630.543	-0
630.73	-0.04
630.917	0.02
631.105	0.03
631.292	-0.03
631.48	0
631.667	0.09
631.854	-0.01
632.042	-0.04
632.229	-0.05
632.416	0.01
632.604	-0.01
632.791	-0.05
632.978	0.01
633.165	0.01
633.353	0.05
633.54	0.05
633.727	-0.07
633.914	-0.01
634.101	-0.08
634.289	0
634.476	-0.01
634.663	-0.04
634.85	0.02
635.037	-0.03
635.224	-0.06
635.411	0.05
635.598	0.04
635.785	-0.01
635.972	0.01
636.159	0.01
636.346	-0.02
636.533	0.01
636.72	0.01
636.907	-0.02
637.094	0.01
637.281	-0.01
637.468	-0.01
637.655	-0
637.842	-0.01
638.029	-0.06
638.215	0.02
638.402	0.02
638.589	-0.02
638.776	0.01
638.963	-0.03
639.149	0.05
639.336	0.05
639.523	-0.01
639.709	0
639.896	-0
640.083	0.06
640.27	0.03
640.456	-0.03
640.643	0.02
640.829	-0.05
641.016	-0.02
641.203	-0.06
641.389	0.04
641.576	0.03
641.762	-0.04
641.949	-0.02
642.135	0.03
642.322	0.02
642.508	-0.03
642.695	-0.01
642.881	-0.01
643.068	-0.01
643.254	-0.02
643.441	0.03
643.627	0
643.813	-0.04
644	0.02
644.186	-0.01
644.372	-0.02
644.559	0.04
644.745	-0.04
644.931	-0.02
645.118	-0
645.304	0.02
645.49	-0.04
645.676	-0.01
645.862	-0.02
646.049	0.04
646.235	-0.03
646.421	0.08
646.607	0.05
646.793	-0.01
646.979	-0.05
647.165	0.02
647.352	-0.01
647.538	0.01
647.724	-0.02
647.91	0
648.096	0.03
648.282	0.04
648.468	0
648.654	0
648.84	0.04
649.026	-0.02
649.212	-0
649.397	-0.03
649.583	-0.02
649.769	0.02
649.955	-0.04
650.141	0.03
650.327	0.06
650.513	-0.05
650.698	0.02
650.884	-0.09
651.07	-0.01
651.256	-0.01
651.442	0
651.627	-0.01
651.813	0.03
651.999	-0.02
652.184	0.01
652.37	0.02
652.556	-0.05
652.741	0.04
652.927	-0.05
653.113	-0
653.298	-0
653.484	0
653.669	-0.08
653.855	0.01
654.04	0.04
654.226	0.03
654.412	-0.01
654.597	-0.05
654.782	0.01
654.968	-0.01
655.153	0.02
655.339	-0.04
655.524	-0.02
655.71	0.02
655.895	-0
656.08	-0.01
656.266	0.01
656.451	-0.01
656.636	-0.05
656.822	0.01
657.007	0.01
657.192	-0.01
657.378	-0.09
657.563	0
657.748	0.05
657.933	-0.01
658.118	-0.01
658.304	-0.02
658.489	0.02
658.674	-0
658.859	0
659.044	-0.01
659.229	0.03
659.414	-0.01
659.599	-0
659.785	-0.06
659.97	0
660.155	0.01
660.34	-0.02
660.525	-0.04
660.71	-0.03
660.895	0.03
661.08	-0.03
661.264	-0.05
661.449	0.06
661.634	0.09
661.819	-0.03
662.004	0.02
662.189	-0.08
662.374	-0.02
662.559	-0.04
662.743	-0.06
662.928	-0
663.113	-0.01
663.298	-0.07
663.483	-0.04
663.667	0.02
663.852	-0.06
664.037	0.04
664.221	-0.08
664.406	0.01
664.591	0.03
664.775	-0
664.96	-0.05
665.145	-0.01
665.329	0.02
665.514	-0.05
665.698	0.01
665.883	-0.06
666.068	0.04
666.252	-0.02
666.437	-0.03
666.621	0.01
666.806	0
666.99	-0.01
667.174	-0.04
667.359	0.07
667.543	-0.04
667.728	-0.03
667.912	-0.08
668.096	0.02
668.281	-0.03
668.465	-0.01
668.649	0.01
668.834	-0.06
669.018	-0.04
669.202	-0.02
669.387	-0.05
669.571	0.06
669.755	-0.05
669.939	0.01
670.124	-0.03
670.308	0.07
670.492	0.07
670.676	-0.04
670.86	-0.03
671.044	-0.05
671.228	0.01
671.413	-0.06
671.597	-0.05
671.781	-0.03
671.965	0.02
672.149	-0.02
672.333	-0.04
672.517	-0.01
672.701	-0.01
672.885	-0.01
673.069	-0.06
673.253	0.02
673.437	-0.01
673.621	-0.05
673.804	-0.02
673.988	-0
674.172	-0
674.356	-0.05
674.54	-0.02
674.724	0.07
674.908	-0.03
675.091	0.03
675.275	-0.02
675.459	0.03
675.643	0
675.826	0.02
676.01	-0.02
676.194	0.02
676.377	0.02
676.561	0.02
676.745	-0.04
676.928	0.03
677.112	0.05
677.296	-0.05
677.479	-0.01
677.663	-0.03
677.846	0.01
678.03	-0.05
678.213	-0.03
678.397	0.02
678.58	-0.05
678.764	-0.03
678.947	-0.02
679.131	-0.01
679.314	-0.01
679.498	-0.01
679.681	-0.01
679.865	0.02
680.048	-0.02
680.231	-0
680.415	-0.01
680.598	-0.03
680.781	-0.01
680.965	-0.02
681.148	-0
681.331	-0.01
681.514	-0.02
681.698	-0.05
681.881	-0.04
682.064	0.02
682.247	0.03
682.43	-0.06
682.614	-0.01
682.797	0.04
682.98	0.03
683.163	-0.03
683.346	0.01
683.529	-0.04
683.712	-0.03
683.895	-0.01
684.078	-0.03
684.261	-0.04
684.444	-0.01
684.627	0.02
684.81	-0.06
684.993	-0.03
685.176	-0.02
685.359	-0.05
685.542	-0.01
685.725	0.07
685.908	-0.02
686.091	-0.01
686.274	0.01
686.457	0.03
686.639	-0.03
686.822	-0.02
687.005	-0.01
687.188	0.05
687.371	0.08
687.553	-0.03
687.736	-0.02
687.919	0.07
688.102	0.09
688.284	-0.03
688.467	-0.04
688.65	-0.03
688.832	-0.03
689.015	0
689.197	-0.05
689.38	0.09
689.563	0.05
689.745	-0.06
689.928	-0.06
690.11	-0.02
690.293	-0.03
690.475	-0.04
690.658	0.02
690.84	-0.02
691.023	-0.01
691.205	-0
691.388	-0.05
691.57	-0.02
691.752	0.07
691.935	-0.06
692.117	-0.02
692.3	0.01
692.482	0.02
692.664	-0.03
692.847	0.05
693.029	0.04
693.211	0
693.393	0
693.576	-0.07
693.758	0
693.94	-0.02
694.122	-0.05
694.304	-0.01
694.487	-0.02
694.669	0.12
694.851	-0.03
695.033	-0.03
695.215	-0.02
695.397	-0.05
695.579	0.01
695.761	-0.09
695.943	-0.14
696.125	0.05
696.308	0.01
696.49	-0.07
696.671	0.11
696.853	-0.03
697.035	0.08
697.217	0.04
697.399	-0.01
697.581	-0.03
697.763	-0.02
697.945	-0.09
698.127	-0
698.309	0.04
698.491	0.03
698.672	0
698.854	0.1
699.036	0.06
699.218	-0.01
699.399	0.02
699.581	0.11
699.763	-0.02
699.945	-0.03
700.126	-0.04
700.308	0.06
700.49	0.01
700.671	-0.1
700.853	-0.07
701.035	-0.08
701.216	-0.03
701.398	-0.06
701.579	0.01
701.761	0.03
701.943	-0
702.124	-0.09
702.306	-0.02
702.487	0.06
702.669	-0.05
702.85	-0.08
703.031	-0.1
703.213	0.07
703.394	0.04
703.576	-0.06
703.757	0.06
703.938	-0.01
704.12	0.12
704.301	-0
704.483	-0.05
704.664	-0.01
704.845	0.07
705.026	0.02
705.208	0.01
705.389	-0.01
705.57	0.01
705.751	-0.03
705.933	0.04
706.114	-0
706.295	-0.03
706.476	-0.04
706.657	0.09
706.838	0.04
707.02	0.01
707.201	-0.02
707.382	-0.07
707.563	0.03
707.744	-0.03
707.925	-0.08
708.106	-0.06
708.287	0.03
708.468	0.07
708.649	0.03
708.83	0.09
709.011	-0.02
709.192	0.04
709.373	-0.03
709.554	-0.01
709.734	0.1
709.915	0.09
710.096	-0.02
710.277	-0.13
710.458	-0.02
710.639	0.07
710.819	-0.1
711	-0.01
711.181	0.03
711.362	0.05
711.542	0.03
711.723	0.01
711.904	0.05
712.085	0.04
712.265	0.04
712.446	-0.07
712.627	-0.01
712.807	0.06
712.988	-0.03
713.168	-0.07
713.349	0.03
713.53	-0.12
713.71	-0.1
713.891	-0.06
714.071	-0.05
714.252	-0.01
714.432	-0.02
714.613	-0.1
714.793	0.01
714.974	0.1
715.154	0.02
715.334	0.02
715.515	0.04
715.695	-0.05
715.876	-0.04
716.056	-0.06
716.236	-0.08
716.417	-0.02
716.597	-0.07
716.777	0.09
716.957	-0.07
717.138	-0.04
717.318	0
717.498	-0.1
717.678	-0.02
717.859	0.01
718.039	-0.15
718.219	-0.01
718.399	0.01
718.579	-0.05
718.759	-0.09
718.939	-0.01
719.12	-0.01
719.3	0.05
719.48	-0.13
719.66	-0.13
719.84	0.13
720.02	-0.01
720.2	-0.05
720.38	-0.03
720.56	0.11
720.74	0
720.92	0.01
721.1	-0.02
721.279	0.02
721.459	-0
721.639	-0.08
721.819	-0
721.999	-0
722.179	0.05
722.359	-0.12
722.538	0.03
722.718	0.02
722.898	-0.03
723.078	-0.04
723.257	-0.03
723.437	-0.01
723.617	0.03
723.797	-0.06
723.976	0
724.156	-0.03
724.336	0.04
724.515	0.05
724.695	-0.13
724.874	0.01
725.054	0.07
725.234	-0.09
725.413	-0.03
725.593	-0.04
725.772	-0.1
725.952	0.01
726.131	-0.08
726.311	-0.05
726.49	-0.06
726.67	-0.13
726.849	-0.11
727.028	0.01
727.208	-0.1
727.387	0.04
727.567	-0.08
727.746	-0
727.925	-0.08
728.105	-0.13
728.284	-0.08
728.463	-0.11
728.643	-0.1
728.822	-0.08
729.001	-0.14
729.18	-0.07
729.359	-0
729.539	-0.03
729.718	-0.02
729.897	0.03
730.076	-0.02
730.255	-0.03
730.434	-0.04
730.614	0.02
730.793	0.07
730.972	-0.1
731.151	-0.03
731.33	0.06
731.509	0.02
731.688	0.03
731.867	-0.09
732.046	-0.16
732.225	0.22
732.404	-0.04
732.583	-0.04
732.762	-0.03
732.941	0.05
733.12	-0.03
733.298	-0.04
733.477	0.06
733.656	-0.07
733.835	-0.09
734.014	0.05
734.193	-0
734.371	0.15
734.55	-0.05
734.729	-0.17
734.908	0.02
735.086	0.02
735.265	0.06
735.444	-0.22
735.623	-0.11
735.801	-0.12
735.98	0.06
736.159	-0.08
736.337	0.05
736.516	-0.01
736.694	-0.01
736.873	-0.04
737.052	0.09
737.23	0.11
737.409	-0.03
737.587	0.12
737.766	-0.16
737.944	-0.09
738.123	0.03
738.301	0.07
738.479	-0.1
738.658	-0.05
738.836	-0.21
739.015	0.06
739.193	0.1
739.371	-0.11
739.55	-0.02
739.728	-0.11
739.906	0.06
740.085	0.11
740.263	-0.04
740.441	-0.16
740.62	0.19
740.798	0.04
740.976	-0.05
741.154	-0.09
741.332	0.1
741.511	-0.03
741.689	0.04
741.867	-0.03
742.045	0.03
742.223	-0.07
742.401	-0.14
742.579	-0.1
742.757	-0.04
742.935	-0.19
743.114	-0.1
743.292	-0.04
743.47	-0
743.648	0.1
743.826	0.04
744.004	0.03
744.181	0.05
744.359	0.03
744.537	-0.05
744.715	-0.06
744.893	-0
745.071	0.01
745.249	-0.04
745.427	-0.03
745.605	0.1
745.782	0.08
745.96	0.07
746.138	0.01
746.316	0.09
746.493	0.01
746.671	-0.02
746.849	-0.11
747.027	-0.02
747.204	0
747.382	0.08
747.56	-0.08
747.737	-0.11
747.915	-0.07
748.093	0
748.27	0.02
748.448	-0.08
748.625	-0.17
748.803	-0.13
748.98	-0.08
749.158	-0.05
749.335	0.11
749.513	-0.04
749.69	-0.01
749.868	-0.02
750.045	0.05
750.223	-0.08
750.4	-0.21
750.578	0.24
750.755	-0.02
750.932	-0.16
751.11	0.08
751.287	-0.16
751.464	0.05
751.642	-0.06
751.819	0.02
751.996	-0
752.173	-0.13
752.351	-0.15
752.528	0.03
752.705	0.06
752.882	-0.02
753.06	0
753.237	-0
753.414	0.06
753.591	0.2
753.768	0.1
753.945	-0.05
754.122	-0.08
754.299	0.06
754.476	-0.04
754.654	0.02
754.831	-0.05
755.008	0.1
755.185	-0.22
755.362	-0.22
755.539	-0.01
755.716	-0.1
755.892	-0.1
756.069	-0.06
756.246	-0.13
756.423	-0.07
756.6	0.25
756.777	-0.11
756.954	0.09
757.131	-0.01
757.307	-0.14
757.484	-0.16
757.661	0.02
757.838	-0.04
758.015	-0.13
758.191	0.06
758.368	0.03
758.545	0.15
758.721	0.02
758.898	-0.17
759.075	0.1
759.251	-0.01
759.428	0
759.605	-0.15
759.781	-0.18
759.958	-0.04
760.134	0
760.311	-0.18
760.488	0.11
760.664	0.07
760.841	0.07
761.017	-0.14
761.194	0.1
761.37	0.16
761.547	-0.11
761.723	-0.06
761.899	0.08
762.076	-0.09
762.252	-0.15
762.429	-0.11
762.605	0.08
762.781	-0.06
762.958	0.05
763.134	-0.05
763.31	-0.06
763.486	0.03
763.663	-0.15
763.839	0.04
764.015	-0.14
764.191	-0.16
764.368	-0.13
764.544	-0.04
764.72	-0.04
764.896	0.13
765.072	-0.06
765.248	-0.07
765.425	-0.03
765.601	0.04
765.777	-0.08
765.953	-0.25
766.129	-0.11
766.305	-0.15
766.481	0.13
766.657	0.06
766.833	0.21
767.009	-0.11
767.185	-0.12
767.361	-0.04
767.537	-0.27
767.713	0.11
767.889	-0.09
768.065	-0.04
768.24	-0.29
768.416	-0.05
768.592	-0.01
768.768	-0.01
768.944	0.08
769.12	-0.15
769.295	0.04
769.471	-0.05
769.647	-0.03
769.823	0.11
769.998	-0.19
770.174	-0.08
770.35	0.3
770.525	0.26
770.701	-0.13
770.877	-0.01
771.052	-0.17
771.228	-0
771.403	0.04
771.579	0.06
771.755	0.22
771.93	-0.05
772.106	-0.07
772.281	-0.15
772.457	0.04
772.632	-0
772.808	-0.22
772.983	-0.07
773.159	-0.19
773.334	0.12
773.509	0.08
773.685	-0.04
773.86	0.26
774.036	0.13
774.211	-0.02
774.386	-0.08
774.562	-0.18
774.737	-0.02
774.912	-0.15
775.087	0.1
775.263	-0.03
775.438	-0.11
775.613	-0.19
775.788	-0.07
775.964	0.03
776.139	0.24
776.314	-0.22
776.489	-0.04
776.664	-0.08
776.839	-0.07
777.014	0.01
777.19	0.05
777.365	0.16
777.54	0.17
777.715	-0.11
777.89	0.04
778.065	-0.27
778.24	0.04
778.415	0.21
778.59	-0.18
778.765	0.07
778.94	0.08
779.115	-0.11
779.289	0.05
779.464	-0.09
779.639	-0
779.814	-0.33
779.989	-0.21
780.164	0.17
780.339	0.03
780.513	-0.25
780.688	-0.07
780.863	0.04
781.038	0.24
781.212	-0.21
781.387	0.06
781.562	0.23
781.737	0.05
781.911	0.08
782.086	-0.19
782.261	-0.11
782.435	0.27
782.61	0.01
782.784	0.05
782.959	0.19
783.134	-0.29
783.308	-0.32
783.483	-0.13
783.657	0.34
783.832	0.16
784.006	-0.18
784.181	-0.05
784.355	-0.12
784.53	-0.19
784.704	-0.12
784.878	0.23
785.053	0.09
785.227	0.24
785.402	0.34
785.576	-0.27
785.75	-0.06
785.925	-0.01
786.099	-0.01
786.273	-0.09
786.448	0.08
786.622	0.06
786.796	-0.32
786.97	-0.12
787.145	0.41
787.319	-0.09
787.493	-0.14
787.667	-0.55
787.841	0.08
788.015	0.25
788.19	-0.19
788.364	-0.1
788.538	0.01
788.712	0.22
788.886	-0.23
789.06	0.15
789.234	0.18
789.408	-0.35
789.582	-0.1
789.756	-0.03
789.93	-0.4
790.104	-0.03
790.278	0.03
790.452	-0.13
790.626	0.03
790.8	-0.01
790.973	-0.03
791.147	0.39
791.321	0.03
791.495	0.11
791.669	-0.03
791.843	0.28
792.016	0.08
792.19	0.33
792.364	-0.16
792.538	0.21
792.711	0.19
792.885	-0.15
793.059	-0.23
793.233	-0.68
793.406	0.38
793.58	0.04
793.754	0
793.927	-0.12
794.101	0.26
794.274	-0.13
794.448	0.07
794.622	-0.37
794.795	0.25
794.969	-0.2
795.142	0.35
795.316	-0.37
795.489	-0.08
795.663	0.31
795.836	-0.09
796.009	-0.22
796.183	0.23
796.356	0.12
796.53	0.03
796.703	0.01
796.876	0.52
797.05	-0.08
797.223	-0.01
797.396	-0.12
797.57	-0
797.743	0.46
797.916	0.17
798.09	-0.02
798.263	0.26
798.436	0.19
798.609	-0.08
798.782	-0.21
798.956	0.05
799.129	0.03
799.302	0.09
799.475	-0.3
799.648	-0.15
799.821	-0.08
799.994	0.01
800.167	-0.57
800.34	-0.05
800.514	0.1
800.687	-0.18
800.86	-0.23
801.033	-0.01
801.206	0.01
801.379	-0.38
801.551	0.28
801.724	0.28
801.897	0.46
802.07	-0.22
802.243	-0.22
802.416	-0.14
802.589	-0.1
802.762	-0.05
802.935	0.13
803.107	0.02
803.28	0.57
803.453	0.19
803.626	-0.13
803.798	-0.02
803.971	-0.18
804.144	0
804.317	-0.08
804.489	0.32
804.662	-0.06
804.835	-0.18
805.007	-0.47
805.18	0.34
805.353	-0.16
805.525	-0.46
805.698	0
805.87	0.35
806.043	0.09
806.215	-0.05
806.388	-0.31
806.56	-0.14
806.733	0.24
806.905	0.28
807.078	-0.3
807.25	-0.35
807.423	0.1
807.595	-0.23
807.768	0.14
807.94	0.08
808.112	0.13
808.285	-0.03
808.457	-0.53
808.629	-0.25
808.802	0.26
808.974	0.02
809.146	-0.02
809.318	-0.47
809.491	0.19
809.663	0.28
809.835	-0.19
810.007	0.64
810.18	-0.21
810.352	-0.37
810.524	-0.06
810.696	0.13
810.868	0.36
811.04	-0.28
811.212	0
811.384	0.46
811.556	0.06
811.728	-0.34
811.901	0.36
812.073	-0.26
812.245	0.13
812.417	0.03
812.589	-0.49
812.76	0.21
812.932	0.04
813.104	0.14
813.276	-0.06
813.448	0.09
813.62	-0.13
813.792	0.19
813.964	-0.17
814.136	0.02
814.307	-0.38
814.479	0.02
814.651	-0.33
814.823	0.44
814.995	-0.39
815.166	0.47
815.338	0.07
815.51	-0.94
815.681	0.45
815.853	-0.1
816.025	-0.19
816.196	0.34
816.368	0.25
816.54	-0.91
816.711	-0.4
816.883	-0.11
817.054	0.53
817.226	-0.49
817.398	-0.33
817.569	-0.26
817.741	-0.19
817.912	0.04
818.084	-0.07
818.255	0.06
818.426	-0.1
818.598	-0.44
818.769	-0.6
818.941	0.42
819.112	0.52
819.283	0.13
819.455	-0.3
819.626	0.1
819.798	0.44
819.969	-0.17
820.14	-0.12
820.311	-0.33
820.483	-0.11
820.654	0.14
820.825	-0.45
820.996	-0.28
821.168	-0.66
821.339	-0.13
821.51	-0.5
821.681	-0.21
821.852	0.3
822.023	-0.43
822.195	-1.31
822.366	0.1
822.537	-0.1
822.708	-0.49
822.879	-0.45
823.05	0.79
823.221	0.27
823.392	-0.09
823.563	0.04
823.734	0.1
823.905	0.13
824.076	-0.36
824.247	-0.67
824.418	-0.36
824.589	-0.12
824.759	-0.23
824.93	-0.23
825.101	-0.79
825.272	0.68
825.443	0.11
825.614	0.47
825.784	-1.78
825.955	0.57
826.126	0.27
826.297	-0.63
826.467	0.53
826.638	0.18
826.809	-1.1
826.98	-0.16
827.15	0.5
827.321	-0.64
827.492	0.6
827.662	0.22
827.833	0.76
828.003	0.16
828.174	-0.87
828.345	-0.35
828.515	0.41
828.686	0.49
828.856	-0.52
829.027	-0.17
829.197	-0.04
829.368	-0.18
829.538	-0.17
829.709	0.03
829.879	0.1
830.049	-0.55
830.22	-0.33
830.39	-0.25
830.56	0.89
830.731	-0.54
830.901	-0.46
831.072	0.45
831.242	0.01
831.412	-0.07
831.582	0.34
831.753	-1.17
831.923	0.53
832.093	-0.68
832.263	-0.6
832.434	-0.59
832.604	-0.02
832.774	0.54
832.944	0.14
833.114	-0.5
833.284	0.35
833.454	-0.89
833.624	-0.04
833.795	0.01
833.965	0.7
834.135	0.8
834.305	-0.59
834.475	-0.71
834.645	-0.09
834.815	-0.24
834.985	-0.43
835.155	-0.81
835.325	0.29
835.494	-0.18
835.664	-0.37
835.834	-0.86
836.004	-0.14
836.174	0.33
836.344	0.14
836.514	-0.77
836.684	-0.86
836.853	-0.07
837.023	-0.69
837.193	-0.31
837.363	0.45
837.532	0.14
837.702	-0.43
837.872	-0.47
838.041	0.72
838.211	0.88
838.381	-1.41
838.55	-0.46
838.72	1.49
838.89	0.7
839.059	-0.01
839.229	-1.02
839.398	1.06
839.568	-0.07
839.738	-0.33
839.907	0.27
840.077	0.58
840.246	-0.4
840.416	-1.18
840.585	-1.13
840.755	1.24
840.924	0.87
841.093	-0.36
841.263	-0.04
841.432	-0.1
841.602	-1.45
841.771	-0.93
841.94	0.38
842.11	1.36
842.279	1.61
842.448	-1.22
842.617	0.01
842.787	0.93
842.956	-0.75
843.125	0
843.294	-0.31
843.464	0.34
843.633	0.28
843.802	-0.99
843.971	-0.05
844.14	0.36
844.309	0.32
844.479	-0.99
844.648	-1.41
844.817	-0.68
844.986	-0.62
845.155	-0.6
845.324	-0.16
845.493	-0.56
845.662	-0.06
845.831	0.83
846	-0.11
846.169	-0.67
846.338	0.39
846.507	0.41
846.676	-0.26
846.844	-0.92
847.013	1.5
847.182	-1
847.351	-0.24
847.52	0.33
847.689	0.15
847.858	-0.53
848.026	-0.66
848.195	-0.59
848.364	-0.92
848.533	-0.53
848.701	0.35
848.87	0.15
849.039	0.92
849.207	0.17
849.376	0.81
849.545	1.04
849.713	-0.13
849.882	-0.31
850.051	-0.58
850.219	-0.38
850.388	-0.35
850.556	-0.47
850.725	-0.56
850.893	0.61
851.062	-0.77
851.23	0.54
851.399	-1.59
851.567	0.04
851.736	-0.4
851.904	-1.05
852.073	-0.55
852.241	0.68
852.41	-0.6
852.578	-0.39
852.746	0.03
852.915	0.95
853.083	-0.91
853.251	-0.91
853.42	-1.07
853.588	-0.62
853.756	0.19
853.924	-0.58
854.093	-0.49
854.261	0.46
854.429	-1.39
854.597	-0.29
854.765	-2.21
854.934	0.31
855.102	1.23
855.27	-0.11
855.438	0.5
855.606	0.97
855.774	0.82
855.942	-1.85
856.11	-2.17
856.278	0.28
856.446	0.13
856.614	-0.12
856.782	-1.72
856.95	0.53
857.118	0.2
857.286	0.81
857.454	-0.13
857.622	0.62
857.79	-0.56
857.958	-0.44
858.126	-0.82
858.294	-3.02
858.462	-0.31
858.629	-0.78
858.797	-1.66
858.965	0.18
859.133	-0.69
859.301	-0.38
859.468	0.2
859.636	-0.77
859.804	1.21
859.971	1.62
860.139	-0.16
860.307	0.77
860.474	0.9
860.642	-0.7
860.81	-1.63
860.977	-1.14
861.145	0.32
861.313	-0.37
861.48	0.56
861.648	0.65
861.815	-0.86
861.983	-1.32
862.15	-0.68
862.318	1.3
862.485	1.16
862.653	-2.08
862.82	-1.24
862.988	1.2
863.155	0.44
863.322	-0.59
863.49	-0.96
863.657	-1.23
863.824	1.57
863.992	-0.69
864.159	-0.14
864.326	1.65
864.494	-0.96
864.661	1.19
864.828	-1.3
864.996	1.75
865.163	1.04
865.33	-1.01
865.497	-2.42
865.664	-1.03
865.832	-3.27
865.999	-0.93
866.166	-1.21
866.333	-1
866.5	-1.41
866.667	-1.02
866.834	-0.61
867.001	2.22
867.168	-2.41
867.335	-0.62
867.502	-1.88
867.669	-0.74
867.836	2.36
868.003	-1.57
868.17	-0.01
868.337	-1.45
868.504	3.73
868.671	-2.21
868.838	-0.29
869.005	-0.15
869.172	0.73
869.339	-0.23
869.505	-2.14
869.672	0.82
869.839	1.18
870.006	-0.41
870.173	-1.21
870.339	-0.01
870.506	2.45
870.673	-1.58
870.84	1.03
871.006	0.03
871.173	0.11
871.34	-0.37
871.506	-2.08
871.673	-0.16
871.839	-1.83
872.006	-1.68
872.173	-0.57
872.339	-1.05
872.506	2.37
872.672	0.18
872.839	-3.13
873.005	1.12
873.172	4.95
873.338	1.84
873.505	-0.75
873.671	0.52
873.838	0.58
874.004	-2.7
874.171	-1.09
874.337	0
874.503	1.67
874.67	-0.89
874.836	0.45
875.002	2.61
875.169	2.49
875.335	-1.29
875.501	-1.75
875.668	0.21
875.834	-0.18
876	-1.55
876.166	1.56
876.332	0.09
876.499	2.4
876.665	-2.41
876.831	-1.19
876.997	3.24
877.163	0.35
877.329	-0.97
877.495	-0.38
877.662	0.53
877.828	0.15
877.994	-0.39
878.16	-3.27
878.326	-2.86
878.492	0.76
878.658	-2.24
878.824	1.71
878.99	-0.24
879.156	-0.67
879.322	2.09
879.487	-1.47
879.653	0.82
879.819	-0.04
879.985	-1.52
880.151	-0.09
880.317	0.95
880.483	0.02
880.648	-0.28
880.814	-1.96
880.98	0.62
881.146	-1.82
881.312	-0.69
881.477	-0.6
881.643	-0.17
881.809	-0.32
881.974	2.48
882.14	-2.23
882.306	1.07
882.471	3.54
882.637	-0.84
882.803	0.71
882.968	1.07
883.134	4.73
883.299	0.77
883.465	-0.17
883.63	2.61
883.796	0.75
883.961	2.3
884.127	1.3
884.292	-5.55
884.458	-2.31
884.623	-2.3
