Data from Apollo_Calib_20240827__AbsoluteIrradiance__292__04-01-00-096.txt Node

Date: Wed Aug 28 04:01:00 BST 2024
User: biology
Spectrometer: FLMT08252
Trigger mode: 0
Integration Time (sec): 5.000000E-1
Scans to average: 5
Electric dark correction enabled: true
Nonlinearity correction enabled: false
Boxcar width: 0
XAxis mode: Wavelengths
Number of Pixels in Spectrum: 3648
>>>>>Begin Spectral Data<<<<<
179.588	-0
179.809	-0
180.03	-0
180.251	-0
180.473	-0
180.694	0
180.915	0
181.136	-0
181.357	-0
181.578	-0
181.799	-0
182.02	-0
182.241	-0
182.462	-0
182.683	0
182.904	-0
183.125	-0
183.346	0
183.567	-0
183.788	-0
184.009	-0
184.23	-0
184.451	0
184.672	-0
184.892	-0
185.113	0
185.334	0
185.555	-0
185.776	-0
185.996	0
186.217	0
186.438	-0
186.659	-0
186.879	-0
187.1	0
187.321	-0
187.541	-0
187.762	-0
187.983	0
188.203	0
188.424	0
188.644	-0
188.865	-0
189.086	-0
189.306	-0
189.527	0
189.747	0
189.968	-0
190.188	0
190.409	0
190.629	0
190.849	-0
191.07	-0
191.29	-0
191.511	-0
191.731	-0
191.951	-0
192.172	-0
192.392	-0
192.612	-0
192.833	-0
193.053	0
193.273	-0
193.493	-0
193.714	-0
193.934	0
194.154	0
194.374	-0
194.594	-0
194.815	-0
195.035	0
195.255	0
195.475	-0
195.695	0
195.915	0
196.135	-0
196.355	0
196.575	0
196.795	0
197.015	-0
197.235	-0
197.455	-0
197.675	0
197.895	-0
198.115	-0
198.335	0
198.555	-0
198.775	-0
198.995	-0
199.214	0
199.434	-0
199.654	-0
199.874	-0
200.094	0.95
200.313	-0.48
200.533	-0.65
200.753	-1.2
200.973	0.22
201.192	0.38
201.412	-1.23
201.632	-0.34
201.851	0.86
202.071	-0.52
202.291	-0.5
202.51	-0.92
202.73	0.49
202.95	-0.6
203.169	-1.11
203.389	-0.63
203.608	-0.43
203.828	-0.75
204.047	-0.55
204.267	0.28
204.486	0.24
204.706	-0.02
204.925	-0.17
205.145	-0.39
205.364	0.24
205.583	0.58
205.803	-0.48
206.022	-0.63
206.242	-0.08
206.461	0
206.68	-0.3
206.9	0.2
207.119	0.26
207.338	0.68
207.557	-0.18
207.777	-0.23
207.996	-0.14
208.215	0.5
208.434	-0.37
208.654	-0.57
208.873	-0.38
209.092	0.3
209.311	-0.29
209.53	-0.36
209.749	-0.12
209.968	-0.35
210.187	-0.33
210.407	-0.71
210.626	-0.15
210.845	0.16
211.064	-0.16
211.283	-0.35
211.502	0.09
211.721	0.19
211.94	-0.25
212.159	0.16
212.377	-0.04
212.596	0.18
212.815	-0.13
213.034	-0.03
213.253	0.31
213.472	0.23
213.691	-0.26
213.91	-0.28
214.128	-0.22
214.347	0.36
214.566	-0.4
214.785	-0.42
215.003	-0.03
215.222	-0.03
215.441	-0.19
215.66	-0.34
215.878	-0.04
216.097	0.36
216.316	-0.36
216.534	-0.26
216.753	0.08
216.972	-0.02
217.19	-0.13
217.409	-0.29
217.627	-0.24
217.846	-0.29
218.064	-0.16
218.283	-0.31
218.501	0.33
218.72	0.1
218.938	-0.38
219.157	-0.18
219.375	0.11
219.594	0.01
219.812	-0.31
220.031	-0.38
220.249	0.37
220.467	0.18
220.686	-0.11
220.904	-0.28
221.122	-0.15
221.341	0.27
221.559	0.01
221.777	-0.28
221.995	-0.12
222.214	0.02
222.432	-0.24
222.65	0
222.868	0.01
223.086	-0.01
223.305	0.05
223.523	0.03
223.741	0.23
223.959	0.03
224.177	-0.35
224.395	-0.25
224.613	0.01
224.831	0.04
225.049	-0.23
225.267	-0.2
225.485	0.08
225.703	-0.26
225.921	-0.05
226.139	-0.12
226.357	-0.06
226.575	-0.02
226.793	-0.17
227.011	0.46
227.229	-0
227.447	-0.04
227.665	-0.14
227.883	-0.26
228.1	0.02
228.318	-0.07
228.536	-0.34
228.754	-0.24
228.972	0.04
229.189	-0.03
229.407	-0.06
229.625	-0.13
229.843	0.25
230.06	0.06
230.278	-0.08
230.496	-0.01
230.713	0.14
230.931	0.14
231.149	-0.21
231.366	-0.25
231.584	-0.06
231.801	0.3
232.019	-0.17
232.236	-0.21
232.454	-0.13
232.671	-0.02
232.889	-0.19
233.106	-0.18
233.324	0.02
233.541	-0.07
233.759	-0.07
233.976	-0.08
234.194	-0.11
234.411	-0.16
234.628	-0.17
234.846	-0.04
235.063	-0.06
235.28	0
235.498	-0.12
235.715	-0.19
235.932	0.15
236.149	-0.01
236.367	-0.1
236.584	-0.01
236.801	-0.2
237.018	0.15
237.236	-0.11
237.453	-0.23
237.67	0.1
237.887	-0.05
238.104	-0.05
238.321	-0.16
238.538	-0.07
238.755	0.12
238.973	-0.29
239.19	-0.06
239.407	0.1
239.624	0.04
239.841	-0.15
240.058	-0.1
240.275	-0.01
240.492	-0.05
240.709	-0.05
240.925	-0.1
241.142	-0.03
241.359	-0.12
241.576	-0.19
241.793	-0.1
242.01	-0.07
242.227	0.11
242.444	-0.11
242.66	0.08
242.877	0.04
243.094	-0.15
243.311	-0.02
243.527	-0.03
243.744	-0.02
243.961	0.07
244.178	-0.1
244.394	-0.06
244.611	0.09
244.828	0.22
245.044	-0.12
245.261	-0.05
245.477	-0.01
245.694	-0.01
245.911	-0.07
246.127	0
246.344	0.05
246.56	0.07
246.777	-0.02
246.993	-0.06
247.21	-0.02
247.426	0.05
247.643	-0.1
247.859	-0.14
248.076	-0.12
248.292	0.17
248.508	-0.05
248.725	0.03
248.941	0.03
249.157	0.12
249.374	-0.06
249.59	-0.05
249.806	-0.06
250.023	0.03
250.239	-0.11
250.455	-0.17
250.671	0.01
250.888	0.05
251.104	0.01
251.32	-0.04
251.536	-0.02
251.752	-0.06
251.969	-0.06
252.185	-0.07
252.401	0.17
252.617	0.07
252.833	-0.07
253.049	-0.03
253.265	-0.05
253.481	-0.01
253.697	-0.06
253.913	-0.13
254.129	0.03
254.345	0.02
254.561	-0.01
254.777	-0.02
254.993	0.04
255.209	0.03
255.425	-0.08
255.641	-0.1
255.857	0.08
256.073	-0.03
256.288	-0.17
256.504	-0.07
256.72	-0.03
256.936	0.07
257.152	-0.08
257.367	-0.15
257.583	0.01
257.799	0.06
258.015	-0.12
258.23	-0.12
258.446	0.06
258.662	-0.05
258.877	-0.11
259.093	-0.08
259.309	0.06
259.524	-0.04
259.74	-0.13
259.955	-0.13
260.171	0
260.387	0.03
260.602	0.05
260.818	-0.04
261.033	-0.14
261.249	-0.04
261.464	-0.09
261.68	-0.09
261.895	-0.04
262.11	0.06
262.326	-0.06
262.541	-0.11
262.757	0.07
262.972	-0
263.187	-0.01
263.403	-0.05
263.618	0.03
263.833	-0.02
264.049	-0.08
264.264	-0.08
264.479	-0.02
264.694	0.12
264.91	-0.19
265.125	-0.04
265.34	0.04
265.555	0.13
265.77	-0
265.986	-0.02
266.201	0.03
266.416	0.13
266.631	-0.1
266.846	0.03
267.061	0.05
267.276	-0.03
267.491	-0.18
267.706	0.03
267.921	0.04
268.136	-0.04
268.351	0.01
268.566	-0.18
268.781	0.09
268.996	0.05
269.211	-0.01
269.426	-0.04
269.641	-0.01
269.856	0.04
270.071	-0.11
270.285	-0.1
270.5	0.03
270.715	0
270.93	-0.02
271.145	-0.03
271.359	-0.03
271.574	0.02
271.789	-0.03
272.004	-0.12
272.218	-0.01
272.433	0.04
272.648	-0.06
272.862	0.01
273.077	-0.03
273.292	-0.01
273.506	-0.03
273.721	-0.07
273.936	0.01
274.15	0.05
274.365	-0.05
274.579	-0.06
274.794	-0.04
275.008	0.07
275.223	-0.08
275.437	-0.02
275.652	0.08
275.866	0.04
276.081	-0.05
276.295	0.01
276.509	0
276.724	0.03
276.938	0.01
277.153	-0.03
277.367	0.02
277.581	-0.03
277.796	-0.04
278.01	-0.07
278.224	0.03
278.438	0.13
278.653	-0.07
278.867	-0.03
279.081	-0.15
279.295	-0.05
279.51	-0.03
279.724	-0.15
279.938	0.06
280.152	0.03
280.366	-0.06
280.58	-0.01
280.794	0.09
281.008	-0.01
281.222	0.02
281.437	0.08
281.651	-0.03
281.865	0.11
282.079	-0.06
282.293	-0.09
282.507	-0.05
282.721	-0.02
282.935	0.01
283.148	-0.12
283.362	-0.08
283.576	-0.12
283.79	-0.03
284.004	-0.07
284.218	0.1
284.432	-0.07
284.646	0
284.859	-0.06
285.073	-0.04
285.287	-0.01
285.501	0.02
285.714	-0.01
285.928	-0.01
286.142	-0.04
286.356	-0.04
286.569	-0.06
286.783	0.09
286.997	0.05
287.21	0
287.424	-0.02
287.637	-0.04
287.851	-0.04
288.065	0.05
288.278	-0.01
288.492	-0.01
288.705	-0.05
288.919	0.02
289.132	-0.11
289.346	0.02
289.559	-0.07
289.773	-0.06
289.986	-0.05
290.2	-0.05
290.413	0.08
290.626	-0.11
290.84	-0.06
291.053	-0.02
291.267	0.05
291.48	-0.03
291.693	-0.02
291.906	-0.04
292.12	0.02
292.333	-0.07
292.546	-0.04
292.76	0.09
292.973	0.05
293.186	0.05
293.399	-0.06
293.612	0.03
293.826	-0.05
294.039	-0.01
294.252	-0.01
294.465	0.02
294.678	0.02
294.891	0.04
295.104	-0.07
295.317	-0.01
295.53	0.04
295.743	-0.03
295.956	-0.01
296.169	0.09
296.382	0.04
296.595	-0.03
296.808	-0.04
297.021	0.06
297.234	0.02
297.447	0.03
297.66	0.03
297.873	0.06
298.086	0.06
298.299	-0.02
298.511	-0.11
298.724	-0.02
298.937	-0.05
299.15	-0.06
299.363	0.03
299.575	0.01
299.788	0.01
300.001	-0.02
300.213	-0.06
300.426	-0.01
300.639	-0.05
300.852	-0.05
301.064	0.03
301.277	0.05
301.489	0.08
301.702	0.05
301.915	-0
302.127	-0.02
302.34	0.04
302.552	-0
302.765	-0.03
302.977	0
303.19	0
303.402	-0.06
303.615	-0.03
303.827	-0.04
304.04	0.02
304.252	0.02
304.464	-0.01
304.677	0.13
304.889	0.01
305.102	-0.03
305.314	-0.02
305.526	0.06
305.739	0.02
305.951	-0.05
306.163	-0.03
306.375	0.02
306.588	-0.06
306.8	-0.06
307.012	-0.03
307.224	0.01
307.436	0.05
307.649	-0.07
307.861	0.01
308.073	0.05
308.285	-0
308.497	-0.01
308.709	-0.03
308.921	0.03
309.133	0.07
309.346	-0
309.558	-0.03
309.77	0.03
309.982	0.08
310.194	0.04
310.406	-0.02
310.617	0.07
310.829	0.02
311.041	0
311.253	-0.02
311.465	0
311.677	-0.02
311.889	-0.02
312.101	-0.07
312.313	0.08
312.524	0.04
312.736	-0.05
312.948	0
313.16	0.09
313.372	0.04
313.583	-0
313.795	-0.02
314.007	-0.03
314.218	0.01
314.43	-0.01
314.642	-0.03
314.853	-0.08
315.065	0
315.277	0
315.488	0.01
315.7	0
315.912	-0.01
316.123	-0.03
316.335	-0.04
316.546	0.07
316.758	0.03
316.969	-0.03
317.181	0.02
317.392	-0.04
317.604	0.03
317.815	-0.07
318.026	-0.07
318.238	0.01
318.449	-0.01
318.661	-0.07
318.872	-0.09
319.083	-0.06
319.295	0
319.506	-0.05
319.717	-0.05
319.929	-0
320.14	-0.05
320.351	0
320.562	-0.03
320.774	0.03
320.985	0.01
321.196	-0.08
321.407	-0.09
321.618	0.02
321.829	-0.03
322.041	-0.01
322.252	-0.03
322.463	0.02
322.674	0.06
322.885	-0.05
323.096	-0.05
323.307	-0.01
323.518	0.04
323.729	-0.04
323.94	-0.01
324.151	-0.04
324.362	0
324.573	0.02
324.784	-0.06
324.995	0.05
325.206	-0.01
325.417	-0.01
325.628	-0.05
325.838	-0.03
326.049	0.04
326.26	0.03
326.471	-0.03
326.682	0.01
326.892	-0.02
327.103	-0.07
327.314	-0.06
327.525	0.02
327.735	-0.04
327.946	-0.06
328.157	-0.1
328.368	-0.01
328.578	0.01
328.789	0.04
328.999	0.01
329.21	-0.01
329.421	0.02
329.631	-0.03
329.842	-0.03
330.052	0.01
330.263	0
330.473	0.01
330.684	-0.05
330.894	-0.03
331.105	-0
331.315	-0.03
331.526	-0.04
331.736	0.09
331.947	-0
332.157	0.02
332.367	-0.05
332.578	0.02
332.788	0.02
332.999	0.01
333.209	-0.04
333.419	-0.03
333.629	0.04
333.84	-0.01
334.05	-0.05
334.26	-0
334.47	0.05
334.681	0.03
334.891	-0.05
335.101	0.04
335.311	0.04
335.521	-0.01
335.732	-0.07
335.942	0.08
336.152	0.01
336.362	0.01
336.572	0
336.782	0.05
336.992	-0.01
337.202	-0.04
337.412	-0.01
337.622	0.04
337.832	-0.02
338.042	-0.03
338.252	-0.06
338.462	0.01
338.672	0.02
338.882	0
339.092	-0.01
339.302	0.03
339.511	0.05
339.721	-0.06
339.931	-0.04
340.141	0.06
340.351	0.03
340.561	-0.02
340.77	-0.02
340.98	-0
341.19	0.03
341.4	-0.04
341.609	-0.08
341.819	-0.05
342.029	-0.07
342.238	-0
342.448	-0.04
342.658	0.02
342.867	-0.03
343.077	0.03
343.286	-0.02
343.496	-0
343.706	0.08
343.915	-0.06
344.125	-0.03
344.334	-0.01
344.544	-0.09
344.753	-0.04
344.963	-0.04
345.172	-0.02
345.381	-0.02
345.591	-0.04
345.8	-0.03
346.01	0.06
346.219	0.06
346.428	-0.12
346.638	-0.05
346.847	-0
347.056	0.06
347.266	-0.04
347.475	-0.04
347.684	0.01
347.893	-0.01
348.103	-0.01
348.312	-0.05
348.521	-0.02
348.73	0.01
348.94	0.02
349.149	-0.02
349.358	-0.02
349.567	-0.01
349.776	-0.06
349.985	-0.01
350.194	0.03
350.403	-0.01
350.612	-0.08
350.821	-0.07
351.03	-0.01
351.239	-0.05
351.448	-0.01
351.657	-0.03
351.866	0.05
352.075	0.01
352.284	0.04
352.493	-0.07
352.702	0.02
352.911	0
353.12	0.01
353.329	-0.01
353.538	0.02
353.746	-0
353.955	-0.04
354.164	0.02
354.373	-0.05
354.582	0.03
354.79	0.01
354.999	0.01
355.208	-0.03
355.416	0.08
355.625	-0.04
355.834	-0.02
356.042	-0.01
356.251	-0.05
356.46	-0
356.668	-0
356.877	0.07
357.085	0.05
357.294	-0.08
357.503	0
357.711	0
357.92	0.09
358.128	-0.03
358.337	-0.06
358.545	0.04
358.754	-0.02
358.962	0.02
359.17	-0.03
359.379	0.02
359.587	0.03
359.796	-0.04
360.004	0.04
360.212	0.02
360.421	0.03
360.629	0.02
360.837	-0.02
361.046	-0.01
361.254	0.08
361.462	-0.05
361.67	-0.04
361.879	-0
362.087	0.05
362.295	-0
362.503	-0.04
362.711	-0.04
362.92	-0.06
363.128	-0.08
363.336	-0.02
363.544	-0.07
363.752	-0.06
363.96	-0.07
364.168	-0.02
364.376	0.01
364.584	0.04
364.792	0.05
365	0.03
365.208	-0.01
365.416	-0.02
365.624	0.03
365.832	-0.03
366.04	0.06
366.248	-0.01
366.456	0
366.664	-0.01
366.872	-0.01
367.079	0.01
367.287	0.02
367.495	0.04
367.703	-0.01
367.911	0.04
368.118	-0.01
368.326	-0.04
368.534	-0.04
368.742	0.07
368.949	-0.07
369.157	-0.04
369.365	0.05
369.572	-0.03
369.78	-0.07
369.988	0.02
370.195	0.02
370.403	0.05
370.61	-0.04
370.818	-0.02
371.026	0.05
371.233	-0.05
371.441	-0.03
371.648	-0.04
371.856	0.01
372.063	-0.03
372.271	-0.05
372.478	-0
372.685	-0.02
372.893	0.04
373.1	-0.03
373.308	-0.02
373.515	0.07
373.722	0.03
373.93	-0.02
374.137	0.02
374.344	0.06
374.552	-0.01
374.759	-0.02
374.966	-0
375.173	-0.04
375.381	-0
375.588	0.01
375.795	-0.06
376.002	-0.05
376.209	-0.07
376.417	0
376.624	0.02
376.831	0.02
377.038	-0.03
377.245	-0.08
377.452	-0.02
377.659	0.01
377.866	-0.05
378.073	-0.01
378.28	0
378.487	0
378.694	0.02
378.901	-0.04
379.108	-0.03
379.315	-0
379.522	0.09
379.729	0.03
379.936	0
380.143	-0.02
380.35	0.07
380.557	-0.02
380.763	0.03
380.97	0.03
381.177	0.02
381.384	-0.01
381.591	-0.03
381.797	0.01
382.004	-0
382.211	0.05
382.418	-0
382.624	0.02
382.831	-0
383.038	-0.04
383.244	0.01
383.451	-0
383.658	0.04
383.864	-0.02
384.071	-0.05
384.277	0.04
384.484	-0.01
384.69	0.01
384.897	-0.03
385.103	-0.03
385.31	-0
385.516	-0.02
385.723	-0.02
385.929	-0.04
386.136	-0.04
386.342	0.01
386.549	-0.01
386.755	0.07
386.961	-0.01
387.168	-0.03
387.374	0.03
387.58	0.03
387.787	-0.03
387.993	0.03
388.199	-0.02
388.406	-0.06
388.612	-0.01
388.818	-0.05
389.024	-0.02
389.231	-0
389.437	0.07
389.643	0.04
389.849	-0
390.055	0.02
390.261	-0.01
390.467	-0.01
390.674	-0.04
390.88	-0.02
391.086	0.01
391.292	-0.07
391.498	0
391.704	-0.02
391.91	-0.01
392.116	-0.06
392.322	-0.09
392.528	0.01
392.734	-0.07
392.94	0.03
393.146	-0.02
393.352	0.02
393.557	0
393.763	-0.03
393.969	0.01
394.175	0.01
394.381	-0.03
394.587	-0.06
394.792	-0.01
394.998	0.06
395.204	-0
395.41	-0.03
395.615	0.03
395.821	-0.01
396.027	0.05
396.233	-0.05
396.438	0
396.644	0.07
396.85	0.01
397.055	-0.02
397.261	-0
397.466	0.06
397.672	-0.04
397.878	0.03
398.083	-0
398.289	-0.06
398.494	0.02
398.7	0.03
398.905	-0.09
399.111	0.05
399.316	-0.03
399.522	-0.03
399.727	-0.01
399.932	-0.05
400.138	-0.05
400.343	0.01
400.549	0.03
400.754	-0.01
400.959	-0.02
401.165	-0.02
401.37	0.01
401.575	0.08
401.78	-0.01
401.986	-0.07
402.191	-0.06
402.396	-0.02
402.601	0.03
402.807	-0.01
403.012	-0.03
403.217	0.01
403.422	0.02
403.627	0
403.832	-0.04
404.037	0.03
404.243	-0
404.448	0.01
404.653	-0.04
404.858	0.01
405.063	0.06
405.268	-0.04
405.473	-0.05
405.678	-0.04
405.883	0.12
406.088	-0.01
406.293	-0.06
406.498	-0.03
406.703	0.01
406.907	-0.04
407.112	-0.08
407.317	-0.03
407.522	0.05
407.727	-0.05
407.932	-0.02
408.136	0.03
408.341	0.01
408.546	-0.03
408.751	0.02
408.956	-0.01
409.16	0.02
409.365	-0.04
409.57	-0.01
409.774	0.01
409.979	0.03
410.184	-0.01
410.388	-0.04
410.593	0.04
410.798	-0.02
411.002	-0.02
411.207	0.03
411.411	-0.01
411.616	-0.06
411.82	-0.02
412.025	-0.02
412.229	-0.06
412.434	0.03
412.638	-0.02
412.843	-0.07
413.047	0.01
413.252	-0.06
413.456	-0.01
413.66	0.02
413.865	-0.01
414.069	0.04
414.273	-0.09
414.478	-0.09
414.682	-0.04
414.886	-0.02
415.091	-0.11
415.295	-0.1
415.499	-0.01
415.703	-0.01
415.908	0.01
416.112	-0.12
416.316	0.06
416.52	-0.05
416.724	-0.09
416.929	-0.05
417.133	0.07
417.337	-0.04
417.541	-0.04
417.745	0.01
417.949	0.03
418.153	-0.03
418.357	-0.07
418.561	0.08
418.765	0
418.969	0.07
419.173	0.07
419.377	-0.05
419.581	0.07
419.785	-0.04
419.989	-0.05
420.193	-0.06
420.397	-0.05
420.601	0.07
420.804	0
421.008	-0.02
421.212	-0.04
421.416	0.05
421.62	-0.07
421.823	-0.03
422.027	0.06
422.231	0.05
422.435	-0.04
422.638	-0
422.842	0.03
423.046	-0.06
423.249	0.02
423.453	-0.02
423.657	-0.01
423.86	0
424.064	0.02
424.268	0.07
424.471	-0.02
424.675	0.07
424.878	0.03
425.082	-0.01
425.285	0.04
425.489	0.02
425.692	0.01
425.896	-0.09
426.099	0.05
426.303	-0.05
426.506	-0.08
426.71	0.03
426.913	0.07
427.116	0.07
427.32	-0
427.523	0.02
427.726	0.12
427.93	-0.09
428.133	0.01
428.336	-0.07
428.54	-0.1
428.743	-0
428.946	0.02
429.149	-0.06
429.353	-0.03
429.556	-0.04
429.759	-0.01
429.962	-0.09
430.165	-0
430.368	-0
430.571	-0.04
430.775	-0.03
430.978	-0.04
431.181	0.02
431.384	0.02
431.587	-0.04
431.79	-0.02
431.993	-0.1
432.196	-0.03
432.399	-0.01
432.602	0.03
432.805	-0.04
433.008	-0.01
433.211	-0.1
433.414	-0.01
433.616	0.01
433.819	-0.03
434.022	-0.08
434.225	0.08
434.428	-0.07
434.631	0.09
434.833	-0.02
435.036	-0.05
435.239	-0.01
435.442	-0
435.645	-0.01
435.847	-0
436.05	0.04
436.253	-0.02
436.455	-0.1
436.658	0.02
436.861	0.08
437.063	-0.01
437.266	0
437.468	0.02
437.671	0.14
437.874	0.02
438.076	-0.07
438.279	-0.09
438.481	-0.01
438.684	-0.05
438.886	0.02
439.089	-0.1
439.291	0.02
439.494	-0.01
439.696	-0.05
439.899	-0.05
440.101	-0.05
440.303	-0.14
440.506	0.02
440.708	-0.03
440.91	0.02
441.113	-0.09
441.315	0.01
441.517	-0.08
441.72	0.03
441.922	-0.04
442.124	-0.09
442.326	0.01
442.529	0.08
442.731	-0.04
442.933	0.04
443.135	-0
443.337	-0.05
443.539	-0.02
443.742	-0.05
443.944	-0.01
444.146	-0.07
444.348	-0.03
444.55	-0.1
444.752	-0.04
444.954	-0.02
445.156	0.03
445.358	-0.06
445.56	0
445.762	-0.05
445.964	-0.03
446.166	-0.06
446.368	0
446.57	0.08
446.772	-0.03
446.974	-0.05
447.175	-0.02
447.377	-0.07
447.579	-0
447.781	-0.11
447.983	0.06
448.184	-0.02
448.386	0.03
448.588	-0.09
448.79	-0.01
448.991	-0.02
449.193	-0.02
449.395	-0.02
449.597	0.01
449.798	0.03
450	0.05
450.202	0
450.403	-0
450.605	0.06
450.806	-0.01
451.008	-0.1
451.21	-0
451.411	0.02
451.613	-0.06
451.814	0.01
452.016	0.06
452.217	-0.01
452.419	0.03
452.62	-0.07
452.821	0.02
453.023	0.05
453.224	0.02
453.426	-0.02
453.627	0.03
453.828	-0
454.03	0.02
454.231	0
454.432	-0.06
454.634	0.03
454.835	-0.05
455.036	-0.08
455.238	0.02
455.439	0.09
455.64	-0.04
455.841	-0.04
456.042	0.09
456.244	0.06
456.445	-0.03
456.646	-0.1
456.847	-0.02
457.048	0.05
457.249	0.02
457.45	0.18
457.651	-0.06
457.852	0.05
458.054	0.04
458.255	-0.06
458.456	0.02
458.657	0
458.858	-0.01
459.058	0
459.259	0.01
459.46	-0.03
459.661	-0.05
459.862	0.11
460.063	-0.05
460.264	0.04
460.465	-0.04
460.666	0.08
460.866	-0.02
461.067	-0.03
461.268	-0.01
461.469	-0.03
461.67	-0.04
461.87	-0.04
462.071	-0.04
462.272	-0.04
462.473	-0.04
462.673	0.05
462.874	-0.08
463.075	0.02
463.275	-0.05
463.476	0.02
463.676	-0.01
463.877	-0.03
464.078	-0.06
464.278	0.04
464.479	-0.04
464.679	-0.06
464.88	-0.01
465.08	0.08
465.281	-0.07
465.481	-0.05
465.682	-0.03
465.882	0.02
466.083	-0.01
466.283	-0.01
466.483	0
466.684	-0.1
466.884	-0.05
467.085	-0.06
467.285	0.02
467.485	-0.04
467.686	-0.05
467.886	-0.04
468.086	-0.02
468.286	-0.02
468.487	0.05
468.687	-0.05
468.887	-0.06
469.087	0.02
469.287	-0.06
469.488	-0.08
469.688	-0.04
469.888	0.07
470.088	0.03
470.288	0.05
470.488	0.03
470.688	-0.05
470.888	-0.06
471.088	-0.02
471.288	0.04
471.488	0.03
471.688	0.01
471.888	-0.04
472.088	0.06
472.288	0.03
472.488	-0.07
472.688	-0.02
472.888	-0.03
473.088	-0.03
473.288	0.03
473.488	-0.02
473.688	0.07
473.887	-0.02
474.087	-0.03
474.287	0
474.487	-0.05
474.687	0.03
474.886	-0.01
475.086	-0.04
475.286	0.01
475.486	0.02
475.685	0.01
475.885	0.01
476.085	-0
476.284	0.03
476.484	-0.01
476.684	-0
476.883	0.04
477.083	0.02
477.282	-0.04
477.482	0.08
477.681	0.02
477.881	0.03
478.08	-0.03
478.28	-0.03
478.479	0.02
478.679	0.06
478.878	-0.02
479.078	-0.06
479.277	-0.02
479.477	0.02
479.676	0.02
479.875	-0.01
480.075	-0.09
480.274	0.03
480.473	0.02
480.673	-0.03
480.872	0.02
481.071	-0.01
481.271	-0.01
481.47	-0.03
481.669	-0.02
481.868	-0.05
482.067	-0.05
482.267	-0.04
482.466	-0.03
482.665	-0.03
482.864	-0.04
483.063	-0.05
483.262	0.02
483.461	0.09
483.661	0.02
483.86	-0.01
484.059	0
484.258	0.01
484.457	0.01
484.656	-0
484.855	0.02
485.054	-0.05
485.253	-0.03
485.452	-0.04
485.651	-0.03
485.849	-0
486.048	-0.04
486.247	-0.05
486.446	-0.01
486.645	-0.04
486.844	-0.05
487.043	-0.01
487.241	0.03
487.44	-0.03
487.639	-0.02
487.838	0.02
488.037	-0.01
488.235	0.03
488.434	-0.01
488.633	-0.03
488.831	0.01
489.03	0.04
489.229	0.01
489.427	0
489.626	0.05
489.825	0.05
490.023	-0.01
490.222	-0.02
490.42	0.03
490.619	-0
490.817	0.01
491.016	-0
491.214	0.03
491.413	-0.03
491.611	-0.03
491.81	-0.01
492.008	0.01
492.207	0.03
492.405	0
492.604	-0.05
492.802	-0.06
493	-0.02
493.199	-0.04
493.397	-0.01
493.595	0
493.794	-0.04
493.992	0.04
494.19	-0
494.388	0
494.587	-0.04
494.785	-0.03
494.983	-0.04
495.181	0.01
495.379	-0.02
495.578	-0.03
495.776	0
495.974	0.01
496.172	-0.01
496.37	-0.03
496.568	-0.04
496.766	-0.01
496.964	0
497.162	0
497.36	-0.03
497.558	0.02
497.756	0.02
497.954	0
498.152	-0.01
498.35	-0.01
498.548	-0
498.746	0
498.944	-0.02
499.142	-0.04
499.34	-0.03
499.538	-0.02
499.736	-0.03
499.933	0.04
500.131	0.02
500.329	-0.03
500.527	0.01
500.725	0.01
500.922	0.01
501.12	0.02
501.318	0
501.516	-0.02
501.713	-0.01
501.911	0
502.109	-0.04
502.306	0
502.504	0.01
502.701	-0.04
502.899	-0.02
503.097	0.05
503.294	-0.01
503.492	-0.01
503.689	0.01
503.887	-0
504.084	0.05
504.282	-0.01
504.479	-0.04
504.677	0.01
504.874	-0.03
505.072	-0.02
505.269	-0.01
505.466	0.02
505.664	0
505.861	-0.03
506.059	-0.03
506.256	0.01
506.453	-0.02
506.651	0.05
506.848	-0
507.045	0
507.242	-0.01
507.44	-0.02
507.637	-0.01
507.834	-0.02
508.031	0.02
508.229	-0.04
508.426	0
508.623	0.01
508.82	-0.02
509.017	-0.04
509.214	-0.03
509.411	0
509.608	-0.03
509.805	-0
510.003	-0.02
510.2	-0
510.397	0.03
510.594	-0.02
510.791	-0.05
510.988	-0.01
511.184	0.01
511.381	0
511.578	-0.04
511.775	0.02
511.972	-0.02
512.169	-0.01
512.366	-0
512.563	-0.01
512.76	-0.01
512.956	0.01
513.153	-0.02
513.35	-0.01
513.547	-0.03
513.744	-0.03
513.94	-0.04
514.137	-0.01
514.334	0
514.53	-0
514.727	-0.01
514.924	0.05
515.12	-0.02
515.317	-0.03
515.514	-0.03
515.71	-0.02
515.907	-0.01
516.103	-0
516.3	-0.01
516.497	0.02
516.693	0
516.89	0
517.086	-0.02
517.283	0.03
517.479	0.02
517.676	-0.02
517.872	-0.01
518.068	-0.01
518.265	-0.02
518.461	-0.01
518.658	-0.02
518.854	-0
519.05	-0.01
519.247	-0.03
519.443	0
519.639	-0.01
519.836	-0.02
520.032	-0.02
520.228	0.01
520.424	0.03
520.621	0.02
520.817	-0
521.013	0.02
521.209	-0
521.405	0.04
521.601	0.01
521.798	0
521.994	0.04
522.19	-0.04
522.386	-0.04
522.582	-0.01
522.778	0
522.974	-0.02
523.17	-0
523.366	0.02
523.562	0.01
523.758	-0.02
523.954	-0.04
524.15	-0.01
524.346	0.01
524.542	-0.04
524.738	-0.02
524.934	-0.01
525.129	-0
525.325	0
525.521	-0.01
525.717	-0
525.913	-0.01
526.109	0.01
526.304	-0.02
526.5	-0
526.696	0.03
526.892	-0.01
527.087	-0
527.283	-0.03
527.479	0.01
527.674	-0.04
527.87	-0.01
528.066	-0.01
528.261	0.01
528.457	0.01
528.653	-0.02
528.848	-0.01
529.044	0.02
529.239	-0.02
529.435	0
529.63	0.02
529.826	0.04
530.021	0.02
530.217	0.01
530.412	-0.03
530.608	-0.01
530.803	0
530.999	-0.01
531.194	-0.03
531.389	0.01
531.585	-0.06
531.78	-0
531.975	-0.02
532.171	0.03
532.366	-0.01
532.561	-0.03
532.757	-0.01
532.952	-0.02
533.147	0.03
533.342	0
533.538	-0.01
533.733	0.01
533.928	-0.01
534.123	-0.01
534.318	-0.06
534.513	-0
534.709	-0
534.904	-0.03
535.099	0.01
535.294	0
535.489	-0.02
535.684	-0.01
535.879	-0.04
536.074	-0.02
536.269	-0.03
536.464	-0
536.659	-0.02
536.854	-0.02
537.049	-0.01
537.244	0
537.439	-0.02
537.634	-0.01
537.828	0.02
538.023	-0.01
538.218	-0.06
538.413	-0
538.608	-0.04
538.803	0.01
538.997	-0.02
539.192	0.02
539.387	-0.01
539.582	0.02
539.776	-0
539.971	-0.01
540.166	-0.01
540.36	-0.02
540.555	-0.02
540.75	0
540.944	-0.01
541.139	-0.05
541.334	-0.01
541.528	0.01
541.723	0
541.917	-0.01
542.112	-0.04
542.306	-0.03
542.501	-0
542.695	-0.01
542.89	-0.02
543.084	-0.01
543.279	-0.01
543.473	0
543.668	-0.01
543.862	-0.02
544.056	0.02
544.251	-0.01
544.445	0.02
544.64	-0.03
544.834	0
545.028	-0
545.222	-0.01
545.417	0.01
545.611	0
545.805	-0.03
546	0.01
546.194	-0.01
546.388	-0.01
546.582	-0.01
546.776	0
546.97	-0
547.165	-0
547.359	0.01
547.553	-0.01
547.747	0.02
547.941	-0.03
548.135	-0.02
548.329	0.01
548.523	-0
548.717	-0.01
548.911	-0.02
549.105	-0.01
549.299	-0.01
549.493	0.04
549.687	0.02
549.881	-0.01
550.075	-0.02
550.269	-0.03
550.463	0.02
550.657	-0.03
550.85	-0
551.044	-0.04
551.238	-0.01
551.432	-0.04
551.626	-0.05
551.82	-0
552.013	-0.03
552.207	-0.02
552.401	-0.02
552.594	0.02
552.788	-0.01
552.982	-0.02
553.176	-0.04
553.369	0.03
553.563	0.01
553.756	-0.05
553.95	-0.05
554.144	-0.02
554.337	0.01
554.531	0.01
554.724	-0.01
554.918	-0.01
555.111	0.04
555.305	-0.01
555.498	0.05
555.692	0.02
555.885	-0.02
556.079	-0
556.272	-0.03
556.466	0.01
556.659	0
556.852	-0.02
557.046	-0
557.239	0.02
557.432	-0.02
557.626	-0.04
557.819	-0.01
558.012	0.02
558.206	0.01
558.399	0
558.592	0.01
558.785	-0
558.979	0.01
559.172	-0
559.365	0.01
559.558	-0.01
559.751	-0.01
559.944	0.01
560.138	-0.01
560.331	-0.02
560.524	-0
560.717	-0
560.91	-0.01
561.103	0.01
561.296	-0
561.489	-0.01
561.682	0
561.875	0.02
562.068	-0.01
562.261	-0.01
562.454	0.02
562.647	-0.01
562.84	-0
563.032	-0
563.225	-0.01
563.418	-0.02
563.611	-0.02
563.804	-0.01
563.997	-0.04
564.19	-0.04
564.382	0
564.575	-0.03
564.768	-0.02
564.961	0.01
565.153	-0.03
565.346	0.03
565.539	0.02
565.731	0.01
565.924	0.01
566.117	0.01
566.309	-0
566.502	-0.05
566.695	0
566.887	-0.02
567.08	-0.03
567.272	-0.04
567.465	-0.02
567.657	-0
567.85	-0
568.042	0.02
568.235	0.03
568.427	-0.01
568.62	0
568.812	0.01
569.005	-0.01
569.197	-0.04
569.389	0.01
569.582	0.02
569.774	-0.01
569.966	-0.04
570.159	-0.04
570.351	0.01
570.543	-0.01
570.736	-0.02
570.928	-0.03
571.12	-0
571.312	-0.03
571.505	-0.04
571.697	0.04
571.889	-0.02
572.081	-0.01
572.273	-0.02
572.465	0.01
572.658	-0.02
572.85	0.01
573.042	-0.04
573.234	-0.02
573.426	0.04
573.618	-0.03
573.81	-0.02
574.002	0.03
574.194	0
574.386	-0.03
574.578	-0.08
574.77	-0.03
574.962	0.01
575.154	-0.07
575.346	-0.02
575.538	0
575.729	-0.02
575.921	-0.01
576.113	-0.03
576.305	0.02
576.497	-0.02
576.689	-0.01
576.88	-0.05
577.072	0.05
577.264	-0.01
577.456	-0
577.647	-0.08
577.839	0.02
578.031	0.04
578.223	-0.04
578.414	-0.04
578.606	0.03
578.798	-0
578.989	-0.04
579.181	0.02
579.372	-0
579.564	-0.03
579.755	0.01
579.947	0.01
580.139	0.02
580.33	-0.05
580.522	-0.02
580.713	-0.05
580.905	-0.04
581.096	0.01
581.287	-0.01
581.479	-0.01
581.67	0.04
581.862	-0
582.053	-0.02
582.244	-0.05
582.436	-0.04
582.627	-0
582.818	-0.05
583.01	-0.04
583.201	0.02
583.392	0.03
583.583	-0
583.775	-0.02
583.966	-0.02
584.157	-0.03
584.348	-0.02
584.54	-0.06
584.731	-0
584.922	-0.01
585.113	-0.02
585.304	-0.02
585.495	0.02
585.686	-0
585.877	0
586.068	-0.01
586.259	0
586.45	-0.01
586.641	-0.04
586.832	-0.08
587.023	-0
587.214	-0.01
587.405	-0.02
587.596	-0.04
587.787	0.02
587.978	-0.01
588.169	-0.02
588.36	-0.05
588.551	0.01
588.742	-0.03
588.932	0.01
589.123	-0.02
589.314	0.01
589.505	0.02
589.696	0
589.886	-0.05
590.077	-0.03
590.268	0
590.458	-0.05
590.649	-0.06
590.84	0.01
591.03	-0.04
591.221	-0.03
591.412	-0.04
591.602	0.01
591.793	0.02
591.984	-0.07
592.174	-0.01
592.365	0.04
592.555	-0.03
592.746	-0.03
592.936	0.01
593.127	0.02
593.317	0.07
593.508	-0.04
593.698	-0.03
593.889	-0.01
594.079	-0.01
594.269	-0.03
594.46	0
594.65	-0.03
594.84	-0.01
595.031	-0.04
595.221	-0.05
595.411	-0.06
595.602	0.01
595.792	-0.01
595.982	-0.03
596.172	0.04
596.363	-0.02
596.553	-0.01
596.743	-0.03
596.933	-0.01
597.123	0.03
597.314	-0.02
597.504	-0.04
597.694	0.01
597.884	0.02
598.074	-0.04
598.264	-0.03
598.454	-0.01
598.644	-0.02
598.834	-0.04
599.024	-0.07
599.214	-0.03
599.404	0.03
599.594	-0.03
599.784	-0.06
599.974	0.05
600.164	0.04
600.354	-0.04
600.544	-0.07
600.734	-0
600.924	0.02
601.114	-0.04
601.303	-0.02
601.493	-0.01
601.683	-0.01
601.873	0.01
602.063	-0.03
602.252	0.01
602.442	-0.07
602.632	-0.03
602.821	-0.04
603.011	0.01
603.201	-0.02
603.39	-0.01
603.58	-0.02
603.77	0.01
603.959	0.02
604.149	-0.01
604.339	-0.01
604.528	0.02
604.718	0.02
604.907	-0.03
605.097	-0.03
605.286	-0.05
605.476	0.02
605.665	-0.01
605.855	-0.02
606.044	0.04
606.234	-0
606.423	-0.02
606.612	-0.06
606.802	-0.01
606.991	0.01
607.181	0
607.37	-0.04
607.559	-0
607.749	-0.05
607.938	0
608.127	-0.01
608.316	-0.07
608.506	0.02
608.695	-0.04
608.884	-0.04
609.073	-0.02
609.263	0.01
609.452	0.02
609.641	-0
609.83	-0.05
610.019	-0.01
610.208	-0.03
610.397	-0.01
610.586	0.03
610.775	-0.02
610.965	-0.02
611.154	-0.04
611.343	0
611.532	0.01
611.721	-0.06
611.91	-0.04
612.099	-0.01
612.287	-0.04
612.476	-0.06
612.665	0
612.854	-0.03
613.043	0
613.232	-0.02
613.421	-0.06
613.61	-0.02
613.798	-0.04
613.987	0.01
614.176	-0.01
614.365	0.02
614.554	0
614.742	0.01
614.931	-0.04
615.12	0.01
615.309	-0.03
615.497	-0
615.686	-0.01
615.875	-0.03
616.063	0
616.252	-0.02
616.44	-0.03
616.629	-0
616.818	0.02
617.006	-0.02
617.195	-0.02
617.383	0.03
617.572	-0
617.76	-0.04
617.949	-0
618.137	0.01
618.326	0.06
618.514	-0.03
618.703	-0.02
618.891	0.06
619.079	-0.08
619.268	0.02
619.456	-0.03
619.644	0.02
619.833	-0.01
620.021	-0.02
620.209	-0.09
620.398	0.01
620.586	0.01
620.774	0
620.962	-0.03
621.151	0.05
621.339	-0.03
621.527	-0.07
621.715	-0.07
621.903	-0.05
622.092	-0.06
622.28	-0.02
622.468	0
622.656	-0
622.844	0.05
623.032	-0.03
623.22	-0.08
623.408	0.04
623.596	0.01
623.784	-0.01
623.972	-0.06
624.16	-0.01
624.348	0.05
624.536	-0
624.724	-0.04
624.912	0.02
625.1	0.01
625.288	-0.01
625.476	-0.04
625.664	-0.02
625.851	-0.05
626.039	-0
626.227	-0.01
626.415	-0.01
626.603	-0.09
626.79	-0.05
626.978	-0.06
627.166	-0.01
627.354	-0.02
627.541	-0.01
627.729	-0.1
627.917	0
628.104	0.04
628.292	-0.04
628.48	-0.01
628.667	-0.02
628.855	0.01
629.042	-0.01
629.23	-0.01
629.418	-0.01
629.605	-0.03
629.793	-0.01
629.98	-0.05
630.168	-0.04
630.355	0.02
630.543	-0.02
630.73	-0.05
630.917	0.03
631.105	0.06
631.292	-0.06
631.48	-0.03
631.667	0.08
631.854	-0.02
632.042	-0
632.229	-0.07
632.416	-0.01
632.604	-0.02
632.791	-0.07
632.978	0.02
633.165	0.02
633.353	0.04
633.54	-0.01
633.727	-0.07
633.914	-0.03
634.101	-0.08
634.289	0.05
634.476	-0.06
634.663	-0.05
634.85	0.04
635.037	-0.03
635.224	-0.06
635.411	0.02
635.598	0.04
635.785	-0.05
635.972	-0.01
636.159	0.06
636.346	-0.03
636.533	-0.03
636.72	-0.03
636.907	-0.01
637.094	0.02
637.281	-0.05
637.468	-0
637.655	-0.03
637.842	-0
638.029	-0.05
638.215	0.01
638.402	-0
638.589	-0.07
638.776	-0.02
638.963	-0.03
639.149	0.01
639.336	0.06
639.523	-0.03
639.709	-0.01
639.896	-0.06
640.083	0.06
640.27	0.01
640.456	-0.06
640.643	-0
640.829	-0.07
641.016	-0.02
641.203	-0.05
641.389	0.02
641.576	0.03
641.762	0.01
641.949	-0.05
642.135	-0.02
642.322	0
642.508	-0.07
642.695	-0.03
642.881	-0.02
643.068	-0.06
643.254	-0.04
643.441	-0.01
643.627	-0.03
643.813	-0.03
644	0.03
644.186	-0.02
644.372	-0.06
644.559	0.06
644.745	-0.02
644.931	-0.05
645.118	-0.02
645.304	-0.03
645.49	-0.02
645.676	-0.04
645.862	-0
646.049	0.03
646.235	-0.01
646.421	0.06
646.607	0.04
646.793	-0.02
646.979	-0.04
647.165	-0
647.352	-0
647.538	0.09
647.724	-0.02
647.91	-0
648.096	0.02
648.282	0.01
648.468	-0.01
648.654	-0
648.84	-0.03
649.026	0.01
649.212	-0.04
649.397	-0.07
649.583	-0.04
649.769	0.03
649.955	-0.02
650.141	0.01
650.327	0.04
650.513	-0.05
650.698	0.01
650.884	-0.09
651.07	-0.01
651.256	-0.02
651.442	-0.04
651.627	-0.05
651.813	-0.01
651.999	-0.03
652.184	-0.02
652.37	-0.04
652.556	-0.03
652.741	0.07
652.927	-0.07
653.113	-0.03
653.298	0.01
653.484	-0.01
653.669	-0.1
653.855	0.01
654.04	-0.01
654.226	-0
654.412	-0.01
654.597	-0.06
654.782	-0.01
654.968	0.06
655.153	-0
655.339	-0.05
655.524	-0.05
655.71	0
655.895	-0.03
656.08	-0.03
656.266	0.01
656.451	-0
656.636	-0.04
656.822	0
657.007	-0.05
657.192	-0.07
657.378	-0.09
657.563	-0.05
657.748	0.04
657.933	-0.05
658.118	-0.03
658.304	-0.03
658.489	0.02
658.674	0.05
658.859	-0.07
659.044	-0.02
659.229	0.04
659.414	-0.06
659.599	-0.05
659.785	-0.06
659.97	-0.05
660.155	0
660.34	-0.01
660.525	-0.04
660.71	0.01
660.895	0.02
661.08	-0.05
661.264	-0.04
661.449	0.04
661.634	0.02
661.819	-0
662.004	-0.03
662.189	-0.1
662.374	-0.08
662.559	-0.07
662.743	-0.08
662.928	-0.01
663.113	-0.02
663.298	-0.05
663.483	-0.03
663.667	0.01
663.852	-0.05
664.037	0.02
664.221	-0.08
664.406	-0.02
664.591	-0.01
664.775	-0.02
664.96	-0.03
665.145	0.02
665.329	0.04
665.514	-0.05
665.698	-0.02
665.883	-0.08
666.068	0.04
666.252	-0.04
666.437	-0.06
666.621	-0
666.806	0.01
666.99	-0.02
667.174	-0.05
667.359	0.06
667.543	-0.01
667.728	-0.03
667.912	-0.1
668.096	-0.01
668.281	-0.05
668.465	-0.02
668.649	-0.03
668.834	-0.03
669.018	0.01
669.202	-0.03
669.387	-0.05
669.571	0.05
669.755	-0.05
669.939	-0.05
670.124	-0.04
670.308	0.03
670.492	0.02
670.676	-0.03
670.86	-0
671.044	-0.05
671.228	0.02
671.413	-0.01
671.597	-0.04
671.781	-0.01
671.965	0
672.149	-0.02
672.333	-0
672.517	-0.04
672.701	0.01
672.885	-0.08
673.069	-0.1
673.253	0.03
673.437	-0.02
673.621	-0.06
673.804	-0.03
673.988	0.02
674.172	-0.01
674.356	-0.07
674.54	-0.05
674.724	0.07
674.908	-0
675.091	-0.02
675.275	-0.04
675.459	0.02
675.643	-0.02
675.826	0.02
676.01	-0.02
676.194	-0.04
676.377	0.03
676.561	0.04
676.745	-0.04
676.928	-0.01
677.112	0.03
677.296	-0.02
677.479	-0.04
677.663	-0.04
677.846	-0.02
678.03	-0.03
678.213	-0.02
678.397	-0.01
678.58	-0.04
678.764	-0.04
678.947	-0.06
679.131	-0.06
679.314	0.08
679.498	-0.02
679.681	-0.06
679.865	0.05
680.048	-0.02
680.231	-0.09
680.415	-0.03
680.598	-0.03
680.781	-0
680.965	-0.04
681.148	0.04
681.331	-0.01
681.514	-0.02
681.698	-0.06
681.881	-0.02
682.064	-0.01
682.247	0.01
682.43	-0.08
682.614	0.01
682.797	0.01
682.98	-0.02
683.163	-0.06
683.346	-0.04
683.529	-0.01
683.712	-0.05
683.895	-0.01
684.078	-0.06
684.261	-0.02
684.444	-0.02
684.627	-0.04
684.81	-0.03
684.993	-0.04
685.176	0.01
685.359	-0.04
685.542	-0.06
685.725	0.04
685.908	-0.01
686.091	-0.05
686.274	0.02
686.457	0.03
686.639	0.02
686.822	0.02
687.005	-0.02
687.188	0.05
687.371	0.09
687.553	0.01
687.736	-0.01
687.919	0.07
688.102	0.05
688.284	-0.03
688.467	0.02
688.65	-0.05
688.832	-0.1
689.015	0.01
689.197	-0.09
689.38	0.08
689.563	0.02
689.745	-0.02
689.928	-0.09
690.11	-0.03
690.293	-0.01
690.475	-0.07
690.658	-0.01
690.84	0.01
691.023	0
691.205	-0.05
691.388	-0.02
691.57	0.09
691.752	0.06
691.935	-0.15
692.117	-0.01
692.3	0.01
692.482	-0.03
692.664	-0.03
692.847	-0.03
693.029	0.04
693.211	-0.02
693.393	-0.01
693.576	-0.06
693.758	-0.01
693.94	-0.03
694.122	-0.01
694.304	0.02
694.487	-0.05
694.669	0.03
694.851	-0.09
695.033	0.01
695.215	-0.06
695.397	-0.06
695.579	0
695.761	-0.03
695.943	-0.1
696.125	0.07
696.308	0.02
696.49	-0.11
696.671	0.1
696.853	-0.07
697.035	0.14
697.217	-0.01
697.399	0.06
697.581	-0.06
697.763	-0.03
697.945	-0.07
698.127	0.03
698.309	-0.03
698.491	-0.01
698.672	0.02
698.854	-0
699.036	0.03
699.218	-0
699.399	0.03
699.581	0.04
699.763	-0.04
699.945	-0.04
700.126	-0.03
700.308	0.01
700.49	-0.06
700.671	-0.12
700.853	-0.07
701.035	-0.01
701.216	-0.02
701.398	-0.03
701.579	-0.07
701.761	0.03
701.943	-0.06
702.124	-0.07
702.306	-0.02
702.487	0.1
702.669	-0.06
702.85	-0.02
703.031	-0.04
703.213	0.07
703.394	0.12
703.576	-0.03
703.757	0.1
703.938	0.07
704.12	0.13
704.301	-0.03
704.483	-0.05
704.664	-0.04
704.845	0.1
705.026	0.02
705.208	0.05
705.389	0.01
705.57	0.06
705.751	-0.03
705.933	-0.03
706.114	0.04
706.295	-0.03
706.476	-0.09
706.657	0.1
706.838	0.05
707.02	0.04
707.201	-0.09
707.382	-0.05
707.563	-0.01
707.744	-0.1
707.925	-0.14
708.106	-0.08
708.287	0.03
708.468	0.04
708.649	-0
708.83	0
709.011	-0.07
709.192	0.02
709.373	-0.09
709.554	-0.03
709.734	0.02
709.915	0.03
710.096	-0.04
710.277	-0.14
710.458	-0.02
710.639	0.05
710.819	-0.15
711	-0.08
711.181	0.05
711.362	0.1
711.542	-0
711.723	-0.05
711.904	0.11
712.085	0.07
712.265	-0.03
712.446	-0.1
712.627	0
712.807	-0.03
712.988	-0.03
713.168	-0.05
713.349	0.02
713.53	-0.14
713.71	-0.08
713.891	-0.07
714.071	-0.01
714.252	-0.05
714.432	-0.08
714.613	-0.13
714.793	0.01
714.974	0.03
715.154	0.04
715.334	0.03
715.515	0.08
715.695	-0.05
715.876	-0
716.056	0.01
716.236	-0.02
716.417	-0.03
716.597	-0.08
716.777	0.13
716.957	-0.07
717.138	-0.05
717.318	0.02
717.498	-0.14
717.678	0.01
717.859	-0.01
718.039	-0.07
718.219	0.04
718.399	0.01
718.579	-0.13
718.759	-0.13
718.939	-0.01
719.12	-0.02
719.3	-0.03
719.48	-0.19
719.66	-0.07
719.84	0.09
720.02	-0.03
720.2	-0
720.38	0
720.56	0.11
720.74	-0.08
720.92	0.02
721.1	0.02
721.279	0.01
721.459	0.01
721.639	-0.16
721.819	-0.03
721.999	-0.04
722.179	-0
722.359	-0.05
722.538	0.04
722.718	-0.02
722.898	-0.06
723.078	0.03
723.257	-0.07
723.437	-0.03
723.617	-0.03
723.797	-0.05
723.976	-0.11
724.156	0.02
724.336	0.07
724.515	0.03
724.695	-0.14
724.874	-0.01
725.054	0.02
725.234	-0.04
725.413	0.02
725.593	-0.01
725.772	-0.17
725.952	-0.03
726.131	-0.05
726.311	0
726.49	0.02
726.67	-0.08
726.849	-0.09
727.028	0.03
727.208	-0.02
727.387	0.06
727.567	-0.1
727.746	-0.05
727.925	-0.1
728.105	-0.09
728.284	-0.12
728.463	-0.02
728.643	0.04
728.822	-0.13
729.001	-0.14
729.18	-0.02
729.359	-0.02
729.539	-0.04
729.718	-0.04
729.897	0.02
730.076	-0.05
730.255	-0.16
730.434	-0.01
730.614	0.04
730.793	0.06
730.972	-0.05
731.151	-0
731.33	0.07
731.509	0.08
731.688	0.03
731.867	-0.03
732.046	-0.15
732.225	0.1
732.404	-0.06
732.583	-0.1
732.762	-0.06
732.941	0.07
733.12	0.03
733.298	-0.15
733.477	0.1
733.656	-0
733.835	-0.19
734.014	0.03
734.193	-0.07
734.371	0.04
734.55	0
734.729	-0.09
734.908	0.05
735.086	0.01
735.265	0.06
735.444	-0.15
735.623	-0.2
735.801	-0.02
735.98	-0.02
736.159	-0.05
736.337	0.12
736.516	0
736.694	0.04
736.873	-0.12
737.052	0.17
737.23	0.07
737.409	-0.04
737.587	0.1
737.766	-0.19
737.944	-0.13
738.123	0.02
738.301	0.05
738.479	-0.14
738.658	0
738.836	-0.15
739.015	0.02
739.193	0.15
739.371	-0.2
739.55	0.02
739.728	-0.14
739.906	0.11
740.085	0.15
740.263	0.01
740.441	-0.17
740.62	0.13
740.798	0.07
740.976	-0.24
741.154	-0.1
741.332	0.13
741.511	-0.1
741.689	0.01
741.867	0.12
742.045	0.01
742.223	-0.04
742.401	-0.05
742.579	-0
742.757	-0.07
742.935	-0.15
743.114	-0.01
743.292	-0.07
743.47	-0.06
743.648	0.05
743.826	-0.02
744.004	-0.03
744.181	-0.04
744.359	0.01
744.537	-0
744.715	-0.15
744.893	0.04
745.071	-0.02
745.249	-0.03
745.427	0.02
745.605	0.14
745.782	-0.02
745.96	0.11
746.138	0.06
746.316	0
746.493	-0.12
746.671	-0.04
746.849	-0.08
747.027	0.1
747.204	-0.11
747.382	0.04
747.56	-0.09
747.737	0.03
747.915	-0.13
748.093	0.1
748.27	-0.02
748.448	-0.08
748.625	-0.12
748.803	-0.16
748.98	-0.04
749.158	-0.01
749.335	0.09
749.513	-0.03
749.69	-0.02
749.868	-0.01
750.045	-0.04
750.223	-0.17
750.4	-0.2
750.578	0.17
750.755	-0.03
750.932	-0.12
751.11	0.05
751.287	-0.1
751.464	0.05
751.642	-0.16
751.819	-0.04
751.996	-0.08
752.173	-0.01
752.351	-0.14
752.528	-0.03
752.705	-0.11
752.882	-0.11
753.06	-0.1
753.237	0.02
753.414	0.2
753.591	0.14
753.768	0.04
753.945	-0.03
754.122	-0.12
754.299	0.11
754.476	-0.14
754.654	-0.01
754.831	-0
755.008	0.05
755.185	-0.02
755.362	-0.13
755.539	-0.08
755.716	-0.08
755.892	-0.02
756.069	-0.08
756.246	-0.13
756.423	-0.09
756.6	0.08
756.777	-0.06
756.954	0.14
757.131	-0.1
757.307	-0.23
757.484	-0.16
757.661	-0.1
757.838	0.01
758.015	-0.12
758.191	-0.01
758.368	0
758.545	0.15
758.721	0.04
758.898	-0.1
759.075	0.03
759.251	0.08
759.428	0.14
759.605	-0.18
759.781	-0.05
759.958	0
760.134	-0.04
760.311	-0.06
760.488	0.21
760.664	0.2
760.841	0.01
761.017	-0.12
761.194	-0.02
761.37	0.09
761.547	-0.02
761.723	-0.05
761.899	0.1
762.076	-0.15
762.252	-0.2
762.429	-0.05
762.605	0.08
762.781	-0.09
762.958	0.07
763.134	-0.09
763.31	-0.15
763.486	0.1
763.663	-0.23
763.839	-0.05
764.015	-0.28
764.191	-0.1
764.368	-0.05
764.544	-0.05
764.72	0.04
764.896	0.06
765.072	-0.08
765.248	0.01
765.425	-0.17
765.601	-0.02
765.777	-0.04
765.953	-0.32
766.129	-0.17
766.305	-0.05
766.481	0.06
766.657	-0.09
766.833	0.14
767.009	-0.1
767.185	-0.16
767.361	-0.1
767.537	-0.14
767.713	0.17
767.889	-0.03
768.065	-0.06
768.24	0.14
768.416	0.07
768.592	0.04
768.768	-0.02
768.944	-0.07
769.12	-0.16
769.295	-0.09
769.471	-0.17
769.647	-0.06
769.823	0.01
769.998	0.05
770.174	-0.2
770.35	0.3
770.525	0.34
770.701	0.09
770.877	-0.08
771.052	-0.1
771.228	-0.02
771.403	0.1
771.579	-0.03
771.755	0.22
771.93	-0.18
772.106	-0.18
772.281	-0.12
772.457	-0.06
772.632	-0.02
772.808	-0.18
772.983	-0.01
773.159	-0.22
773.334	0.09
773.509	-0.04
773.685	-0.14
773.86	0.32
774.036	0.13
774.211	-0.06
774.386	-0.18
774.562	-0.07
774.737	-0
774.912	-0.08
775.087	0.08
775.263	0
775.438	-0.09
775.613	0.01
775.788	-0.2
775.964	0.12
776.139	0.36
776.314	-0.24
776.489	-0.02
776.664	0.02
776.839	-0.22
777.014	0.01
777.19	-0.08
777.365	0.17
777.54	0.39
777.715	-0.09
777.89	-0.04
778.065	-0.12
778.24	-0.02
778.415	0.15
778.59	-0.25
778.765	-0.06
778.94	0.04
779.115	-0.13
779.289	-0.05
779.464	-0.09
779.639	-0.04
779.814	-0.18
779.989	-0.18
780.164	0.11
780.339	-0.04
780.513	-0.13
780.688	-0.26
780.863	-0.08
781.038	-0.05
781.212	-0.13
781.387	-0.03
781.562	0.16
781.737	0.07
781.911	-0.01
782.086	-0.17
782.261	-0.03
782.435	0.2
782.61	-0.05
782.784	-0.09
782.959	0.28
783.134	-0.27
783.308	-0.08
783.483	-0.14
783.657	0.33
783.832	0.22
784.006	-0.43
784.181	-0.02
784.355	0.05
784.53	-0.29
784.704	-0.35
784.878	0.28
785.053	0.08
785.227	0.27
785.402	0.35
785.576	-0.21
785.75	0
785.925	-0.06
786.099	-0.09
786.273	-0.06
786.448	0.13
786.622	0.11
786.796	-0.08
786.97	-0.12
787.145	0.6
787.319	-0.13
787.493	-0.23
787.667	-0.38
787.841	-0.1
788.015	0.35
788.19	-0.21
788.364	-0.08
788.538	0.24
788.712	-0.15
788.886	-0.12
789.06	0.35
789.234	0.1
789.408	-0.25
789.582	-0.22
789.756	0
789.93	-0.15
790.104	-0.17
790.278	-0.07
790.452	-0.42
790.626	0.12
790.8	-0.15
790.973	-0.11
791.147	0.1
791.321	0.2
791.495	-0.25
791.669	0.23
791.843	0.05
792.016	-0.01
792.19	0.44
792.364	-0.28
792.538	0.53
792.711	0.14
792.885	-0.04
793.059	-0.36
793.233	-0.48
793.406	0.26
793.58	0.04
793.754	-0.03
793.927	-0.21
794.101	0.28
794.274	0.06
794.448	0.1
794.622	-0.31
794.795	0.46
794.969	-0.26
795.142	0.16
795.316	0.04
795.489	-0.19
795.663	0.29
795.836	0.15
796.009	-0.22
796.183	0.1
796.356	0.2
796.53	-0.04
796.703	-0.05
796.876	0.8
797.05	-0.1
797.223	-0.4
797.396	0.22
797.57	-0.1
797.743	0.21
797.916	-0.2
798.09	-0.09
798.263	0.3
798.436	-0.11
798.609	-0.06
798.782	-0.13
798.956	0.12
799.129	0
799.302	-0.47
799.475	-0.49
799.648	-0.19
799.821	-0.22
799.994	-0.05
800.167	-0.42
800.34	0.02
800.514	0.03
800.687	-0.13
800.86	-0.44
801.033	0.06
801.206	-0.21
801.379	-0.26
801.551	-0.09
801.724	0.07
801.897	0.39
802.07	-0.42
802.243	-0.46
802.416	-0.08
802.589	-0.16
802.762	0.18
802.935	-0.12
803.107	0.36
803.28	0.28
803.453	-0.01
803.626	0.06
803.798	-0.03
803.971	-0.24
804.144	0.16
804.317	0.26
804.489	0.16
804.662	0.03
804.835	-0.25
805.007	-0.28
805.18	0.66
805.353	0.05
805.525	-0.2
805.698	-0.42
805.87	-0.05
806.043	-0.09
806.215	-0.66
806.388	-0.24
806.56	0.14
806.733	0.15
806.905	0.23
807.078	-0.31
807.25	-0.25
807.423	0.18
807.595	-0.01
807.768	0.12
807.94	0.33
808.112	-0.19
808.285	-0.14
808.457	-0.34
808.629	0.08
808.802	0.33
808.974	-0.12
809.146	-0.4
809.318	-0.02
809.491	0.1
809.663	0.23
809.835	-0.1
810.007	0.17
810.18	-0.08
810.352	-0.45
810.524	-0.39
810.696	0.02
810.868	0.23
811.04	-0.41
811.212	-0.31
811.384	0.3
811.556	0.2
811.728	-0.23
811.901	0.58
812.073	0.06
812.245	0.28
812.417	-0.26
812.589	-0.84
812.76	-0.14
812.932	0.03
813.104	0.35
813.276	-0.13
813.448	0
813.62	-0.22
813.792	-0.14
813.964	-0.14
814.136	0.09
814.307	-0.36
814.479	-0.38
814.651	-0.44
814.823	0.23
814.995	-0.14
815.166	0.01
815.338	-0
815.51	-0.66
815.681	0.69
815.853	-0.3
816.025	-0.4
816.196	0.64
816.368	0.54
816.54	-0.43
816.711	-0.52
816.883	0.07
817.054	0.75
817.226	-0.69
817.398	-0.06
817.569	-0.24
817.741	0.23
817.912	-0.15
818.084	-0.02
818.255	0.48
818.426	-0.38
818.598	-0.15
818.769	-0.38
818.941	0.49
819.112	0.44
819.283	0.06
819.455	-0.54
819.626	-0.03
819.798	-0.01
819.969	0.29
820.14	-0.3
820.311	-0.36
820.483	0.36
820.654	0.23
820.825	0.04
820.996	0.03
821.168	-0.34
821.339	-0.1
821.51	-0.77
821.681	-0.22
821.852	0.26
822.023	-0.67
822.195	-0.76
822.366	0.55
822.537	-0.15
822.708	-0.18
822.879	-0.3
823.05	0.25
823.221	-0.28
823.392	-0.19
823.563	-0.13
823.734	0
823.905	-0.68
824.076	-0.14
824.247	-0.83
824.418	-0.46
824.589	0.48
824.759	-0.45
824.93	-0.42
825.101	-1.03
825.272	0.39
825.443	0.52
825.614	0.8
825.784	-0.76
825.955	0.76
826.126	0.3
826.297	-0.35
826.467	0.42
826.638	0.49
826.809	-0.89
826.98	-0.06
827.15	0.29
827.321	0.17
827.492	0.22
827.662	0
827.833	1.03
828.003	0.37
828.174	-0.55
828.345	-0.64
828.515	0.7
828.686	0.11
828.856	-0.56
829.027	0.24
829.197	0.66
829.368	0.51
829.538	-0.51
829.709	-0.56
829.879	0.11
830.049	-0.43
830.22	-0.39
830.39	0
830.56	0.79
830.731	-0.14
830.901	-0.38
831.072	-0.15
831.242	-0.18
831.412	0.18
831.582	0.52
831.753	-0.53
831.923	0.37
832.093	-0.16
832.263	-0
832.434	-0.25
832.604	-0.38
832.774	0.39
832.944	-0.18
833.114	-0.24
833.284	0.11
833.454	-0.41
833.624	-0.67
833.795	0.09
833.965	1.09
834.135	0.18
834.305	-1.46
834.475	-0.84
834.645	0.09
834.815	-0.54
834.985	-0.47
835.155	-0.78
835.325	0.71
835.494	0.38
835.664	-0.02
835.834	-0.47
836.004	0.09
836.174	0.96
836.344	-0.43
836.514	-0.49
836.684	-0.17
836.853	-0.27
837.023	-0.42
837.193	-0.38
837.363	0.44
837.532	0.87
837.702	0.04
837.872	-0.63
838.041	0.51
838.211	1.83
838.381	-1.21
838.55	-0.18
838.72	1.72
838.89	0.51
839.059	-0.37
839.229	-0.72
839.398	1.2
839.568	0.33
839.738	0.11
839.907	0.54
840.077	-0.3
840.246	-0.35
840.416	-0.78
840.585	-0.43
840.755	1.06
840.924	0.82
841.093	-0.39
841.263	-0.45
841.432	-0.16
841.602	-0.88
841.771	-0.18
841.94	-0.43
842.11	1.98
842.279	1.3
842.448	-0.9
842.617	-1.01
842.787	0.63
842.956	-0.72
843.125	-0.41
843.294	0.13
843.464	1.03
843.633	-0.09
843.802	-1.68
843.971	0.56
844.14	0.94
844.309	-0.14
844.479	-0.68
844.648	-1.23
844.817	-0.15
844.986	0.54
845.155	-1.03
845.324	-0.87
845.493	-0.35
845.662	-0.84
845.831	0.6
846	0.74
846.169	-0.19
846.338	1.17
846.507	-0.44
846.676	0.08
846.844	-0.47
847.013	0.2
847.182	-0.18
847.351	-0.12
847.52	0.49
847.689	0.09
847.858	-0.21
848.026	-0.17
848.195	-0.18
848.364	-0.52
848.533	-0.66
848.701	-0.87
848.87	0.54
849.039	1.43
849.207	0.72
849.376	1.34
849.545	0.5
849.713	-0.31
849.882	-0.53
850.051	-0.15
850.219	-0.31
850.388	1.19
850.556	-0.9
850.725	-0.49
850.893	-0.25
851.062	-0.74
851.23	-0.61
851.399	-1.42
851.567	-0.01
851.736	-0.06
851.904	-1.03
852.073	0.02
852.241	-0.06
852.41	-0.62
852.578	-0.5
852.746	-0.38
852.915	1.41
853.083	0.17
853.251	-1.09
853.42	-0.55
853.588	0.35
853.756	0.43
853.924	-1.07
854.093	-0.62
854.261	-0.18
854.429	-1.33
854.597	-0.44
854.765	-1.81
854.934	0.98
855.102	0.58
855.27	0.18
855.438	0.82
855.606	1.69
855.774	1.77
855.942	-2.17
856.11	-1.55
856.278	-0.28
856.446	1.46
856.614	-0.93
856.782	-1.7
856.95	-0.36
857.118	-0.14
857.286	0.17
857.454	-1.77
857.622	0.95
857.79	0.92
857.958	-1.23
858.126	-0.51
858.294	-3.47
858.462	-1.2
858.629	-0.26
858.797	-1.6
858.965	0.99
859.133	-0.34
859.301	-0.14
859.468	0.11
859.636	1.07
859.804	2.8
859.971	0.17
860.139	-1.47
860.307	0.55
860.474	0.9
860.642	-2.33
860.81	-0.72
860.977	-0.26
861.145	0.57
861.313	-0.94
861.48	-0.53
861.648	1.57
861.815	-0.8
861.983	-1.04
862.15	-0.34
862.318	1.56
862.485	1.31
862.653	-1.02
862.82	-0.93
862.988	2.38
863.155	0.03
863.322	-0.23
863.49	-1.81
863.657	0.19
863.824	1.06
863.992	-0.53
864.159	0.47
864.326	0.56
864.494	-0.4
864.661	1.9
864.828	-1.76
864.996	0.87
865.163	1.77
865.33	-0.62
865.497	-3.84
865.664	-0.97
865.832	-1.86
865.999	-0.87
866.166	-1.77
866.333	-0.35
866.5	0.26
866.667	-1.24
866.834	0.8
867.001	2.11
867.168	-2.53
867.335	0.37
867.502	-3.12
867.669	0.24
867.836	4.02
868.003	-0.11
868.17	-0.37
868.337	-1.49
868.504	2.71
868.671	-2
868.838	0.29
869.005	0.19
869.172	1.09
869.339	-0.62
869.505	-1.23
869.672	-0.98
869.839	1.97
870.006	-1.73
870.173	-0.78
870.339	0.92
870.506	3.82
870.673	-1.94
870.84	-0.66
871.006	-0.27
871.173	-0.55
871.34	0.02
871.506	-1.94
871.673	0.62
871.839	-1.17
872.006	-0.45
872.173	-1.66
872.339	1.75
872.506	1.1
872.672	0.82
872.839	-1.24
873.005	0.34
873.172	3.49
873.338	2.46
873.505	1.08
873.671	1.4
873.838	-0.28
874.004	-0.85
874.171	-0.8
874.337	1.27
874.503	0.16
874.67	0.83
874.836	-0.7
875.002	1.18
875.169	0.68
875.335	0.18
875.501	0.28
875.668	0.15
875.834	-1.09
876	-1.12
876.166	-1.27
876.332	0.49
876.499	4.26
876.665	-1.14
876.831	-0.31
876.997	2.51
877.163	-0.71
877.329	-2.5
877.495	-0.89
877.662	2.33
877.828	-0.71
877.994	-0.44
878.16	-2.07
878.326	-2.03
878.492	-0.14
878.658	-0.37
878.824	-1.07
878.99	0.23
879.156	-1.21
879.322	2.36
879.487	0.06
879.653	0.23
879.819	0.86
879.985	-0.07
880.151	0.71
880.317	1.18
880.483	0.17
880.648	0.94
880.814	-2.96
880.98	0.89
881.146	-3.05
881.312	-1.06
881.477	-0.09
881.643	-0.52
881.809	1.74
881.974	1.28
882.14	-3.06
882.306	-0.01
882.471	2.51
882.637	-0.95
882.803	0.15
882.968	3.91
883.134	2.96
883.299	-1.15
883.465	-0.24
883.63	0.45
883.796	2.22
883.961	0.91
884.127	0.71
884.292	-3.35
884.458	-1.9
884.623	-1.89
