Data from Apollo_Calib_20240827__AbsoluteIrradiance__247__03-16-02-101.txt Node

Date: Wed Aug 28 03:16:02 BST 2024
User: biology
Spectrometer: FLMT08252
Trigger mode: 0
Integration Time (sec): 5.000000E-1
Scans to average: 5
Electric dark correction enabled: true
Nonlinearity correction enabled: false
Boxcar width: 0
XAxis mode: Wavelengths
Number of Pixels in Spectrum: 3648
>>>>>Begin Spectral Data<<<<<
179.588	-0
179.809	-0
180.03	-0
180.251	-0
180.473	-0
180.694	0
180.915	0
181.136	-0
181.357	-0
181.578	-0
181.799	-0
182.02	-0
182.241	-0
182.462	-0
182.683	0
182.904	0
183.125	-0
183.346	-0
183.567	-0
183.788	-0
184.009	-0
184.23	0
184.451	0
184.672	-0
184.892	-0
185.113	0
185.334	0
185.555	-0
185.776	-0
185.996	0
186.217	0
186.438	0
186.659	-0
186.879	0
187.1	-0
187.321	-0
187.541	-0
187.762	0
187.983	0
188.203	-0
188.424	-0
188.644	-0
188.865	-0
189.086	0
189.306	-0
189.527	0
189.747	-0
189.968	-0
190.188	0
190.409	-0
190.629	0
190.849	-0
191.07	-0
191.29	0
191.511	0
191.731	-0
191.951	-0
192.172	0
192.392	-0
192.612	-0
192.833	0
193.053	0
193.273	0
193.493	-0
193.714	-0
193.934	0
194.154	0
194.374	0
194.594	-0
194.815	-0
195.035	0
195.255	-0
195.475	-0
195.695	0
195.915	0
196.135	-0
196.355	0
196.575	0
196.795	0
197.015	-0
197.235	-0
197.455	-0
197.675	0
197.895	-0
198.115	-0
198.335	0
198.555	-0
198.775	0
198.995	-0
199.214	0
199.434	-0
199.654	-0
199.874	-0
200.094	1.12
200.313	-0.31
200.533	-0.37
200.753	-0.45
200.973	0.62
201.192	0.44
201.412	-0.68
201.632	-0.28
201.851	1.09
202.071	-0.55
202.291	-0.49
202.51	-0.26
202.73	0.33
202.95	-0.43
203.169	-0.76
203.389	-0.07
203.608	0.32
203.828	-0.58
204.047	-0.68
204.267	0.6
204.486	0.5
204.706	0.37
204.925	-0.03
205.145	-0.11
205.364	0.37
205.583	0.61
205.803	-0.17
206.022	-0.37
206.242	0.35
206.461	0.37
206.68	-0.14
206.9	0.44
207.119	0.75
207.338	0.35
207.557	-0.11
207.777	0.07
207.996	-0.07
208.215	0.53
208.434	-0.09
208.654	-0.53
208.873	0.45
209.092	0.8
209.311	-0.17
209.53	-0.3
209.749	-0.11
209.968	-0.16
210.187	-0.15
210.407	-0.49
210.626	-0.14
210.845	0.1
211.064	0.09
211.283	-0.15
211.502	0.29
211.721	-0.03
211.94	-0.03
212.159	0.16
212.377	0.55
212.596	0.47
212.815	0.07
213.034	0.11
213.253	0.39
213.472	0.46
213.691	0.05
213.91	-0.36
214.128	-0.33
214.347	0.29
214.566	-0.47
214.785	-0.35
215.003	0.27
215.222	0.23
215.441	-0.05
215.66	-0.2
215.878	0.21
216.097	0.29
216.316	-0.29
216.534	-0.07
216.753	0.07
216.972	0.08
217.19	-0.11
217.409	-0.1
217.627	-0.25
217.846	-0.12
218.064	0.08
218.283	-0.06
218.501	0.54
218.72	0.27
218.938	-0.2
219.157	-0.13
219.375	0.41
219.594	0.19
219.812	-0.36
220.031	-0.11
220.249	0.34
220.467	0.24
220.686	-0.06
220.904	-0.13
221.122	0.01
221.341	0.34
221.559	0.08
221.777	-0.13
221.995	0
222.214	0.22
222.432	0.04
222.65	0.23
222.868	0.04
223.086	0.13
223.305	-0.04
223.523	-0.01
223.741	0.39
223.959	-0.17
224.177	-0.31
224.395	-0.1
224.613	0.09
224.831	0.21
225.049	-0.15
225.267	-0.06
225.485	0.03
225.703	-0
225.921	-0.09
226.139	-0.03
226.357	0.25
226.575	-0.01
226.793	-0.12
227.011	0.53
227.229	0.04
227.447	0.36
227.665	-0.1
227.883	-0.21
228.1	0.08
228.318	-0.01
228.536	-0.27
228.754	-0.12
228.972	0.19
229.189	0.2
229.407	-0.04
229.625	-0.05
229.843	0.17
230.06	0.1
230.278	-0.06
230.496	-0.01
230.713	0.04
230.931	0.22
231.149	-0.18
231.366	-0.17
231.584	0.01
231.801	0.33
232.019	-0.03
232.236	-0.12
232.454	-0.05
232.671	0.09
232.889	-0.01
233.106	-0.13
233.324	0.03
233.541	-0.06
233.759	0.02
233.976	-0.16
234.194	-0.1
234.411	-0.03
234.628	-0.1
234.846	-0.16
235.063	0.03
235.28	-0.06
235.498	-0
235.715	-0.15
235.932	0.12
236.149	-0.02
236.367	-0.12
236.584	0.03
236.801	-0.04
237.018	0.06
237.236	0.09
237.453	-0.16
237.67	0.12
237.887	0.06
238.104	-0.05
238.321	-0.02
238.538	-0.05
238.755	0.16
238.973	-0.11
239.19	0.02
239.407	0.07
239.624	-0.09
239.841	-0.11
240.058	-0.02
240.275	0.14
240.492	-0.03
240.709	0
240.925	-0.07
241.142	-0.04
241.359	-0.13
241.576	-0.04
241.793	-0.07
242.01	0.03
242.227	0.12
242.444	0.16
242.66	0.13
242.877	0.03
243.094	0.03
243.311	0.01
243.527	-0.02
243.744	0.06
243.961	-0.02
244.178	-0.02
244.394	-0.06
244.611	0.14
244.828	0.18
245.044	-0.04
245.261	-0.09
245.477	0.06
245.694	0.13
245.911	-0.09
246.127	-0.02
246.344	0.17
246.56	0.09
246.777	-0.09
246.993	0.04
247.21	0.02
247.426	0.07
247.643	0
247.859	-0.03
248.076	-0.03
248.292	0.27
248.508	0.03
248.725	0.05
248.941	0.01
249.157	0.11
249.374	-0.11
249.59	-0.01
249.806	-0.04
250.023	0.09
250.239	-0.06
250.455	-0.1
250.671	-0.05
250.888	0.09
251.104	0
251.32	0.02
251.536	-0.04
251.752	0.01
251.969	-0.03
252.185	-0.01
252.401	0.11
252.617	0.04
252.833	-0.01
253.049	0.08
253.265	0.05
253.481	0
253.697	-0.05
253.913	-0.12
254.129	0.02
254.345	0.04
254.561	-0.03
254.777	-0.07
254.993	0.08
255.209	0.02
255.425	-0.01
255.641	-0.03
255.857	0.12
256.073	0.05
256.288	-0.09
256.504	-0.06
256.72	-0.01
256.936	0.12
257.152	-0.06
257.367	-0.02
257.583	0
257.799	0.05
258.015	-0.06
258.23	-0.06
258.446	0.11
258.662	0.01
258.877	-0.01
259.093	-0.07
259.309	0.03
259.524	0.07
259.74	-0.02
259.955	-0.09
260.171	0.03
260.387	0.01
260.602	0.06
260.818	0.08
261.033	-0.07
261.249	-0.02
261.464	-0
261.68	-0.12
261.895	0.03
262.11	0.01
262.326	0.01
262.541	-0.14
262.757	0.09
262.972	0.05
263.187	0.05
263.403	0.02
263.618	0.09
263.833	0.06
264.049	-0.02
264.264	-0.04
264.479	0.05
264.694	0.11
264.91	-0.03
265.125	-0.02
265.34	0.05
265.555	0.11
265.77	-0.02
265.986	-0.04
266.201	0.01
266.416	0.06
266.631	0.01
266.846	-0.02
267.061	-0.02
267.276	0.09
267.491	-0.1
267.706	0.06
267.921	0.06
268.136	0.02
268.351	0.02
268.566	-0.06
268.781	0.1
268.996	0.06
269.211	-0.02
269.426	-0.06
269.641	0.02
269.856	0.1
270.071	-0.04
270.285	-0.07
270.5	0.07
270.715	0.01
270.93	-0
271.145	0.01
271.359	0.1
271.574	-0.01
271.789	0.01
272.004	-0.05
272.218	-0.04
272.433	0.08
272.648	-0.07
272.862	0.1
273.077	-0.02
273.292	-0.01
273.506	0.01
273.721	-0.04
273.936	-0.02
274.15	0.04
274.365	-0.06
274.579	0.01
274.794	0.03
275.008	0.1
275.223	-0.09
275.437	-0.02
275.652	0.07
275.866	0.1
276.081	0.01
276.295	0.01
276.509	0.04
276.724	0.02
276.938	0.01
277.153	0.03
277.367	0.15
277.581	-0.02
277.796	-0.04
278.01	-0.09
278.224	0.1
278.438	0.14
278.653	-0.01
278.867	-0.02
279.081	-0.18
279.295	0
279.51	-0.01
279.724	-0.04
279.938	0.02
280.152	-0.02
280.366	-0.01
280.58	0.01
280.794	0.07
281.008	0.04
281.222	0.09
281.437	0.11
281.651	0.05
281.865	0.07
282.079	-0
282.293	-0.09
282.507	-0.03
282.721	-0
282.935	-0.03
283.148	-0.08
283.362	-0.04
283.576	-0.06
283.79	0.02
284.004	-0.02
284.218	0.05
284.432	-0.06
284.646	0.05
284.859	-0.08
285.073	0.01
285.287	0.05
285.501	0.03
285.714	0.03
285.928	-0.01
286.142	0.06
286.356	-0
286.569	-0.04
286.783	0.06
286.997	0.01
287.21	0.04
287.424	0.03
287.637	0.03
287.851	0
288.065	0.05
288.278	0.01
288.492	0.05
288.705	-0.01
288.919	0.08
289.132	-0.06
289.346	0.07
289.559	-0.06
289.773	-0.06
289.986	0.01
290.2	-0.01
290.413	0.01
290.626	-0.04
290.84	0.01
291.053	-0.03
291.267	0.05
291.48	0
291.693	0.04
291.906	-0.01
292.12	0.03
292.333	0.02
292.546	-0
292.76	0.06
292.973	0.02
293.186	0.07
293.399	-0.02
293.612	0.06
293.826	0.02
294.039	-0
294.252	-0.05
294.465	0.04
294.678	0.03
294.891	0.08
295.104	-0.02
295.317	0.02
295.53	0.05
295.743	-0
295.956	0
296.169	0.11
296.382	0.05
296.595	-0.02
296.808	-0.06
297.021	0.05
297.234	0.05
297.447	0.03
297.66	0.03
297.873	0.08
298.086	0.01
298.299	0
298.511	-0.04
298.724	-0
298.937	-0.03
299.15	0.02
299.363	-0.02
299.575	0.04
299.788	0.06
300.001	-0.02
300.213	-0.03
300.426	-0.03
300.639	-0.01
300.852	0.02
301.064	0.1
301.277	0.08
301.489	0.06
301.702	0.01
301.915	0.02
302.127	-0.03
302.34	0.03
302.552	0.06
302.765	-0.07
302.977	0.05
303.19	0.02
303.402	0.01
303.615	-0.04
303.827	0.02
304.04	-0.01
304.252	0.07
304.464	0.01
304.677	0.12
304.889	0.07
305.102	-0
305.314	-0.02
305.526	0.04
305.739	0.05
305.951	-0.03
306.163	-0.03
306.375	0.07
306.588	-0.01
306.8	0.02
307.012	-0.02
307.224	0.02
307.436	0.11
307.649	-0.05
307.861	-0
308.073	0.06
308.285	-0.03
308.497	-0.05
308.709	-0
308.921	0.03
309.133	0.07
309.346	0.01
309.558	0.02
309.77	0.04
309.982	0.08
310.194	0.06
310.406	-0.01
310.617	0.09
310.829	0.05
311.041	0.01
311.253	0
311.465	-0.04
311.677	0.01
311.889	0.02
312.101	-0.02
312.313	0.05
312.524	0.05
312.736	-0.02
312.948	-0
313.16	0.09
313.372	0.04
313.583	0.05
313.795	-0.03
314.007	-0
314.218	0.01
314.43	-0.01
314.642	0
314.853	-0.04
315.065	0.05
315.277	-0
315.488	0.03
315.7	0.05
315.912	0.03
316.123	-0.02
316.335	-0.03
316.546	0.11
316.758	0.06
316.969	-0
317.181	0.02
317.392	0.01
317.604	0.07
317.815	-0.1
318.026	0
318.238	-0.03
318.449	0.04
318.661	-0.01
318.872	-0.07
319.083	-0.05
319.295	0.03
319.506	0.01
319.717	0
319.929	0.06
320.14	0.01
320.351	-0
320.562	-0.05
320.774	0
320.985	0.03
321.196	-0.02
321.407	-0.05
321.618	0.01
321.829	0.04
322.041	0.06
322.252	-0.03
322.463	0.06
322.674	0.04
322.885	-0.05
323.096	-0.02
323.307	0.03
323.518	0.08
323.729	-0.01
323.94	0.01
324.151	-0.02
324.362	0.01
324.573	0.04
324.784	-0.04
324.995	0.05
325.206	0.04
325.417	0
325.628	-0.03
325.838	0.01
326.049	0.04
326.26	0.01
326.471	0.01
326.682	0.04
326.892	0.01
327.103	-0.04
327.314	-0.02
327.525	0.08
327.735	0.04
327.946	-0.03
328.157	-0.03
328.368	0.04
328.578	-0.01
328.789	0.08
328.999	-0
329.21	-0.01
329.421	0.01
329.631	0
329.842	-0.01
330.052	0.03
330.263	0.07
330.473	0.03
330.684	-0.02
330.894	0.04
331.105	0.03
331.315	0
331.526	-0.08
331.736	0.06
331.947	0.02
332.157	0.05
332.367	-0.07
332.578	0.04
332.788	0.11
332.999	0.04
333.209	0.01
333.419	-0.02
333.629	0.07
333.84	0.04
334.05	0.04
334.26	0.08
334.47	0.01
334.681	0.04
334.891	-0.01
335.101	0.07
335.311	0.09
335.521	-0.02
335.732	-0.05
335.942	0.08
336.152	0.04
336.362	0.03
336.572	0.03
336.782	0.06
336.992	-0
337.202	0
337.412	-0.02
337.622	0.07
337.832	0.04
338.042	-0.01
338.252	-0.03
338.462	0
338.672	0
338.882	0.02
339.092	0.02
339.302	0.07
339.511	0.01
339.721	-0.05
339.931	-0.02
340.141	0.09
340.351	0.07
340.561	0.06
340.77	0.02
340.98	0.01
341.19	0.08
341.4	-0.03
341.609	-0.05
341.819	0.02
342.029	0
342.238	0.02
342.448	-0.03
342.658	0.07
342.867	0.01
343.077	0.03
343.286	0.02
343.496	0.01
343.706	0.07
343.915	-0.02
344.125	0.01
344.334	0.04
344.544	-0.03
344.753	0.05
344.963	-0.01
345.172	-0.01
345.381	0
345.591	-0.05
345.8	0
346.01	0.12
346.219	0.08
346.428	-0.14
346.638	-0.01
346.847	0.02
347.056	0.07
347.266	-0
347.475	0
347.684	0.06
347.893	0.05
348.103	0.06
348.312	0.02
348.521	0
348.73	0.03
348.94	0.11
349.149	-0.02
349.358	-0.02
349.567	-0.02
349.776	-0.06
349.985	0.01
350.194	-0
350.403	0.06
350.612	-0.02
350.821	0.01
351.03	0.01
351.239	-0.03
351.448	0.01
351.657	-0.02
351.866	0.13
352.075	0.01
352.284	0.1
352.493	-0.02
352.702	0.09
352.911	0.01
353.12	0.02
353.329	0.03
353.538	-0
353.746	0.03
353.955	-0.02
354.164	-0
354.373	-0.01
354.582	0.05
354.79	0.04
354.999	0.09
355.208	0.01
355.416	0.12
355.625	-0.01
355.834	-0.01
356.042	0.01
356.251	-0.02
356.46	-0.01
356.668	0.03
356.877	0.1
357.085	0.03
357.294	-0.09
357.503	0.09
357.711	0.01
357.92	0.18
358.128	0.04
358.337	0.02
358.545	0.07
358.754	-0.01
358.962	0.04
359.17	0.01
359.379	0.04
359.587	0.08
359.796	-0
360.004	0.09
360.212	0.01
360.421	0.07
360.629	0.03
360.837	0.05
361.046	0.08
361.254	0.13
361.462	0
361.67	-0.04
361.879	0.05
362.087	0.12
362.295	0.03
362.503	0.03
362.711	-0.02
362.92	0.03
363.128	-0.01
363.336	0.03
363.544	-0.01
363.752	0
363.96	0
364.168	-0.01
364.376	0.03
364.584	-0.01
364.792	0.09
365	0.03
365.208	0.03
365.416	0.06
365.624	0.05
365.832	-0.02
366.04	0.07
366.248	0.05
366.456	0.05
366.664	0.09
366.872	0.04
367.079	-0.01
367.287	0.06
367.495	0.03
367.703	-0.01
367.911	0.05
368.118	-0.02
368.326	0.01
368.534	0.01
368.742	0.09
368.949	-0.02
369.157	-0.01
369.365	0.06
369.572	0.03
369.78	0.01
369.988	0.06
370.195	0.05
370.403	0.04
370.61	-0.03
370.818	0.04
371.026	0.12
371.233	-0.02
371.441	0.04
371.648	0.05
371.856	0.03
372.063	0.05
372.271	0
372.478	0.02
372.685	0.01
372.893	0.09
373.1	0
373.308	-0
373.515	0.15
373.722	0.08
373.93	0.03
374.137	0.07
374.344	0.09
374.552	0.07
374.759	0.06
374.966	0.03
375.173	0.03
375.381	0.11
375.588	-0
375.795	-0.03
376.002	0.04
376.209	0.02
376.417	0.03
376.624	-0.04
376.831	0.04
377.038	0.03
377.245	-0.04
377.452	0.03
377.659	0.06
377.866	0.02
378.073	0.05
378.28	0.02
378.487	0.04
378.694	0.03
378.901	0.03
379.108	0.03
379.315	0.06
379.522	0.12
379.729	0.04
379.936	0.03
380.143	0.05
380.35	-0
380.557	-0.02
380.763	0.06
380.97	0.04
381.177	0.06
381.384	0.01
381.591	0.05
381.797	0.04
382.004	0.06
382.211	0.08
382.418	0
382.624	0.06
382.831	0.1
383.038	-0.01
383.244	0.07
383.451	0
383.658	0.09
383.864	0.03
384.071	0.02
384.277	0.12
384.484	0
384.69	0.07
384.897	0.02
385.103	0
385.31	0.05
385.516	0.01
385.723	-0.01
385.929	0.03
386.136	0.06
386.342	0.03
386.549	0.01
386.755	0.08
386.961	0.05
387.168	0.02
387.374	0.07
387.58	0.08
387.787	0.02
387.993	0.05
388.199	0.03
388.406	0.01
388.612	0.02
388.818	-0
389.024	0.02
389.231	0.04
389.437	0.13
389.643	0.11
389.849	0.02
390.055	0.04
390.261	0.04
390.467	0.07
390.674	-0.03
390.88	0.05
391.086	0.08
391.292	0.01
391.498	0.08
391.704	0.05
391.91	0.06
392.116	0.04
392.322	-0.05
392.528	0.07
392.734	0.07
392.94	0.05
393.146	0.09
393.352	0.08
393.557	0.07
393.763	0.07
393.969	0.08
394.175	0.13
394.381	0.06
394.587	0.02
394.792	0.1
394.998	0.11
395.204	0.1
395.41	0.05
395.615	0.1
395.821	0.12
396.027	0.07
396.233	0.11
396.438	0.09
396.644	0.16
396.85	0.12
397.055	0.11
397.261	0.1
397.466	0.06
397.672	0.1
397.878	0.12
398.083	0.15
398.289	0.09
398.494	0.21
398.7	0.17
398.905	0.1
399.111	0.21
399.316	0.1
399.522	0.18
399.727	0.15
399.932	0.13
400.138	0.18
400.343	0.24
400.549	0.2
400.754	0.22
400.959	0.23
401.165	0.2
401.37	0.21
401.575	0.38
401.78	0.26
401.986	0.22
402.191	0.22
402.396	0.28
402.601	0.32
402.807	0.31
403.012	0.33
403.217	0.4
403.422	0.33
403.627	0.39
403.832	0.35
404.037	0.5
404.243	0.43
404.448	0.43
404.653	0.46
404.858	0.55
405.063	0.53
405.268	0.53
405.473	0.47
405.678	0.57
405.883	0.78
406.088	0.65
406.293	0.61
406.498	0.69
406.703	0.69
406.907	0.69
407.112	0.74
407.317	0.87
407.522	0.93
407.727	0.84
407.932	0.91
408.136	1.11
408.341	1.02
408.546	1.11
408.751	1.11
408.956	1.18
409.16	1.32
409.365	1.29
409.57	1.32
409.774	1.4
409.979	1.45
410.184	1.53
410.388	1.52
410.593	1.75
410.798	1.76
411.002	1.85
411.207	1.93
411.411	1.95
411.616	1.96
411.82	2.12
412.025	2.24
412.229	2.26
412.434	2.47
412.638	2.55
412.843	2.56
413.047	2.58
413.252	2.7
413.456	2.88
413.66	2.99
413.865	3.02
414.069	3.17
414.273	3.27
414.478	3.32
414.682	3.48
414.886	3.68
415.091	3.67
415.295	3.86
415.499	4.11
415.703	4.09
415.908	4.33
416.112	4.24
416.316	4.65
416.52	4.73
416.724	4.79
416.929	5
417.133	5.39
417.337	5.3
417.541	5.49
417.745	5.62
417.949	5.82
418.153	6.12
418.357	6.16
418.561	6.57
418.765	6.48
418.969	6.85
419.173	7.1
419.377	7.07
419.581	7.59
419.785	7.55
419.989	7.64
420.193	8.12
420.397	8.16
420.601	8.28
420.804	8.55
421.008	8.44
421.212	8.72
421.416	8.63
421.62	8.66
421.823	8.59
422.027	8.79
422.231	8.64
422.435	8.65
422.638	8.59
422.842	8.61
423.046	8.85
423.249	9
423.453	8.75
423.657	8.85
423.86	8.97
424.064	9.04
424.268	9.05
424.471	8.85
424.675	9.06
424.878	8.86
425.082	8.96
425.285	9.16
425.489	8.68
425.692	8.68
425.896	8.46
426.099	8.45
426.303	8.31
426.506	8.3
426.71	8.35
426.913	8.26
427.116	8.09
427.32	7.93
427.523	7.62
427.726	7.75
427.93	7.5
428.133	7.66
428.336	7.42
428.54	7.29
428.743	7.19
428.946	7.17
429.149	6.88
429.353	6.67
429.556	6.42
429.759	6.12
429.962	5.93
430.165	5.82
430.368	5.33
430.571	5.2
430.775	5.1
430.978	4.79
431.181	4.66
431.384	4.59
431.587	4.42
431.79	4.42
431.993	4.18
432.196	4.11
432.399	4.16
432.602	4.09
432.805	3.92
433.008	4.08
433.211	3.76
433.414	3.79
433.616	3.78
433.819	3.57
434.022	3.42
434.225	3.4
434.428	3.33
434.631	3.4
434.833	3.09
435.036	3.09
435.239	3.11
435.442	3
435.645	2.92
435.847	2.9
436.05	2.84
436.253	2.74
436.455	2.65
436.658	2.47
436.861	2.65
437.063	2.51
437.266	2.35
437.468	2.38
437.671	2.46
437.874	2.28
438.076	2.11
438.279	2.15
438.481	2.07
438.684	2.17
438.886	2.01
439.089	1.97
439.291	1.94
439.494	1.93
439.696	1.89
439.899	1.84
440.101	1.86
440.303	1.74
440.506	1.83
440.708	1.74
440.91	1.71
441.113	1.65
441.315	1.59
441.517	1.47
441.72	1.56
441.922	1.38
442.124	1.33
442.326	1.39
442.529	1.44
442.731	1.23
442.933	1.35
443.135	1.16
443.337	1.09
443.539	1.15
443.742	1.07
443.944	1.11
444.146	0.99
444.348	1
444.55	0.92
444.752	0.93
444.954	0.9
445.156	0.86
445.358	0.87
445.56	0.91
445.762	0.8
445.964	0.8
446.166	0.73
446.368	0.67
446.57	0.81
446.772	0.71
446.974	0.67
447.175	0.7
447.377	0.66
447.579	0.65
447.781	0.52
447.983	0.66
448.184	0.62
448.386	0.56
448.588	0.47
448.79	0.54
448.991	0.55
449.193	0.54
449.395	0.54
449.597	0.56
449.798	0.47
450	0.5
450.202	0.43
450.403	0.45
450.605	0.51
450.806	0.43
451.008	0.34
451.21	0.39
451.411	0.42
451.613	0.4
451.814	0.37
452.016	0.47
452.217	0.4
452.419	0.42
452.62	0.38
452.821	0.43
453.023	0.38
453.224	0.36
453.426	0.3
453.627	0.33
453.828	0.37
454.03	0.33
454.231	0.39
454.432	0.29
454.634	0.42
454.835	0.29
455.036	0.28
455.238	0.31
455.439	0.38
455.64	0.18
455.841	0.25
456.042	0.38
456.244	0.29
456.445	0.24
456.646	0.18
456.847	0.17
457.048	0.29
457.249	0.25
457.45	0.49
457.651	0.21
457.852	0.28
458.054	0.22
458.255	0.19
458.456	0.28
458.657	0.2
458.858	0.19
459.058	0.17
459.259	0.22
459.46	0.16
459.661	0.14
459.862	0.22
460.063	0.12
460.264	0.22
460.465	0.11
460.666	0.25
460.866	0.16
461.067	0.14
461.268	0.13
461.469	0.15
461.67	0.15
461.87	0.11
462.071	0.13
462.272	0.1
462.473	0.11
462.673	0.2
462.874	0.1
463.075	0.13
463.275	0.11
463.476	0.12
463.676	0.16
463.877	0.13
464.078	0.1
464.278	0.18
464.479	0.11
464.679	0.11
464.88	0.12
465.08	0.18
465.281	0.09
465.481	0.08
465.682	0.11
465.882	0.16
466.083	0.12
466.283	0.12
466.483	0.11
466.684	0.07
466.884	0.06
467.085	0.07
467.285	0.13
467.485	0.05
467.686	0.09
467.886	0.06
468.086	0.09
468.286	0.07
468.487	0.09
468.687	0.03
468.887	0.06
469.087	0.11
469.287	0.09
469.488	0.04
469.688	0.11
469.888	0.09
470.088	0.12
470.288	0.09
470.488	0.1
470.688	0.06
470.888	0.08
471.088	0.02
471.288	0.13
471.488	0.09
471.688	0.12
471.888	0.06
472.088	0.13
472.288	0.09
472.488	0.01
472.688	0.07
472.888	0.06
473.088	0.09
473.288	0.07
473.488	0.05
473.688	0.13
473.887	0.06
474.087	0.02
474.287	0.07
474.487	0.04
474.687	0.05
474.886	0.03
475.086	0.04
475.286	0.09
475.486	0.08
475.685	0.08
475.885	0.04
476.085	0.06
476.284	0.06
476.484	0.06
476.684	0.08
476.883	0.11
477.083	0.08
477.282	0.03
477.482	0.11
477.681	0.11
477.881	0.06
478.08	0.04
478.28	0.04
478.479	0.03
478.679	0.13
478.878	0.01
479.078	0.02
479.277	0.02
479.477	0.05
479.676	0.1
479.875	0.08
480.075	-0.02
480.274	0.08
480.473	0.04
480.673	0.01
480.872	0.08
481.071	0.07
481.271	0.06
481.47	0.01
481.669	0.04
481.868	0.05
482.067	-0
482.267	0.03
482.466	-0
482.665	0.01
482.864	-0
483.063	-0.01
483.262	0.05
483.461	0.12
483.661	0.06
483.86	0.03
484.059	0.05
484.258	0.02
484.457	0.04
484.656	0.03
484.855	0.1
485.054	0.01
485.253	0
485.452	-0
485.651	0.02
485.849	0.04
486.048	0.03
486.247	-0.02
486.446	0.04
486.645	0.01
486.844	0.02
487.043	0.02
487.241	0.03
487.44	0
487.639	-0
487.838	0.04
488.037	0.02
488.235	0.07
488.434	0.04
488.633	-0.02
488.831	0.03
489.03	0.07
489.229	0.03
489.427	0.01
489.626	0.05
489.825	0.08
490.023	0.03
490.222	-0
490.42	0.03
490.619	0.07
490.817	0.02
491.016	-0.01
491.214	0.05
491.413	0
491.611	0.01
491.81	0.02
492.008	0.05
492.207	0.03
492.405	0.04
492.604	-0.03
492.802	0.01
493	0.02
493.199	0.02
493.397	0.03
493.595	0.01
493.794	0.04
493.992	0.05
494.19	0.02
494.388	0.03
494.587	-0.01
494.785	0.02
494.983	-0.03
495.181	-0.01
495.379	0.03
495.578	0
495.776	0.04
495.974	0.01
496.172	0.01
496.37	-0
496.568	0.01
496.766	0
496.964	0.03
497.162	0.04
497.36	-0.01
497.558	0.02
497.756	0.03
497.954	0.01
498.152	-0.01
498.35	0.03
498.548	0.01
498.746	0.03
498.944	0.01
499.142	0.02
499.34	-0.01
499.538	0.01
499.736	-0.01
499.933	0.07
500.131	0.05
500.329	0
500.527	0.04
500.725	0.04
500.922	0.05
501.12	0.02
501.318	0.04
501.516	0
501.713	0.03
501.911	0.01
502.109	0
502.306	0.02
502.504	0.02
502.701	0
502.899	-0.01
503.097	0.05
503.294	0.03
503.492	0.02
503.689	0.04
503.887	0.04
504.084	0.05
504.282	0.02
504.479	-0.01
504.677	0.03
504.874	-0
505.072	0.02
505.269	0.01
505.466	0.04
505.664	0.02
505.861	-0.01
506.059	0
506.256	0.03
506.453	-0
506.651	0.03
506.848	0.03
507.045	0.02
507.242	0.01
507.44	-0
507.637	0.02
507.834	0.02
508.031	0.06
508.229	-0.01
508.426	0.03
508.623	0.02
508.82	0.01
509.017	-0.02
509.214	-0.01
509.411	0
509.608	-0.01
509.805	0.02
510.003	0
510.2	0.01
510.397	0.05
510.594	-0.02
510.791	-0.03
510.988	-0.01
511.184	0.04
511.381	0.02
511.578	-0.02
511.775	0.03
511.972	0.01
512.169	0
512.366	-0
512.563	0.03
512.76	-0.01
512.956	-0
513.153	0
513.35	0.01
513.547	-0.01
513.744	-0.01
513.94	-0.01
514.137	0.02
514.334	0.02
514.53	0
514.727	0.01
514.924	0.07
515.12	-0.01
515.317	-0.02
515.514	-0.01
515.71	-0.02
515.907	-0.01
516.103	0.02
516.3	0.01
516.497	0.03
516.693	0.03
516.89	0.01
517.086	0
517.283	0.06
517.479	0.01
517.676	0.02
517.872	0.01
518.068	-0.02
518.265	0
518.461	-0.01
518.658	-0
518.854	0.02
519.05	0.03
519.247	0.01
519.443	0.04
519.639	0.03
519.836	0.02
520.032	0.01
520.228	0.01
520.424	0.06
520.621	0.03
520.817	0.01
521.013	0.02
521.209	0.01
521.405	0.05
521.601	0.02
521.798	0.02
521.994	0.04
522.19	-0.02
522.386	-0.03
522.582	0.01
522.778	0.01
522.974	-0.01
523.17	0.02
523.366	0.02
523.562	0.03
523.758	0.01
523.954	-0.01
524.15	0.01
524.346	0.02
524.542	-0.01
524.738	-0.02
524.934	-0.01
525.129	0.03
525.325	0.02
525.521	0.01
525.717	0.04
525.913	0.01
526.109	0.01
526.304	0.01
526.5	0.02
526.696	0.04
526.892	0
527.087	0.04
527.283	-0
527.479	0.03
527.674	-0
527.87	0.03
528.066	0.01
528.261	0.02
528.457	0.04
528.653	-0.01
528.848	0
529.044	0.02
529.239	0.02
529.435	0.03
529.63	0.02
529.826	0.05
530.021	0.01
530.217	0.04
530.412	-0
530.608	-0
530.803	0
530.999	-0.02
531.194	-0.03
531.389	0.02
531.585	-0.04
531.78	-0
531.975	0.02
532.171	0.04
532.366	0.01
532.561	-0.01
532.757	0
532.952	-0.01
533.147	0.03
533.342	0
533.538	-0
533.733	0.04
533.928	-0
534.123	-0
534.318	-0.03
534.513	-0
534.709	0.01
534.904	-0.01
535.099	-0.01
535.294	-0.02
535.489	0.02
535.684	-0.01
535.879	-0.03
536.074	0.02
536.269	-0.03
536.464	0.01
536.659	0
536.854	-0.01
537.049	0.01
537.244	-0
537.439	-0.02
537.634	0.02
537.828	-0.01
538.023	-0.01
538.218	-0.03
538.413	0.02
538.608	-0.01
538.803	0.02
538.997	-0.04
539.192	0.03
539.387	0.02
539.582	0.02
539.776	0.02
539.971	-0.01
540.166	0.01
540.36	-0.03
540.555	0.01
540.75	-0.01
540.944	-0.02
541.139	-0.02
541.334	-0
541.528	0.02
541.723	0.01
541.917	0
542.112	-0.03
542.306	-0.01
542.501	0.01
542.695	0.01
542.89	-0.01
543.084	0.01
543.279	-0
543.473	0.01
543.668	0.01
543.862	0.01
544.056	0.02
544.251	0
544.445	0
544.64	-0.02
544.834	-0.02
545.028	0
545.222	0.01
545.417	0.03
545.611	0.02
545.805	0
546	-0
546.194	0.01
546.388	-0.01
546.582	0.04
546.776	0
546.97	0.03
547.165	0.02
547.359	0.03
547.553	-0.03
547.747	0.01
547.941	0.03
548.135	0.01
548.329	0.01
548.523	-0.01
548.717	0.01
548.911	-0.02
549.105	-0.01
549.299	0.02
549.493	0.02
549.687	0.01
549.881	0.01
550.075	0.02
550.269	-0.02
550.463	0.04
550.657	-0.02
550.85	0.02
551.044	-0.02
551.238	0.01
551.432	-0.02
551.626	-0.02
551.82	0.02
552.013	-0.02
552.207	-0
552.401	0.01
552.594	0.03
552.788	-0.01
552.982	0.03
553.176	-0.02
553.369	0.02
553.563	0
553.756	-0.02
553.95	-0.02
554.144	0.01
554.337	0.03
554.531	0.01
554.724	0
554.918	-0.03
555.111	0.04
555.305	0.01
555.498	0.04
555.692	0.03
555.885	-0.02
556.079	-0
556.272	-0.01
556.466	0.03
556.659	0
556.852	-0.01
557.046	-0.01
557.239	0.02
557.432	-0.02
557.626	-0.01
557.819	0
558.012	0.04
558.206	0.03
558.399	0
558.592	0.01
558.785	-0.02
558.979	0.01
559.172	0.02
559.365	0.03
559.558	0.01
559.751	-0
559.944	0.02
560.138	-0.01
560.331	-0.01
560.524	-0.03
560.717	0.01
560.91	0.02
561.103	0.02
561.296	-0.01
561.489	0
561.682	0
561.875	0.04
562.068	0.02
562.261	0.01
562.454	0.04
562.647	-0.01
562.84	0.01
563.032	-0.01
563.225	0.03
563.418	-0
563.611	-0.02
563.804	0
563.997	-0.01
564.19	-0.03
564.382	0
564.575	0.01
564.768	-0.01
564.961	-0
565.153	-0.02
565.346	0.02
565.539	0.02
565.731	0.01
565.924	0.04
566.117	0.01
566.309	0.02
566.502	0
566.695	-0
566.887	0.01
567.08	0.02
567.272	-0
567.465	-0.03
567.657	0.03
567.85	0.03
568.042	0.01
568.235	0.04
568.427	-0.01
568.62	0.02
568.812	0.04
569.005	0.01
569.197	-0.03
569.389	0.03
569.582	0.01
569.774	-0.01
569.966	-0.03
570.159	-0.02
570.351	0.03
570.543	-0.02
570.736	0.02
570.928	-0
571.12	0.01
571.312	0.01
571.505	-0.03
571.697	0.04
571.889	-0.02
572.081	-0.01
572.273	-0.03
572.465	0.03
572.658	-0.01
572.85	0.01
573.042	-0.03
573.234	-0.02
573.426	0.05
573.618	-0.03
573.81	-0
574.002	0.04
574.194	0.04
574.386	-0.03
574.578	-0.05
574.77	-0.02
574.962	0.01
575.154	-0.03
575.346	0.01
575.538	0.02
575.729	-0.02
575.921	-0.01
576.113	0
576.305	0.02
576.497	0
576.689	-0.01
576.88	-0.02
577.072	0.04
577.264	0.01
577.456	-0
577.647	-0.07
577.839	0.02
578.031	0.02
578.223	-0.03
578.414	-0.03
578.606	0.03
578.798	0.01
578.989	-0.01
579.181	-0
579.372	-0.02
579.564	-0.01
579.755	-0.01
579.947	0
580.139	0.01
580.33	-0.06
580.522	-0.02
580.713	-0.07
580.905	-0.03
581.096	0.01
581.287	0.01
581.479	0.01
581.67	0.02
581.862	-0
582.053	-0.03
582.244	-0.05
582.436	-0.01
582.627	-0.01
582.818	-0.01
583.01	-0.06
583.201	0.02
583.392	0.01
583.583	-0.01
583.775	-0.01
583.966	-0.03
584.157	0.04
584.348	-0.01
584.54	-0.06
584.731	0.03
584.922	0.01
585.113	-0.02
585.304	0.01
585.495	0.04
585.686	-0.02
585.877	0.01
586.068	0.02
586.259	0.02
586.45	0.01
586.641	-0.02
586.832	-0.04
587.023	0.01
587.214	-0
587.405	0
587.596	-0.02
587.787	0.03
587.978	0.01
588.169	-0.04
588.36	-0.01
588.551	-0
588.742	-0.05
588.932	0.01
589.123	-0.02
589.314	0.04
589.505	0.02
589.696	-0
589.886	-0.04
590.077	-0.05
590.268	0.02
590.458	-0.05
590.649	-0.03
590.84	0.03
591.03	-0.02
591.221	-0.03
591.412	-0.05
591.602	0.01
591.793	0.02
591.984	-0.06
592.174	0.02
592.365	0.06
592.555	-0.02
592.746	0.03
592.936	-0
593.127	0.03
593.317	0.05
593.508	-0.02
593.698	-0.01
593.889	-0.01
594.079	0.01
594.269	-0.03
594.46	-0.02
594.65	-0.01
594.84	-0.02
595.031	-0.05
595.221	-0
595.411	-0.06
595.602	0.02
595.792	-0
595.982	-0.01
596.172	0.04
596.363	0
596.553	0.01
596.743	0.01
596.933	0.01
597.123	0.04
597.314	-0.04
597.504	-0.03
597.694	0.05
597.884	0.02
598.074	-0.02
598.264	-0.03
598.454	0.02
598.644	0
598.834	-0.01
599.024	-0.08
599.214	-0.02
599.404	0.01
599.594	-0.05
599.784	-0.01
599.974	0.03
600.164	0.03
600.354	-0.04
600.544	-0.05
600.734	0.03
600.924	0.03
601.114	-0.03
601.303	0.01
601.493	0.01
601.683	0.01
601.873	-0
602.063	-0.04
602.252	0.03
602.442	-0.08
602.632	-0.03
602.821	-0.03
603.011	0
603.201	-0.01
603.39	-0.03
603.58	-0.02
603.77	0.04
603.959	0.03
604.149	-0.02
604.339	-0.01
604.528	0.03
604.718	0.05
604.907	-0.02
605.097	-0.03
605.286	-0.02
605.476	0.05
605.665	0.01
605.855	-0.02
606.044	0.03
606.234	-0
606.423	-0.02
606.612	-0.04
606.802	0.01
606.991	0
607.181	0.01
607.37	-0.05
607.559	0
607.749	-0.08
607.938	0
608.127	-0
608.316	-0.04
608.506	0.03
608.695	-0.02
608.884	-0.02
609.073	0.01
609.263	0.01
609.452	0.04
609.641	0.01
609.83	-0.02
610.019	0.01
610.208	-0.01
610.397	-0.03
610.586	0.01
610.775	-0.03
610.965	-0.01
611.154	-0.02
611.343	-0.01
611.532	-0
611.721	-0.02
611.91	-0.02
612.099	0.02
612.287	0
612.476	-0.02
612.665	0.01
612.854	-0
613.043	0.03
613.232	-0.03
613.421	-0.04
613.61	0
613.798	-0.02
613.987	0.03
614.176	-0.01
614.365	0.04
614.554	0.01
614.742	0.02
614.931	-0.03
615.12	0.02
615.309	-0.04
615.497	0.02
615.686	-0.05
615.875	0.02
616.063	0.02
616.252	-0.04
616.44	-0.01
616.629	0.01
616.818	0.03
617.006	0
617.195	-0.02
617.383	0.01
617.572	-0.01
617.76	-0.03
617.949	-0.03
618.137	0.03
618.326	0.02
618.514	-0.02
618.703	-0.01
618.891	0.05
619.079	-0.06
619.268	0.02
619.456	-0.02
619.644	0.04
619.833	-0.02
620.021	-0.01
620.209	-0.03
620.398	-0.01
620.586	-0
620.774	0.01
620.962	-0
621.151	0.05
621.339	0.01
621.527	-0.03
621.715	-0.05
621.903	-0.03
622.092	-0.08
622.28	-0.01
622.468	-0.02
622.656	-0.01
622.844	0.03
623.032	-0.03
623.22	-0.08
623.408	0.02
623.596	0.06
623.784	0.03
623.972	-0.04
624.16	-0.02
624.348	0.06
624.536	-0
624.724	-0.02
624.912	0.05
625.1	0.04
625.288	-0.07
625.476	-0.04
625.664	0.03
625.851	-0
626.039	-0.01
626.227	-0.01
626.415	0.01
626.603	-0.05
626.79	0.02
626.978	-0
627.166	0.03
627.354	0
627.541	-0.03
627.729	-0.08
627.917	-0.02
628.104	0.01
628.292	-0.01
628.48	-0.01
628.667	-0.02
628.855	0.01
629.042	0.03
629.23	-0.01
629.418	-0.03
629.605	0.01
629.793	-0.03
629.98	0
630.168	0.02
630.355	0
630.543	0.03
630.73	-0.07
630.917	0.02
631.105	0.03
631.292	-0.04
631.48	-0
631.667	0.07
631.854	-0.01
632.042	-0.03
632.229	-0.05
632.416	0.02
632.604	-0
632.791	-0.06
632.978	0.02
633.165	-0.02
633.353	0.03
633.54	0.02
633.727	-0.08
633.914	-0.04
634.101	-0.06
634.289	0.04
634.476	-0.02
634.663	-0.03
634.85	0.01
635.037	-0.06
635.224	-0.05
635.411	0.02
635.598	0.06
635.785	-0.04
635.972	-0.02
636.159	0.04
636.346	-0.06
636.533	0
636.72	-0.03
636.907	-0.04
637.094	0.02
637.281	-0.05
637.468	-0.01
637.655	-0.03
637.842	0.01
638.029	-0.05
638.215	0
638.402	0.01
638.589	-0.01
638.776	-0.04
638.963	-0.01
639.149	0.01
639.336	0.06
639.523	-0.01
639.709	-0
639.896	-0.01
640.083	0.07
640.27	-0.01
640.456	-0.02
640.643	-0.01
640.829	-0.09
641.016	-0.03
641.203	-0.04
641.389	0.01
641.576	0.01
641.762	-0.04
641.949	-0.04
642.135	0.01
642.322	0.02
642.508	-0.08
642.695	-0.03
642.881	-0.02
643.068	-0
643.254	-0.01
643.441	0.02
643.627	-0
643.813	-0.02
644	0.03
644.186	-0.04
644.372	0.01
644.559	0.02
644.745	-0.03
644.931	-0.04
645.118	-0.03
645.304	-0.02
645.49	-0.02
645.676	-0
645.862	0.01
646.049	0.07
646.235	-0
646.421	0.06
646.607	0.06
646.793	-0.02
646.979	-0.06
647.165	0.03
647.352	-0.03
647.538	0.06
647.724	-0.05
647.91	0.03
648.096	0.03
648.282	0.07
648.468	-0.01
648.654	-0.03
648.84	-0
649.026	0.02
649.212	-0.02
649.397	-0.02
649.583	-0.04
649.769	0.01
649.955	0.02
650.141	0.01
650.327	0.04
650.513	-0.04
650.698	0.02
650.884	-0.05
651.07	-0.02
651.256	-0.01
651.442	-0
651.627	-0.04
651.813	0.02
651.999	0.01
652.184	0
652.37	-0.02
652.556	-0.06
652.741	0.04
652.927	-0.07
653.113	-0.01
653.298	-0.03
653.484	-0.03
653.669	-0.06
653.855	-0.02
654.04	0.05
654.226	0.02
654.412	-0.04
654.597	-0.05
654.782	-0.01
654.968	0.05
655.153	0.01
655.339	-0.02
655.524	-0.03
655.71	0.03
655.895	0.01
656.08	-0.03
656.266	0.05
656.451	-0.01
656.636	-0.01
656.822	0
657.007	-0.04
657.192	-0.02
657.378	-0.06
657.563	-0.02
657.748	-0.01
657.933	0
658.118	-0.05
658.304	-0.03
658.489	-0.02
658.674	-0.01
658.859	-0.03
659.044	0
659.229	0.01
659.414	-0.01
659.599	-0.02
659.785	-0.08
659.97	-0.01
660.155	0.01
660.34	-0.01
660.525	-0.04
660.71	-0.03
660.895	0.02
661.08	-0.04
661.264	-0.02
661.449	0.05
661.634	0.02
661.819	0.02
662.004	0.02
662.189	-0.06
662.374	-0.03
662.559	-0.1
662.743	-0.06
662.928	-0
663.113	0
663.298	-0.07
663.483	-0.02
663.667	0.02
663.852	-0.03
664.037	0.02
664.221	-0.02
664.406	0.04
664.591	0.01
664.775	-0.02
664.96	-0.05
665.145	-0.02
665.329	0.02
665.514	-0.01
665.698	-0.02
665.883	-0.07
666.068	0.06
666.252	0.01
666.437	-0.04
666.621	0.02
666.806	0
666.99	-0.04
667.174	-0.04
667.359	0.06
667.543	-0.02
667.728	-0.03
667.912	-0.07
668.096	0.01
668.281	-0.03
668.465	-0.02
668.649	0
668.834	-0
669.018	-0.05
669.202	-0.02
669.387	-0.05
669.571	0.06
669.755	-0.06
669.939	-0.01
670.124	-0.02
670.308	0.01
670.492	0.02
670.676	0
670.86	-0.03
671.044	-0.01
671.228	0.03
671.413	-0.07
671.597	-0.05
671.781	-0.04
671.965	0.04
672.149	-0.02
672.333	0
672.517	-0.04
672.701	0.05
672.885	-0.03
673.069	-0.07
673.253	0.07
673.437	-0.05
673.621	-0.04
673.804	0
673.988	0.01
674.172	0.02
674.356	-0.1
674.54	-0.04
674.724	0.04
674.908	0.01
675.091	0.04
675.275	-0.04
675.459	0.04
675.643	0.05
675.826	0
676.01	-0.02
676.194	0.01
676.377	0.04
676.561	0.02
676.745	0
676.928	0.02
677.112	0.06
677.296	-0.05
677.479	-0.03
677.663	-0.03
677.846	0
678.03	-0.03
678.213	-0.07
678.397	-0.01
678.58	-0.03
678.764	-0.03
678.947	-0.07
679.131	-0.04
679.314	0.03
679.498	-0.04
679.681	-0.04
679.865	0.05
680.048	-0.04
680.231	-0.01
680.415	-0.04
680.598	-0.06
680.781	-0.05
680.965	-0.01
681.148	0.01
681.331	-0.03
681.514	0
681.698	0
681.881	0.01
682.064	-0
682.247	0.01
682.43	-0.09
682.614	-0.01
682.797	0.01
682.98	0.01
683.163	-0.05
683.346	0.01
683.529	-0.04
683.712	-0.05
683.895	0.01
684.078	-0.09
684.261	-0.09
684.444	0.02
684.627	-0.03
684.81	-0.04
684.993	-0.03
685.176	-0
685.359	-0.05
685.542	-0.02
685.725	0.08
685.908	-0.01
686.091	-0.02
686.274	0.07
686.457	0.03
686.639	-0.03
686.822	0.03
687.005	0.02
687.188	0.06
687.371	0.07
687.553	-0.01
687.736	0.04
687.919	0.08
688.102	0.08
688.284	-0.01
688.467	-0.01
688.65	0.01
688.832	-0.01
689.015	-0.01
689.197	-0.08
689.38	0.11
689.563	0.06
689.745	-0.01
689.928	-0.06
690.11	0.02
690.293	-0.01
690.475	-0.08
690.658	0
690.84	-0.05
691.023	-0
691.205	-0.04
691.388	-0.02
691.57	0.01
691.752	0
691.935	-0.13
692.117	-0.02
692.3	0.02
692.482	0.01
692.664	0.01
692.847	-0.01
693.029	0
693.211	-0.04
693.393	-0.03
693.576	-0.04
693.758	0.01
693.94	-0.02
694.122	-0.02
694.304	-0.04
694.487	-0.02
694.669	0.05
694.851	-0.09
695.033	-0.01
695.215	-0.04
695.397	-0.06
695.579	-0.01
695.761	-0.02
695.943	-0.03
696.125	0.06
696.308	0.01
696.49	-0.09
696.671	0.09
696.853	0.01
697.035	0.08
697.217	-0.03
697.399	0.01
697.581	0
697.763	-0.03
697.945	-0.04
698.127	0.01
698.309	0.02
698.491	-0.03
698.672	0
698.854	0.03
699.036	0.03
699.218	-0.05
699.399	0.06
699.581	0.04
699.763	0.03
699.945	-0.05
700.126	-0.06
700.308	-0.03
700.49	-0.07
700.671	-0.11
700.853	-0.07
701.035	-0.04
701.216	0.02
701.398	-0.04
701.579	-0.03
701.761	0.02
701.943	-0.09
702.124	-0.1
702.306	-0.01
702.487	0.1
702.669	0.04
702.85	-0.02
703.031	-0.03
703.213	0.06
703.394	-0.02
703.576	-0.08
703.757	0.03
703.938	0.03
704.12	0.16
704.301	0
704.483	-0.04
704.664	-0.02
704.845	0.12
705.026	0.09
705.208	-0.02
705.389	-0.02
705.57	-0.01
705.751	-0
705.933	-0.03
706.114	0.01
706.295	-0
706.476	-0.04
706.657	0.09
706.838	0.03
707.02	0.04
707.201	-0.1
707.382	-0.07
707.563	0.05
707.744	-0.05
707.925	-0.06
708.106	-0.08
708.287	-0.02
708.468	0.06
708.649	-0.01
708.83	0
709.011	-0.06
709.192	-0.01
709.373	-0.09
709.554	-0.04
709.734	0.02
709.915	0.03
710.096	0.06
710.277	-0.06
710.458	-0.01
710.639	0.05
710.819	-0.15
711	-0
711.181	0.04
711.362	0.09
711.542	-0.02
711.723	-0.07
711.904	-0
712.085	-0.04
712.265	0.05
712.446	-0.11
712.627	-0.03
712.807	-0.07
712.988	-0.03
713.168	-0.08
713.349	0.02
713.53	-0.15
713.71	-0.03
713.891	-0.13
714.071	0
714.252	-0.04
714.432	-0.03
714.613	-0.11
714.793	-0.03
714.974	0.05
715.154	0.02
715.334	0.03
715.515	0.02
715.695	-0.1
715.876	-0.07
716.056	-0.02
716.236	-0.03
716.417	-0.02
716.597	-0.07
716.777	0.05
716.957	-0.03
717.138	0.01
717.318	0
717.498	-0.04
717.678	-0.03
717.859	0.04
718.039	-0.04
718.219	0.08
718.399	-0.02
718.579	-0.02
718.759	-0.1
718.939	0.05
719.12	0.01
719.3	0.01
719.48	-0.15
719.66	-0.08
719.84	0.05
720.02	-0.03
720.2	-0.09
720.38	0.01
720.56	0.05
720.74	-0.02
720.92	0
721.1	0.04
721.279	0.12
721.459	-0.02
721.639	-0.11
721.819	0.04
721.999	-0.08
722.179	0.07
722.359	-0.12
722.538	-0.05
722.718	0.03
722.898	-0.09
723.078	-0.04
723.257	-0.07
723.437	-0.08
723.617	-0.01
723.797	-0.04
723.976	-0.07
724.156	0.08
724.336	0.07
724.515	0.08
724.695	-0.19
724.874	0
725.054	0.01
725.234	-0.12
725.413	0.03
725.593	-0.12
725.772	0.05
725.952	-0.02
726.131	-0.06
726.311	0.03
726.49	-0.02
726.67	-0.04
726.849	-0
727.028	0.1
727.208	-0.07
727.387	0.02
727.567	-0.11
727.746	-0.04
727.925	-0.04
728.105	-0.06
728.284	-0.02
728.463	-0.01
728.643	0.04
728.822	-0.16
729.001	-0.11
729.18	-0.02
729.359	0.02
729.539	-0.04
729.718	-0.04
729.897	0.02
730.076	-0.1
730.255	-0.11
730.434	-0
730.614	0.13
730.793	0.04
730.972	-0.1
731.151	0
731.33	0.05
731.509	0.06
731.688	-0.03
731.867	-0.06
732.046	-0.13
732.225	0.18
732.404	-0.07
732.583	-0.05
732.762	-0.05
732.941	0.15
733.12	-0.01
733.298	-0.03
733.477	0.04
733.656	-0.02
733.835	-0.11
734.014	0.03
734.193	-0.13
734.371	0.02
734.55	0.01
734.729	-0.1
734.908	0.06
735.086	0.1
735.265	-0.04
735.444	-0.11
735.623	-0.12
735.801	-0.05
735.98	-0.09
736.159	-0.11
736.337	0.02
736.516	0.04
736.694	-0.01
736.873	-0.03
737.052	0.22
737.23	0.14
737.409	-0.08
737.587	0.07
737.766	-0.22
737.944	-0.05
738.123	0.16
738.301	-0.02
738.479	-0.05
738.658	-0.1
738.836	-0.25
739.015	0.01
739.193	-0.02
739.371	-0.14
739.55	-0.03
739.728	-0.13
739.906	0.05
740.085	0.18
740.263	-0.07
740.441	-0.09
740.62	0.13
740.798	0.08
740.976	-0.09
741.154	-0.09
741.332	0.12
741.511	-0.09
741.689	-0.02
741.867	0.06
742.045	0
742.223	-0.13
742.401	-0.07
742.579	-0.15
742.757	0.12
742.935	-0.13
743.114	-0.02
743.292	0.02
743.47	-0.2
743.648	-0.08
743.826	-0.1
744.004	0.01
744.181	0.12
744.359	-0.06
744.537	0.06
744.715	-0.01
744.893	-0.07
745.071	0.14
745.249	-0.03
745.427	-0.11
745.605	0.09
745.782	0.07
745.96	0.08
746.138	0.02
746.316	0.12
746.493	-0.05
746.671	0
746.849	-0.03
747.027	0.06
747.204	-0.02
747.382	0.03
747.56	-0.09
747.737	-0.02
747.915	-0.06
748.093	0.03
748.27	-0.13
748.448	-0.07
748.625	-0.08
748.803	-0.15
748.98	-0.12
749.158	0.03
749.335	0.19
749.513	-0.06
749.69	-0.06
749.868	0.01
750.045	-0.01
750.223	-0.16
750.4	-0.2
750.578	0.25
750.755	0.05
750.932	-0.15
751.11	0.13
751.287	-0.12
751.464	0.07
751.642	-0.14
751.819	0.12
751.996	0.07
752.173	-0.09
752.351	-0.24
752.528	0.06
752.705	-0.03
752.882	-0.11
753.06	-0.12
753.237	0.1
753.414	0.06
753.591	0.23
753.768	0.03
753.945	-0.07
754.122	-0.01
754.299	-0.09
754.476	-0.17
754.654	-0.04
754.831	0.01
755.008	0.01
755.185	-0.01
755.362	-0.08
755.539	-0.04
755.716	-0.05
755.892	-0.06
756.069	-0.11
756.246	0.05
756.423	-0.1
756.6	0.14
756.777	0.03
756.954	0.11
757.131	0.01
757.307	-0.06
757.484	-0.23
757.661	0.08
757.838	-0.01
758.015	-0.15
758.191	0.16
758.368	0.16
758.545	0.11
758.721	-0.06
758.898	-0.11
759.075	0.04
759.251	0.19
759.428	-0.01
759.605	-0.09
759.781	0.05
759.958	-0.02
760.134	0.05
760.311	-0.01
760.488	0.12
760.664	0.18
760.841	0.1
761.017	-0.15
761.194	0.06
761.37	0.11
761.547	0.01
761.723	-0.12
761.899	0.01
762.076	-0.09
762.252	-0.11
762.429	-0.1
762.605	0.11
762.781	-0.14
762.958	-0.02
763.134	-0.06
763.31	-0.04
763.486	0.18
763.663	-0.21
763.839	0.06
764.015	-0.27
764.191	-0.09
764.368	-0.04
764.544	-0.11
764.72	0.01
764.896	0.08
765.072	-0.14
765.248	-0.1
765.425	-0.18
765.601	0.01
765.777	-0
765.953	-0.22
766.129	-0.19
766.305	-0.14
766.481	0.05
766.657	-0.06
766.833	0.06
767.009	-0.14
767.185	-0.22
767.361	-0.02
767.537	-0.26
767.713	0.08
767.889	0.03
768.065	0
768.24	-0.12
768.416	0.06
768.592	-0.07
768.768	-0.07
768.944	0.15
769.12	-0.18
769.295	0.05
769.471	0.07
769.647	0.11
769.823	0.16
769.998	-0.13
770.174	-0.17
770.35	0.24
770.525	0.2
770.701	-0.04
770.877	-0
771.052	-0.09
771.228	0.18
771.403	0.13
771.579	0.03
771.755	0.41
771.93	-0.17
772.106	-0.18
772.281	-0.11
772.457	-0.1
772.632	0.16
772.808	-0.18
772.983	-0.1
773.159	-0.22
773.334	0.04
773.509	-0.01
773.685	-0.06
773.86	0.26
774.036	0.21
774.211	0.01
774.386	-0.14
774.562	0.08
774.737	0.07
774.912	-0.19
775.087	0.05
775.263	-0.16
775.438	-0.11
775.613	-0.1
775.788	0.04
775.964	0.16
776.139	0.44
776.314	-0.18
776.489	0.07
776.664	0.09
776.839	-0.26
777.014	0.1
777.19	0.11
777.365	0.13
777.54	0.21
777.715	0.03
777.89	-0.14
778.065	-0.02
778.24	0.11
778.415	0.15
778.59	-0.14
778.765	0.02
778.94	0.14
779.115	-0.05
779.289	-0.04
779.464	-0.02
779.639	0.08
779.814	-0.32
779.989	-0.26
780.164	0.06
780.339	0.09
780.513	-0.11
780.688	-0.24
780.863	-0.06
781.038	0.13
781.212	-0.21
781.387	-0.08
781.562	0.25
781.737	0.02
781.911	0.19
782.086	-0.16
782.261	-0.13
782.435	0.21
782.61	-0.33
782.784	-0.01
782.959	0.23
783.134	-0.07
783.308	-0.26
783.483	-0.06
783.657	0.16
783.832	-0.05
784.006	-0.44
784.181	0.01
784.355	0.2
784.53	-0.38
784.704	-0.21
784.878	0.31
785.053	0.21
785.227	0.21
785.402	0.33
785.576	-0.15
785.75	-0.04
785.925	-0.23
786.099	-0.04
786.273	-0.22
786.448	-0.01
786.622	0.08
786.796	-0.16
786.97	-0.25
787.145	0.53
787.319	-0.36
787.493	-0.14
787.667	-0.48
787.841	0.08
788.015	0.14
788.19	-0.14
788.364	-0.11
788.538	-0.07
788.712	-0.02
788.886	-0.2
789.06	0.43
789.234	0.32
789.408	-0.18
789.582	-0.02
789.756	-0.18
789.93	-0.21
790.104	-0.17
790.278	-0.29
790.452	-0.18
790.626	0.04
790.8	-0.19
790.973	0.23
791.147	0.11
791.321	0.37
791.495	0.16
791.669	0.25
791.843	0.11
792.016	0.02
792.19	0.37
792.364	-0.2
792.538	0.34
792.711	0.14
792.885	-0.41
793.059	-0.32
793.233	-0.54
793.406	0.06
793.58	-0.12
793.754	0.17
793.927	-0.06
794.101	0.35
794.274	0.1
794.448	0.32
794.622	-0.15
794.795	0.25
794.969	-0.03
795.142	0.26
795.316	-0.12
795.489	-0.02
795.663	0.06
795.836	-0.11
796.009	-0.22
796.183	0.28
796.356	-0.12
796.53	0.03
796.703	-0.12
796.876	0.69
797.05	-0.18
797.223	-0.22
797.396	0
797.57	0.06
797.743	0.44
797.916	-0.1
798.09	-0.18
798.263	0.22
798.436	0.04
798.609	-0.17
798.782	-0.29
798.956	-0.08
799.129	0.08
799.302	-0.36
799.475	-0.1
799.648	-0.24
799.821	-0.23
799.994	-0.04
800.167	-0.33
800.34	-0.18
800.514	0.04
800.687	0.06
800.86	-0.34
801.033	0.1
801.206	-0.2
801.379	-0.13
801.551	0.12
801.724	0.14
801.897	0.28
802.07	-0.18
802.243	-0.54
802.416	-0.01
802.589	-0.34
802.762	0.04
802.935	-0.22
803.107	-0.05
803.28	0.2
803.453	-0.1
803.626	-0.2
803.798	-0.1
803.971	-0.2
804.144	-0.21
804.317	-0.02
804.489	0.15
804.662	0.25
804.835	0.22
805.007	-0.25
805.18	0.29
805.353	-0.05
805.525	-0.36
805.698	-0.27
805.87	0.04
806.043	0.43
806.215	-0.55
806.388	-0.36
806.56	-0.07
806.733	0.31
806.905	-0.01
807.078	-0.27
807.25	-0.18
807.423	0.23
807.595	0.19
807.768	0.17
807.94	0.18
808.112	-0.15
808.285	-0.28
808.457	-0.36
808.629	-0.16
808.802	0.27
808.974	-0.08
809.146	-0.36
809.318	-0.31
809.491	-0.16
809.663	0.32
809.835	-0.08
810.007	0.25
810.18	-0.03
810.352	-0.37
810.524	-0.33
810.696	-0.01
810.868	0.26
811.04	-0.32
811.212	-0.19
811.384	0.11
811.556	-0.03
811.728	-0.09
811.901	0.42
812.073	-0.01
812.245	0.55
812.417	-0.11
812.589	-0.62
812.76	-0.01
812.932	0.18
813.104	0.31
813.276	-0.41
813.448	0.08
813.62	-0.09
813.792	-0.13
813.964	0.11
814.136	0
814.307	-0.08
814.479	-0.07
814.651	-0.34
814.823	0.32
814.995	-0.1
815.166	-0.13
815.338	0.14
815.51	-0.51
815.681	0.85
815.853	-0.22
816.025	-0.32
816.196	0.44
816.368	0.53
816.54	-0.47
816.711	-0.41
816.883	0.03
817.054	0.96
817.226	-0.74
817.398	0.38
817.569	-0.35
817.741	0.16
817.912	-0.09
818.084	-0.38
818.255	0.39
818.426	-0.23
818.598	0.09
818.769	-0.53
818.941	0.39
819.112	0.3
819.283	0.08
819.455	-0.67
819.626	-0.06
819.798	0.05
819.969	0.04
820.14	0.15
820.311	-0
820.483	0.22
820.654	0.12
820.825	-0.03
820.996	0.02
821.168	-0.38
821.339	-0.05
821.51	-0.65
821.681	-0.18
821.852	0.39
822.023	-0.68
822.195	-0.88
822.366	0.64
822.537	0.01
822.708	0
822.879	-0.5
823.05	0.63
823.221	-0.13
823.392	0.14
823.563	-0.26
823.734	0.25
823.905	-0.2
824.076	-0.17
824.247	-0.67
824.418	-0.41
824.589	0.44
824.759	-0.09
824.93	-0.17
825.101	-0.71
825.272	0.01
825.443	0.1
825.614	0.5
825.784	-1.04
825.955	0.98
826.126	0.5
826.297	-0.3
826.467	0.69
826.638	0.51
826.809	-1.13
826.98	-0.13
827.15	0.21
827.321	0.02
827.492	-0.03
827.662	0.37
827.833	1.08
828.003	0.21
828.174	-0.86
828.345	-0.76
828.515	0.69
828.686	0.04
828.856	-0.06
829.027	-0.1
829.197	0.21
829.368	0.46
829.538	0.09
829.709	-0.27
829.879	-0.17
830.049	0.11
830.22	-0.04
830.39	-0.39
830.56	0.06
830.731	-0.01
830.901	-0.68
831.072	-0.13
831.242	0
831.412	0.01
831.582	0.15
831.753	-0.98
831.923	0.81
832.093	-0.32
832.263	0.01
832.434	-0.7
832.604	-0.33
832.774	-0.21
832.944	-0.54
833.114	0.02
833.284	0.93
833.454	-0.67
833.624	-0.36
833.795	-0.35
833.965	0.72
834.135	0.73
834.305	-1.39
834.475	-0.61
834.645	-0.07
834.815	-0.54
834.985	-0.33
835.155	0.02
835.325	0.52
835.494	0.29
835.664	0.12
835.834	-1.51
836.004	-0.3
836.174	0.35
836.344	-0.05
836.514	-0.79
836.684	0.33
836.853	0.37
837.023	0.25
837.193	0.11
837.363	0.05
837.532	-0.2
837.702	-0.65
837.872	-0.53
838.041	0.75
838.211	1.43
838.381	-0.6
838.55	0.38
838.72	1.55
838.89	1.25
839.059	-0.55
839.229	-0.1
839.398	1.62
839.568	0.24
839.738	0.09
839.907	0.57
840.077	0.06
840.246	-0.2
840.416	-0.57
840.585	-0.59
840.755	0.84
840.924	0.7
841.093	-0.98
841.263	-0.34
841.432	0.08
841.602	-0.36
841.771	-0.84
841.94	0.08
842.11	1.37
842.279	1.12
842.448	-1.24
842.617	-0.57
842.787	1.63
842.956	-1.12
843.125	-0.67
843.294	0.02
843.464	1.08
843.633	-0.76
843.802	-1.33
843.971	-0.58
844.14	0.12
844.309	0.39
844.479	-0.59
844.648	-0.34
844.817	-0.41
844.986	-0.13
845.155	-1.22
845.324	-0.11
845.493	-1.08
845.662	-0.62
845.831	0.17
846	0.21
846.169	-0.7
846.338	1.3
846.507	0.27
846.676	0.14
846.844	-0.12
847.013	0.5
847.182	-0.19
847.351	-0.43
847.52	-0.62
847.689	0.15
847.858	-0.14
848.026	-0.31
848.195	-0.31
848.364	-0.18
848.533	-0.23
848.701	-0.52
848.87	0.57
849.039	0.96
849.207	0.68
849.376	1.26
849.545	1.22
849.713	0.12
849.882	-0.67
850.051	-0.63
850.219	0.62
850.388	0.71
850.556	-1.02
850.725	-1.78
850.893	0.7
851.062	-0.39
851.23	0.38
851.399	-1.86
851.567	-0.07
851.736	-0.62
851.904	-0.79
852.073	-0.61
852.241	0.69
852.41	-0.25
852.578	-0.33
852.746	0.08
852.915	0.43
853.083	0.29
853.251	-1.31
853.42	-0.06
853.588	0.57
853.756	1.19
853.924	-0.46
854.093	-0.47
854.261	-0.61
854.429	-1.81
854.597	0.8
854.765	-1.52
854.934	1.36
855.102	0.47
855.27	-1.16
855.438	-0.09
855.606	1.03
855.774	0.18
855.942	-1.74
856.11	-1.91
856.278	-0.45
856.446	0.54
856.614	0.31
856.782	-0.21
856.95	0.76
857.118	1.08
857.286	-0.19
857.454	-0.28
857.622	1.87
857.79	0.43
857.958	-1.46
858.126	-0.91
858.294	-2.5
858.462	-0.46
858.629	-0.81
858.797	-0.58
858.965	-0.09
859.133	1.39
859.301	-0.7
859.468	-0.02
859.636	-1.02
859.804	2.19
859.971	-0.12
860.139	-1.32
860.307	1.92
860.474	0.23
860.642	-1.03
860.81	-0.63
860.977	0.12
861.145	1.26
861.313	-0.05
861.48	-0.19
861.648	0.8
861.815	-1.13
861.983	-1.08
862.15	-0.57
862.318	0.28
862.485	0.77
862.653	-1.39
862.82	-0.82
862.988	2.22
863.155	0.99
863.322	-2.22
863.49	-2.22
863.657	-0.93
863.824	1.57
863.992	1.52
864.159	-0.34
864.326	0.96
864.494	-0.91
864.661	2.97
864.828	-1.12
864.996	2.34
865.163	1.45
865.33	-1.74
865.497	-3.09
865.664	-1.41
865.832	-3.17
865.999	-0.47
866.166	-1.74
866.333	0.11
866.5	-1.14
866.667	-0.87
866.834	-1.44
867.001	1.45
867.168	-1.71
867.335	-0.18
867.502	0.1
867.669	0.24
867.836	2.45
868.003	-1.2
868.17	1.31
868.337	-1.08
868.504	1.27
868.671	-1.68
868.838	-0.43
869.005	0.09
869.172	1.51
869.339	-0.67
869.505	-0.91
869.672	-0.09
869.839	1.79
870.006	0.13
870.173	-2.74
870.339	1.26
870.506	1.25
870.673	-1.97
870.84	0.55
871.006	-0.13
871.173	-0.41
871.34	-0.46
871.506	-2.29
871.673	0.2
871.839	-1.89
872.006	0.08
872.173	-1.89
872.339	-0.74
872.506	1.82
872.672	-0.73
872.839	-0.13
873.005	0.08
873.172	2.7
873.338	1.35
873.505	0.15
873.671	1.48
873.838	2
874.004	-2.65
874.171	-0.97
874.337	0.53
874.503	0.71
874.67	-0.5
874.836	-1.09
875.002	2.8
875.169	1.55
875.335	-0.52
875.501	-1.21
875.668	2.5
875.834	-0.12
876	-0.87
876.166	-0.91
876.332	0.63
876.499	2.33
876.665	-2.56
876.831	0.51
876.997	3.97
877.163	-1.36
877.329	-1.35
877.495	-1.08
877.662	1.59
877.828	1.7
877.994	-0.42
878.16	-2.49
878.326	-0.92
878.492	1.41
878.658	-0.42
878.824	1.78
878.99	2.1
879.156	-1.51
879.322	2.82
879.487	-0.28
879.653	0.67
879.819	0.32
879.985	-2.75
880.151	0.6
880.317	0.26
880.483	2.19
880.648	2.69
880.814	-1.73
880.98	0.45
881.146	-2.48
881.312	-1.4
881.477	-1.37
881.643	-1.01
881.809	0.94
881.974	2.01
882.14	-2.83
882.306	-0.53
882.471	3.47
882.637	-1.11
882.803	0.08
882.968	2.68
883.134	1.91
883.299	-0.32
883.465	0.15
883.63	1.66
883.796	0.67
883.961	0.47
884.127	0.24
884.292	-4.34
884.458	-1.57
884.623	-1.57
