Data from Apollo_Calib_20240827__AbsoluteIrradiance__151__01-40-02-322.txt Node

Date: Wed Aug 28 01:40:02 BST 2024
User: biology
Spectrometer: FLMT08252
Trigger mode: 0
Integration Time (sec): 5.000000E-1
Scans to average: 5
Electric dark correction enabled: true
Nonlinearity correction enabled: false
Boxcar width: 0
XAxis mode: Wavelengths
Number of Pixels in Spectrum: 3648
>>>>>Begin Spectral Data<<<<<
179.588	-0
179.809	-0
180.03	-0
180.251	-0
180.473	-0
180.694	0
180.915	0
181.136	-0
181.357	0
181.578	0
181.799	0
182.02	-0
182.241	-0
182.462	-0
182.683	0
182.904	-0
183.125	-0
183.346	0
183.567	0
183.788	-0
184.009	-0
184.23	0
184.451	0
184.672	-0
184.892	-0
185.113	-0
185.334	0
185.555	-0
185.776	-0
185.996	0
186.217	0
186.438	-0
186.659	-0
186.879	-0
187.1	-0
187.321	-0
187.541	-0
187.762	-0
187.983	-0
188.203	-0
188.424	-0
188.644	-0
188.865	-0
189.086	-0
189.306	-0
189.527	-0
189.747	-0
189.968	-0
190.188	0
190.409	0
190.629	0
190.849	-0
191.07	-0
191.29	0
191.511	0
191.731	-0
191.951	-0
192.172	-0
192.392	-0
192.612	-0
192.833	0
193.053	0
193.273	0
193.493	-0
193.714	-0
193.934	0
194.154	0
194.374	-0
194.594	-0
194.815	-0
195.035	0
195.255	0
195.475	-0
195.695	0
195.915	0
196.135	-0
196.355	0
196.575	0
196.795	0
197.015	-0
197.235	-0
197.455	-0
197.675	0
197.895	-0
198.115	-0
198.335	0
198.555	-0
198.775	-0
198.995	0
199.214	0
199.434	-0
199.654	-0
199.874	-0
200.094	0.6
200.313	-0.21
200.533	-0.39
200.753	-0.72
200.973	0.37
201.192	0.31
201.412	-0.77
201.632	-0.07
201.851	0.91
202.071	-0.72
202.291	-0.39
202.51	-0.74
202.73	0.05
202.95	-0.39
203.169	-0.92
203.389	-0.2
203.608	-0.1
203.828	-0.56
204.047	-0.72
204.267	0.43
204.486	0.2
204.706	0.18
204.925	-0.17
205.145	-0.54
205.364	0.03
205.583	0.56
205.803	-0.59
206.022	-0.62
206.242	-0.11
206.461	0.37
206.68	-0.64
206.9	0.12
207.119	0.48
207.338	0.48
207.557	-0.11
207.777	-0.02
207.996	-0.35
208.215	0.4
208.434	-0.07
208.654	-0.75
208.873	-0.01
209.092	0.6
209.311	-0.39
209.53	-0.3
209.749	-0.16
209.968	-0.19
210.187	-0.25
210.407	-0.63
210.626	-0.17
210.845	0.14
211.064	-0.04
211.283	-0.47
211.502	0.05
211.721	-0.04
211.94	-0.4
212.159	0.2
212.377	0.07
212.596	0.25
212.815	-0.03
213.034	0.18
213.253	0.27
213.472	0.13
213.691	-0.14
213.91	-0.38
214.128	-0.06
214.347	0.24
214.566	-0.41
214.785	-0.47
215.003	0.14
215.222	0.13
215.441	0.06
215.66	-0.32
215.878	0.05
216.097	0.03
216.316	-0.22
216.534	-0.16
216.753	0
216.972	-0.07
217.19	-0.18
217.409	-0.19
217.627	-0.21
217.846	-0.06
218.064	-0.03
218.283	-0.42
218.501	0.52
218.72	0.06
218.938	-0.31
219.157	-0.16
219.375	0.05
219.594	0.04
219.812	-0.27
220.031	-0.25
220.249	0.33
220.467	0.16
220.686	-0.16
220.904	-0.19
221.122	-0.14
221.341	0.32
221.559	0.02
221.777	-0.34
221.995	-0.04
222.214	0.11
222.432	-0.31
222.65	0.01
222.868	0.11
223.086	0.08
223.305	0.06
223.523	-0.05
223.741	0.29
223.959	-0.1
224.177	-0.18
224.395	-0.1
224.613	0.06
224.831	0.12
225.049	-0.05
225.267	-0.12
225.485	-0.07
225.703	-0.07
225.921	0.06
226.139	-0.19
226.357	0.23
226.575	0.09
226.793	-0.07
227.011	0.47
227.229	0.11
227.447	0.21
227.665	-0.1
227.883	-0.24
228.1	0.04
228.318	0.05
228.536	-0.19
228.754	-0.24
228.972	0.07
229.189	0.09
229.407	-0.12
229.625	-0.1
229.843	0.21
230.06	-0.1
230.278	-0.09
230.496	-0.15
230.713	-0.01
230.931	0.12
231.149	-0.06
231.366	-0.29
231.584	0
231.801	0.22
232.019	-0.13
232.236	-0.22
232.454	-0.11
232.671	0.13
232.889	-0.02
233.106	-0.23
233.324	0.01
233.541	0.01
233.759	-0.06
233.976	-0.07
234.194	-0.04
234.411	-0.06
234.628	-0.11
234.846	-0.09
235.063	-0.1
235.28	-0.07
235.498	-0.08
235.715	-0.16
235.932	0.12
236.149	-0.06
236.367	-0.06
236.584	0.07
236.801	-0.15
237.018	0.12
237.236	-0
237.453	-0.28
237.67	0.12
237.887	-0.04
238.104	-0.05
238.321	-0.18
238.538	-0.08
238.755	0.13
238.973	-0.21
239.19	-0.01
239.407	0.04
239.624	0.01
239.841	-0.12
240.058	-0.07
240.275	0.11
240.492	0
240.709	-0.05
240.925	0
241.142	-0.06
241.359	-0.16
241.576	-0.16
241.793	-0.1
242.01	-0.07
242.227	0.08
242.444	0.02
242.66	0.03
242.877	0.06
243.094	-0.04
243.311	-0.02
243.527	0.03
243.744	0.02
243.961	0.1
244.178	-0.12
244.394	0.03
244.611	0.06
244.828	0.14
245.044	-0.11
245.261	-0.08
245.477	0.03
245.694	0.02
245.911	-0.07
246.127	-0.02
246.344	0.1
246.56	0.08
246.777	-0.08
246.993	-0.04
247.21	-0.05
247.426	-0.01
247.643	-0.11
247.859	-0.11
248.076	-0.1
248.292	0.09
248.508	-0.13
248.725	0.01
248.941	-0.04
249.157	0.14
249.374	-0.16
249.59	-0
249.806	-0.01
250.023	0.1
250.239	-0.09
250.455	-0.14
250.671	-0.06
250.888	0.05
251.104	0.03
251.32	-0.09
251.536	-0.02
251.752	-0.06
251.969	0.02
252.185	-0.04
252.401	0.1
252.617	-0.07
252.833	-0.1
253.049	0.02
253.265	0.05
253.481	-0
253.697	-0.02
253.913	-0.07
254.129	0
254.345	0.02
254.561	-0.04
254.777	-0.04
254.993	0.02
255.209	-0.02
255.425	-0.03
255.641	-0.03
255.857	0.05
256.073	-0.09
256.288	-0.07
256.504	-0.04
256.72	0.01
256.936	0.03
257.152	-0.03
257.367	-0.05
257.583	-0.02
257.799	0.08
258.015	-0.16
258.23	-0.04
258.446	0.09
258.662	-0.01
258.877	-0.1
259.093	-0.08
259.309	-0
259.524	-0.05
259.74	-0.04
259.955	-0.13
260.171	0
260.387	0.03
260.602	0.06
260.818	0.03
261.033	-0.07
261.249	-0.04
261.464	-0.03
261.68	-0.12
261.895	0.12
262.11	0.07
262.326	-0.03
262.541	-0.09
262.757	0.06
262.972	0.04
263.187	-0.03
263.403	-0.05
263.618	0.03
263.833	-0.01
264.049	-0.12
264.264	0.04
264.479	0.03
264.694	0.08
264.91	-0.14
265.125	-0.05
265.34	0.03
265.555	0.18
265.77	0
265.986	-0.01
266.201	0.04
266.416	0.08
266.631	-0.06
266.846	0.05
267.061	-0.01
267.276	0.02
267.491	-0.19
267.706	0.06
267.921	0.07
268.136	-0.03
268.351	-0.04
268.566	-0.05
268.781	0.04
268.996	0.05
269.211	-0.04
269.426	-0.08
269.641	-0.05
269.856	0.07
270.071	-0.07
270.285	-0.07
270.5	0.12
270.715	0.02
270.93	-0.03
271.145	0.03
271.359	0.02
271.574	-0.05
271.789	-0.05
272.004	-0.06
272.218	-0.01
272.433	0.01
272.648	-0.07
272.862	0.03
273.077	0.01
273.292	0.03
273.506	-0.09
273.721	-0.04
273.936	0.04
274.15	0.03
274.365	-0.01
274.579	0.03
274.794	0.05
275.008	0.12
275.223	-0.08
275.437	0.01
275.652	0.04
275.866	0
276.081	0
276.295	0
276.509	0.02
276.724	0.04
276.938	0.01
277.153	0.03
277.367	0.05
277.581	-0.04
277.796	0.01
278.01	-0.06
278.224	0.06
278.438	0.1
278.653	-0.05
278.867	-0.1
279.081	-0.09
279.295	-0.01
279.51	0.03
279.724	-0.09
279.938	0.05
280.152	0.02
280.366	-0.05
280.58	0.01
280.794	0.08
281.008	0.02
281.222	0.02
281.437	0.1
281.651	0.04
281.865	0.08
282.079	-0.02
282.293	-0.15
282.507	0
282.721	-0.01
282.935	-0.01
283.148	-0.09
283.362	-0.01
283.576	-0.07
283.79	-0.06
284.004	-0.05
284.218	0.08
284.432	-0.01
284.646	-0.06
284.859	-0.05
285.073	-0.05
285.287	-0.01
285.501	0.03
285.714	-0.02
285.928	-0.02
286.142	0.01
286.356	-0.04
286.569	-0
286.783	0.03
286.997	0.03
287.21	0.03
287.424	-0.02
287.637	-0.05
287.851	0.02
288.065	0.02
288.278	-0
288.492	0.01
288.705	-0.03
288.919	-0.02
289.132	-0.09
289.346	-0
289.559	-0.03
289.773	-0.06
289.986	-0.01
290.2	-0.03
290.413	0.03
290.626	-0.03
290.84	0.01
291.053	-0.04
291.267	0.02
291.48	-0.02
291.693	0
291.906	-0.01
292.12	-0
292.333	-0.03
292.546	-0
292.76	0.07
292.973	0.04
293.186	0
293.399	-0.06
293.612	0.04
293.826	0.01
294.039	-0
294.252	-0.04
294.465	0.07
294.678	0.02
294.891	-0.02
295.104	-0
295.317	-0.02
295.53	0.02
295.743	-0.03
295.956	0.02
296.169	0.07
296.382	0.07
296.595	-0.01
296.808	-0.06
297.021	0.06
297.234	0.03
297.447	0
297.66	0.04
297.873	0.04
298.086	0.06
298.299	-0.04
298.511	-0.08
298.724	-0.01
298.937	-0.04
299.15	-0.04
299.363	0.02
299.575	0.08
299.788	0.03
300.001	-0.01
300.213	-0.03
300.426	-0.01
300.639	-0.01
300.852	-0.01
301.064	0.04
301.277	0.07
301.489	0.05
301.702	0.01
301.915	0.04
302.127	0.01
302.34	0.01
302.552	0.03
302.765	-0.03
302.977	0.01
303.19	-0.04
303.402	-0.01
303.615	-0.04
303.827	-0
304.04	0.01
304.252	0.03
304.464	-0.02
304.677	0.06
304.889	0.04
305.102	-0.05
305.314	-0.02
305.526	0.01
305.739	0.04
305.951	-0.02
306.163	-0.03
306.375	0.1
306.588	-0.02
306.8	-0.05
307.012	-0.04
307.224	-0.02
307.436	0.09
307.649	-0.04
307.861	-0.01
308.073	0.04
308.285	-0.04
308.497	-0.04
308.709	-0
308.921	-0
309.133	0.06
309.346	-0.01
309.558	0.03
309.77	0.04
309.982	0.01
310.194	0.06
310.406	-0.06
310.617	0.03
310.829	-0.01
311.041	0.04
311.253	-0.05
311.465	0
311.677	-0.03
311.889	-0.05
312.101	-0.03
312.313	0.01
312.524	0
312.736	-0.05
312.948	0
313.16	0.06
313.372	0.03
313.583	-0.01
313.795	-0.01
314.007	-0.04
314.218	0.06
314.43	-0.03
314.642	-0.04
314.853	-0.03
315.065	-0.03
315.277	-0.03
315.488	0.03
315.7	0.04
315.912	-0.03
316.123	-0.02
316.335	-0.01
316.546	0.09
316.758	0.01
316.969	-0.05
317.181	-0.01
317.392	-0.01
317.604	0.02
317.815	-0.08
318.026	-0.04
318.238	0.01
318.449	-0.01
318.661	-0.07
318.872	-0.07
319.083	-0.07
319.295	0.04
319.506	-0.03
319.717	-0
319.929	0.03
320.14	0.03
320.351	-0.02
320.562	-0.03
320.774	-0.01
320.985	0.01
321.196	-0.04
321.407	-0.06
321.618	0.04
321.829	0.01
322.041	-0.02
322.252	-0.03
322.463	-0.01
322.674	-0.03
322.885	-0.02
323.096	0.02
323.307	0.04
323.518	-0.02
323.729	-0.06
323.94	-0.01
324.151	-0.01
324.362	0.02
324.573	-0.03
324.784	-0.03
324.995	0.03
325.206	0
325.417	-0.04
325.628	-0.01
325.838	0.01
326.049	-0.01
326.26	-0.01
326.471	-0.02
326.682	0.03
326.892	-0.02
327.103	-0.03
327.314	-0.09
327.525	0.03
327.735	0.01
327.946	-0.04
328.157	-0.04
328.368	0.05
328.578	-0.02
328.789	0.06
328.999	-0
329.21	0.02
329.421	0.01
329.631	-0.05
329.842	-0.04
330.052	-0.01
330.263	0.03
330.473	0.01
330.684	-0.01
330.894	-0.02
331.105	-0.01
331.315	0.03
331.526	-0.08
331.736	0.04
331.947	0.03
332.157	0.02
332.367	-0.07
332.578	0.03
332.788	0.03
332.999	0.03
333.209	0
333.419	-0.02
333.629	-0.04
333.84	0.01
334.05	-0.05
334.26	0.04
334.47	-0.02
334.681	0.03
334.891	-0.05
335.101	0.06
335.311	0.09
335.521	0.01
335.732	-0.04
335.942	0.07
336.152	0.01
336.362	0.05
336.572	0
336.782	0.04
336.992	-0
337.202	-0.07
337.412	-0.04
337.622	-0
337.832	-0.04
338.042	-0
338.252	-0.05
338.462	-0.03
338.672	-0.04
338.882	0
339.092	-0.01
339.302	0.03
339.511	0.04
339.721	-0.02
339.931	-0.04
340.141	0.04
340.351	0.05
340.561	0.03
340.77	0.01
340.98	0
341.19	0.02
341.4	-0.05
341.609	-0.04
341.819	-0.01
342.029	-0.06
342.238	0.01
342.448	-0.03
342.658	-0.01
342.867	0.02
343.077	-0.02
343.286	0.03
343.496	0
343.706	0.08
343.915	-0.08
344.125	0
344.334	0
344.544	-0.05
344.753	-0.03
344.963	-0
345.172	-0.03
345.381	-0.07
345.591	-0.03
345.8	0.01
346.01	0.04
346.219	0.03
346.428	-0.15
346.638	0.04
346.847	-0.03
347.056	0.03
347.266	-0.05
347.475	0.02
347.684	0.01
347.893	0.01
348.103	0.04
348.312	-0.03
348.521	0.02
348.73	0.03
348.94	0.01
349.149	0.01
349.358	-0.04
349.567	-0.03
349.776	-0.09
349.985	0.01
350.194	0.06
350.403	0.02
350.612	-0.07
350.821	-0.02
351.03	0
351.239	-0.06
351.448	0.02
351.657	-0.07
351.866	0.02
352.075	-0.05
352.284	0
352.493	-0.09
352.702	0.01
352.911	0.01
353.12	0.01
353.329	-0.01
353.538	0.04
353.746	0.02
353.955	-0.01
354.164	-0
354.373	-0.02
354.582	0.01
354.79	-0.01
354.999	0.04
355.208	0.01
355.416	0.04
355.625	-0.05
355.834	-0
356.042	0.03
356.251	0.01
356.46	-0.02
356.668	0
356.877	0.08
357.085	0.04
357.294	-0.11
357.503	0.03
357.711	-0.05
357.92	0.11
358.128	0.02
358.337	-0.02
358.545	0.01
358.754	0.03
358.962	-0.02
359.17	0.03
359.379	0.03
359.587	0.01
359.796	0
360.004	0.06
360.212	0.03
360.421	0.03
360.629	0.01
360.837	0
361.046	0.01
361.254	0.1
361.462	0
361.67	-0.06
361.879	0
362.087	0.05
362.295	-0.04
362.503	0.01
362.711	-0.02
362.92	-0.03
363.128	-0.04
363.336	-0.02
363.544	-0.07
363.752	0
363.96	-0.01
364.168	-0.05
364.376	-0.03
364.584	-0.01
364.792	0.04
365	0.01
365.208	0.03
365.416	0.05
365.624	0.03
365.832	-0.01
366.04	0.06
366.248	0.05
366.456	0.01
366.664	0.01
366.872	-0.02
367.079	-0.02
367.287	0.02
367.495	0.02
367.703	0.02
367.911	-0.02
368.118	-0.01
368.326	-0.03
368.534	-0.03
368.742	0.02
368.949	-0.04
369.157	-0.03
369.365	0.05
369.572	-0.02
369.78	-0.05
369.988	0
370.195	0.04
370.403	0.01
370.61	0
370.818	-0
371.026	0.05
371.233	-0.04
371.441	0
371.648	-0.02
371.856	0.03
372.063	0.02
372.271	-0.04
372.478	-0.05
372.685	-0.04
372.893	0.05
373.1	0.01
373.308	-0.01
373.515	0.09
373.722	0.02
373.93	0.01
374.137	0.02
374.344	0.06
374.552	0.06
374.759	-0.02
374.966	0.03
375.173	-0.05
375.381	0.03
375.588	-0.02
375.795	-0.06
376.002	-0.05
376.209	-0.01
376.417	-0.02
376.624	-0.03
376.831	0.01
377.038	-0
377.245	-0.02
377.452	0.01
377.659	-0.01
377.866	-0.03
378.073	0
378.28	-0.04
378.487	0.03
378.694	0.01
378.901	-0.03
379.108	-0.01
379.315	0.06
379.522	0.07
379.729	0.01
379.936	-0.01
380.143	0
380.35	0.01
380.557	0.01
380.763	0.02
380.97	-0.01
381.177	-0.01
381.384	0.02
381.591	-0.02
381.797	-0.04
382.004	0.03
382.211	0.02
382.418	-0.01
382.624	0.04
382.831	0.05
383.038	-0.05
383.244	0.02
383.451	-0
383.658	0.02
383.864	-0
384.071	-0.03
384.277	0.05
384.484	-0.03
384.69	0.02
384.897	-0.03
385.103	-0.01
385.31	-0.05
385.516	0
385.723	-0.04
385.929	0.01
386.136	-0.05
386.342	0.01
386.549	-0.02
386.755	0.03
386.961	0.01
387.168	-0.02
387.374	-0.01
387.58	0.04
387.787	-0.01
387.993	-0.03
388.199	-0.01
388.406	-0.02
388.612	-0
388.818	-0.01
389.024	-0.03
389.231	0.06
389.437	0.08
389.643	0.02
389.849	0.02
390.055	0.02
390.261	0.02
390.467	0.01
390.674	-0
390.88	-0
391.086	0.02
391.292	-0.03
391.498	0.07
391.704	0.04
391.91	0.02
392.116	0.05
392.322	-0.09
392.528	0.06
392.734	-0.05
392.94	0.02
393.146	0.01
393.352	0
393.557	0.01
393.763	0.04
393.969	0.07
394.175	0.03
394.381	0.04
394.587	-0.01
394.792	0.02
394.998	0.09
395.204	0.07
395.41	0.06
395.615	0.07
395.821	0.07
396.027	0.09
396.233	0.01
396.438	0.12
396.644	0.13
396.85	0.09
397.055	0.1
397.261	0.11
397.466	0.14
397.672	0.1
397.878	0.15
398.083	0.13
398.289	0.06
398.494	0.13
398.7	0.14
398.905	0.08
399.111	0.22
399.316	0.1
399.522	0.13
399.727	0.14
399.932	0.13
400.138	0.18
400.343	0.21
400.549	0.17
400.754	0.2
400.959	0.19
401.165	0.18
401.37	0.2
401.575	0.31
401.78	0.25
401.986	0.23
402.191	0.28
402.396	0.24
402.601	0.28
402.807	0.29
403.012	0.31
403.217	0.37
403.422	0.26
403.627	0.37
403.832	0.33
404.037	0.38
404.243	0.38
404.448	0.39
404.653	0.42
404.858	0.4
405.063	0.43
405.268	0.47
405.473	0.42
405.678	0.42
405.883	0.6
406.088	0.57
406.293	0.36
406.498	0.48
406.703	0.47
406.907	0.49
407.112	0.45
407.317	0.46
407.522	0.59
407.727	0.49
407.932	0.5
408.136	0.61
408.341	0.48
408.546	0.53
408.751	0.49
408.956	0.48
409.16	0.57
409.365	0.48
409.57	0.47
409.774	0.53
409.979	0.53
410.184	0.5
410.388	0.42
410.593	0.47
410.798	0.44
411.002	0.43
411.207	0.46
411.411	0.44
411.616	0.37
411.82	0.42
412.025	0.43
412.229	0.34
412.434	0.45
412.638	0.39
412.843	0.33
413.047	0.36
413.252	0.29
413.456	0.31
413.66	0.34
413.865	0.27
414.069	0.29
414.273	0.25
414.478	0.18
414.682	0.25
414.886	0.22
415.091	0.14
415.295	0.11
415.499	0.25
415.703	0.19
415.908	0.24
416.112	0.1
416.316	0.21
416.52	0.19
416.724	0.09
416.929	0.16
417.133	0.31
417.337	0.14
417.541	0.14
417.745	0.13
417.949	0.17
418.153	0.17
418.357	0.07
418.561	0.18
418.765	0.14
418.969	0.24
419.173	0.19
419.377	0.12
419.581	0.19
419.785	0.11
419.989	0.09
420.193	0.1
420.397	0.11
420.601	0.17
420.804	0.18
421.008	0.12
421.212	0.07
421.416	0.14
421.62	0.1
421.823	0.07
422.027	0.21
422.231	0.13
422.435	0.07
422.638	0.07
422.842	0.05
423.046	0.05
423.249	0.13
423.453	0.13
423.657	0.09
423.86	0.07
424.064	0.1
424.268	0.13
424.471	0.08
424.675	0.17
424.878	0.21
425.082	0.03
425.285	0.12
425.489	0.08
425.692	0.09
425.896	0.03
426.099	0.11
426.303	-0.01
426.506	-0.02
426.71	0.06
426.913	0.11
427.116	0.06
427.32	0.01
427.523	0.06
427.726	0.13
427.93	-0.01
428.133	0.05
428.336	-0.01
428.54	-0.02
428.743	0.03
428.946	0.1
429.149	0.02
429.353	-0
429.556	0.03
429.759	0.06
429.962	0.01
430.165	-0.01
430.368	-0.01
430.571	-0
430.775	0.03
430.978	0
431.181	0.01
431.384	0.05
431.587	-0.03
431.79	0.04
431.993	-0.04
432.196	-0.01
432.399	0.06
432.602	0.07
432.805	-0.03
433.008	0
433.211	-0.04
433.414	0.02
433.616	0.02
433.819	-0.02
434.022	-0.04
434.225	0.09
434.428	0.02
434.631	0.15
434.833	0.02
435.036	-0.05
435.239	0.08
435.442	0.04
435.645	-0.02
435.847	0.01
436.05	0.04
436.253	0.05
436.455	-0.02
436.658	-0.02
436.861	0.06
437.063	-0.01
437.266	0
437.468	0.02
437.671	0.08
437.874	0.05
438.076	-0.05
438.279	-0.03
438.481	0.04
438.684	-0.06
438.886	0.05
439.089	-0.06
439.291	-0.03
439.494	0.02
439.696	-0.05
439.899	-0
440.101	0.03
440.303	-0.07
440.506	0.07
440.708	0.02
440.91	0.06
441.113	-0.05
441.315	0.03
441.517	-0.07
441.72	0.02
441.922	-0.06
442.124	-0.05
442.326	0.01
442.529	0.02
442.731	-0.01
442.933	0.06
443.135	-0.01
443.337	-0.02
443.539	0
443.742	0.02
443.944	0.02
444.146	-0.03
444.348	-0.05
444.55	-0.01
444.752	0
444.954	-0.06
445.156	-0.02
445.358	-0.02
445.56	0.07
445.762	-0.04
445.964	0.04
446.166	-0.03
446.368	-0.01
446.57	0.07
446.772	0.01
446.974	-0.04
447.175	-0.01
447.377	-0.01
447.579	-0.02
447.781	-0.08
447.983	0.09
448.184	-0.03
448.386	0.02
448.588	-0.07
448.79	0.04
448.991	-0.03
449.193	-0.04
449.395	-0.04
449.597	0.04
449.798	0.02
450	0.06
450.202	-0
450.403	-0.02
450.605	0.05
450.806	-0
451.008	-0.07
451.21	-0.01
451.411	-0
451.613	-0.04
451.814	-0.02
452.016	0.01
452.217	-0.02
452.419	0.06
452.62	-0.01
452.821	-0
453.023	0.03
453.224	0.01
453.426	-0.03
453.627	-0.01
453.828	0.02
454.03	-0.03
454.231	-0.02
454.432	-0.07
454.634	0.05
454.835	-0.03
455.036	-0.03
455.238	0.04
455.439	0.1
455.64	-0.03
455.841	-0.06
456.042	0.09
456.244	0.04
456.445	-0.03
456.646	-0.08
456.847	-0
457.048	0.08
457.249	0.03
457.45	0.24
457.651	-0.04
457.852	0.02
458.054	0.04
458.255	-0.01
458.456	0.04
458.657	-0.03
458.858	-0.04
459.058	0.02
459.259	0
459.46	-0.03
459.661	-0.06
459.862	0.12
460.063	-0.02
460.264	0.08
460.465	-0.07
460.666	0.06
460.866	-0.03
461.067	0
461.268	-0.03
461.469	-0.06
461.67	-0.02
461.87	-0.01
462.071	-0.06
462.272	-0.03
462.473	-0.01
462.673	0.05
462.874	-0.07
463.075	-0.02
463.275	-0.04
463.476	0.01
463.676	0.01
463.877	-0
464.078	-0.03
464.278	0.04
464.479	-0.01
464.679	-0
464.88	-0.05
465.08	0.03
465.281	-0.03
465.481	-0.04
465.682	-0.03
465.882	0.01
466.083	0.01
466.283	0.06
466.483	-0.03
466.684	-0.03
466.884	-0.04
467.085	-0.01
467.285	0.04
467.485	-0.03
467.686	-0.01
467.886	-0.06
468.086	0.01
468.286	0
468.487	0.01
468.687	-0.04
468.887	0.01
469.087	0.01
469.287	-0.02
469.488	-0.08
469.688	0.01
469.888	0.04
470.088	0.03
470.288	0.07
470.488	0.03
470.688	-0.05
470.888	-0.01
471.088	-0.04
471.288	0.01
471.488	0
471.688	0.02
471.888	-0.03
472.088	0.06
472.288	-0.02
472.488	-0.04
472.688	0
472.888	0.01
473.088	-0.04
473.288	0.01
473.488	-0.03
473.688	0.06
473.887	-0.03
474.087	-0.06
474.287	0.01
474.487	0
474.687	0.04
474.886	-0.03
475.086	0.01
475.286	0
475.486	0.01
475.685	0.01
475.885	-0.04
476.085	-0.04
476.284	0.03
476.484	-0.03
476.684	0.04
476.883	0.04
477.083	-0
477.282	-0.02
477.482	0.07
477.681	0.03
477.881	0.04
478.08	-0.02
478.28	-0
478.479	0.02
478.679	0.07
478.878	-0.02
479.078	-0.02
479.277	0.01
479.477	0.01
479.676	0.02
479.875	0.01
480.075	-0.04
480.274	0.01
480.473	-0.01
480.673	-0.05
480.872	0.02
481.071	-0.01
481.271	-0
481.47	0.02
481.669	-0.02
481.868	-0.03
482.067	-0.04
482.267	-0.03
482.466	-0.07
482.665	-0.02
482.864	-0.03
483.063	-0.06
483.262	0.03
483.461	0.02
483.661	0.04
483.86	0.01
484.059	0.02
484.258	0.02
484.457	-0.02
484.656	0.02
484.855	0.03
485.054	-0.06
485.253	-0.02
485.452	-0.01
485.651	-0.02
485.849	-0.02
486.048	-0.02
486.247	-0.02
486.446	0.01
486.645	-0.04
486.844	0
487.043	-0
487.241	-0
487.44	-0.04
487.639	-0.02
487.838	0.01
488.037	0
488.235	0.04
488.434	-0
488.633	-0.04
488.831	0
489.03	0.03
489.229	0.03
489.427	-0.01
489.626	0.03
489.825	0.06
490.023	-0.01
490.222	-0.02
490.42	0.02
490.619	0.03
490.817	0
491.016	-0
491.214	0.02
491.413	-0
491.611	-0.01
491.81	0.01
492.008	0.03
492.207	-0.01
492.405	-0.03
492.604	-0.02
492.802	-0
493	0
493.199	-0.04
493.397	0
493.595	0
493.794	-0.01
493.992	0.02
494.19	0
494.388	0.03
494.587	-0.01
494.785	-0.01
494.983	-0.05
495.181	-0
495.379	-0
495.578	-0.02
495.776	0.01
495.974	0.02
496.172	-0.02
496.37	-0
496.568	-0.02
496.766	-0.03
496.964	0.01
497.162	0
497.36	-0.02
497.558	0.01
497.756	0.04
497.954	-0.01
498.152	-0.01
498.35	-0.03
498.548	-0.03
498.746	-0
498.944	-0.05
499.142	-0.01
499.34	-0.03
499.538	-0.01
499.736	-0.04
499.933	0.01
500.131	0.02
500.329	-0
500.527	0.03
500.725	0.03
500.922	0.01
501.12	-0.01
501.318	-0.02
501.516	-0.02
501.713	0.02
501.911	-0
502.109	-0.03
502.306	0.02
502.504	-0
502.701	-0.02
502.899	-0.02
503.097	0.04
503.294	0.01
503.492	0.01
503.689	0
503.887	0.01
504.084	0.03
504.282	-0
504.479	-0.03
504.677	0
504.874	-0.03
505.072	0.02
505.269	-0.01
505.466	-0.02
505.664	-0.01
505.861	-0.04
506.059	-0.02
506.256	-0.01
506.453	-0.03
506.651	0.05
506.848	0.03
507.045	0.01
507.242	-0.01
507.44	-0.02
507.637	-0.01
507.834	-0
508.031	0.02
508.229	-0.02
508.426	0
508.623	0.03
508.82	-0.01
509.017	-0.02
509.214	-0.02
509.411	-0.03
509.608	-0.03
509.805	0.02
510.003	-0.02
510.2	0
510.397	0.02
510.594	-0.02
510.791	-0.03
510.988	-0.01
511.184	0.02
511.381	-0.01
511.578	-0.01
511.775	0.04
511.972	-0.02
512.169	0
512.366	-0.01
512.563	0.01
512.76	-0.02
512.956	-0
513.153	-0.02
513.35	0.01
513.547	-0
513.744	-0.03
513.94	-0.04
514.137	0.03
514.334	-0.01
514.53	-0.01
514.727	0
514.924	0.02
515.12	-0.02
515.317	-0.03
515.514	-0.02
515.71	-0.05
515.907	-0.01
516.103	-0.01
516.3	0.01
516.497	-0.01
516.693	0.02
516.89	-0.01
517.086	-0.03
517.283	0.03
517.479	0.01
517.676	-0.02
517.872	-0.02
518.068	-0.02
518.265	-0.02
518.461	-0.02
518.658	-0.03
518.854	0.01
519.05	-0
519.247	-0.01
519.443	0.01
519.639	-0.01
519.836	-0.01
520.032	-0.01
520.228	0
520.424	0.03
520.621	0.01
520.817	-0.03
521.013	0.01
521.209	0
521.405	0.03
521.601	0.02
521.798	-0.01
521.994	0.03
522.19	-0.02
522.386	-0.03
522.582	-0
522.778	-0.01
522.974	-0.02
523.17	-0.01
523.366	0
523.562	0.02
523.758	-0.01
523.954	-0.03
524.15	-0
524.346	0
524.542	-0.01
524.738	-0.05
524.934	-0.01
525.129	-0.08
525.325	0.01
525.521	0.01
525.717	0.01
525.913	-0.01
526.109	0.01
526.304	-0.02
526.5	0.02
526.696	0.04
526.892	-0.02
527.087	-0
527.283	-0.02
527.479	0.02
527.674	-0.01
527.87	-0.01
528.066	-0.02
528.261	0.02
528.457	0.01
528.653	-0.02
528.848	-0.02
529.044	-0.01
529.239	-0
529.435	0.02
529.63	-0.02
529.826	0.04
530.021	0.01
530.217	0.02
530.412	-0.01
530.608	-0.02
530.803	0.01
530.999	-0.01
531.194	-0.04
531.389	0
531.585	-0.05
531.78	-0.02
531.975	0
532.171	0.03
532.366	-0.01
532.561	0.01
532.757	-0.03
532.952	-0.01
533.147	0.02
533.342	0
533.538	-0.02
533.733	0.03
533.928	-0.01
534.123	-0
534.318	-0.04
534.513	-0
534.709	-0.01
534.904	-0.03
535.099	-0.02
535.294	-0.01
535.489	-0
535.684	0
535.879	-0.02
536.074	0.01
536.269	-0.03
536.464	-0
536.659	-0.01
536.854	-0
537.049	-0.01
537.244	0.02
537.439	-0.01
537.634	0.01
537.828	0
538.023	-0.03
538.218	-0.04
538.413	-0.01
538.608	-0.02
538.803	0.01
538.997	-0.04
539.192	0.01
539.387	0.02
539.582	-0
539.776	-0.01
539.971	-0.01
540.166	-0
540.36	-0.03
540.555	0.01
540.75	-0.02
540.944	-0
541.139	-0.04
541.334	-0.01
541.528	0.01
541.723	0.02
541.917	0.01
542.112	-0.04
542.306	-0.01
542.501	-0.05
542.695	0
542.89	-0.02
543.084	-0.02
543.279	-0.01
543.473	-0.01
543.668	-0.01
543.862	-0
544.056	0.02
544.251	-0
544.445	0.01
544.64	-0.01
544.834	-0.02
545.028	-0.01
545.222	-0
545.417	-0
545.611	-0
545.805	-0.01
546	-0.03
546.194	-0.05
546.388	-0.02
546.582	0
546.776	-0.02
546.97	-0.01
547.165	-0.01
547.359	0.02
547.553	-0.03
547.747	-0.01
547.941	0
548.135	-0.01
548.329	0.01
548.523	0.01
548.717	-0.02
548.911	-0.02
549.105	-0.01
549.299	0
549.493	0.01
549.687	0.01
549.881	0.02
550.075	-0.01
550.269	-0.02
550.463	0.01
550.657	-0.03
550.85	0.01
551.044	-0.02
551.238	-0.01
551.432	0
551.626	-0.04
551.82	0
552.013	-0.04
552.207	-0.02
552.401	-0
552.594	0
552.788	0.01
552.982	-0.01
553.176	-0.03
553.369	0.01
553.563	0.03
553.756	-0.05
553.95	-0.03
554.144	-0
554.337	0.01
554.531	0.01
554.724	0
554.918	-0.02
555.111	0.02
555.305	-0.01
555.498	0.03
555.692	0.02
555.885	-0.03
556.079	0.01
556.272	-0.02
556.466	0.01
556.659	-0.02
556.852	-0.01
557.046	-0.03
557.239	0.04
557.432	-0.03
557.626	-0.02
557.819	0.03
558.012	0.02
558.206	-0.01
558.399	-0.01
558.592	0.01
558.785	-0.02
558.979	0.03
559.172	-0.01
559.365	0
559.558	0.02
559.751	-0
559.944	-0.02
560.138	-0.03
560.331	-0.02
560.524	-0.01
560.717	-0.01
560.91	-0.02
561.103	0.01
561.296	-0.02
561.489	0.01
561.682	-0.02
561.875	0
562.068	0.01
562.261	-0.01
562.454	0.03
562.647	0.01
562.84	0.01
563.032	-0.01
563.225	0.03
563.418	-0.02
563.611	-0.01
563.804	-0.01
563.997	-0
564.19	-0.03
564.382	0
564.575	-0.01
564.768	0
564.961	0.01
565.153	-0.01
565.346	0.03
565.539	0.02
565.731	0.03
565.924	0.02
566.117	0.02
566.309	0
566.502	-0.01
566.695	-0
566.887	-0.02
567.08	-0.04
567.272	-0.03
567.465	-0.02
567.657	-0.02
567.85	0.02
568.042	0
568.235	0.04
568.427	-0.01
568.62	-0
568.812	-0.01
569.005	-0.01
569.197	-0.05
569.389	-0.01
569.582	0.01
569.774	0.01
569.966	-0.03
570.159	-0.05
570.351	0.01
570.543	-0.04
570.736	-0.02
570.928	-0.04
571.12	-0.03
571.312	-0.02
571.505	-0.04
571.697	0.02
571.889	-0.03
572.081	-0.03
572.273	-0.03
572.465	0.02
572.658	-0.01
572.85	0.02
573.042	-0.02
573.234	0.01
573.426	0.02
573.618	-0.04
573.81	-0
574.002	0.02
574.194	0.04
574.386	-0.04
574.578	-0.07
574.77	-0.02
574.962	-0.02
575.154	-0.03
575.346	-0.01
575.538	-0
575.729	-0.04
575.921	-0.01
576.113	-0.03
576.305	0.03
576.497	-0.03
576.689	-0.01
576.88	-0.05
577.072	0.01
577.264	-0.03
577.456	-0.02
577.647	-0.07
577.839	0.01
578.031	0.02
578.223	-0.05
578.414	-0.06
578.606	0.02
578.798	-0
578.989	-0.01
579.181	-0.02
579.372	0
579.564	-0.01
579.755	0.01
579.947	0
580.139	-0.02
580.33	-0.07
580.522	-0.02
580.713	-0.08
580.905	-0.02
581.096	-0.01
581.287	-0.03
581.479	-0.02
581.67	0.02
581.862	-0.01
582.053	-0.02
582.244	-0.06
582.436	0.01
582.627	0.01
582.818	-0.05
583.01	-0.04
583.201	0
583.392	0
583.583	-0.03
583.775	-0.04
583.966	-0.05
584.157	-0
584.348	-0.03
584.54	-0.05
584.731	-0
584.922	-0
585.113	-0.04
585.304	0.03
585.495	0.02
585.686	0
585.877	0.02
586.068	-0
586.259	0
586.45	-0
586.641	-0.04
586.832	-0.05
587.023	-0.01
587.214	0
587.405	-0
587.596	-0.06
587.787	0.02
587.978	-0.01
588.169	-0.03
588.36	-0.02
588.551	0
588.742	-0.05
588.932	-0.01
589.123	0
589.314	0.03
589.505	0.02
589.696	-0.02
589.886	-0.04
590.077	-0.03
590.268	-0.01
590.458	-0.06
590.649	-0.04
590.84	0.02
591.03	-0.02
591.221	-0.03
591.412	-0.05
591.602	0.02
591.793	0.03
591.984	-0.05
592.174	-0
592.365	0.05
592.555	-0.03
592.746	0.01
592.936	0.01
593.127	0.02
593.317	0.03
593.508	-0.01
593.698	0
593.889	-0
594.079	0.03
594.269	-0.03
594.46	-0.02
594.65	-0.01
594.84	-0.01
595.031	-0.04
595.221	-0.01
595.411	-0.06
595.602	-0
595.792	0
595.982	-0.02
596.172	0.05
596.363	-0.01
596.553	0.01
596.743	0
596.933	-0.01
597.123	0.01
597.314	-0.03
597.504	-0.04
597.694	0
597.884	0.01
598.074	-0
598.264	-0.03
598.454	0.01
598.644	0
598.834	-0
599.024	-0.07
599.214	-0.04
599.404	0
599.594	-0.05
599.784	-0.04
599.974	0.02
600.164	0.01
600.354	-0.03
600.544	-0.06
600.734	0.01
600.924	0.03
601.114	-0.02
601.303	-0.04
601.493	0.03
601.683	0.02
601.873	0.01
602.063	-0.05
602.252	0.02
602.442	-0.07
602.632	-0.04
602.821	-0.05
603.011	0.02
603.201	-0
603.39	-0.03
603.58	-0.03
603.77	-0.01
603.959	0.04
604.149	-0.01
604.339	-0.04
604.528	0.04
604.718	0.02
604.907	-0.01
605.097	-0
605.286	-0.04
605.476	0
605.665	0.03
605.855	-0
606.044	0.05
606.234	-0
606.423	-0.01
606.612	-0.05
606.802	0
606.991	0.01
607.181	-0
607.37	-0.09
607.559	-0.01
607.749	-0.07
607.938	-0.02
608.127	-0.02
608.316	-0.03
608.506	0.02
608.695	-0
608.884	-0.05
609.073	0
609.263	0.03
609.452	-0.02
609.641	0
609.83	-0.02
610.019	-0.03
610.208	-0.05
610.397	-0.02
610.586	0.02
610.775	-0.02
610.965	-0.02
611.154	-0.02
611.343	-0.02
611.532	0.01
611.721	-0.02
611.91	-0.02
612.099	-0
612.287	-0.01
612.476	-0.06
612.665	0
612.854	-0
613.043	0.03
613.232	-0.02
613.421	-0.06
613.61	0.01
613.798	-0.04
613.987	0.02
614.176	0.01
614.365	0.04
614.554	0.02
614.742	0.01
614.931	-0.01
615.12	0.03
615.309	0
615.497	0.01
615.686	-0.03
615.875	-0.03
616.063	0
616.252	-0.03
616.44	-0.03
616.629	0.01
616.818	0.02
617.006	-0.02
617.195	-0.02
617.383	-0
617.572	-0.04
617.76	0
617.949	-0.03
618.137	0.03
618.326	0.03
618.514	-0.03
618.703	-0.06
618.891	0.04
619.079	-0.04
619.268	0.02
619.456	-0.04
619.644	0.02
619.833	-0
620.021	-0
620.209	-0.06
620.398	0.01
620.586	-0.04
620.774	-0.01
620.962	0.01
621.151	0.03
621.339	-0.01
621.527	-0.04
621.715	-0.05
621.903	-0.05
622.092	-0.06
622.28	-0.01
622.468	-0.01
622.656	0
622.844	0
623.032	-0.02
623.22	-0.07
623.408	0.02
623.596	0.01
623.784	0.02
623.972	-0.07
624.16	-0.02
624.348	0.04
624.536	-0.03
624.724	-0.05
624.912	0.04
625.1	0.05
625.288	-0.03
625.476	-0.04
625.664	0.02
625.851	-0.02
626.039	-0.03
626.227	-0.01
626.415	-0.01
626.603	-0.06
626.79	0.03
626.978	-0.01
627.166	-0.01
627.354	-0.01
627.541	-0.03
627.729	-0.07
627.917	0.04
628.104	0.03
628.292	0
628.48	-0.02
628.667	-0
628.855	-0.02
629.042	0
629.23	-0.01
629.418	-0.05
629.605	-0
629.793	-0.03
629.98	-0.02
630.168	-0.01
630.355	-0.02
630.543	-0.01
630.73	-0.03
630.917	0.02
631.105	0.07
631.292	-0.05
631.48	0
631.667	0.05
631.854	0.02
632.042	-0.02
632.229	-0.05
632.416	-0.01
632.604	-0.06
632.791	-0.05
632.978	0.01
633.165	-0.01
633.353	0.05
633.54	0.02
633.727	-0.06
633.914	-0.03
634.101	-0.08
634.289	-0
634.476	-0.05
634.663	-0.02
634.85	0
635.037	-0.05
635.224	-0.06
635.411	0.01
635.598	0.04
635.785	0.01
635.972	-0.01
636.159	0.03
636.346	-0.03
636.533	-0.02
636.72	-0.04
636.907	-0.01
637.094	0.02
637.281	-0.03
637.468	0.01
637.655	-0.01
637.842	-0.02
638.029	-0.02
638.215	0.02
638.402	-0.01
638.589	-0.05
638.776	-0.02
638.963	-0.05
639.149	0.05
639.336	0.04
639.523	-0.01
639.709	-0.03
639.896	-0.03
640.083	0.04
640.27	0
640.456	-0.01
640.643	-0.04
640.829	-0.05
641.016	-0.02
641.203	-0.03
641.389	-0
641.576	0.06
641.762	-0.02
641.949	-0.06
642.135	-0.01
642.322	-0.01
642.508	-0.07
642.695	-0.02
642.881	-0.04
643.068	-0.01
643.254	-0.06
643.441	0.03
643.627	-0.03
643.813	-0.03
644	0.03
644.186	-0.03
644.372	-0.07
644.559	0.02
644.745	-0.04
644.931	-0.02
645.118	-0.03
645.304	-0.01
645.49	-0.03
645.676	-0.01
645.862	-0.02
646.049	0.02
646.235	-0.02
646.421	0.06
646.607	0.06
646.793	-0.04
646.979	-0.04
647.165	-0.03
647.352	0.01
647.538	0.04
647.724	-0.01
647.91	0.01
648.096	0.04
648.282	0.02
648.468	-0.03
648.654	-0.01
648.84	-0.02
649.026	-0.04
649.212	-0.02
649.397	-0.03
649.583	-0.04
649.769	-0.02
649.955	-0.03
650.141	-0.01
650.327	0.04
650.513	-0.03
650.698	0.01
650.884	-0.09
651.07	0
651.256	-0
651.442	-0.01
651.627	0
651.813	-0.01
651.999	-0
652.184	-0.01
652.37	-0.03
652.556	-0.04
652.741	0.04
652.927	-0.08
653.113	-0.04
653.298	-0.04
653.484	-0.05
653.669	-0.07
653.855	-0.02
654.04	-0
654.226	0.04
654.412	-0.04
654.597	-0.06
654.782	0.01
654.968	0.04
655.153	0.01
655.339	-0.04
655.524	-0.04
655.71	0.04
655.895	-0.05
656.08	-0.04
656.266	0.02
656.451	0.01
656.636	-0.05
656.822	-0.03
657.007	-0.07
657.192	-0.04
657.378	-0.05
657.563	-0.02
657.748	0.01
657.933	-0.01
658.118	-0.06
658.304	-0.05
658.489	-0.01
658.674	-0.01
658.859	-0.07
659.044	-0.02
659.229	0.01
659.414	-0.03
659.599	0.02
659.785	-0.06
659.97	-0.03
660.155	0.01
660.34	0.01
660.525	-0.02
660.71	-0
660.895	0.03
661.08	-0.04
661.264	-0.05
661.449	0.02
661.634	0.01
661.819	-0.03
662.004	0
662.189	-0.08
662.374	-0.05
662.559	-0.09
662.743	-0.05
662.928	-0.03
663.113	-0.03
663.298	-0.09
663.483	-0.04
663.667	0.03
663.852	-0.06
664.037	0.03
664.221	-0.05
664.406	0
664.591	0.02
664.775	0.02
664.96	-0.02
665.145	-0.05
665.329	0.01
665.514	-0.05
665.698	-0.03
665.883	-0.06
666.068	0.05
666.252	-0.03
666.437	-0.07
666.621	0.02
666.806	0
666.99	-0.04
667.174	-0.06
667.359	0.05
667.543	-0.03
667.728	-0.04
667.912	-0.08
668.096	-0
668.281	0.01
668.465	-0.01
668.649	-0.02
668.834	-0.05
669.018	-0.02
669.202	-0.03
669.387	-0.06
669.571	0.03
669.755	-0.04
669.939	-0.04
670.124	-0.02
670.308	0.04
670.492	0.02
670.676	-0.02
670.86	-0.04
671.044	-0.06
671.228	0.04
671.413	-0.04
671.597	-0.03
671.781	-0.09
671.965	0.01
672.149	0.01
672.333	-0.01
672.517	-0.05
672.701	-0
672.885	-0.05
673.069	-0.04
673.253	0.02
673.437	-0.02
673.621	-0.08
673.804	-0.02
673.988	-0.01
674.172	0.02
674.356	-0.04
674.54	-0.04
674.724	0.08
674.908	0.02
675.091	0.04
675.275	-0
675.459	0.04
675.643	-0.04
675.826	0
676.01	-0
676.194	-0.04
676.377	0.04
676.561	-0
676.745	-0.01
676.928	0.06
677.112	0.02
677.296	-0.07
677.479	-0.04
677.663	-0.06
677.846	0.02
678.03	-0.03
678.213	-0.05
678.397	-0.01
678.58	-0.01
678.764	-0.01
678.947	-0.08
679.131	-0.05
679.314	0.04
679.498	-0.02
679.681	0.02
679.865	0.03
680.048	-0
680.231	0
680.415	-0.02
680.598	-0.02
680.781	-0.01
680.965	-0.07
681.148	0.02
681.331	-0.05
681.514	0
681.698	-0.05
681.881	-0.05
682.064	-0.02
682.247	0.04
682.43	-0.05
682.614	0
682.797	0.01
682.98	0.04
683.163	-0.02
683.346	-0.01
683.529	-0.06
683.712	-0.05
683.895	-0
684.078	-0.1
684.261	-0.03
684.444	-0.02
684.627	-0
684.81	-0.05
684.993	0.04
685.176	0.02
685.359	-0.05
685.542	-0.05
685.725	0.04
685.908	0.01
686.091	-0.02
686.274	0.05
686.457	-0.01
686.639	-0.01
686.822	0.02
687.005	0.01
687.188	0
687.371	0.06
687.553	0.01
687.736	0.01
687.919	0.05
688.102	0.01
688.284	-0.01
688.467	-0.02
688.65	-0.02
688.832	-0.02
689.015	-0.01
689.197	-0.1
689.38	0.04
689.563	0.03
689.745	-0.03
689.928	-0.1
690.11	-0.01
690.293	0.02
690.475	-0.07
690.658	-0
690.84	-0.01
691.023	-0.04
691.205	-0.02
691.388	-0.01
691.57	0.03
691.752	0.04
691.935	-0.15
692.117	-0.06
692.3	-0.02
692.482	-0.05
692.664	-0.05
692.847	0.02
693.029	0.07
693.211	0
693.393	-0.01
693.576	-0.04
693.758	0.02
693.94	-0.07
694.122	-0.05
694.304	-0.01
694.487	-0.05
694.669	0.1
694.851	-0.05
695.033	-0.05
695.215	-0.07
695.397	-0.08
695.579	0.03
695.761	-0.1
695.943	-0.03
696.125	0.09
696.308	0.04
696.49	-0.11
696.671	0.09
696.853	0.01
697.035	0.14
697.217	0.02
697.399	0.04
697.581	-0.05
697.763	0.02
697.945	-0.04
698.127	-0.03
698.309	0.02
698.491	-0.01
698.672	0.02
698.854	0.04
699.036	0.08
699.218	-0.09
699.399	0.03
699.581	0.07
699.763	0.02
699.945	-0.06
700.126	-0.09
700.308	-0.03
700.49	0
700.671	-0.09
700.853	-0.09
701.035	0.04
701.216	-0.04
701.398	-0.09
701.579	-0.02
701.761	0
701.943	-0.04
702.124	-0.07
702.306	-0.05
702.487	0.12
702.669	-0.01
702.85	-0.09
703.031	-0.04
703.213	0.1
703.394	0.04
703.576	0.02
703.757	0.05
703.938	0.01
704.12	0.18
704.301	-0.02
704.483	-0.09
704.664	0.01
704.845	0.04
705.026	0.01
705.208	-0.03
705.389	-0.06
705.57	0.01
705.751	-0.05
705.933	-0.07
706.114	0.11
706.295	-0.02
706.476	0.01
706.657	0.03
706.838	0.05
707.02	0.05
707.201	-0.07
707.382	0.01
707.563	0.08
707.744	-0.07
707.925	-0.07
708.106	-0.11
708.287	0.03
708.468	0.05
708.649	-0.04
708.83	-0.01
709.011	-0.02
709.192	0.04
709.373	-0.12
709.554	0.02
709.734	0
709.915	0.06
710.096	-0.02
710.277	-0.15
710.458	-0.07
710.639	-0.02
710.819	-0.09
711	-0.07
711.181	-0
711.362	-0.01
711.542	0.02
711.723	-0.03
711.904	0
712.085	0.05
712.265	0.03
712.446	-0.07
712.627	0.01
712.807	0.03
712.988	0.01
713.168	-0.05
713.349	0.06
713.53	-0.09
713.71	-0.03
713.891	-0.1
714.071	-0.07
714.252	-0.07
714.432	-0.04
714.613	-0.12
714.793	-0.02
714.974	0.09
715.154	0.04
715.334	0.04
715.515	0.08
715.695	-0.08
715.876	-0.04
716.056	-0.05
716.236	-0.03
716.417	-0.06
716.597	-0.06
716.777	0.11
716.957	0.01
717.138	-0.04
717.318	-0.01
717.498	-0.08
717.678	-0.01
717.859	0.02
718.039	-0.12
718.219	-0.02
718.399	0.01
718.579	-0.1
718.759	-0.1
718.939	-0.01
719.12	-0.05
719.3	0.01
719.48	-0.15
719.66	-0.12
719.84	0.03
720.02	-0.05
720.2	-0.07
720.38	-0
720.56	0
720.74	-0.08
720.92	-0.02
721.1	0.01
721.279	0.08
721.459	-0.02
721.639	-0
721.819	-0.05
721.999	-0.1
722.179	0.01
722.359	-0.02
722.538	-0.01
722.718	-0
722.898	-0.11
723.078	-0.07
723.257	-0.07
723.437	0.02
723.617	0
723.797	-0.16
723.976	0.03
724.156	-0.03
724.336	0.05
724.515	0.09
724.695	-0.14
724.874	-0.01
725.054	0.09
725.234	-0.04
725.413	0.04
725.593	-0.08
725.772	-0.02
725.952	-0.03
726.131	-0.01
726.311	-0.11
726.49	-0
726.67	-0.12
726.849	-0.05
727.028	-0.01
727.208	-0.07
727.387	-0.07
727.567	-0.1
727.746	0.02
727.925	-0.09
728.105	-0.13
728.284	-0.06
728.463	-0.11
728.643	0.01
728.822	-0.16
729.001	0.03
729.18	0.06
729.359	-0.01
729.539	-0.06
729.718	0.03
729.897	0.06
730.076	-0.03
730.255	-0.11
730.434	-0.06
730.614	0.02
730.793	0.07
730.972	-0.06
731.151	-0.02
731.33	0.04
731.509	0.02
731.688	-0.05
731.867	0.03
732.046	-0.12
732.225	0.1
732.404	-0.07
732.583	-0.08
732.762	0.02
732.941	0.02
733.12	0.01
733.298	-0.06
733.477	0.09
733.656	-0.04
733.835	-0.12
734.014	-0.04
734.193	-0.06
734.371	0.03
734.55	0.06
734.729	-0.07
734.908	0.04
735.086	0.11
735.265	0.03
735.444	-0.12
735.623	-0.06
735.801	-0.16
735.98	0.02
736.159	-0.11
736.337	-0.01
736.516	-0.04
736.694	-0.03
736.873	-0.12
737.052	0.12
737.23	0.2
737.409	-0.04
737.587	0.15
737.766	-0.19
737.944	-0.11
738.123	0.06
738.301	0.05
738.479	-0.09
738.658	-0.08
738.836	-0.18
739.015	-0.04
739.193	0.09
739.371	-0.12
739.55	-0.08
739.728	-0.13
739.906	0.17
740.085	0.07
740.263	-0.08
740.441	-0.19
740.62	0.09
740.798	0.04
740.976	-0.09
741.154	-0.14
741.332	0.12
741.511	-0.11
741.689	0.05
741.867	0.02
742.045	-0.02
742.223	0.03
742.401	-0.16
742.579	-0.02
742.757	0.12
742.935	-0.12
743.114	-0.02
743.292	-0.07
743.47	0.03
743.648	-0.01
743.826	-0.24
744.004	0.12
744.181	0.08
744.359	0.01
744.537	0.06
744.715	-0.06
744.893	0.02
745.071	-0.1
745.249	-0.13
745.427	-0.02
745.605	0.07
745.782	0.07
745.96	-0.02
746.138	0.03
746.316	-0.03
746.493	0.08
746.671	-0.02
746.849	-0.03
747.027	0.19
747.204	-0.15
747.382	-0
747.56	-0.17
747.737	-0.12
747.915	-0.1
748.093	-0.02
748.27	-0.11
748.448	-0.02
748.625	-0.17
748.803	-0.2
748.98	-0.04
749.158	-0
749.335	0.03
749.513	-0.06
749.69	-0.04
749.868	-0.01
750.045	0.05
750.223	-0.11
750.4	-0.25
750.578	0.26
750.755	0.04
750.932	-0.14
751.11	0.12
751.287	-0.13
751.464	0.15
751.642	-0.06
751.819	-0.01
751.996	-0.02
752.173	-0.09
752.351	-0.09
752.528	-0.06
752.705	-0.09
752.882	-0.08
753.06	-0.11
753.237	0.08
753.414	0.07
753.591	0.16
753.768	-0.06
753.945	-0.08
754.122	-0.06
754.299	-0.03
754.476	-0.18
754.654	-0.07
754.831	0.07
755.008	-0.04
755.185	-0.18
755.362	-0.24
755.539	-0.05
755.716	-0.15
755.892	-0.05
756.069	-0.05
756.246	-0.05
756.423	-0.06
756.6	0.02
756.777	-0.02
756.954	0.04
757.131	-0
757.307	-0.13
757.484	-0.11
757.661	-0.01
757.838	-0.02
758.015	-0.08
758.191	-0.03
758.368	0.01
758.545	0.16
758.721	0.06
758.898	-0.22
759.075	0.05
759.251	0.08
759.428	-0
759.605	-0.18
759.781	-0.05
759.958	-0.02
760.134	-0.06
760.311	-0.1
760.488	0.14
760.664	0.11
760.841	0.03
761.017	-0.14
761.194	0.12
761.37	-0.04
761.547	-0.03
761.723	-0.02
761.899	0.1
762.076	-0.17
762.252	-0.12
762.429	-0.02
762.605	0
762.781	-0.02
762.958	0.14
763.134	-0.04
763.31	-0.06
763.486	0.09
763.663	-0.17
763.839	0.06
764.015	-0.21
764.191	0
764.368	-0.07
764.544	-0.04
764.72	-0.01
764.896	0.09
765.072	-0.02
765.248	0.05
765.425	-0.06
765.601	-0.03
765.777	-0.03
765.953	-0.24
766.129	-0.09
766.305	-0.12
766.481	0.05
766.657	0.03
766.833	0.21
767.009	-0.14
767.185	-0.03
767.361	0.03
767.537	-0.16
767.713	0.04
767.889	-0.19
768.065	-0.11
768.24	-0.25
768.416	0.14
768.592	-0.08
768.768	0.07
768.944	0.06
769.12	-0.16
769.295	0.01
769.471	0.02
769.647	-0.02
769.823	0.07
769.998	-0.26
770.174	-0.09
770.35	0.33
770.525	0.13
770.701	-0.05
770.877	-0.08
771.052	-0.08
771.228	0.19
771.403	-0
771.579	0.19
771.755	0.24
771.93	-0.09
772.106	-0.1
772.281	-0.16
772.457	-0.09
772.632	0
772.808	-0.18
772.983	-0.09
773.159	-0.17
773.334	0.13
773.509	-0.14
773.685	-0.11
773.86	0.41
774.036	0.17
774.211	0.05
774.386	-0.23
774.562	0.01
774.737	-0.05
774.912	-0.17
775.087	-0.02
775.263	-0.03
775.438	0.02
775.613	-0.14
775.788	-0.02
775.964	0.09
776.139	0.25
776.314	-0.27
776.489	-0.05
776.664	-0.01
776.839	-0.08
777.014	0.19
777.19	0.14
777.365	0.26
777.54	0.28
777.715	-0.09
777.89	-0.12
778.065	-0.13
778.24	-0.11
778.415	0.15
778.59	-0.19
778.765	-0.03
778.94	-0.1
779.115	-0.12
779.289	-0.1
779.464	-0.09
779.639	-0.08
779.814	-0.13
779.989	-0.07
780.164	0.1
780.339	-0.01
780.513	-0.14
780.688	-0.25
780.863	0.04
781.038	0.2
781.212	-0.2
781.387	0.03
781.562	0.04
781.737	0.11
781.911	0.19
782.086	-0.09
782.261	-0
782.435	0.26
782.61	-0.2
782.784	-0.05
782.959	0.14
783.134	-0.11
783.308	-0.2
783.483	0
783.657	0.21
783.832	0.18
784.006	-0.41
784.181	0.04
784.355	0.1
784.53	0.09
784.704	-0.16
784.878	0.06
785.053	-0.02
785.227	0.08
785.402	0.34
785.576	-0.26
785.75	-0.04
785.925	-0.03
786.099	-0.15
786.273	0.03
786.448	0.12
786.622	-0.04
786.796	0.19
786.97	-0.05
787.145	0.4
787.319	-0.26
787.493	-0.06
787.667	-0.4
787.841	-0.01
788.015	0.34
788.19	-0.19
788.364	0
788.538	0.07
788.712	-0
788.886	-0.12
789.06	-0.04
789.234	0.02
789.408	-0.21
789.582	-0.18
789.756	-0.13
789.93	-0.32
790.104	0.09
790.278	-0.12
790.452	-0.16
790.626	-0.04
790.8	-0.25
790.973	0.21
791.147	0.18
791.321	0.14
791.495	0.22
791.669	0.07
791.843	0.11
792.016	-0.09
792.19	0.34
792.364	-0.21
792.538	0.34
792.711	0.03
792.885	-0.06
793.059	-0.25
793.233	-0.69
793.406	0.14
793.58	-0.04
793.754	0.12
793.927	-0.24
794.101	0.05
794.274	0.14
794.448	0.21
794.622	-0.15
794.795	0.24
794.969	-0.08
795.142	0.11
795.316	-0.1
795.489	0.01
795.663	0.29
795.836	-0.01
796.009	-0.32
796.183	0.25
796.356	0.13
796.53	-0.02
796.703	-0.04
796.876	0.36
797.05	-0.03
797.223	-0.06
797.396	0.09
797.57	-0.08
797.743	0.25
797.916	-0.02
798.09	-0.11
798.263	0.16
798.436	0.18
798.609	-0.36
798.782	-0.19
798.956	-0.12
799.129	-0.04
799.302	-0.11
799.475	-0.3
799.648	-0.14
799.821	-0.07
799.994	-0.19
800.167	-0.46
800.34	0.02
800.514	-0
800.687	-0.06
800.86	-0.33
801.033	0
801.206	-0.03
801.379	-0.26
801.551	0.05
801.724	0.26
801.897	0.38
802.07	-0.25
802.243	-0.5
802.416	-0.11
802.589	-0.15
802.762	-0.01
802.935	-0.11
803.107	0.1
803.28	0.13
803.453	0.2
803.626	-0.11
803.798	-0.15
803.971	-0.05
804.144	0.21
804.317	-0.21
804.489	0.23
804.662	0.19
804.835	-0.04
805.007	-0.24
805.18	0.56
805.353	-0.2
805.525	-0.19
805.698	-0.21
805.87	0.33
806.043	0.26
806.215	-0.43
806.388	-0.42
806.56	0.12
806.733	0.39
806.905	-0.2
807.078	-0.24
807.25	-0.24
807.423	0.35
807.595	0.11
807.768	-0.23
807.94	0.08
808.112	-0.13
808.285	-0.07
808.457	0.11
808.629	0.16
808.802	0.2
808.974	0.19
809.146	-0.26
809.318	-0.24
809.491	0.06
809.663	0.2
809.835	-0.45
810.007	0.11
810.18	-0.02
810.352	-0.47
810.524	-0.37
810.696	0.34
810.868	0.22
811.04	-0.26
811.212	-0.25
811.384	0
811.556	0.19
811.728	-0.37
811.901	0.56
812.073	-0.01
812.245	0.29
812.417	0.06
812.589	-0.69
812.76	-0.07
812.932	0.24
813.104	0.13
813.276	0.21
813.448	0.21
813.62	-0.27
813.792	0.07
813.964	-0.02
814.136	-0.08
814.307	-0.17
814.479	-0.01
814.651	-0.13
814.823	0.87
814.995	-0.3
815.166	0.1
815.338	-0.09
815.51	-0.61
815.681	1.01
815.853	0.1
816.025	-0.33
816.196	0.59
816.368	0.24
816.54	-0.74
816.711	-0.4
816.883	0.17
817.054	0.57
817.226	-0.91
817.398	-0.26
817.569	-0.32
817.741	0.3
817.912	-0.04
818.084	-0.21
818.255	0.22
818.426	-0.5
818.598	0.14
818.769	-0.24
818.941	0.42
819.112	0.44
819.283	0.16
819.455	-0.39
819.626	-0.07
819.798	0.67
819.969	0.08
820.14	-0.03
820.311	-0.14
820.483	0.34
820.654	-0.14
820.825	0.03
820.996	-0.35
821.168	-0.54
821.339	0.2
821.51	-0.74
821.681	-0.13
821.852	-0.09
822.023	-0.23
822.195	-0.7
822.366	0.15
822.537	-0.22
822.708	0.14
822.879	-0.37
823.05	0.57
823.221	-0.2
823.392	0.3
823.563	-0.2
823.734	-0.08
823.905	-0.01
824.076	-0.4
824.247	-0.16
824.418	-0.44
824.589	0.78
824.759	-0.26
824.93	-0.03
825.101	-0.57
825.272	0.27
825.443	0.7
825.614	0.68
825.784	-0.85
825.955	0.91
826.126	0.8
826.297	0.1
826.467	0.77
826.638	0.86
826.809	-0.65
826.98	0.12
827.15	-0.18
827.321	0.2
827.492	0.61
827.662	0.11
827.833	1.25
828.003	0.24
828.174	-0.63
828.345	-0.59
828.515	0.89
828.686	-0.5
828.856	-0.17
829.027	-0.06
829.197	-0.04
829.368	0.16
829.538	-0.44
829.709	-0.27
829.879	0.65
830.049	0.15
830.22	-0.22
830.39	0.29
830.56	0.73
830.731	-0.3
830.901	-0.12
831.072	-0.07
831.242	0
831.412	0.65
831.582	0.1
831.753	-0.52
831.923	0.08
832.093	-0.02
832.263	-0.48
832.434	-0.54
832.604	-0.91
832.774	0.38
832.944	-0.45
833.114	-0.2
833.284	0.14
833.454	-1.05
833.624	-0.36
833.795	-1.03
833.965	0.11
834.135	0.86
834.305	-1.06
834.475	-0.69
834.645	-0.42
834.815	0.02
834.985	-0.71
835.155	-0.61
835.325	0.16
835.494	0.27
835.664	0.32
835.834	-1.49
836.004	0.09
836.174	0.39
836.344	0
836.514	-0.88
836.684	-0.74
836.853	-0.1
837.023	0.76
837.193	-0.82
837.363	0.71
837.532	0.33
837.702	-0.23
837.872	-0.43
838.041	0.31
838.211	1.02
838.381	-1.02
838.55	0.48
838.72	1.74
838.89	1.38
839.059	-0.34
839.229	-1.08
839.398	0.93
839.568	0.55
839.738	0.04
839.907	0.91
840.077	-0.09
840.246	-0.73
840.416	-0.24
840.585	-0.56
840.755	1
840.924	0.66
841.093	-1.15
841.263	-0.11
841.432	0.59
841.602	-0.93
841.771	-0.92
841.94	-0.15
842.11	1.92
842.279	0.96
842.448	0.02
842.617	-1.5
842.787	0.69
842.956	-1.2
843.125	-0.29
843.294	0.34
843.464	0.5
843.633	0.21
843.802	-0.62
843.971	0.03
844.14	1.09
844.309	-0.02
844.479	-0.54
844.648	-0.8
844.817	0.12
844.986	-0.86
845.155	-0.02
845.324	-0.44
845.493	0.01
845.662	-1.21
845.831	0.58
846	0.24
846.169	0.08
846.338	1.14
846.507	-0.13
846.676	0.38
846.844	-0.87
847.013	0.95
847.182	0.27
847.351	-0.55
847.52	-0.4
847.689	0.35
847.858	0.07
848.026	-0.1
848.195	-0.27
848.364	-0.3
848.533	-0.88
848.701	-0.11
848.87	0.4
849.039	1.09
849.207	0.16
849.376	1.11
849.545	0.1
849.713	-0.98
849.882	-0.28
850.051	-0.65
850.219	-0.35
850.388	-1.1
850.556	-1.23
850.725	-0.26
850.893	-0.01
851.062	-0.19
851.23	0.63
851.399	-1.49
851.567	0
851.736	-0.99
851.904	-1.39
852.073	0.13
852.241	0.98
852.41	-0.39
852.578	-0.75
852.746	-1.12
852.915	0.44
853.083	0.04
853.251	-1.01
853.42	-0.98
853.588	0.5
853.756	1
853.924	-0.12
854.093	0.27
854.261	0.71
854.429	-1.67
854.597	0.54
854.765	-0.95
854.934	-0.79
855.102	1.32
855.27	0.06
855.438	0.83
855.606	-0.02
855.774	0.68
855.942	-1.61
856.11	-1.95
856.278	0.09
856.446	0.7
856.614	-0.6
856.782	-1.77
856.95	1.37
857.118	0.73
857.286	0.48
857.454	-1.5
857.622	1.6
857.79	0.65
857.958	-0.69
858.126	-1.25
858.294	-2.89
858.462	0.37
858.629	-0.55
858.797	-1.16
858.965	0.56
859.133	-0.03
859.301	-0.71
859.468	0.64
859.636	-0.54
859.804	1.32
859.971	1.2
860.139	-1.15
860.307	2.32
860.474	0.08
860.642	-1.02
860.81	-1.59
860.977	-0.46
861.145	0.9
861.313	0.2
861.48	-0.43
861.648	0.97
861.815	-0.46
861.983	-1.48
862.15	-0.99
862.318	-0.19
862.485	0.29
862.653	-0.3
862.82	-2.48
862.988	0.84
863.155	0.58
863.322	-0.68
863.49	-0.78
863.657	-1.47
863.824	0.84
863.992	0.8
864.159	0.28
864.326	2.2
864.494	-1.07
864.661	4.09
864.828	-0.14
864.996	1.01
865.163	1.62
865.33	-2.38
865.497	-1.66
865.664	-1.07
865.832	-1.07
865.999	-0.63
866.166	-1.21
866.333	-0.12
866.5	-1.44
866.667	0.15
866.834	-0.13
867.001	1.58
867.168	-2.2
867.335	-1.33
867.502	-2.68
867.669	0.11
867.836	1.23
868.003	0.25
868.17	0.49
868.337	-0.25
868.504	2.05
868.671	-1.71
868.838	-0.33
869.005	1.44
869.172	-0.82
869.339	-0.73
869.505	-1.12
869.672	-1.23
869.839	2.17
870.006	-1.05
870.173	-1.07
870.339	-0.23
870.506	1.87
870.673	-1.81
870.84	1.25
871.006	1.02
871.173	0.61
871.34	0.39
871.506	-0.83
871.673	1.09
871.839	-1.22
872.006	0.61
872.173	-0.56
872.339	1.04
872.506	1.1
872.672	-0.4
872.839	-2.58
873.005	-0.2
873.172	2.85
873.338	1.8
873.505	1.08
873.671	0.19
873.838	0.73
874.004	-3.74
874.171	-1.06
874.337	0.55
874.503	1.26
874.67	-1.08
874.836	-0.58
875.002	2.87
875.169	1.27
875.335	-0.07
875.501	-0.07
875.668	0.99
875.834	-0.42
876	0.02
876.166	1.08
876.332	0.02
876.499	2.51
876.665	-0.81
876.831	2.23
876.997	0.7
877.163	1.01
877.329	-0.64
877.495	1.03
877.662	1.78
877.828	-0.69
877.994	-1.99
878.16	-3.4
878.326	-0.92
878.492	0.35
878.658	-0.26
878.824	0.02
878.99	1.58
879.156	-1.43
879.322	1.35
879.487	-0.65
879.653	0.45
879.819	-1.62
879.985	-0.85
880.151	0.13
880.317	0.64
880.483	-0.22
880.648	2.32
880.814	-2.74
880.98	0.27
881.146	-3.32
881.312	0.06
881.477	-2.4
881.643	0.25
881.809	2
881.974	1.53
882.14	-2.44
882.306	-0.39
882.471	4.18
882.637	-2.5
882.803	0
882.968	2.06
883.134	3.13
883.299	0.34
883.465	0.41
883.63	1.08
883.796	1.76
883.961	-0.3
884.127	0.1
884.292	-3.08
884.458	-2.62
884.623	-2.61
