Data from Apollo_Calib_20240827__AbsoluteIrradiance__59__00-08-02-535.txt Node

Date: Wed Aug 28 00:08:02 BST 2024
User: biology
Spectrometer: FLMT08252
Trigger mode: 0
Integration Time (sec): 5.000000E-1
Scans to average: 5
Electric dark correction enabled: true
Nonlinearity correction enabled: false
Boxcar width: 0
XAxis mode: Wavelengths
Number of Pixels in Spectrum: 3648
>>>>>Begin Spectral Data<<<<<
179.588	-0
179.809	-0
180.03	-0
180.251	-0
180.473	-0
180.694	0
180.915	0
181.136	-0
181.357	0
181.578	-0
181.799	-0
182.02	-0
182.241	-0
182.462	-0
182.683	0
182.904	-0
183.125	-0
183.346	-0
183.567	-0
183.788	-0
184.009	-0
184.23	-0
184.451	0
184.672	-0
184.892	-0
185.113	0
185.334	0
185.555	-0
185.776	-0
185.996	-0
186.217	0
186.438	-0
186.659	-0
186.879	0
187.1	-0
187.321	-0
187.541	-0
187.762	-0
187.983	-0
188.203	-0
188.424	-0
188.644	-0
188.865	-0
189.086	-0
189.306	-0
189.527	-0
189.747	0
189.968	-0
190.188	0
190.409	0
190.629	0
190.849	-0
191.07	-0
191.29	0
191.511	0
191.731	-0
191.951	-0
192.172	-0
192.392	0
192.612	-0
192.833	-0
193.053	0
193.273	0
193.493	-0
193.714	-0
193.934	0
194.154	0
194.374	-0
194.594	0
194.815	-0
195.035	-0
195.255	-0
195.475	-0
195.695	0
195.915	0
196.135	-0
196.355	0
196.575	0
196.795	-0
197.015	-0
197.235	-0
197.455	-0
197.675	0
197.895	-0
198.115	-0
198.335	0
198.555	-0
198.775	-0
198.995	0
199.214	0
199.434	-0
199.654	-0
199.874	-0
200.094	0.74
200.313	-0.6
200.533	-0.87
200.753	-1.01
200.973	0.05
201.192	0.3
201.412	-1.33
201.632	-0.49
201.851	0.6
202.071	-0.7
202.291	-0.31
202.51	-0.49
202.73	-0.02
202.95	0.06
203.169	-0.78
203.389	-0.44
203.608	-0.12
203.828	-0.73
204.047	-0.5
204.267	0.18
204.486	0.06
204.706	0
204.925	-0.47
205.145	-0.37
205.364	0.18
205.583	0.47
205.803	-0.29
206.022	-0.69
206.242	-0.16
206.461	-0.45
206.68	-0.37
206.9	-0.15
207.119	0.28
207.338	0.26
207.557	-0.33
207.777	-0.25
207.996	-0.16
208.215	0.27
208.434	-0.39
208.654	-0.7
208.873	-0.24
209.092	0.7
209.311	-0.08
209.53	-0.53
209.749	-0.45
209.968	-0.36
210.187	-0.08
210.407	-0.87
210.626	-0.26
210.845	0.14
211.064	-0.05
211.283	-0.48
211.502	0.12
211.721	-0.2
211.94	-0.35
212.159	-0.24
212.377	0.05
212.596	0.3
212.815	-0.23
213.034	0.15
213.253	0.29
213.472	0.1
213.691	-0.16
213.91	-0.5
214.128	-0.26
214.347	0.22
214.566	-0.48
214.785	-0.57
215.003	0.07
215.222	-0.11
215.441	-0.11
215.66	-0.52
215.878	-0.13
216.097	0.03
216.316	-0.41
216.534	-0.15
216.753	-0.03
216.972	-0.04
217.19	-0.27
217.409	-0.3
217.627	-0.38
217.846	0.05
218.064	-0.13
218.283	-0.23
218.501	0.42
218.72	0.07
218.938	-0.25
219.157	-0.18
219.375	-0
219.594	0.05
219.812	-0.16
220.031	-0.31
220.249	0.32
220.467	0.15
220.686	-0.1
220.904	-0.32
221.122	-0.17
221.341	0.2
221.559	-0.01
221.777	-0.28
221.995	-0.14
222.214	0.01
222.432	-0.12
222.65	0.1
222.868	-0.24
223.086	-0.12
223.305	-0.1
223.523	-0.11
223.741	0.16
223.959	-0.04
224.177	-0.41
224.395	-0.22
224.613	0.03
224.831	0.01
225.049	-0.23
225.267	-0.13
225.485	-0.03
225.703	-0.12
225.921	-0.11
226.139	-0.25
226.357	0.03
226.575	0.04
226.793	-0.17
227.011	0.41
227.229	0.1
227.447	0.05
227.665	-0.13
227.883	-0.19
228.1	-0.13
228.318	-0.02
228.536	-0.28
228.754	-0.28
228.972	0.04
229.189	0.07
229.407	-0.15
229.625	-0.17
229.843	0.09
230.06	0.16
230.278	-0.12
230.496	-0.16
230.713	-0.01
230.931	0.11
231.149	-0.14
231.366	-0.35
231.584	-0.14
231.801	0.21
232.019	-0.2
232.236	-0.28
232.454	-0.05
232.671	-0.03
232.889	-0.04
233.106	-0.19
233.324	-0.08
233.541	-0.06
233.759	-0.1
233.976	-0.15
234.194	-0.12
234.411	-0.03
234.628	-0.16
234.846	-0.13
235.063	-0.04
235.28	-0.01
235.498	-0.07
235.715	-0.16
235.932	0.08
236.149	-0.1
236.367	-0.12
236.584	-0.01
236.801	-0.22
237.018	-0.05
237.236	-0.11
237.453	-0.17
237.67	-0.01
237.887	-0.16
238.104	-0.06
238.321	-0.12
238.538	-0.07
238.755	0.11
238.973	-0.14
239.19	-0.06
239.407	0.07
239.624	-0.07
239.841	-0.15
240.058	-0.13
240.275	-0.02
240.492	-0.01
240.709	-0.08
240.925	-0.08
241.142	-0.03
241.359	-0.15
241.576	-0.11
241.793	-0.11
242.01	-0.04
242.227	0.04
242.444	0.06
242.66	-0.08
242.877	-0.08
243.094	-0.1
243.311	-0.07
243.527	0.07
243.744	-0.02
243.961	-0.05
244.178	-0.08
244.394	0
244.611	0.03
244.828	0.12
245.044	-0.15
245.261	-0.15
245.477	-0.12
245.694	0.02
245.911	-0.12
246.127	0.03
246.344	0.04
246.56	0.01
246.777	-0.11
246.993	0.04
247.21	0.04
247.426	-0
247.643	-0.04
247.859	-0.05
248.076	-0.14
248.292	0.16
248.508	-0.05
248.725	-0.04
248.941	0.06
249.157	0.06
249.374	-0.11
249.59	-0.04
249.806	-0.02
250.023	0.04
250.239	-0.07
250.455	-0.16
250.671	-0.16
250.888	-0.03
251.104	0
251.32	-0.07
251.536	-0.04
251.752	0.01
251.969	-0.01
252.185	0.02
252.401	0.08
252.617	0.07
252.833	-0.06
253.049	-0.06
253.265	-0.04
253.481	-0.01
253.697	-0.07
253.913	-0.17
254.129	-0.02
254.345	-0.06
254.561	-0.04
254.777	-0.07
254.993	0.08
255.209	-0.01
255.425	-0.09
255.641	-0.09
255.857	-0
256.073	-0.02
256.288	-0.09
256.504	-0.08
256.72	-0.09
256.936	0.03
257.152	-0.09
257.367	-0.08
257.583	-0.07
257.799	0.08
258.015	-0.1
258.23	-0.08
258.446	0.12
258.662	-0.03
258.877	-0.11
259.093	-0.13
259.309	-0
259.524	0.01
259.74	-0.1
259.955	-0.13
260.171	-0.02
260.387	-0.03
260.602	0.03
260.818	-0
261.033	-0.09
261.249	-0.07
261.464	-0.17
261.68	-0.13
261.895	-0.04
262.11	-0
262.326	-0.04
262.541	-0.15
262.757	0
262.972	-0.01
263.187	-0.03
263.403	-0.07
263.618	-0.04
263.833	-0.02
264.049	-0.13
264.264	-0.05
264.479	-0.03
264.694	0.08
264.91	-0.1
265.125	-0.07
265.34	-0.02
265.555	0.05
265.77	0
265.986	-0.05
266.201	0.02
266.416	0.04
266.631	-0.08
266.846	-0.02
267.061	0.06
267.276	0.02
267.491	-0.17
267.706	0.03
267.921	-0.03
268.136	0.01
268.351	-0.03
268.566	-0.14
268.781	0.06
268.996	-0.04
269.211	-0.01
269.426	-0.09
269.641	-0.08
269.856	-0.04
270.071	-0.07
270.285	-0.1
270.5	-0.01
270.715	0.04
270.93	-0.03
271.145	0
271.359	0.02
271.574	-0.08
271.789	-0.02
272.004	0.01
272.218	-0.1
272.433	0.02
272.648	-0.08
272.862	0.03
273.077	-0
273.292	-0.08
273.506	-0.08
273.721	-0.05
273.936	0
274.15	0.06
274.365	-0.07
274.579	0
274.794	0.01
275.008	0.01
275.223	-0.13
275.437	0
275.652	0.06
275.866	0.02
276.081	-0.05
276.295	0
276.509	-0.04
276.724	-0.03
276.938	-0.05
277.153	-0.01
277.367	-0.02
277.581	-0.06
277.796	-0.07
278.01	-0.07
278.224	0.03
278.438	0.13
278.653	-0.12
278.867	-0.09
279.081	-0.09
279.295	-0.05
279.51	-0.03
279.724	-0.05
279.938	0.03
280.152	-0.03
280.366	-0.1
280.58	-0.06
280.794	0.01
281.008	0.02
281.222	0.02
281.437	0.11
281.651	0.01
281.865	0.04
282.079	-0.03
282.293	-0.17
282.507	-0.04
282.721	-0.05
282.935	-0.01
283.148	-0.1
283.362	-0.01
283.576	-0.06
283.79	-0.03
284.004	-0.09
284.218	0.05
284.432	-0.08
284.646	-0.03
284.859	-0.06
285.073	-0.07
285.287	-0.01
285.501	-0.09
285.714	-0.04
285.928	0
286.142	-0.02
286.356	-0.05
286.569	-0.08
286.783	0.06
286.997	0.01
287.21	0.01
287.424	-0.06
287.637	-0.06
287.851	-0.02
288.065	0.06
288.278	0.01
288.492	0.03
288.705	-0.04
288.919	-0.01
289.132	-0.1
289.346	0.05
289.559	-0.09
289.773	-0.08
289.986	-0.08
290.2	-0.02
290.413	0.01
290.626	-0.07
290.84	-0.03
291.053	-0.02
291.267	0.05
291.48	-0.06
291.693	-0.04
291.906	-0.07
292.12	-0.07
292.333	-0.04
292.546	-0.05
292.76	0.08
292.973	-0.01
293.186	0
293.399	-0.03
293.612	0.05
293.826	-0.02
294.039	-0.04
294.252	-0.03
294.465	-0.01
294.678	0.02
294.891	-0.03
295.104	-0.03
295.317	-0.03
295.53	-0.02
295.743	-0.04
295.956	0.01
296.169	0.06
296.382	0.05
296.595	-0.03
296.808	-0.02
297.021	0.01
297.234	0.03
297.447	-0.03
297.66	0.02
297.873	0.05
298.086	0.01
298.299	-0.08
298.511	-0.05
298.724	0.01
298.937	-0.07
299.15	-0.03
299.363	0.01
299.575	0.01
299.788	0.04
300.001	-0.06
300.213	-0.07
300.426	-0.07
300.639	-0.05
300.852	-0.04
301.064	0.03
301.277	0.04
301.489	-0.01
301.702	0.03
301.915	-0.03
302.127	-0.03
302.34	0.01
302.552	0
302.765	-0.01
302.977	0.03
303.19	-0.07
303.402	-0.06
303.615	-0.03
303.827	-0.07
304.04	-0.02
304.252	0.03
304.464	-0.02
304.677	0.09
304.889	0.03
305.102	-0.06
305.314	-0.08
305.526	0.03
305.739	0.01
305.951	-0.03
306.163	-0.07
306.375	0.05
306.588	-0.08
306.8	-0.02
307.012	-0.07
307.224	0
307.436	0.06
307.649	-0.08
307.861	0.01
308.073	-0.01
308.285	-0.02
308.497	-0.04
308.709	-0.05
308.921	0.01
309.133	0.03
309.346	-0.02
309.558	-0.05
309.77	0.03
309.982	0.03
310.194	-0
310.406	-0.07
310.617	0.05
310.829	-0.01
311.041	0.01
311.253	-0.06
311.465	-0.05
311.677	-0.03
311.889	-0.03
312.101	-0.07
312.313	0.03
312.524	0.04
312.736	-0.07
312.948	-0.06
313.16	0.05
313.372	0.01
313.583	0.01
313.795	-0.04
314.007	-0.08
314.218	0.02
314.43	-0.05
314.642	-0.03
314.853	-0.06
315.065	0
315.277	-0.08
315.488	0.01
315.7	0.02
315.912	-0
316.123	-0
316.335	0.01
316.546	0.08
316.758	-0.03
316.969	-0.02
317.181	0.02
317.392	0.02
317.604	-0
317.815	-0.03
318.026	-0.04
318.238	-0.05
318.449	0.01
318.661	-0.1
318.872	-0.11
319.083	-0.05
319.295	0.03
319.506	-0.04
319.717	-0
319.929	0.01
320.14	-0.01
320.351	-0.01
320.562	-0.04
320.774	-0.03
320.985	0.02
321.196	-0.08
321.407	-0.09
321.618	0.01
321.829	-0.05
322.041	-0.01
322.252	-0.01
322.463	0
322.674	-0.01
322.885	-0.04
323.096	-0.04
323.307	-0.04
323.518	0.01
323.729	-0.03
323.94	0
324.151	-0.06
324.362	-0
324.573	-0.01
324.784	-0.03
324.995	0.03
325.206	-0.01
325.417	-0.03
325.628	-0.05
325.838	0.02
326.049	0.01
326.26	-0
326.471	-0.02
326.682	-0.01
326.892	0.01
327.103	-0.08
327.314	-0.08
327.525	0.05
327.735	-0
327.946	-0
328.157	-0.03
328.368	-0
328.578	-0.02
328.789	-0.02
328.999	-0.01
329.21	-0.04
329.421	0.03
329.631	-0.04
329.842	-0.02
330.052	-0
330.263	0.07
330.473	0.03
330.684	-0.02
330.894	-0.01
331.105	-0.01
331.315	-0.03
331.526	-0.11
331.736	0.11
331.947	0.02
332.157	-0.02
332.367	-0.04
332.578	0.03
332.788	0.02
332.999	0
333.209	-0.02
333.419	-0.06
333.629	0
333.84	0.01
334.05	0.02
334.26	0.03
334.47	-0.01
334.681	0.03
334.891	-0.04
335.101	-0
335.311	0.07
335.521	-0
335.732	-0.07
335.942	0.01
336.152	-0.01
336.362	-0.01
336.572	-0.01
336.782	0.01
336.992	-0.01
337.202	-0.03
337.412	-0.05
337.622	0
337.832	-0.01
338.042	-0.01
338.252	-0.03
338.462	-0.03
338.672	-0.02
338.882	-0.02
339.092	-0.03
339.302	0.07
339.511	0.02
339.721	-0.07
339.931	-0.06
340.141	0.04
340.351	0.04
340.561	0.02
340.77	-0.03
340.98	0
341.19	0.01
341.4	-0.03
341.609	-0.05
341.819	-0.03
342.029	-0.05
342.238	-0.02
342.448	-0.09
342.658	-0.02
342.867	-0.03
343.077	-0
343.286	0.01
343.496	0
343.706	0
343.915	-0.07
344.125	-0.04
344.334	-0.01
344.544	-0.11
344.753	-0.03
344.963	-0.04
345.172	-0.06
345.381	-0.04
345.591	-0.04
345.8	-0.04
346.01	0.03
346.219	0.03
346.428	-0.18
346.638	-0.02
346.847	-0
347.056	0.01
347.266	-0.03
347.475	0.01
347.684	0
347.893	0.02
348.103	-0.02
348.312	-0.02
348.521	0
348.73	0.01
348.94	-0.06
349.149	-0.03
349.358	-0.05
349.567	0
349.776	-0.04
349.985	-0.02
350.194	0.07
350.403	0.06
350.612	-0.09
350.821	-0.09
351.03	0.01
351.239	-0.06
351.448	0.01
351.657	-0.04
351.866	0.06
352.075	-0.02
352.284	0.03
352.493	-0.09
352.702	0.02
352.911	0.01
353.12	-0.03
353.329	-0.02
353.538	0.03
353.746	0
353.955	-0.04
354.164	-0
354.373	-0.01
354.582	0.05
354.79	0
354.999	0.01
355.208	-0.06
355.416	0.06
355.625	-0.04
355.834	-0.03
356.042	0.01
356.251	-0
356.46	-0.03
356.668	-0
356.877	0.07
357.085	0.07
357.294	-0.09
357.503	0
357.711	-0.04
357.92	0.14
358.128	-0
358.337	-0.05
358.545	-0.01
358.754	-0.03
358.962	-0.01
359.17	-0.05
359.379	0
359.587	0
359.796	-0
360.004	0.07
360.212	0.01
360.421	0.01
360.629	-0.05
360.837	-0.02
361.046	0.04
361.254	0.05
361.462	-0.05
361.67	-0.04
361.879	0
362.087	0.05
362.295	0.02
362.503	-0.04
362.711	-0.07
362.92	-0.01
363.128	-0.05
363.336	-0.05
363.544	-0.07
363.752	-0.02
363.96	-0.08
364.168	-0.02
364.376	0.02
364.584	-0.02
364.792	0.04
365	0.01
365.208	-0.02
365.416	0.05
365.624	0.01
365.832	-0.02
366.04	0.02
366.248	0
366.456	-0.01
366.664	0.03
366.872	-0.04
367.079	-0.03
367.287	-0.02
367.495	0
367.703	0.01
367.911	-0.02
368.118	-0.03
368.326	-0.01
368.534	-0.03
368.742	0.01
368.949	-0.09
369.157	-0.08
369.365	0.02
369.572	-0.07
369.78	-0.06
369.988	0.03
370.195	0.01
370.403	-0
370.61	-0.06
370.818	-0.03
371.026	0.05
371.233	-0.05
371.441	0.03
371.648	-0.02
371.856	-0.02
372.063	0.04
372.271	-0.04
372.478	-0.02
372.685	-0.02
372.893	0.03
373.1	-0.02
373.308	-0.06
373.515	0.05
373.722	-0
373.93	0
374.137	0.01
374.344	0.05
374.552	0.03
374.759	0.01
374.966	-0.02
375.173	-0.05
375.381	0.04
375.588	-0.04
375.795	-0.03
376.002	-0.01
376.209	-0.06
376.417	-0.03
376.624	-0
376.831	0
377.038	-0
377.245	-0.07
377.452	-0.02
377.659	-0.02
377.866	-0.05
378.073	-0.04
378.28	-0.03
378.487	0.01
378.694	-0
378.901	-0.02
379.108	-0.03
379.315	-0.01
379.522	0.05
379.729	0.01
379.936	-0.03
380.143	0.01
380.35	0.01
380.557	-0.07
380.763	-0.02
380.97	-0.01
381.177	0.03
381.384	0
381.591	0
381.797	0.03
382.004	0.01
382.211	0.02
382.418	0.02
382.624	0.01
382.831	0.07
383.038	-0.04
383.244	0.01
383.451	-0.01
383.658	0.03
383.864	-0.01
384.071	-0.03
384.277	0.05
384.484	-0.03
384.69	-0.01
384.897	-0.05
385.103	-0.02
385.31	-0.07
385.516	-0.04
385.723	-0.05
385.929	-0.05
386.136	-0.06
386.342	-0.01
386.549	-0.05
386.755	0.05
386.961	-0.03
387.168	-0.05
387.374	-0.04
387.58	0.03
387.787	-0.02
387.993	0
388.199	-0.04
388.406	-0.05
388.612	-0
388.818	-0.04
389.024	-0.05
389.231	0.01
389.437	0.04
389.643	0.01
389.849	-0.02
390.055	-0.02
390.261	-0.02
390.467	0
390.674	-0.04
390.88	0.01
391.086	-0.02
391.292	-0.07
391.498	0.05
391.704	-0.07
391.91	-0.01
392.116	-0.03
392.322	-0.09
392.528	0.02
392.734	-0.04
392.94	-0.03
393.146	-0.01
393.352	-0.01
393.557	-0.03
393.763	-0.03
393.969	-0.02
394.175	-0.02
394.381	-0.01
394.587	-0.04
394.792	-0.05
394.998	0.01
395.204	0.03
395.41	-0.09
395.615	0.03
395.821	-0
396.027	-0.02
396.233	-0.01
396.438	-0.03
396.644	0.06
396.85	0.02
397.055	-0.04
397.261	-0.01
397.466	-0.06
397.672	-0.03
397.878	0.02
398.083	0
398.289	-0.07
398.494	0
398.7	-0.02
398.905	-0.08
399.111	0.05
399.316	-0.02
399.522	0.01
399.727	-0.06
399.932	-0.03
400.138	-0.01
400.343	0.03
400.549	0
400.754	-0
400.959	-0.02
401.165	-0.02
401.37	0.02
401.575	0.05
401.78	0
401.986	-0.03
402.191	-0.05
402.396	-0.02
402.601	0.04
402.807	0.03
403.012	-0.1
403.217	-0.01
403.422	-0.02
403.627	-0.07
403.832	-0.04
404.037	0.02
404.243	0.04
404.448	-0.03
404.653	-0.03
404.858	0.04
405.063	0.05
405.268	-0.03
405.473	-0.05
405.678	-0.03
405.883	0.1
406.088	-0.01
406.293	-0.05
406.498	-0.07
406.703	0.04
406.907	-0.03
407.112	-0.03
407.317	0.02
407.522	0.02
407.727	-0.09
407.932	-0.01
408.136	0.02
408.341	0
408.546	0
408.751	0.01
408.956	-0.02
409.16	0.05
409.365	-0.03
409.57	-0.01
409.774	-0.01
409.979	0.05
410.184	-0.02
410.388	-0.09
410.593	0.06
410.798	-0
411.002	-0.06
411.207	-0.01
411.411	0
411.616	-0.06
411.82	-0.04
412.025	0.01
412.229	-0.03
412.434	0.01
412.638	0.03
412.843	-0.06
413.047	0
413.252	-0.03
413.456	0.01
413.66	0.05
413.865	-0.06
414.069	0.04
414.273	-0.03
414.478	0.01
414.682	-0.08
414.886	-0.05
415.091	-0.05
415.295	-0.1
415.499	0.01
415.703	-0.04
415.908	0.02
416.112	-0.1
416.316	-0.01
416.52	-0.05
416.724	-0.09
416.929	-0.08
417.133	0.07
417.337	-0.05
417.541	-0.06
417.745	-0
417.949	-0.02
418.153	-0.01
418.357	-0.07
418.561	0.06
418.765	-0.05
418.969	0.08
419.173	-0.02
419.377	-0.07
419.581	0.05
419.785	-0.09
419.989	-0.06
420.193	-0.04
420.397	-0.04
420.601	0.02
420.804	0.02
421.008	0.01
421.212	-0
421.416	0.01
421.62	-0.04
421.823	-0.01
422.027	0.07
422.231	-0.02
422.435	-0.01
422.638	-0
422.842	0.01
423.046	-0.08
423.249	-0.01
423.453	-0.01
423.657	-0
423.86	-0.03
424.064	-0.04
424.268	0.06
424.471	0
424.675	0.08
424.878	0.04
425.082	-0
425.285	0.07
425.489	-0.05
425.692	-0
425.896	-0.04
426.099	-0.02
426.303	-0.06
426.506	-0.01
426.71	-0.05
426.913	0
427.116	0.05
427.32	-0.03
427.523	-0.03
427.726	0.1
427.93	-0.05
428.133	-0.05
428.336	-0.04
428.54	-0.07
428.743	0.01
428.946	0.01
429.149	0.01
429.353	-0.01
429.556	-0
429.759	-0.04
429.962	-0.03
430.165	-0.03
430.368	-0.06
430.571	-0.05
430.775	0
430.978	-0.04
431.181	0.02
431.384	0.04
431.587	-0.03
431.79	0.01
431.993	0.03
432.196	0.02
432.399	-0.03
432.602	0.07
432.805	-0.01
433.008	-0.05
433.211	-0.08
433.414	0.07
433.616	0.01
433.819	-0.01
434.022	-0.05
434.225	0.06
434.428	0.03
434.631	0.09
434.833	-0.03
435.036	-0.02
435.239	0.08
435.442	0.02
435.645	-0.04
435.847	-0.01
436.05	0.08
436.253	0.04
436.455	0
436.658	-0.02
436.861	0.13
437.063	-0.04
437.266	-0
437.468	0.01
437.671	0.14
437.874	-0.01
438.076	-0.04
438.279	-0.06
438.481	-0.03
438.684	-0.02
438.886	0.04
439.089	-0.07
439.291	0.01
439.494	0.04
439.696	-0.06
439.899	-0.05
440.101	0.03
440.303	-0.07
440.506	0.05
440.708	0.02
440.91	0.06
441.113	-0.04
441.315	0.01
441.517	-0.05
441.72	0.07
441.922	0.01
442.124	-0.04
442.326	0.03
442.529	0.06
442.731	-0.03
442.933	0.1
443.135	0.02
443.337	-0.01
443.539	0.02
443.742	0.02
443.944	0.03
444.146	0.03
444.348	-0.02
444.55	0
444.752	0.05
444.954	0.04
445.156	0.06
445.358	0
445.56	0.05
445.762	0.03
445.964	0.08
446.166	0
446.368	-0.02
446.57	0.07
446.772	0.05
446.974	0
447.175	0.07
447.377	0.04
447.579	0.04
447.781	-0.03
447.983	0.08
448.184	0.07
448.386	0.05
448.588	-0.01
448.79	0.06
448.991	0.03
449.193	0.02
449.395	0.04
449.597	0.1
449.798	0.05
450	0.08
450.202	0.02
450.403	0.02
450.605	0.1
450.806	0.05
451.008	-0.01
451.21	0.01
451.411	0.06
451.613	0
451.814	0.04
452.016	0.12
452.217	0.06
452.419	0.06
452.62	0.06
452.821	0.07
453.023	0.12
453.224	0.05
453.426	0.05
453.627	0.06
453.828	0.07
454.03	-0
454.231	0.11
454.432	0
454.634	0.1
454.835	-0
455.036	-0.06
455.238	0.06
455.439	0.15
455.64	-0.06
455.841	-0.02
456.042	0.04
456.244	0.06
456.445	-0.05
456.646	-0
456.847	-0.01
457.048	0.08
457.249	0.01
457.45	0.28
457.651	-0.04
457.852	0.03
458.054	0.02
458.255	0
458.456	-0
458.657	0.02
458.858	-0.03
459.058	-0.03
459.259	0.08
459.46	-0.01
459.661	0.04
459.862	0.13
460.063	-0
460.264	0.1
460.465	-0.02
460.666	0.09
460.866	0.03
461.067	0
461.268	0.02
461.469	-0.04
461.67	-0.04
461.87	0.02
462.071	-0.03
462.272	-0.08
462.473	0.02
462.673	0.04
462.874	-0.05
463.075	-0.01
463.275	-0.01
463.476	-0
463.676	-0.02
463.877	0.02
464.078	-0.01
464.278	0.09
464.479	-0.01
464.679	-0.07
464.88	-0.01
465.08	0.08
465.281	-0.03
465.481	0.01
465.682	-0
465.882	0.06
466.083	0.01
466.283	-0.01
466.483	0.02
466.684	-0.07
466.884	-0.04
467.085	-0.03
467.285	0.06
467.485	-0.08
467.686	-0.01
467.886	-0.07
468.086	-0.01
468.286	0.02
468.487	0.01
468.687	-0.05
468.887	-0.04
469.087	0.03
469.287	-0.02
469.488	-0.11
469.688	0.09
469.888	-0.01
470.088	0.02
470.288	0.02
470.488	0.04
470.688	-0.06
470.888	-0.07
471.088	-0.05
471.288	0.02
471.488	0.02
471.688	-0.02
471.888	-0.06
472.088	0.02
472.288	0.05
472.488	-0.06
472.688	-0.03
472.888	0.02
473.088	0.01
473.288	0.01
473.488	0.01
473.688	0.07
473.887	-0.01
474.087	-0.05
474.287	0.01
474.487	-0.04
474.687	-0.01
474.886	-0.02
475.086	-0.03
475.286	-0.01
475.486	-0
475.685	0.03
475.885	-0.06
476.085	-0.02
476.284	-0
476.484	-0.02
476.684	0
476.883	0.06
477.083	0.01
477.282	-0.04
477.482	0.05
477.681	0.01
477.881	0
478.08	-0.04
478.28	-0.02
478.479	0.03
478.679	0.07
478.878	-0.04
479.078	-0.05
479.277	-0.01
479.477	-0.04
479.676	0
479.875	0.01
480.075	-0.1
480.274	-0
480.473	-0
480.673	-0.03
480.872	0.02
481.071	-0.01
481.271	0.02
481.47	-0.04
481.669	-0.03
481.868	-0.03
482.067	-0.04
482.267	-0.04
482.466	-0.01
482.665	-0.03
482.864	-0.05
483.063	-0.02
483.262	0
483.461	0.06
483.661	0.03
483.86	-0.01
484.059	-0.01
484.258	-0.01
484.457	-0
484.656	-0.02
484.855	0.01
485.054	-0.06
485.253	-0.04
485.452	-0.06
485.651	-0.03
485.849	-0.02
486.048	-0.04
486.247	-0.04
486.446	-0.02
486.645	-0.05
486.844	-0.02
487.043	-0.03
487.241	0.02
487.44	-0.04
487.639	-0.02
487.838	0.03
488.037	0.01
488.235	0.03
488.434	-0.01
488.633	-0.02
488.831	0.01
489.03	0.02
489.229	0.02
489.427	0.01
489.626	0.04
489.825	0.05
490.023	-0.01
490.222	-0.03
490.42	-0
490.619	0.02
490.817	0
491.016	-0.02
491.214	0.01
491.413	-0.03
491.611	-0.02
491.81	-0.02
492.008	0
492.207	0.02
492.405	-0.02
492.604	-0.04
492.802	0
493	-0.01
493.199	-0.01
493.397	-0.01
493.595	-0.02
493.794	-0.02
493.992	0.04
494.19	-0.01
494.388	0.01
494.587	-0.04
494.785	-0.01
494.983	-0.07
495.181	0.02
495.379	-0.01
495.578	-0.04
495.776	-0.01
495.974	0.01
496.172	-0.02
496.37	-0.02
496.568	-0.04
496.766	-0.03
496.964	0.02
497.162	0.01
497.36	-0.02
497.558	0.01
497.756	-0
497.954	-0.01
498.152	-0.04
498.35	-0.01
498.548	-0.01
498.746	-0.02
498.944	-0.02
499.142	-0.04
499.34	-0.03
499.538	-0
499.736	-0.02
499.933	0.01
500.131	-0.01
500.329	-0.02
500.527	0.03
500.725	0.03
500.922	-0
501.12	-0.01
501.318	-0
501.516	-0.02
501.713	0.02
501.911	-0.02
502.109	-0.05
502.306	-0.01
502.504	-0.01
502.701	-0.02
502.899	-0.03
503.097	0.03
503.294	-0.02
503.492	-0.02
503.689	-0.01
503.887	0.03
504.084	0.03
504.282	-0.02
504.479	-0.05
504.677	-0.01
504.874	-0.04
505.072	-0.03
505.269	-0.02
505.466	0.01
505.664	-0.01
505.861	-0.03
506.059	-0.01
506.256	0
506.453	-0.02
506.651	0.02
506.848	0.01
507.045	-0
507.242	-0.02
507.44	-0.03
507.637	-0.01
507.834	-0.01
508.031	0.01
508.229	-0.02
508.426	0.01
508.623	0.01
508.82	-0.03
509.017	-0.02
509.214	-0
509.411	0
509.608	-0.02
509.805	0.01
510.003	-0.02
510.2	-0.01
510.397	-0
510.594	-0.02
510.791	-0.03
510.988	-0.01
511.184	0.01
511.381	-0.01
511.578	-0.02
511.775	0.01
511.972	-0.03
512.169	-0.01
512.366	-0.02
512.563	0.02
512.76	-0.02
512.956	-0.01
513.153	-0.03
513.35	0
513.547	-0.02
513.744	-0.05
513.94	-0.04
514.137	0.01
514.334	-0.02
514.53	0.01
514.727	0
514.924	0.02
515.12	-0.01
515.317	-0.05
515.514	-0.03
515.71	-0.05
515.907	0.02
516.103	-0.01
516.3	0.03
516.497	0.01
516.693	0.03
516.89	0.01
517.086	-0.01
517.283	0.03
517.479	-0
517.676	-0.02
517.872	-0.02
518.068	-0.04
518.265	-0.02
518.461	-0.01
518.658	-0.04
518.854	-0.01
519.05	-0.02
519.247	-0.03
519.443	0.01
519.639	0
519.836	-0
520.032	-0.02
520.228	0.02
520.424	0.05
520.621	-0
520.817	-0.01
521.013	0
521.209	0.01
521.405	0.03
521.601	0.01
521.798	0
521.994	0.04
522.19	-0.02
522.386	-0.04
522.582	-0.02
522.778	0.01
522.974	-0.02
523.17	-0
523.366	0
523.562	0.01
523.758	-0.02
523.954	-0.04
524.15	-0.01
524.346	0.03
524.542	-0.02
524.738	-0.03
524.934	-0
525.129	-0.01
525.325	-0.01
525.521	0
525.717	0.04
525.913	-0.01
526.109	-0.02
526.304	0.01
526.5	0
526.696	0.01
526.892	-0.02
527.087	0.01
527.283	-0.04
527.479	0.01
527.674	-0.04
527.87	-0
528.066	-0.03
528.261	0.01
528.457	0
528.653	-0.04
528.848	-0.03
529.044	0.01
529.239	-0.01
529.435	0
529.63	0
529.826	0.03
530.021	-0
530.217	0.01
530.412	-0.04
530.608	-0.03
530.803	-0.01
530.999	-0.01
531.194	-0.05
531.389	-0.02
531.585	-0.05
531.78	-0.02
531.975	-0.02
532.171	0.03
532.366	-0.01
532.561	-0.02
532.757	-0.02
532.952	-0.02
533.147	0.01
533.342	-0.02
533.538	-0.02
533.733	0.01
533.928	-0.01
534.123	-0.02
534.318	-0.04
534.513	-0.02
534.709	-0
534.904	-0.02
535.099	-0.04
535.294	-0.01
535.489	-0
535.684	-0.01
535.879	-0.04
536.074	-0.02
536.269	-0.04
536.464	-0.01
536.659	0.01
536.854	-0.01
537.049	0.01
537.244	-0.01
537.439	-0.01
537.634	0
537.828	-0.02
538.023	-0.03
538.218	-0.04
538.413	-0.03
538.608	-0.04
538.803	0.01
538.997	-0.05
539.192	0.01
539.387	-0.01
539.582	0
539.776	-0.01
539.971	-0.01
540.166	-0.01
540.36	-0.04
540.555	-0.01
540.75	-0.02
540.944	-0.02
541.139	-0.05
541.334	-0.01
541.528	-0.02
541.723	-0
541.917	-0.04
542.112	-0.05
542.306	-0.02
542.501	-0.01
542.695	0.01
542.89	-0.02
543.084	-0
543.279	-0.02
543.473	-0.02
543.668	-0.01
543.862	-0.02
544.056	-0.01
544.251	-0.01
544.445	0
544.64	-0.03
544.834	-0.02
545.028	-0.01
545.222	-0.01
545.417	0
545.611	-0.02
545.805	-0.01
546	-0.02
546.194	-0.02
546.388	-0.02
546.582	-0.01
546.776	-0.02
546.97	-0.02
547.165	0.02
547.359	-0.01
547.553	-0.04
547.747	-0.01
547.941	-0
548.135	-0.01
548.329	0
548.523	-0
548.717	-0.01
548.911	-0.03
549.105	-0.03
549.299	-0.02
549.493	0.01
549.687	0.02
549.881	0
550.075	-0
550.269	-0.04
550.463	0.01
550.657	-0.02
550.85	-0.03
551.044	-0.04
551.238	-0.02
551.432	-0.03
551.626	-0.02
551.82	0.01
552.013	-0.04
552.207	-0.02
552.401	0.01
552.594	-0
552.788	-0.03
552.982	-0.01
553.176	-0.03
553.369	0.02
553.563	-0
553.756	-0.02
553.95	-0.05
554.144	-0.01
554.337	0
554.531	-0.02
554.724	-0.01
554.918	-0.02
555.111	0.01
555.305	-0
555.498	0.05
555.692	0
555.885	-0.03
556.079	-0
556.272	-0.03
556.466	-0.01
556.659	-0.01
556.852	-0.01
557.046	-0.03
557.239	0.01
557.432	-0.03
557.626	-0.02
557.819	-0
558.012	0
558.206	0
558.399	-0.01
558.592	-0.01
558.785	-0.01
558.979	-0.01
559.172	0.02
559.365	0.01
559.558	-0.01
559.751	-0.01
559.944	0
560.138	-0.02
560.331	-0.02
560.524	-0.03
560.717	-0
560.91	-0.02
561.103	0.02
561.296	-0.01
561.489	-0.01
561.682	-0.01
561.875	0.02
562.068	-0.01
562.261	-0
562.454	0.02
562.647	0.02
562.84	0.01
563.032	-0.02
563.225	-0.01
563.418	-0
563.611	-0.02
563.804	-0.02
563.997	-0.02
564.19	-0.04
564.382	-0.02
564.575	-0.02
564.768	-0.02
564.961	-0.01
565.153	-0.03
565.346	-0.01
565.539	-0
565.731	0.03
565.924	0.01
566.117	-0
566.309	-0.01
566.502	-0.01
566.695	-0.02
566.887	-0.01
567.08	-0.02
567.272	-0.02
567.465	-0.01
567.657	-0
567.85	-0.02
568.042	-0
568.235	0.03
568.427	-0.02
568.62	-0.01
568.812	0.02
569.005	0
569.197	-0.04
569.389	-0.01
569.582	-0
569.774	-0
569.966	-0.04
570.159	-0.05
570.351	0
570.543	-0.04
570.736	-0.02
570.928	-0.04
571.12	-0.01
571.312	-0.02
571.505	-0.05
571.697	0.02
571.889	-0.07
572.081	-0.02
572.273	-0.03
572.465	0.02
572.658	-0.04
572.85	0.01
573.042	-0.01
573.234	-0.02
573.426	0.02
573.618	-0.04
573.81	-0.01
574.002	0.03
574.194	0.04
574.386	-0.05
574.578	-0.11
574.77	-0.05
574.962	-0
575.154	-0.05
575.346	-0.02
575.538	-0.01
575.729	-0.04
575.921	-0.03
576.113	-0.03
576.305	-0
576.497	-0.01
576.689	-0.01
576.88	-0.03
577.072	0.01
577.264	-0.01
577.456	-0.03
577.647	-0.06
577.839	-0
578.031	0.03
578.223	-0.04
578.414	-0.08
578.606	0.02
578.798	0.01
578.989	-0.02
579.181	-0.03
579.372	-0.02
579.564	-0.04
579.755	-0.02
579.947	-0.03
580.139	-0.01
580.33	-0.07
580.522	-0.03
580.713	-0.08
580.905	-0.02
581.096	-0.02
581.287	-0.02
581.479	-0.03
581.67	0.03
581.862	-0.01
582.053	-0.01
582.244	-0.07
582.436	-0.03
582.627	0
582.818	-0.04
583.01	-0.05
583.201	-0.01
583.392	-0.03
583.583	-0.01
583.775	-0.05
583.966	-0.04
584.157	-0.01
584.348	-0.04
584.54	-0.04
584.731	-0
584.922	-0.02
585.113	-0.03
585.304	0.02
585.495	0.03
585.686	-0.02
585.877	-0.01
586.068	0.01
586.259	0.01
586.45	-0.02
586.641	-0.03
586.832	-0.07
587.023	-0
587.214	-0.05
587.405	-0.01
587.596	-0.04
587.787	0.05
587.978	0.01
588.169	-0.04
588.36	-0.01
588.551	-0.01
588.742	-0.03
588.932	-0.02
589.123	-0.03
589.314	0.02
589.505	0.02
589.696	-0.01
589.886	-0.05
590.077	-0.05
590.268	0.01
590.458	-0.04
590.649	-0.05
590.84	0.01
591.03	-0.04
591.221	-0.07
591.412	-0.04
591.602	-0.02
591.793	0
591.984	-0.05
592.174	-0.04
592.365	0.03
592.555	-0.01
592.746	-0
592.936	-0.01
593.127	0
593.317	0.02
593.508	-0.03
593.698	-0.03
593.889	-0.02
594.079	-0
594.269	-0.01
594.46	-0.01
594.65	-0.01
594.84	-0.03
595.031	-0.05
595.221	-0.03
595.411	-0.06
595.602	0.03
595.792	-0.01
595.982	-0.03
596.172	0.02
596.363	-0.04
596.553	-0.01
596.743	-0.01
596.933	-0.02
597.123	0.03
597.314	-0.06
597.504	-0.04
597.694	0.02
597.884	0.01
598.074	-0.03
598.264	-0.05
598.454	-0.02
598.644	-0.01
598.834	-0.01
599.024	-0.08
599.214	-0.04
599.404	0.01
599.594	-0.04
599.784	-0.05
599.974	0.05
600.164	0.02
600.354	-0.06
600.544	-0.04
600.734	0.02
600.924	0.03
601.114	-0.04
601.303	-0.02
601.493	-0.01
601.683	-0.04
601.873	-0
602.063	-0.09
602.252	0.01
602.442	-0.05
602.632	-0.03
602.821	-0.04
603.011	0.01
603.201	-0.01
603.39	-0.05
603.58	-0.07
603.77	-0
603.959	0.02
604.149	-0.03
604.339	-0.06
604.528	-0
604.718	0
604.907	-0.03
605.097	-0.05
605.286	0
605.476	0.01
605.665	-0.01
605.855	-0.02
606.044	0
606.234	0.01
606.423	-0.03
606.612	-0.05
606.802	-0.02
606.991	0.03
607.181	0.01
607.37	-0.06
607.559	-0.03
607.749	-0.04
607.938	-0.03
608.127	-0.02
608.316	-0.04
608.506	-0.01
608.695	-0.01
608.884	-0.04
609.073	-0.02
609.263	0
609.452	-0.01
609.641	0.01
609.83	-0.03
610.019	-0.01
610.208	-0.02
610.397	0.01
610.586	-0.02
610.775	-0.04
610.965	-0.05
611.154	-0.04
611.343	-0
611.532	-0.01
611.721	-0.02
611.91	-0.03
612.099	0.02
612.287	-0.04
612.476	-0.06
612.665	-0.01
612.854	-0.02
613.043	0.02
613.232	-0.03
613.421	-0.06
613.61	-0.02
613.798	-0.04
613.987	0.02
614.176	-0.03
614.365	0.02
614.554	0
614.742	-0.02
614.931	-0.02
615.12	-0
615.309	-0.03
615.497	-0
615.686	-0.04
615.875	-0.03
616.063	0.02
616.252	-0.03
616.44	-0.02
616.629	-0.01
616.818	0.03
617.006	-0.04
617.195	-0.04
617.383	0.01
617.572	-0.04
617.76	-0.05
617.949	-0.02
618.137	0.03
618.326	0.04
618.514	-0.02
618.703	-0.03
618.891	0.02
619.079	-0.06
619.268	-0.01
619.456	-0.04
619.644	0.04
619.833	-0.01
620.021	-0.03
620.209	-0.06
620.398	0
620.586	-0.01
620.774	0
620.962	-0
621.151	0.03
621.339	-0.02
621.527	-0.08
621.715	-0.04
621.903	-0.05
622.092	-0.04
622.28	-0
622.468	-0.02
622.656	-0.02
622.844	-0.01
623.032	-0.03
623.22	-0.05
623.408	0.03
623.596	0
623.784	-0.02
623.972	-0.04
624.16	-0.02
624.348	0.03
624.536	-0.02
624.724	-0.02
624.912	0.06
625.1	0
625.288	-0.05
625.476	-0.04
625.664	0.01
625.851	-0.06
626.039	-0.02
626.227	-0.02
626.415	-0.02
626.603	-0.08
626.79	-0.03
626.978	-0.02
627.166	0.02
627.354	-0.01
627.541	-0.04
627.729	-0.07
627.917	0.03
628.104	0.02
628.292	-0.01
628.48	-0.01
628.667	0.01
628.855	-0.03
629.042	-0
629.23	-0.04
629.418	-0.02
629.605	-0.01
629.793	-0.03
629.98	-0.02
630.168	-0
630.355	-0.02
630.543	0.02
630.73	-0.03
630.917	-0.02
631.105	0.04
631.292	-0.03
631.48	0.01
631.667	0.07
631.854	-0
632.042	-0.01
632.229	-0.05
632.416	0
632.604	0.01
632.791	-0.06
632.978	0.04
633.165	0.01
633.353	0.01
633.54	0.07
633.727	-0.09
633.914	-0.01
634.101	-0.04
634.289	0.04
634.476	-0.03
634.663	-0.02
634.85	0.02
635.037	-0.04
635.224	-0.05
635.411	0.03
635.598	0.04
635.785	0
635.972	0.02
636.159	0.03
636.346	-0.03
636.533	-0.01
636.72	0
636.907	-0.02
637.094	0.02
637.281	0.02
637.468	0.04
637.655	0.01
637.842	-0.04
638.029	-0
638.215	0.03
638.402	0.01
638.589	-0.03
638.776	0.01
638.963	-0.02
639.149	0.07
639.336	0.08
639.523	-0.02
639.709	-0.01
639.896	-0.01
640.083	0.04
640.27	0.02
640.456	-0.01
640.643	0.02
640.829	-0.04
641.016	0.02
641.203	-0.03
641.389	0.05
641.576	0.06
641.762	-0
641.949	-0.04
642.135	0.05
642.322	0.05
642.508	-0.04
642.695	0.03
642.881	-0.02
643.068	0.02
643.254	0.01
643.441	0.06
643.627	0.04
643.813	-0.02
644	0.08
644.186	0.01
644.372	0.02
644.559	0.08
644.745	0.03
644.931	0.03
645.118	0.03
645.304	0.03
645.49	-0.02
645.676	0.03
645.862	0.02
646.049	0.09
646.235	0.03
646.421	0.09
646.607	0.1
646.793	0.02
646.979	0.01
647.165	0.04
647.352	0.04
647.538	0.06
647.724	0.04
647.91	0.03
648.096	0.07
648.282	0.08
648.468	0.02
648.654	0.06
648.84	0.04
649.026	0.03
649.212	0.06
649.397	0.01
649.583	0.02
649.769	0.08
649.955	0.08
650.141	0.09
650.327	0.09
650.513	-0
650.698	0.06
650.884	-0.01
651.07	0.08
651.256	0.07
651.442	0.06
651.627	0.03
651.813	0.04
651.999	0.06
652.184	0.06
652.37	0.07
652.556	0.04
652.741	0.13
652.927	-0
653.113	0.04
653.298	0.07
653.484	0.08
653.669	0.02
653.855	0.07
654.04	0.09
654.226	0.08
654.412	0.05
654.597	0.01
654.782	0.12
654.968	0.09
655.153	0.08
655.339	0.05
655.524	0.06
655.71	0.11
655.895	0.07
656.08	0.09
656.266	0.14
656.451	0.1
656.636	0.03
656.822	0.09
657.007	0.04
657.192	0.1
657.378	0.02
657.563	0.11
657.748	0.11
657.933	0.12
658.118	0.05
658.304	0.08
658.489	0.16
658.674	0.13
658.859	0.04
659.044	0.1
659.229	0.13
659.414	0.07
659.599	0.09
659.785	0.04
659.97	0.11
660.155	0.1
660.34	0.09
660.525	0.07
660.71	0.07
660.895	0.09
661.08	0.04
661.264	0.03
661.449	0.12
661.634	0.11
661.819	0.09
662.004	0.11
662.189	0.01
662.374	0.05
662.559	0.04
662.743	0.01
662.928	0.08
663.113	0.02
663.298	-0
663.483	0.05
663.667	0.06
663.852	-0.01
664.037	0.08
664.221	0.04
664.406	0.08
664.591	0.04
664.775	0.02
664.96	0.07
665.145	0.05
665.329	0.05
665.514	0.02
665.698	0.05
665.883	-0.03
666.068	0.07
666.252	0.02
666.437	-0.01
666.621	-0.02
666.806	0.01
666.99	-0.01
667.174	-0.04
667.359	0.07
667.543	0.01
667.728	0.01
667.912	-0.09
668.096	0.02
668.281	-0.02
668.465	-0.02
668.649	-0.01
668.834	-0.02
669.018	0.03
669.202	-0.05
669.387	-0.05
669.571	0.01
669.755	-0.05
669.939	0.02
670.124	0.01
670.308	0.06
670.492	0.04
670.676	-0.03
670.86	-0.03
671.044	-0.06
671.228	0.01
671.413	-0.07
671.597	-0.03
671.781	-0.05
671.965	-0.01
672.149	-0.02
672.333	0.01
672.517	-0.03
672.701	0.03
672.885	-0.04
673.069	-0.05
673.253	0.05
673.437	0.01
673.621	-0.02
673.804	-0
673.988	-0
674.172	0.02
674.356	-0.06
674.54	-0
674.724	0.08
674.908	0
675.091	0.01
675.275	-0.04
675.459	-0.01
675.643	0.03
675.826	-0.03
676.01	-0.03
676.194	-0.02
676.377	0.05
676.561	0.03
676.745	-0.02
676.928	0.01
677.112	0.05
677.296	-0.06
677.479	-0.04
677.663	-0
677.846	-0.01
678.03	-0.01
678.213	-0.04
678.397	0.01
678.58	-0.04
678.764	-0.01
678.947	-0.04
679.131	-0.07
679.314	-0.02
679.498	-0.07
679.681	0
679.865	0.03
680.048	-0.02
680.231	-0.02
680.415	-0.04
680.598	-0.03
680.781	-0.02
680.965	-0.06
681.148	-0.01
681.331	-0.02
681.514	0.03
681.698	-0.04
681.881	-0.01
682.064	0.02
682.247	0
682.43	-0.06
682.614	-0.03
682.797	0.01
682.98	-0
683.163	-0.02
683.346	-0.02
683.529	-0.07
683.712	-0.04
683.895	-0
684.078	-0.05
684.261	-0.05
684.444	0.02
684.627	0.01
684.81	-0.06
684.993	0.01
685.176	-0
685.359	-0.06
685.542	-0.03
685.725	0.05
685.908	-0
686.091	-0.03
686.274	0.03
686.457	-0.04
686.639	-0
686.822	0.03
687.005	0.01
687.188	0.01
687.371	0.07
687.553	-0.01
687.736	0.02
687.919	0.1
688.102	0.07
688.284	-0.07
688.467	-0
688.65	-0.1
688.832	-0.1
689.015	-0.01
689.197	-0.06
689.38	0.05
689.563	0.08
689.745	-0.07
689.928	-0.03
690.11	-0.02
690.293	0.02
690.475	-0.07
690.658	0.03
690.84	-0.04
691.023	-0.02
691.205	-0.02
691.388	-0.01
691.57	0.02
691.752	-0.02
691.935	-0.1
692.117	-0
692.3	-0.01
692.482	-0.07
692.664	0.01
692.847	0.02
693.029	0.08
693.211	-0.02
693.393	-0.03
693.576	-0.02
693.758	0.02
693.94	-0.02
694.122	-0.04
694.304	-0
694.487	-0.05
694.669	0.05
694.851	-0.05
695.033	0
695.215	-0.03
695.397	-0.07
695.579	0.02
695.761	-0.08
695.943	-0.07
696.125	0.08
696.308	-0.03
696.49	-0.13
696.671	0.1
696.853	-0.03
697.035	0.03
697.217	-0.01
697.399	0.05
697.581	-0.03
697.763	-0.02
697.945	-0.09
698.127	0.01
698.309	0.05
698.491	-0.01
698.672	0.01
698.854	0.06
699.036	0.07
699.218	-0
699.399	0.01
699.581	0
699.763	0.03
699.945	-0.05
700.126	-0.06
700.308	0.02
700.49	-0.01
700.671	-0.08
700.853	-0.04
701.035	-0.04
701.216	-0.02
701.398	-0.1
701.579	-0.02
701.761	0.06
701.943	-0.06
702.124	-0.07
702.306	-0.05
702.487	0.12
702.669	-0.01
702.85	-0.06
703.031	-0.09
703.213	0.12
703.394	-0
703.576	-0.05
703.757	0.03
703.938	0.03
704.12	0.12
704.301	0.01
704.483	-0.1
704.664	-0.01
704.845	0.11
705.026	0.02
705.208	-0.04
705.389	-0.02
705.57	0.06
705.751	-0.04
705.933	0.02
706.114	0.04
706.295	0
706.476	-0.05
706.657	0.03
706.838	0.01
707.02	0.02
707.201	0
707.382	-0.05
707.563	0.07
707.744	-0.08
707.925	-0.07
708.106	-0.08
708.287	0.05
708.468	0.12
708.649	-0.02
708.83	0.01
709.011	-0.06
709.192	0.05
709.373	-0.12
709.554	-0.05
709.734	0.05
709.915	0.12
710.096	0.02
710.277	-0.06
710.458	-0.05
710.639	-0.01
710.819	-0.16
711	0.05
711.181	0.04
711.362	0.1
711.542	0.03
711.723	0
711.904	0.04
712.085	0.05
712.265	0.05
712.446	-0.12
712.627	-0.1
712.807	0.03
712.988	-0.01
713.168	-0.12
713.349	-0.01
713.53	-0.12
713.71	-0.07
713.891	-0.03
714.071	-0.01
714.252	-0.04
714.432	-0.01
714.613	-0.12
714.793	-0.03
714.974	0.09
715.154	0.05
715.334	0.04
715.515	0.06
715.695	-0.11
715.876	0.02
716.056	0.02
716.236	0.01
716.417	-0.04
716.597	-0.05
716.777	0.11
716.957	0.01
717.138	0.04
717.318	0.01
717.498	-0.06
717.678	-0
717.859	0.06
718.039	-0.04
718.219	0.08
718.399	0.05
718.579	-0.09
718.759	-0.08
718.939	0.03
719.12	0.06
719.3	0.01
719.48	-0.12
719.66	-0.1
719.84	0.1
720.02	-0.01
720.2	-0.11
720.38	-0.01
720.56	0.07
720.74	-0.01
720.92	0.02
721.1	0.04
721.279	0.15
721.459	-0.02
721.639	-0.03
721.819	0.03
721.999	0
722.179	0.12
722.359	-0.11
722.538	0.09
722.718	0.05
722.898	0.02
723.078	0.07
723.257	-0.05
723.437	0.06
723.617	0.1
723.797	-0
723.976	0.06
724.156	0.07
724.336	0.09
724.515	0.12
724.695	0.01
724.874	-0.03
725.054	0.08
725.234	-0.03
725.413	0.07
725.593	0.04
725.772	0.03
725.952	-0
726.131	0.03
726.311	0.03
726.49	0.04
726.67	-0.12
726.849	0.01
727.028	0.06
727.208	0.01
727.387	0.08
727.567	0.02
727.746	-0.06
727.925	-0
728.105	-0.06
728.284	-0.02
728.463	-0.02
728.643	0.06
728.822	-0.01
729.001	-0.01
729.18	0.02
729.359	0.12
729.539	0.01
729.718	0.02
729.897	0.12
730.076	0.01
730.255	-0.13
730.434	-0.02
730.614	0.09
730.793	0.17
730.972	0.06
731.151	-0.04
731.33	0.17
731.509	0.05
731.688	0.02
731.867	0.07
732.046	-0.06
732.225	0.23
732.404	-0.03
732.583	-0.05
732.762	0.05
732.941	0.11
733.12	0.07
733.298	0.01
733.477	0.06
733.656	-0.05
733.835	-0.08
734.014	0.15
734.193	-0.01
734.371	0.02
734.55	0.05
734.729	-0.04
734.908	0.16
735.086	0.08
735.265	0.08
735.444	-0.06
735.623	-0.18
735.801	-0.09
735.98	0.05
736.159	-0.02
736.337	0.16
736.516	-0
736.694	0.04
736.873	0.09
737.052	0.13
737.23	0.2
737.409	0.01
737.587	0.18
737.766	-0.08
737.944	0.03
738.123	0.12
738.301	0.17
738.479	-0.08
738.658	0.12
738.836	-0.14
739.015	0.17
739.193	0.2
739.371	-0.01
739.55	-0.03
739.728	-0.16
739.906	0.2
740.085	0.21
740.263	-0.03
740.441	-0.1
740.62	0.17
740.798	0.16
740.976	-0.06
741.154	-0.05
741.332	0.16
741.511	-0.01
741.689	0.14
741.867	0.07
742.045	0.03
742.223	-0.01
742.401	-0.1
742.579	-0.02
742.757	0.08
742.935	-0.07
743.114	-0.03
743.292	-0.06
743.47	0.06
743.648	-0.02
743.826	0.05
744.004	0.07
744.181	0.06
744.359	0.07
744.537	-0.03
744.715	-0.07
744.893	0.06
745.071	0.02
745.249	-0.07
745.427	-0.08
745.605	0.12
745.782	0.03
745.96	0.11
746.138	-0.02
746.316	0.08
746.493	-0.13
746.671	-0.03
746.849	-0.03
747.027	0.21
747.204	-0.14
747.382	0.12
747.56	-0.16
747.737	0
747.915	-0.14
748.093	0
748.27	-0.07
748.448	-0.08
748.625	-0.11
748.803	-0.12
748.98	-0.07
749.158	0.12
749.335	0.06
749.513	-0.1
749.69	-0.04
749.868	-0
750.045	-0.01
750.223	-0.11
750.4	-0.25
750.578	0.18
750.755	0.01
750.932	-0.19
751.11	0.05
751.287	-0.11
751.464	0.03
751.642	-0.2
751.819	0.04
751.996	-0.01
752.173	-0.04
752.351	-0.12
752.528	0.05
752.705	-0.01
752.882	-0.09
753.06	-0.01
753.237	0.03
753.414	0.16
753.591	0.05
753.768	-0.08
753.945	-0.08
754.122	-0.08
754.299	0.02
754.476	-0.18
754.654	0.02
754.831	0.08
755.008	-0.07
755.185	-0.12
755.362	-0.05
755.539	0.05
755.716	-0.15
755.892	-0.04
756.069	-0.03
756.246	-0.08
756.423	-0.08
756.6	0.03
756.777	-0.15
756.954	0.15
757.131	-0.06
757.307	-0.16
757.484	-0.14
757.661	0.04
757.838	-0.1
758.015	-0.23
758.191	0.09
758.368	0
758.545	0.07
758.721	0.04
758.898	-0.15
759.075	0.03
759.251	0.12
759.428	0.13
759.605	-0.17
759.781	-0.16
759.958	0.05
760.134	0.02
760.311	-0.05
760.488	0.06
760.664	0.03
760.841	-0.01
761.017	-0.25
761.194	0.02
761.37	0.02
761.547	0.07
761.723	-0.16
761.899	0.04
762.076	-0.15
762.252	-0.14
762.429	-0.08
762.605	0.14
762.781	-0.04
762.958	0.03
763.134	-0.08
763.31	-0.17
763.486	0.19
763.663	-0.21
763.839	-0.05
764.015	-0.21
764.191	-0.15
764.368	-0.02
764.544	-0.09
764.72	0.07
764.896	0.12
765.072	-0.12
765.248	-0.01
765.425	-0.04
765.601	0.07
765.777	0
765.953	-0.21
766.129	-0.1
766.305	-0.13
766.481	-0.07
766.657	0
766.833	0.14
767.009	-0.22
767.185	-0.03
767.361	-0.08
767.537	-0.13
767.713	0.01
767.889	-0.08
768.065	-0.13
768.24	0.05
768.416	-0.02
768.592	-0.13
768.768	-0.12
768.944	-0.07
769.12	-0.15
769.295	-0.09
769.471	-0.09
769.647	-0.02
769.823	0.15
769.998	-0.26
770.174	-0.05
770.35	0.35
770.525	0.31
770.701	-0.07
770.877	0.03
771.052	-0.24
771.228	0.01
771.403	-0.02
771.579	0.02
771.755	0.24
771.93	-0.2
772.106	-0.1
772.281	-0.24
772.457	-0.13
772.632	0.04
772.808	-0.19
772.983	-0.03
773.159	-0.22
773.334	0.12
773.509	-0.03
773.685	-0.21
773.86	0.36
774.036	0.13
774.211	0.04
774.386	-0.19
774.562	-0.05
774.737	-0.06
774.912	-0.26
775.087	-0.03
775.263	-0.17
775.438	-0.12
775.613	-0.24
775.788	-0.09
775.964	0.02
776.139	0.24
776.314	-0.18
776.489	-0.07
776.664	-0.02
776.839	-0.23
777.014	0.08
777.19	0.06
777.365	0.13
777.54	0.25
777.715	-0.2
777.89	-0.17
778.065	-0.21
778.24	-0.04
778.415	-0.02
778.59	-0.19
778.765	-0.15
778.94	-0.06
779.115	-0.09
779.289	-0.21
779.464	-0.27
779.639	-0.11
779.814	-0.22
779.989	-0.19
780.164	0.02
780.339	0.1
780.513	-0.11
780.688	-0.28
780.863	-0.1
781.038	0.08
781.212	-0.17
781.387	-0.09
781.562	0.05
781.737	0.07
781.911	0.04
782.086	-0.11
782.261	-0.05
782.435	0.25
782.61	-0.15
782.784	-0.1
782.959	0.3
783.134	-0.28
783.308	-0.32
783.483	0.03
783.657	0.31
783.832	0.09
784.006	-0.34
784.181	-0.15
784.355	0.28
784.53	0.06
784.704	-0.25
784.878	0.31
785.053	0.2
785.227	0.04
785.402	0.09
785.576	-0.2
785.75	-0.17
785.925	-0.11
786.099	-0.04
786.273	0.11
786.448	0.12
786.622	0.21
786.796	-0.15
786.97	-0.3
787.145	0.37
787.319	-0.35
787.493	-0.07
787.667	-0.4
787.841	-0.19
788.015	0.22
788.19	-0.17
788.364	0.1
788.538	-0.01
788.712	0.01
788.886	-0.1
789.06	0.3
789.234	0.09
789.408	-0.19
789.582	-0.1
789.756	0.02
789.93	-0.25
790.104	-0.2
790.278	-0.06
790.452	-0.45
790.626	0.14
790.8	-0.19
790.973	-0.03
791.147	0.12
791.321	0.09
791.495	0.13
791.669	-0.03
791.843	0.18
792.016	0.18
792.19	0.25
792.364	-0.41
792.538	0.45
792.711	0.23
792.885	-0.19
793.059	-0.29
793.233	-0.67
793.406	0.06
793.58	-0.07
793.754	-0.1
793.927	0.03
794.101	0.42
794.274	0.06
794.448	0.07
794.622	-0.39
794.795	0.09
794.969	-0.38
795.142	0.11
795.316	-0.13
795.489	-0.18
795.663	0.19
795.836	-0.3
796.009	-0.39
796.183	0.18
796.356	0.03
796.53	0.05
796.703	-0.15
796.876	0.42
797.05	-0.43
797.223	-0.22
797.396	-0.06
797.57	-0.11
797.743	0.18
797.916	0.14
798.09	-0.21
798.263	0.26
798.436	0.07
798.609	-0.14
798.782	-0.07
798.956	-0.02
799.129	-0.19
799.302	-0.03
799.475	-0.27
799.648	-0.2
799.821	-0.21
799.994	-0.1
800.167	-0.44
800.34	-0.17
800.514	-0.17
800.687	-0.34
800.86	-0.44
801.033	0.08
801.206	-0.09
801.379	-0.28
801.551	-0.17
801.724	0.26
801.897	0.02
802.07	-0.28
802.243	-0.58
802.416	-0.02
802.589	-0.2
802.762	-0.14
802.935	-0.37
803.107	-0.22
803.28	-0.01
803.453	0.1
803.626	-0.3
803.798	0.08
803.971	-0.34
804.144	0.24
804.317	0.06
804.489	0.08
804.662	-0.19
804.835	0
805.007	-0.26
805.18	0.37
805.353	-0.02
805.525	-0.44
805.698	-0.26
805.87	0.24
806.043	0.05
806.215	-0.35
806.388	-0.37
806.56	-0.07
806.733	0.41
806.905	0.09
807.078	-0.34
807.25	-0.58
807.423	-0.22
807.595	-0.02
807.768	-0.15
807.94	-0.02
808.112	-0.05
808.285	-0.22
808.457	-0.01
808.629	-0.36
808.802	0.04
808.974	-0.11
809.146	-0.2
809.318	-0.26
809.491	-0.02
809.663	0.28
809.835	-0.12
810.007	0.09
810.18	-0.42
810.352	-0.52
810.524	-0.31
810.696	0.02
810.868	0.21
811.04	-0
811.212	0.07
811.384	-0.24
811.556	0.18
811.728	-0.02
811.901	0.8
812.073	-0.17
812.245	0.61
812.417	-0.04
812.589	-0.29
812.76	0
812.932	-0.05
813.104	0.45
813.276	-0.24
813.448	0.38
813.62	0.07
813.792	0.17
813.964	-0.11
814.136	0.04
814.307	-0.47
814.479	-0.53
814.651	-0
814.823	0.49
814.995	0.09
815.166	0.28
815.338	-0.39
815.51	-0.57
815.681	0.36
815.853	-0.24
816.025	-0.4
816.196	0.56
816.368	-0.36
816.54	-0.75
816.711	-0.73
816.883	0.24
817.054	0.48
817.226	-0.69
817.398	0.01
817.569	-0.33
817.741	-0.02
817.912	-0.11
818.084	-0.12
818.255	-0.03
818.426	-0.4
818.598	-0.13
818.769	-0.76
818.941	-0.17
819.112	0.3
819.283	-0.03
819.455	-0.76
819.626	-0.42
819.798	-0.2
819.969	-0
820.14	-0.12
820.311	-0.46
820.483	-0.04
820.654	-0.19
820.825	-0.01
820.996	-0.15
821.168	-0.37
821.339	0.05
821.51	-0.65
821.681	-0.6
821.852	0.15
822.023	-0.75
822.195	-1.1
822.366	0.24
822.537	-0.26
822.708	-0.35
822.879	-0.7
823.05	0.23
823.221	-0.43
823.392	-0.23
823.563	-0.46
823.734	0
823.905	-0.42
824.076	-0.15
824.247	-0.93
824.418	-0.38
824.589	-0.1
824.759	-0.22
824.93	-0.72
825.101	-0.91
825.272	0.32
825.443	0.3
825.614	0.3
825.784	-1.21
825.955	0.63
826.126	0.27
826.297	-0.41
826.467	-0.04
826.638	0.67
826.809	-1.21
826.98	0.15
827.15	0.02
827.321	-0.17
827.492	0.48
827.662	-0.28
827.833	0.86
828.003	0.06
828.174	-0.56
828.345	-1
828.515	0.55
828.686	0.34
828.856	-0.52
829.027	-0.51
829.197	-0.18
829.368	0.07
829.538	-0.49
829.709	-0.54
829.879	0.16
830.049	0.08
830.22	-0.76
830.39	-0.33
830.56	0.33
830.731	0.34
830.901	-0.3
831.072	-0.59
831.242	-0.07
831.412	-0.26
831.582	-0.07
831.753	-0.81
831.923	-0.08
832.093	-0.47
832.263	0.05
832.434	-0.69
832.604	-0.53
832.774	0.32
832.944	-0.21
833.114	-0.7
833.284	0.03
833.454	-0.69
833.624	-0.05
833.795	-0.92
833.965	0.3
834.135	0.9
834.305	-1.01
834.475	-0.67
834.645	0.22
834.815	-0.19
834.985	-0.57
835.155	-0.48
835.325	-0.04
835.494	0.35
835.664	-0.2
835.834	-0.6
836.004	-0.64
836.174	0.52
836.344	-0.67
836.514	-1.22
836.684	-0.99
836.853	0.22
837.023	0.01
837.193	-0.69
837.363	0.66
837.532	0.23
837.702	-0.28
837.872	-1.22
838.041	0.59
838.211	1.07
838.381	-1.02
838.55	-0.06
838.72	1.69
838.89	1.18
839.059	-0.4
839.229	-0.76
839.398	1.76
839.568	0.37
839.738	-0.12
839.907	0.29
840.077	0.41
840.246	-0.65
840.416	-0.29
840.585	-1.22
840.755	1.13
840.924	0.65
841.093	-0.75
841.263	0.56
841.432	-0.11
841.602	-0.22
841.771	-0.06
841.94	-0.68
842.11	1.71
842.279	1.14
842.448	-1.42
842.617	0.04
842.787	0.38
842.956	-1.38
843.125	0.15
843.294	-0.39
843.464	1.02
843.633	-0.15
843.802	-1.43
843.971	0.33
844.14	0.75
844.309	-0.14
844.479	-0.83
844.648	-0.91
844.817	-0.62
844.986	0.29
845.155	-0.77
845.324	-0.85
845.493	-0.56
845.662	-0.28
845.831	-0.03
846	-0.33
846.169	-0.59
846.338	1.08
846.507	-0.54
846.676	-0.28
846.844	-0.64
847.013	-0.15
847.182	-0.17
847.351	-0.59
847.52	0.08
847.689	1.09
847.858	-0.22
848.026	-0.45
848.195	-0.08
848.364	-0.66
848.533	-0.96
848.701	-0.59
848.87	-0.17
849.039	0.64
849.207	0.25
849.376	0.65
849.545	0.99
849.713	-0.39
849.882	-0.43
850.051	0.43
850.219	0.46
850.388	-0.48
850.556	-0.63
850.725	-0.49
850.893	0.81
851.062	-0.68
851.23	0.62
851.399	-1.91
851.567	-0.64
851.736	0.12
851.904	-0.51
852.073	0.09
852.241	0.54
852.41	-0.32
852.578	-0.94
852.746	-0.38
852.915	1.21
853.083	-0.14
853.251	-2
853.42	-0.27
853.588	0.02
853.756	0.65
853.924	-0.46
854.093	-1.51
854.261	-0.87
854.429	-1.39
854.597	-0.03
854.765	-0.77
854.934	-0.23
855.102	-0.8
855.27	-0.15
855.438	1.5
855.606	0.75
855.774	0.78
855.942	-2.06
856.11	-2.05
856.278	-0.06
856.446	1.22
856.614	0.27
856.782	-0.79
856.95	0.21
857.118	0.38
857.286	-0.06
857.454	-0.98
857.622	0.73
857.79	0.16
857.958	-1.44
858.126	-1.21
858.294	-0.4
858.462	-0.22
858.629	-0.91
858.797	-0.95
858.965	-0.46
859.133	0.81
859.301	-1.97
859.468	-1.06
859.636	-1.72
859.804	0.33
859.971	-0.62
860.139	-1.58
860.307	-0.45
860.474	-0.25
860.642	-1.55
860.81	-1.17
860.977	-1.56
861.145	0.61
861.313	-0.65
861.48	0.27
861.648	1.19
861.815	-0.98
861.983	-2.01
862.15	-2.13
862.318	-0.64
862.485	1.61
862.653	-1.14
862.82	-1.23
862.988	0.37
863.155	1.27
863.322	-1.28
863.49	-1.53
863.657	-2.14
863.824	1.21
863.992	1.59
864.159	0.72
864.326	1.84
864.494	-2.17
864.661	1.37
864.828	-1.08
864.996	1.68
865.163	1.25
865.33	-0.92
865.497	-3.05
865.664	-1.42
865.832	-1.32
865.999	-0.75
866.166	-1.7
866.333	-0.97
866.5	-1.5
866.667	-0.38
866.834	-1.36
867.001	0.61
867.168	-1.88
867.335	0.61
867.502	-2.37
867.669	-0.73
867.836	1.36
868.003	-1.25
868.17	0.49
868.337	3.02
868.504	1.65
868.671	-3.58
868.838	-0.51
869.005	0.12
869.172	0.68
869.339	-0.55
869.505	-1.25
869.672	-2.2
869.839	2
870.006	0.36
870.173	-2.05
870.339	1.43
870.506	2.26
870.673	-1.58
870.84	1.07
871.006	-0.56
871.173	-0.54
871.34	-0.19
871.506	-1.93
871.673	-0.37
871.839	-2.27
872.006	0.77
872.173	-1.4
872.339	0.56
872.506	1.85
872.672	-0.58
872.839	-3.51
873.005	0.31
873.172	1.87
873.338	-0
873.505	0.59
873.671	-0.69
873.838	-0.65
874.004	-2.4
874.171	-0.05
874.337	-0.29
874.503	0.48
874.67	0.88
874.836	-1.43
875.002	0.74
875.169	1.04
875.335	0.21
875.501	-1.61
875.668	-0.49
875.834	-1.08
876	-1.46
876.166	0.32
876.332	-0.06
876.499	1.88
876.665	-1.23
876.831	-0.44
876.997	3.4
877.163	1.19
877.329	-1.32
877.495	-1.23
877.662	0.9
877.828	0.68
877.994	-0.7
878.16	-4.73
878.326	-0.69
878.492	0.09
878.658	-1.04
878.824	-1.12
878.99	1.49
879.156	-1.72
879.322	0.43
879.487	-2.95
879.653	1.18
879.819	0.69
879.985	-2.14
880.151	-1.29
880.317	0.62
880.483	-1.35
880.648	0.05
880.814	-3.81
880.98	0.62
881.146	-2.93
881.312	-1.93
881.477	-3.27
881.643	-2.07
881.809	2.14
881.974	0.58
882.14	-3.68
882.306	-2.35
882.471	2.64
882.637	-2.11
882.803	0.05
882.968	1.64
883.134	1.59
883.299	-0.86
883.465	-0.84
883.63	1.86
883.796	1.55
883.961	0.62
884.127	-2.79
884.292	-4.85
884.458	-2.4
884.623	-2.4
