Data from Apollo_Calib_20240827__AbsoluteIrradiance__113__01-02-00-809.txt Node

Date: Wed Aug 28 01:02:00 BST 2024
User: biology
Spectrometer: FLMT08252
Trigger mode: 0
Integration Time (sec): 5.000000E-1
Scans to average: 5
Electric dark correction enabled: true
Nonlinearity correction enabled: false
Boxcar width: 0
XAxis mode: Wavelengths
Number of Pixels in Spectrum: 3648
>>>>>Begin Spectral Data<<<<<
179.588	-0
179.809	-0
180.03	-0
180.251	-0
180.473	-0
180.694	0
180.915	0
181.136	-0
181.357	0
181.578	-0
181.799	-0
182.02	-0
182.241	-0
182.462	-0
182.683	0
182.904	-0
183.125	-0
183.346	0
183.567	0
183.788	-0
184.009	-0
184.23	-0
184.451	0
184.672	-0
184.892	-0
185.113	0
185.334	0
185.555	-0
185.776	-0
185.996	0
186.217	0
186.438	0
186.659	-0
186.879	0
187.1	0
187.321	-0
187.541	-0
187.762	0
187.983	0
188.203	0
188.424	-0
188.644	-0
188.865	-0
189.086	0
189.306	0
189.527	0
189.747	-0
189.968	-0
190.188	0
190.409	-0
190.629	0
190.849	-0
191.07	-0
191.29	0
191.511	-0
191.731	-0
191.951	-0
192.172	-0
192.392	-0
192.612	-0
192.833	-0
193.053	0
193.273	0
193.493	0
193.714	-0
193.934	0
194.154	0
194.374	0
194.594	0
194.815	0
195.035	0
195.255	0
195.475	-0
195.695	0
195.915	0
196.135	0
196.355	0
196.575	0
196.795	0
197.015	-0
197.235	-0
197.455	-0
197.675	0
197.895	-0
198.115	-0
198.335	0
198.555	-0
198.775	0
198.995	0
199.214	0
199.434	-0
199.654	-0
199.874	0
200.094	0.5
200.313	0.17
200.533	-0.2
200.753	-0.76
200.973	0.45
201.192	0.1
201.412	-0.95
201.632	-0.4
201.851	0.82
202.071	-0.35
202.291	-0.05
202.51	-0.75
202.73	0.15
202.95	-0.22
203.169	-0.18
203.389	0.01
203.608	0.18
203.828	-0.26
204.047	-0.01
204.267	0.12
204.486	-0.05
204.706	0.25
204.925	-0.17
205.145	-0.23
205.364	-0.09
205.583	0.46
205.803	-0.35
206.022	-0.53
206.242	-0.11
206.461	-0.07
206.68	-0.59
206.9	-0.1
207.119	0.35
207.338	0.32
207.557	-0.35
207.777	-0.13
207.996	-0.09
208.215	0.57
208.434	-0.32
208.654	-0.57
208.873	0.04
209.092	0.69
209.311	-0.23
209.53	-0.21
209.749	-0.14
209.968	-0.18
210.187	0.04
210.407	-0.38
210.626	0.01
210.845	0.23
211.064	0.22
211.283	-0.26
211.502	0.26
211.721	-0.01
211.94	-0
212.159	-0.01
212.377	0.08
212.596	0.31
212.815	-0.1
213.034	-0.02
213.253	0.03
213.472	0.24
213.691	-0.12
213.91	-0.26
214.128	-0.05
214.347	0.25
214.566	-0.23
214.785	-0.18
215.003	0.05
215.222	-0.01
215.441	0.02
215.66	-0.17
215.878	-0.27
216.097	0.26
216.316	-0.16
216.534	-0.11
216.753	-0.05
216.972	0.02
217.19	-0.05
217.409	-0.29
217.627	-0.17
217.846	-0.05
218.064	0.01
218.283	-0.13
218.501	0.35
218.72	0.16
218.938	-0.21
219.157	-0.16
219.375	0.21
219.594	-0.1
219.812	-0.21
220.031	-0.14
220.249	0.27
220.467	0.21
220.686	-0.04
220.904	-0.14
221.122	-0.28
221.341	0.21
221.559	-0.01
221.777	-0.27
221.995	-0.02
222.214	0.07
222.432	-0.28
222.65	0.07
222.868	-0.03
223.086	0.02
223.305	0.12
223.523	-0.16
223.741	0.27
223.959	0.09
224.177	-0.26
224.395	-0.08
224.613	0.1
224.831	0.12
225.049	-0.14
225.267	-0.14
225.485	0
225.703	0.04
225.921	0.03
226.139	-0.02
226.357	0.17
226.575	0.01
226.793	0.05
227.011	0.52
227.229	0.05
227.447	0.05
227.665	-0.17
227.883	-0.36
228.1	0.04
228.318	0.06
228.536	-0.32
228.754	-0.22
228.972	0.07
229.189	0.07
229.407	-0.08
229.625	-0.03
229.843	0.25
230.06	0.09
230.278	-0.05
230.496	0.02
230.713	0.09
230.931	0.17
231.149	-0.02
231.366	-0.15
231.584	-0.05
231.801	0.31
232.019	-0.02
232.236	-0.1
232.454	-0.09
232.671	0.12
232.889	-0.04
233.106	-0.08
233.324	0.09
233.541	-0.07
233.759	0.03
233.976	-0.04
234.194	-0.05
234.411	-0.07
234.628	-0.18
234.846	-0.07
235.063	-0.06
235.28	-0.04
235.498	-0.09
235.715	-0.13
235.932	0.1
236.149	0.05
236.367	-0.09
236.584	-0.03
236.801	-0.13
237.018	-0.01
237.236	-0.02
237.453	-0.23
237.67	0.13
237.887	0
238.104	0.02
238.321	-0.09
238.538	-0.1
238.755	0.15
238.973	-0.13
239.19	-0.05
239.407	0.1
239.624	-0.02
239.841	-0.19
240.058	-0.06
240.275	0.04
240.492	0.02
240.709	0.01
240.925	0.07
241.142	0.13
241.359	-0.08
241.576	-0.06
241.793	-0
242.01	-0.03
242.227	0.06
242.444	-0.02
242.66	0.08
242.877	0.09
243.094	-0.04
243.311	-0.09
243.527	0.01
243.744	0
243.961	0.09
244.178	-0.14
244.394	0.01
244.611	0.1
244.828	0.16
245.044	-0.07
245.261	-0.05
245.477	0.06
245.694	0.16
245.911	-0.12
246.127	0.02
246.344	0.12
246.56	0.09
246.777	-0.11
246.993	0.01
247.21	0.05
247.426	0.06
247.643	-0.04
247.859	-0.12
248.076	-0.1
248.292	0.12
248.508	-0.04
248.725	0.05
248.941	0.04
249.157	0.09
249.374	-0.06
249.59	0.06
249.806	-0.06
250.023	0.11
250.239	-0.09
250.455	0.03
250.671	-0.01
250.888	0.03
251.104	0.05
251.32	-0.05
251.536	-0.03
251.752	0.02
251.969	-0.03
252.185	0.11
252.401	0.11
252.617	0.01
252.833	-0
253.049	0.06
253.265	-0.05
253.481	0.07
253.697	-0.04
253.913	-0.05
254.129	0
254.345	0.01
254.561	-0.04
254.777	-0.05
254.993	-0
255.209	0.02
255.425	-0.02
255.641	0.01
255.857	0.06
256.073	0.05
256.288	-0.02
256.504	0.03
256.72	-0.06
256.936	0.13
257.152	-0.05
257.367	-0.12
257.583	0.03
257.799	0.08
258.015	-0.12
258.23	-0.06
258.446	0.13
258.662	0.02
258.877	0.02
259.093	-0.01
259.309	0.05
259.524	0.05
259.74	-0.04
259.955	-0.05
260.171	0.03
260.387	-0.01
260.602	0.1
260.818	0.03
261.033	-0.03
261.249	-0.02
261.464	-0.04
261.68	-0.03
261.895	0.07
262.11	0.05
262.326	-0.08
262.541	-0.03
262.757	0.05
262.972	-0.01
263.187	-0.01
263.403	0.04
263.618	0.06
263.833	-0.03
264.049	-0.09
264.264	0.02
264.479	0.02
264.694	0.1
264.91	-0.07
265.125	-0.02
265.34	0.07
265.555	0.16
265.77	0.04
265.986	-0.05
266.201	0.03
266.416	0.13
266.631	-0.06
266.846	0
267.061	0.03
267.276	0.06
267.491	-0.13
267.706	0.05
267.921	0.04
268.136	0.03
268.351	0.03
268.566	-0.05
268.781	0.09
268.996	0.06
269.211	0.04
269.426	-0.07
269.641	-0.03
269.856	0.04
270.071	0
270.285	-0.07
270.5	0.05
270.715	0.04
270.93	-0.01
271.145	-0.02
271.359	0.03
271.574	-0.14
271.789	-0.04
272.004	-0.07
272.218	-0.01
272.433	0.08
272.648	-0.01
272.862	0.07
273.077	-0
273.292	-0.02
273.506	-0.09
273.721	-0
273.936	-0.01
274.15	0.07
274.365	-0.02
274.579	0.02
274.794	0.05
275.008	0.06
275.223	-0.08
275.437	-0
275.652	0.04
275.866	0.06
276.081	0.03
276.295	0.01
276.509	-0.03
276.724	-0.04
276.938	-0.01
277.153	0.01
277.367	0.06
277.581	-0.04
277.796	-0.01
278.01	-0.06
278.224	0.11
278.438	0.1
278.653	-0.02
278.867	-0.02
279.081	-0.19
279.295	-0.02
279.51	0.08
279.724	-0.05
279.938	0.01
280.152	0.04
280.366	-0.16
280.58	0.06
280.794	0.07
281.008	0.04
281.222	0.05
281.437	0.11
281.651	0.01
281.865	0.04
282.079	-0.04
282.293	-0.08
282.507	-0.05
282.721	0.04
282.935	0
283.148	-0.06
283.362	-0.03
283.576	-0.04
283.79	0.05
284.004	-0.08
284.218	0.08
284.432	-0.04
284.646	0
284.859	-0.03
285.073	-0.02
285.287	-0.01
285.501	0.02
285.714	0.03
285.928	-0.01
286.142	0.01
286.356	-0.02
286.569	0.01
286.783	0.01
286.997	0.02
287.21	-0.01
287.424	0.06
287.637	-0
287.851	-0.04
288.065	0.06
288.278	0.01
288.492	0.04
288.705	0.02
288.919	0.02
289.132	-0.04
289.346	0.11
289.559	-0.06
289.773	-0.06
289.986	-0.05
290.2	-0
290.413	-0.01
290.626	-0.1
290.84	0.01
291.053	0.08
291.267	0.09
291.48	0.01
291.693	-0.01
291.906	-0.02
292.12	-0.04
292.333	-0.02
292.546	-0.04
292.76	0.09
292.973	0
293.186	0.01
293.399	-0.05
293.612	0.03
293.826	0
294.039	0.01
294.252	-0
294.465	0.05
294.678	0.01
294.891	0.02
295.104	-0.02
295.317	0.03
295.53	0.01
295.743	-0.02
295.956	0.02
296.169	0.07
296.382	-0
296.595	-0.02
296.808	-0.03
297.021	0.05
297.234	0.04
297.447	0.03
297.66	0.07
297.873	0.07
298.086	0.06
298.299	-0.01
298.511	-0.04
298.724	0.01
298.937	-0.04
299.15	0
299.363	0.01
299.575	0.03
299.788	0.04
300.001	-0
300.213	0.02
300.426	-0.05
300.639	-0.02
300.852	-0.02
301.064	0.08
301.277	0.05
301.489	-0.04
301.702	0.01
301.915	0.02
302.127	0.02
302.34	0.03
302.552	0.04
302.765	-0.05
302.977	0.05
303.19	0.01
303.402	-0.02
303.615	-0.01
303.827	0
304.04	0.02
304.252	0.03
304.464	0
304.677	0.09
304.889	0.03
305.102	-0.02
305.314	0.01
305.526	0.06
305.739	0.03
305.951	-0
306.163	0.01
306.375	0.03
306.588	-0.03
306.8	-0.02
307.012	-0.06
307.224	0.02
307.436	0.01
307.649	-0.03
307.861	0.04
308.073	0.01
308.285	0.04
308.497	-0
308.709	0.01
308.921	0.03
309.133	0.06
309.346	-0.01
309.558	0.02
309.77	0.07
309.982	0.05
310.194	0.05
310.406	-0
310.617	0.04
310.829	-0.01
311.041	0.03
311.253	-0.02
311.465	0.01
311.677	0.04
311.889	0.02
312.101	-0.01
312.313	0.05
312.524	0.05
312.736	-0.02
312.948	-0.03
313.16	0.07
313.372	0
313.583	0.02
313.795	0
314.007	-0.01
314.218	0.06
314.43	0.02
314.642	-0.01
314.853	-0.07
315.065	0.04
315.277	0.01
315.488	0.01
315.7	0.07
315.912	0.01
316.123	-0.01
316.335	-0.01
316.546	0.11
316.758	-0.03
316.969	-0.03
317.181	0.06
317.392	-0.03
317.604	0.01
317.815	-0.01
318.026	-0.05
318.238	-0.01
318.449	0.02
318.661	-0.07
318.872	-0.03
319.083	-0.03
319.295	0.02
319.506	-0.03
319.717	0.01
319.929	0.05
320.14	-0.02
320.351	0.05
320.562	-0.03
320.774	0.01
320.985	0.07
321.196	-0.06
321.407	-0.07
321.618	0.03
321.829	0.01
322.041	0.04
322.252	-0.01
322.463	0.04
322.674	0.04
322.885	-0.03
323.096	-0
323.307	-0.03
323.518	0.03
323.729	-0.02
323.94	0.01
324.151	-0.03
324.362	0.01
324.573	-0
324.784	-0.02
324.995	0.08
325.206	0.02
325.417	-0.01
325.628	-0.02
325.838	0.03
326.049	0.03
326.26	0
326.471	-0.01
326.682	0.02
326.892	-0
327.103	-0.05
327.314	0.01
327.525	0.07
327.735	-0.01
327.946	-0.03
328.157	-0.04
328.368	0.05
328.578	0.01
328.789	0.02
328.999	0
329.21	-0.04
329.421	0.04
329.631	-0.03
329.842	-0.04
330.052	0.03
330.263	0.06
330.473	0.06
330.684	-0.01
330.894	-0
331.105	-0
331.315	0.01
331.526	-0.04
331.736	0.08
331.947	0.06
332.157	0.03
332.367	0
332.578	0.07
332.788	0.08
332.999	-0.01
333.209	-0.01
333.419	-0.03
333.629	0
333.84	0.03
334.05	0.03
334.26	0.06
334.47	-0
334.681	0.02
334.891	-0.01
335.101	-0.02
335.311	0.07
335.521	0.01
335.732	-0.03
335.942	0.06
336.152	0.03
336.362	0.05
336.572	0.02
336.782	0.01
336.992	0
337.202	0
337.412	-0
337.622	0.03
337.832	0.01
338.042	0.02
338.252	0.01
338.462	-0.02
338.672	0.01
338.882	0.01
339.092	-0.04
339.302	0.07
339.511	0.02
339.721	-0.03
339.931	-0.03
340.141	0.08
340.351	0.02
340.561	0.02
340.77	0.02
340.98	-0.01
341.19	-0.02
341.4	-0.04
341.609	-0.08
341.819	-0.05
342.029	0.03
342.238	0.04
342.448	-0.02
342.658	-0.01
342.867	0.01
343.077	-0.02
343.286	0.02
343.496	0.03
343.706	0.03
343.915	-0.03
344.125	0.04
344.334	0.01
344.544	-0.03
344.753	0.01
344.963	0.02
345.172	-0
345.381	-0.03
345.591	0.01
345.8	-0.01
346.01	0.09
346.219	0.04
346.428	-0.11
346.638	0.01
346.847	-0.02
347.056	0.07
347.266	0
347.475	0.03
347.684	0.04
347.893	-0
348.103	0.03
348.312	-0.01
348.521	0
348.73	0.02
348.94	0.05
349.149	0
349.358	-0
349.567	0.02
349.776	-0.03
349.985	-0.01
350.194	0.06
350.403	0.02
350.612	-0.03
350.821	-0.02
351.03	0.02
351.239	-0.03
351.448	-0
351.657	-0.01
351.866	0.12
352.075	-0
352.284	0.05
352.493	0
352.702	0.06
352.911	0.04
353.12	0.03
353.329	0.03
353.538	0.01
353.746	-0.01
353.955	-0.02
354.164	0.04
354.373	0.01
354.582	0.06
354.79	0.05
354.999	0.05
355.208	0.02
355.416	0.09
355.625	0
355.834	0.03
356.042	0
356.251	0.02
356.46	-0.01
356.668	0.02
356.877	0.07
357.085	0.06
357.294	-0.05
357.503	0.02
357.711	0.02
357.92	0.06
358.128	0.05
358.337	0.03
358.545	0.08
358.754	0.02
358.962	0.06
359.17	0.03
359.379	0.01
359.587	0.03
359.796	0.04
360.004	0.09
360.212	0.06
360.421	0.04
360.629	0
360.837	-0.01
361.046	0.04
361.254	0.1
361.462	0.02
361.67	-0.03
361.879	0.03
362.087	0.06
362.295	-0
362.503	0.01
362.711	-0.02
362.92	-0.01
363.128	0.03
363.336	0.01
363.544	-0.05
363.752	0.01
363.96	-0.02
364.168	0.01
364.376	0.04
364.584	0.05
364.792	0.06
365	0.07
365.208	-0.02
365.416	0.02
365.624	0.06
365.832	0.03
366.04	0.08
366.248	0.04
366.456	0.07
366.664	0.02
366.872	-0.01
367.079	0.02
367.287	0.03
367.495	0.04
367.703	0.05
367.911	0.05
368.118	0.07
368.326	0.07
368.534	0.04
368.742	0.13
368.949	0.05
369.157	0.05
369.365	0.12
369.572	0.09
369.78	0.1
369.988	0.22
370.195	0.2
370.403	0.21
370.61	0.16
370.818	0.24
371.026	0.3
371.233	0.21
371.441	0.3
371.648	0.25
371.856	0.34
372.063	0.32
372.271	0.38
372.478	0.38
372.685	0.44
372.893	0.46
373.1	0.49
373.308	0.47
373.515	0.62
373.722	0.61
373.93	0.61
374.137	0.67
374.344	0.79
374.552	0.79
374.759	0.82
374.966	0.8
375.173	0.87
375.381	1
375.588	0.94
375.795	0.97
376.002	1.06
376.209	1.02
376.417	1.17
376.624	1.28
376.831	1.3
377.038	1.31
377.245	1.36
377.452	1.44
377.659	1.6
377.866	1.6
378.073	1.78
378.28	1.8
378.487	1.88
378.694	1.96
378.901	2.06
379.108	2.13
379.315	2.29
379.522	2.38
379.729	2.42
379.936	2.48
380.143	2.65
380.35	2.7
380.557	2.88
380.763	2.95
380.97	2.93
381.177	3.07
381.384	3.34
381.591	3.44
381.797	3.4
382.004	3.6
382.211	3.68
382.418	3.72
382.624	3.82
382.831	3.8
383.038	3.95
383.244	3.92
383.451	3.81
383.658	3.87
383.864	3.96
384.071	3.82
384.277	3.92
384.484	3.84
384.69	3.86
384.897	3.69
385.103	3.71
385.31	3.57
385.516	3.54
385.723	3.37
385.929	3.38
386.136	3.18
386.342	3.17
386.549	2.98
386.755	2.91
386.961	2.89
387.168	2.76
387.374	2.57
387.58	2.53
387.787	2.43
387.993	2.31
388.199	2.1
388.406	2.12
388.612	1.97
388.818	1.89
389.024	1.81
389.231	1.74
389.437	1.78
389.643	1.68
389.849	1.59
390.055	1.5
390.261	1.48
390.467	1.47
390.674	1.42
390.88	1.41
391.086	1.36
391.292	1.27
391.498	1.32
391.704	1.25
391.91	1.21
392.116	1.12
392.322	1.04
392.528	1.13
392.734	1.01
392.94	1
393.146	1.03
393.352	0.95
393.557	0.9
393.763	0.9
393.969	0.9
394.175	0.78
394.381	0.77
394.587	0.76
394.792	0.76
394.998	0.77
395.204	0.78
395.41	0.67
395.615	0.65
395.821	0.64
396.027	0.61
396.233	0.59
396.438	0.56
396.644	0.65
396.85	0.59
397.055	0.53
397.261	0.54
397.466	0.45
397.672	0.44
397.878	0.48
398.083	0.47
398.289	0.39
398.494	0.46
398.7	0.4
398.905	0.3
399.111	0.42
399.316	0.3
399.522	0.33
399.727	0.33
399.932	0.33
400.138	0.29
400.343	0.29
400.549	0.3
400.754	0.33
400.959	0.26
401.165	0.24
401.37	0.31
401.575	0.33
401.78	0.28
401.986	0.22
402.191	0.25
402.396	0.23
402.601	0.29
402.807	0.29
403.012	0.2
403.217	0.19
403.422	0.23
403.627	0.2
403.832	0.22
404.037	0.22
404.243	0.22
404.448	0.2
404.653	0.2
404.858	0.2
405.063	0.23
405.268	0.13
405.473	0.17
405.678	0.11
405.883	0.3
406.088	0.22
406.293	0.09
406.498	0.14
406.703	0.19
406.907	0.16
407.112	0.09
407.317	0.19
407.522	0.18
407.727	0.13
407.932	0.14
408.136	0.2
408.341	0.11
408.546	0.1
408.751	0.12
408.956	0.17
409.16	0.13
409.365	0.13
409.57	0.11
409.774	0.05
409.979	0.15
410.184	0.12
410.388	0.08
410.593	0.1
410.798	0.09
411.002	0.06
411.207	0.11
411.411	0.13
411.616	0.03
411.82	0.07
412.025	0.07
412.229	0.11
412.434	0.17
412.638	0.12
412.843	0.07
413.047	0.08
413.252	0.09
413.456	0.06
413.66	0.06
413.865	0.07
414.069	0.12
414.273	0.07
414.478	0.06
414.682	0.04
414.886	0.02
415.091	0.02
415.295	-0.02
415.499	0.08
415.703	-0.01
415.908	0.11
416.112	-0.03
416.316	0.13
416.52	0.02
416.724	0.01
416.929	0.02
417.133	0.13
417.337	0.08
417.541	0.01
417.745	0.07
417.949	0.12
418.153	0.09
418.357	0.01
418.561	0.2
418.765	0.04
418.969	0.13
419.173	0.13
419.377	0.06
419.581	0.12
419.785	0.1
419.989	0.01
420.193	0.07
420.397	0.06
420.601	0.1
420.804	0.11
421.008	0.06
421.212	0.08
421.416	0.1
421.62	0.02
421.823	0.05
422.027	0.1
422.231	0.07
422.435	0.03
422.638	0.13
422.842	0.02
423.046	-0.01
423.249	0.07
423.453	0.07
423.657	0.08
423.86	0.03
424.064	0.05
424.268	0.1
424.471	0.05
424.675	0.13
424.878	0.12
425.082	0.04
425.285	0.08
425.489	0.06
425.692	0.06
425.896	-0.01
426.099	0.06
426.303	-0.02
426.506	-0.01
426.71	0.04
426.913	0.08
427.116	0.06
427.32	0.04
427.523	0.09
427.726	0.09
427.93	-0.02
428.133	0.03
428.336	0.04
428.54	0.02
428.743	0.01
428.946	0.09
429.149	0.03
429.353	0.09
429.556	0.09
429.759	0.05
429.962	0.01
430.165	0.07
430.368	0.02
430.571	-0
430.775	0.05
430.978	0.03
431.181	0.06
431.384	0.11
431.587	0.07
431.79	0.07
431.993	0.02
432.196	0.08
432.399	0.04
432.602	0.12
432.805	0.02
433.008	0.04
433.211	-0.03
433.414	0.08
433.616	0.1
433.819	0.02
434.022	-0.02
434.225	0.14
434.428	0.09
434.631	0.17
434.833	0.04
435.036	0.04
435.239	0.07
435.442	0.07
435.645	0.05
435.847	0.05
436.05	0.08
436.253	0.1
436.455	0.03
436.658	0.02
436.861	0.12
437.063	0.03
437.266	0.07
437.468	0.1
437.671	0.19
437.874	0.02
438.076	0.01
438.279	0.01
438.481	0.09
438.684	0.06
438.886	0.09
439.089	-0.03
439.291	0.03
439.494	0.09
439.696	0.03
439.899	0.04
440.101	0.06
440.303	0.03
440.506	0.13
440.708	0.06
440.91	0.12
441.113	-0
441.315	0.14
441.517	0.02
441.72	0.16
441.922	0.04
442.124	0.01
442.326	0.13
442.529	0.1
442.731	0.08
442.933	0.14
443.135	0.08
443.337	0.05
443.539	0.07
443.742	0.09
443.944	0.05
444.146	0.03
444.348	0.03
444.55	0.06
444.752	0.09
444.954	0.03
445.156	0.11
445.358	0.08
445.56	0.12
445.762	0.06
445.964	0.09
446.166	0.06
446.368	0.04
446.57	0.18
446.772	0.06
446.974	0.07
447.175	0.09
447.377	0.08
447.579	0.06
447.781	-0.01
447.983	0.14
448.184	0.09
448.386	0.07
448.588	0.03
448.79	0.11
448.991	0.09
449.193	0.08
449.395	0.1
449.597	0.07
449.798	0.1
450	0.09
450.202	0.09
450.403	0.07
450.605	0.17
450.806	0.07
451.008	0.02
451.21	0.09
451.411	0.09
451.613	0.05
451.814	0.07
452.016	0.07
452.217	0.11
452.419	0.15
452.62	0.05
452.821	0.1
453.023	0.16
453.224	0.13
453.426	0.07
453.627	0.09
453.828	0.13
454.03	0.1
454.231	0.14
454.432	0.06
454.634	0.13
454.835	0.04
455.036	0.04
455.238	0.09
455.439	0.15
455.64	-0.04
455.841	-0.01
456.042	0.13
456.244	0.09
456.445	0.04
456.646	0.01
456.847	0.08
457.048	0.14
457.249	0.09
457.45	0.19
457.651	0.06
457.852	0.12
458.054	0.07
458.255	0.03
458.456	0.07
458.657	0.11
458.858	0.01
459.058	0.1
459.259	0.09
459.46	0.08
459.661	0.04
459.862	0.09
460.063	0.03
460.264	0.07
460.465	-0.04
460.666	0.16
460.866	0.07
461.067	0.05
461.268	0.03
461.469	0.04
461.67	0.07
461.87	0.02
462.071	0
462.272	-0.01
462.473	0.03
462.673	0.09
462.874	-0.01
463.075	0.06
463.275	0.01
463.476	0.09
463.676	0.05
463.877	0.03
464.078	0.04
464.278	0.07
464.479	0.04
464.679	0.01
464.88	0.04
465.08	0.07
465.281	0.03
465.481	0.05
465.682	-0.01
465.882	0.07
466.083	0.04
466.283	0.08
466.483	0.04
466.684	-0.02
466.884	0.02
467.085	0.05
467.285	0.08
467.485	0.04
467.686	0.07
467.886	0.01
468.086	0.02
468.286	0.02
468.487	0.05
468.687	-0.01
468.887	0.06
469.087	0.07
469.287	0.05
469.488	-0.03
469.688	0.06
469.888	0.1
470.088	0.04
470.288	0.09
470.488	0.06
470.688	-0.02
470.888	0.01
471.088	-0
471.288	0.03
471.488	0.07
471.688	0.07
471.888	0.03
472.088	0.11
472.288	0.01
472.488	0.03
472.688	0.01
472.888	-0
473.088	0.02
473.288	0
473.488	0.07
473.688	0.11
473.887	0.01
474.087	0.04
474.287	-0.01
474.487	0
474.687	0.07
474.886	-0
475.086	0.02
475.286	0.03
475.486	0.02
475.685	0.04
475.885	0
476.085	0.01
476.284	0.04
476.484	-0.03
476.684	0.07
476.883	0.1
477.083	0.04
477.282	0
477.482	0.08
477.681	0.07
477.881	0
478.08	-0.04
478.28	0
478.479	0.04
478.679	0.1
478.878	0
479.078	-0.02
479.277	0.04
479.477	0.01
479.676	0.07
479.875	0.02
480.075	-0.02
480.274	0.03
480.473	0.04
480.673	-0.01
480.872	0.07
481.071	0.01
481.271	0.03
481.47	-0
481.669	0.01
481.868	0.01
482.067	-0
482.267	0.01
482.466	-0.02
482.665	0
482.864	-0
483.063	-0.01
483.262	0.01
483.461	0.07
483.661	0.05
483.86	-0
484.059	0.04
484.258	0.01
484.457	0.03
484.656	0.01
484.855	0.04
485.054	-0.04
485.253	-0.02
485.452	-0.04
485.651	-0.01
485.849	-0.01
486.048	-0.01
486.247	-0.02
486.446	0.02
486.645	-0.01
486.844	-0.02
487.043	0.03
487.241	0.03
487.44	-0
487.639	-0.01
487.838	0.03
488.037	0.02
488.235	0.05
488.434	0.03
488.633	0
488.831	0.02
489.03	0.03
489.229	0.02
489.427	0.01
489.626	0.05
489.825	0.06
490.023	0
490.222	0
490.42	0.02
490.619	0.03
490.817	0.03
491.016	0.01
491.214	0.05
491.413	-0
491.611	0.01
491.81	0.01
492.008	0.02
492.207	0.03
492.405	0.02
492.604	-0.03
492.802	0
493	0.01
493.199	-0
493.397	0.01
493.595	-0
493.794	-0.03
493.992	0.05
494.19	0.02
494.388	0.02
494.587	0.02
494.785	0.02
494.983	-0.02
495.181	0
495.379	0.01
495.578	0
495.776	0.03
495.974	0.03
496.172	0
496.37	-0
496.568	-0.02
496.766	-0.01
496.964	0.04
497.162	0
497.36	-0
497.558	0.02
497.756	0.04
497.954	0.01
498.152	-0.01
498.35	0
498.548	0
498.746	0
498.944	-0.01
499.142	-0.01
499.34	-0.03
499.538	-0.01
499.736	-0.02
499.933	0.05
500.131	0.04
500.329	0
500.527	0.03
500.725	0.04
500.922	0.01
501.12	0.02
501.318	0.01
501.516	-0.02
501.713	0.01
501.911	-0
502.109	-0.01
502.306	0.03
502.504	0.01
502.701	0
502.899	0.03
503.097	0.05
503.294	0.02
503.492	-0.02
503.689	0.02
503.887	0.03
504.084	0.03
504.282	0.01
504.479	-0.03
504.677	0.01
504.874	-0.02
505.072	-0
505.269	-0.01
505.466	0.04
505.664	0.02
505.861	-0.01
506.059	0.01
506.256	0.02
506.453	-0.02
506.651	0.04
506.848	0.04
507.045	-0
507.242	0.01
507.44	-0.01
507.637	0
507.834	0
508.031	0.01
508.229	-0.02
508.426	0.01
508.623	0.02
508.82	-0.01
509.017	-0.02
509.214	0
509.411	0.05
509.608	-0.02
509.805	-0.02
510.003	-0.02
510.2	-0.02
510.397	0.04
510.594	-0.01
510.791	-0.02
510.988	0
511.184	0.05
511.381	0.01
511.578	-0
511.775	0.03
511.972	0
512.169	-0
512.366	0.01
512.563	0.04
512.76	0.01
512.956	0.04
513.153	0
513.35	0.04
513.547	-0.01
513.744	-0.02
513.94	-0.03
514.137	-0
514.334	0.02
514.53	0
514.727	-0
514.924	0.01
515.12	0
515.317	-0.02
515.514	-0.01
515.71	-0.01
515.907	-0
516.103	-0.01
516.3	0.03
516.497	0.02
516.693	0.03
516.89	0
517.086	-0.01
517.283	0.05
517.479	0.03
517.676	-0.01
517.872	0.02
518.068	0.01
518.265	0.01
518.461	-0.02
518.658	-0.02
518.854	0.03
519.05	0
519.247	0
519.443	0.03
519.639	0
519.836	-0
520.032	-0
520.228	0
520.424	0.03
520.621	0.03
520.817	-0.01
521.013	0.03
521.209	0
521.405	0.03
521.601	0.01
521.798	0.02
521.994	0.03
522.19	-0.01
522.386	-0.03
522.582	0.01
522.778	0
522.974	-0
523.17	-0.01
523.366	-0
523.562	0.04
523.758	-0.01
523.954	-0
524.15	0.01
524.346	-0.01
524.542	0.01
524.738	-0.02
524.934	-0
525.129	0
525.325	0.01
525.521	0
525.717	0.03
525.913	0.02
526.109	0.01
526.304	-0.01
526.5	0.03
526.696	0.02
526.892	0.01
527.087	0.02
527.283	-0.01
527.479	0.01
527.674	-0.01
527.87	0.02
528.066	-0.02
528.261	0.01
528.457	-0.01
528.653	0
528.848	-0.02
529.044	0.02
529.239	0.01
529.435	0.04
529.63	0.02
529.826	0.05
530.021	0.02
530.217	0.02
530.412	-0.01
530.608	-0.01
530.803	-0.01
530.999	0.01
531.194	-0.03
531.389	0
531.585	-0.04
531.78	-0
531.975	0.01
532.171	0.04
532.366	0.02
532.561	-0.01
532.757	-0
532.952	0
533.147	0.02
533.342	0.01
533.538	-0.01
533.733	0.02
533.928	-0
534.123	0
534.318	-0.04
534.513	0
534.709	0.01
534.904	-0
535.099	0.02
535.294	0
535.489	0.01
535.684	0.01
535.879	-0.01
536.074	0
536.269	-0
536.464	0.01
536.659	0.01
536.854	-0.01
537.049	0.02
537.244	-0
537.439	0.02
537.634	0.03
537.828	-0.01
538.023	0.01
538.218	-0.01
538.413	-0
538.608	-0.02
538.803	0
538.997	-0.02
539.192	0.04
539.387	0.02
539.582	0
539.776	0
539.971	-0.01
540.166	-0.02
540.36	-0.02
540.555	-0
540.75	-0
540.944	0.01
541.139	-0.04
541.334	0
541.528	-0
541.723	0.01
541.917	-0
542.112	-0.03
542.306	-0.02
542.501	0
542.695	0
542.89	0
543.084	0.01
543.279	-0.01
543.473	0.01
543.668	0.01
543.862	-0
544.056	0.02
544.251	0
544.445	0.01
544.64	-0
544.834	-0.01
545.028	0.01
545.222	0.01
545.417	0.02
545.611	-0.01
545.805	0.02
546	-0.01
546.194	0
546.388	-0.01
546.582	0.01
546.776	-0.01
546.97	0.01
547.165	0.02
547.359	0.02
547.553	-0
547.747	0.01
547.941	0
548.135	0.02
548.329	0.03
548.523	0.02
548.717	0
548.911	-0.01
549.105	-0
549.299	0.01
549.493	0.02
549.687	0.03
549.881	0.03
550.075	-0
550.269	-0.03
550.463	0.03
550.657	-0.01
550.85	-0.01
551.044	0
551.238	0.01
551.432	-0.02
551.626	-0
551.82	-0
552.013	-0.02
552.207	0.01
552.401	0.01
552.594	0.01
552.788	0.01
552.982	0
553.176	0
553.369	0.03
553.563	0.03
553.756	-0.02
553.95	-0.03
554.144	-0.02
554.337	0.06
554.531	0
554.724	0.02
554.918	-0.01
555.111	0.02
555.305	-0
555.498	0.05
555.692	0.03
555.885	-0.01
556.079	-0.01
556.272	-0.01
556.466	0.04
556.659	0.03
556.852	0
557.046	-0
557.239	0.02
557.432	0
557.626	-0
557.819	0.02
558.012	0
558.206	0.03
558.399	0.02
558.592	0.04
558.785	-0.01
558.979	0.03
559.172	0.01
559.365	0.01
559.558	0.01
559.751	-0.01
559.944	0.01
560.138	-0.02
560.331	0.01
560.524	0.02
560.717	0
560.91	-0.01
561.103	0.03
561.296	0.02
561.489	0.01
561.682	0.02
561.875	0.04
562.068	0.04
562.261	0.02
562.454	0.05
562.647	0.03
562.84	0.03
563.032	-0.01
563.225	0
563.418	-0.01
563.611	0
563.804	-0.01
563.997	-0.02
564.19	-0.05
564.382	0.04
564.575	0
564.768	0
564.961	-0.03
565.153	-0.04
565.346	0.04
565.539	0.04
565.731	0.04
565.924	0.04
566.117	0
566.309	0
566.502	0.01
566.695	-0
566.887	0.01
567.08	-0.01
567.272	0.01
567.465	0.02
567.657	0.02
567.85	0.02
568.042	0.01
568.235	0.04
568.427	0
568.62	0.01
568.812	0.02
569.005	0.01
569.197	-0.01
569.389	0
569.582	0.02
569.774	0.01
569.966	-0.01
570.159	-0.02
570.351	0.02
570.543	0
570.736	0.02
570.928	-0.03
571.12	0.02
571.312	-0.01
571.505	-0.01
571.697	0.03
571.889	-0
572.081	0.01
572.273	-0.01
572.465	0.04
572.658	-0.01
572.85	0.03
573.042	0
573.234	0
573.426	0.05
573.618	-0.01
573.81	0.02
574.002	0.05
574.194	0.04
574.386	-0.02
574.578	-0.06
574.77	0.01
574.962	0.01
575.154	-0.03
575.346	-0.02
575.538	0.01
575.729	-0.01
575.921	-0.02
576.113	-0.03
576.305	0.02
576.497	-0.01
576.689	-0
576.88	-0.01
577.072	0.02
577.264	-0.01
577.456	-0.01
577.647	-0.07
577.839	-0.03
578.031	0.05
578.223	-0.02
578.414	-0.02
578.606	0
578.798	0.02
578.989	-0.01
579.181	-0.01
579.372	0
579.564	0.01
579.755	0.02
579.947	0.01
580.139	0
580.33	-0.06
580.522	-0.01
580.713	-0.06
580.905	0.01
581.096	0.02
581.287	-0.01
581.479	-0
581.67	0.01
581.862	-0.01
582.053	-0.01
582.244	-0.04
582.436	0.01
582.627	-0
582.818	-0
583.01	-0.05
583.201	0.02
583.392	0.03
583.583	0.02
583.775	-0.03
583.966	-0.03
584.157	-0.03
584.348	0
584.54	-0.04
584.731	0.04
584.922	-0.02
585.113	-0.02
585.304	0.03
585.495	0.04
585.686	0.01
585.877	0.02
586.068	0.03
586.259	0.01
586.45	0.03
586.641	-0.02
586.832	-0.05
587.023	0.03
587.214	-0
587.405	-0.01
587.596	-0.04
587.787	0.03
587.978	0.02
588.169	-0.03
588.36	-0.01
588.551	0.03
588.742	-0.02
588.932	0.02
589.123	0.01
589.314	0.02
589.505	0.02
589.696	0.01
589.886	-0.02
590.077	-0.01
590.268	0.01
590.458	-0.04
590.649	-0.04
590.84	0.03
591.03	-0.03
591.221	-0.04
591.412	-0.03
591.602	0.01
591.793	0
591.984	-0.02
592.174	0.01
592.365	0.05
592.555	-0.02
592.746	0.02
592.936	0.04
593.127	0.02
593.317	0.03
593.508	-0.01
593.698	-0.02
593.889	0
594.079	-0.01
594.269	-0.01
594.46	-0
594.65	0.02
594.84	-0.01
595.031	-0.01
595.221	-0.03
595.411	-0.06
595.602	0.01
595.792	0
595.982	-0.02
596.172	0.02
596.363	0.01
596.553	-0.01
596.743	-0
596.933	0.01
597.123	0.04
597.314	-0.01
597.504	-0.01
597.694	0.03
597.884	0.01
598.074	-0
598.264	0
598.454	-0.01
598.644	-0
598.834	0.02
599.024	-0.04
599.214	0
599.404	0.04
599.594	0.01
599.784	-0.03
599.974	0.03
600.164	0.03
600.354	-0.02
600.544	-0.06
600.734	0.01
600.924	0.04
601.114	-0.02
601.303	-0.01
601.493	0
601.683	-0.01
601.873	0.01
602.063	-0.02
602.252	0
602.442	-0.06
602.632	-0.01
602.821	-0.02
603.011	0.02
603.201	0
603.39	-0.03
603.58	-0.02
603.77	0.02
603.959	0.03
604.149	-0.01
604.339	-0.02
604.528	0.05
604.718	-0
604.907	-0.01
605.097	-0
605.286	-0.03
605.476	0.02
605.665	0.03
605.855	-0.01
606.044	0.03
606.234	0.02
606.423	-0
606.612	-0.03
606.802	0.01
606.991	0.04
607.181	0.01
607.37	-0.04
607.559	0.02
607.749	-0.03
607.938	-0.02
608.127	0
608.316	-0.01
608.506	0.02
608.695	-0.02
608.884	-0.02
609.073	-0
609.263	0
609.452	0.02
609.641	0.01
609.83	-0.04
610.019	-0.01
610.208	-0.03
610.397	-0.03
610.586	0.01
610.775	-0.05
610.965	0
611.154	-0.03
611.343	0.01
611.532	-0
611.721	-0.04
611.91	-0
612.099	0.03
612.287	-0.02
612.476	-0.03
612.665	0.02
612.854	-0.02
613.043	0.02
613.232	0
613.421	-0.06
613.61	-0.01
613.798	-0.01
613.987	0.06
614.176	-0.02
614.365	0
614.554	0.02
614.742	0.04
614.931	-0.01
615.12	0
615.309	-0.01
615.497	0
615.686	-0.02
615.875	0
616.063	-0
616.252	-0.02
616.44	-0
616.629	0.01
616.818	0.03
617.006	-0.03
617.195	-0.02
617.383	0.04
617.572	-0.01
617.76	-0.03
617.949	-0.02
618.137	0.01
618.326	0.04
618.514	-0.01
618.703	-0.03
618.891	0.06
619.079	-0.06
619.268	0.01
619.456	-0.03
619.644	0.05
619.833	-0.02
620.021	-0.03
620.209	-0.04
620.398	0.01
620.586	0.04
620.774	0.02
620.962	0.01
621.151	0
621.339	-0.02
621.527	-0.02
621.715	-0.03
621.903	-0.03
622.092	-0.03
622.28	0.03
622.468	-0.01
622.656	-0.02
622.844	0.04
623.032	-0.05
623.22	-0.06
623.408	0.03
623.596	0.01
623.784	0
623.972	-0.02
624.16	0.01
624.348	0.02
624.536	0.02
624.724	-0
624.912	0.02
625.1	0.05
625.288	-0.03
625.476	-0.02
625.664	0.03
625.851	-0.03
626.039	0.02
626.227	0.03
626.415	0
626.603	-0.03
626.79	0.02
626.978	-0.01
627.166	0.03
627.354	0.02
627.541	-0.01
627.729	-0.05
627.917	-0.04
628.104	0.02
628.292	-0
628.48	-0
628.667	0.01
628.855	0
629.042	0.05
629.23	0.01
629.418	-0.03
629.605	0.01
629.793	-0.02
629.98	0
630.168	-0.02
630.355	0.01
630.543	0.01
630.73	-0.02
630.917	0.06
631.105	0.05
631.292	-0.03
631.48	0.02
631.667	0.04
631.854	0.01
632.042	-0.01
632.229	-0.04
632.416	0.05
632.604	0.02
632.791	-0.02
632.978	0.05
633.165	0.01
633.353	0.07
633.54	0.05
633.727	-0.03
633.914	-0.01
634.101	-0.06
634.289	0.03
634.476	-0.01
634.663	-0.02
634.85	0.04
635.037	-0.01
635.224	-0.05
635.411	0.07
635.598	0.03
635.785	0.01
635.972	-0.02
636.159	0.05
636.346	-0.02
636.533	-0
636.72	0.03
636.907	-0.03
637.094	0.03
637.281	0.02
637.468	0.03
637.655	0.01
637.842	0
638.029	-0.01
638.215	0.05
638.402	0.02
638.589	0.01
638.776	-0
638.963	0
639.149	0.05
639.336	0.06
639.523	0.02
639.709	0.01
639.896	-0.02
640.083	0.07
640.27	0.04
640.456	0.02
640.643	0.03
640.829	-0.05
641.016	0.01
641.203	-0.04
641.389	0.02
641.576	0.04
641.762	0
641.949	-0.01
642.135	0.05
642.322	0.02
642.508	-0.04
642.695	0.04
642.881	0.01
643.068	0.01
643.254	0.04
643.441	0.09
643.627	0.01
643.813	0
644	0.08
644.186	0.02
644.372	0.06
644.559	0.06
644.745	0.01
644.931	0.04
645.118	0.03
645.304	0.01
645.49	-0.01
645.676	0.03
645.862	0.02
646.049	0.06
646.235	0.05
646.421	0.06
646.607	0.08
646.793	0.02
646.979	0.01
647.165	0.04
647.352	0.04
647.538	0.07
647.724	0.02
647.91	0.04
648.096	0.08
648.282	0.05
648.468	0.02
648.654	0.04
648.84	0.08
649.026	0.02
649.212	0.05
649.397	-0.01
649.583	0.02
649.769	0.04
649.955	0.06
650.141	0.06
650.327	0.1
650.513	0.01
650.698	0.09
650.884	-0.03
651.07	0.04
651.256	0.07
651.442	0.07
651.627	0.07
651.813	0.06
651.999	0.05
652.184	0.11
652.37	0.07
652.556	0.05
652.741	0.09
652.927	0.02
653.113	0.06
653.298	0.1
653.484	0.06
653.669	-0.01
653.855	0.08
654.04	0.08
654.226	0.09
654.412	0.07
654.597	0.03
654.782	0.1
654.968	0.09
655.153	0.12
655.339	0.04
655.524	0.05
655.71	0.09
655.895	0.08
656.08	0.09
656.266	0.16
656.451	0.09
656.636	0.07
656.822	0.12
657.007	0.05
657.192	0.08
657.378	0.03
657.563	0.08
657.748	0.11
657.933	0.13
658.118	0.08
658.304	0.07
658.489	0.13
658.674	0.08
658.859	0.05
659.044	0.14
659.229	0.11
659.414	0.06
659.599	0.09
659.785	0.07
659.97	0.07
660.155	0.13
660.34	0.11
660.525	0.11
660.71	0.08
660.895	0.1
661.08	0.07
661.264	0.06
661.449	0.15
661.634	0.12
661.819	0.11
662.004	0.09
662.189	0.02
662.374	0.06
662.559	0.04
662.743	0.03
662.928	0.08
663.113	0.05
663.298	0.04
663.483	0.04
663.667	0.12
663.852	0
664.037	0.11
664.221	0.06
664.406	0.09
664.591	0.05
664.775	0.07
664.96	0.07
665.145	0.06
665.329	0.04
665.514	0.02
665.698	0.08
665.883	-0
666.068	0.08
666.252	0.05
666.437	0.02
666.621	0.05
666.806	0.06
666.99	0.02
667.174	-0.01
667.359	0.11
667.543	-0.01
667.728	-0.01
667.912	-0.05
668.096	0.05
668.281	0.04
668.465	0.03
668.649	0.01
668.834	-0.03
669.018	0.04
669.202	0.03
669.387	-0
669.571	0.02
669.755	0.03
669.939	-0.01
670.124	0.02
670.308	0.08
670.492	0.05
670.676	0.02
670.86	0.04
671.044	-0.06
671.228	0.06
671.413	-0.04
671.597	-0.01
671.781	-0.02
671.965	0.04
672.149	0.01
672.333	0.02
672.517	-0.01
672.701	0.01
672.885	-0.02
673.069	-0.03
673.253	0.05
673.437	-0.02
673.621	-0.04
673.804	-0.01
673.988	-0.03
674.172	-0.02
674.356	-0.06
674.54	0
674.724	0.07
674.908	-0.01
675.091	0.01
675.275	-0.02
675.459	0.06
675.643	-0.04
675.826	0.01
676.01	0.03
676.194	0.01
676.377	0.02
676.561	0.02
676.745	0.01
676.928	-0.02
677.112	0.06
677.296	-0.01
677.479	-0.01
677.663	-0.02
677.846	0.01
678.03	-0.04
678.213	-0.04
678.397	-0.01
678.58	-0.03
678.764	-0
678.947	-0.02
679.131	-0.03
679.314	-0
679.498	-0.01
679.681	0.03
679.865	0.05
680.048	0.01
680.231	-0.01
680.415	-0.01
680.598	-0.04
680.781	-0.02
680.965	-0.03
681.148	0.01
681.331	-0.02
681.514	0
681.698	-0.06
681.881	0.07
682.064	0
682.247	-0.03
682.43	-0.09
682.614	0.04
682.797	0.01
682.98	0.01
683.163	-0.04
683.346	0.01
683.529	0.01
683.712	-0.05
683.895	0.04
684.078	-0.03
684.261	-0.01
684.444	-0.01
684.627	-0.01
684.81	-0.02
684.993	0.02
685.176	0.02
685.359	-0.04
685.542	-0.05
685.725	0.04
685.908	-0.02
686.091	-0.04
686.274	0.02
686.457	0.01
686.639	-0.02
686.822	-0.01
687.005	0.02
687.188	-0.05
687.371	0.06
687.553	0.02
687.736	0.03
687.919	0.01
688.102	0.06
688.284	-0.02
688.467	0.01
688.65	0.02
688.832	-0.03
689.015	-0.02
689.197	-0.03
689.38	0.09
689.563	0.11
689.745	-0.01
689.928	-0.04
690.11	0.02
690.293	0
690.475	-0.07
690.658	0.03
690.84	0
691.023	0.01
691.205	-0.05
691.388	0.03
691.57	0.03
691.752	0.02
691.935	-0.08
692.117	-0.02
692.3	0
692.482	-0
692.664	0.05
692.847	-0.02
693.029	0.05
693.211	0.05
693.393	-0.02
693.576	0.01
693.758	0.03
693.94	-0.03
694.122	0.02
694.304	-0.03
694.487	-0.01
694.669	0.04
694.851	-0
695.033	0
695.215	-0.03
695.397	-0.01
695.579	0.04
695.761	-0.04
695.943	-0.11
696.125	0.02
696.308	0.03
696.49	-0.1
696.671	0.1
696.853	0
697.035	0.06
697.217	0.01
697.399	0.05
697.581	-0.02
697.763	0.04
697.945	-0.04
698.127	-0.01
698.309	0.04
698.491	-0.01
698.672	-0
698.854	0.03
699.036	0.07
699.218	0.02
699.399	0.05
699.581	-0
699.763	0.03
699.945	-0.06
700.126	0.01
700.308	0.07
700.49	-0.04
700.671	-0.08
700.853	0
701.035	-0.05
701.216	-0.01
701.398	-0.06
701.579	-0.04
701.761	0.07
701.943	-0.07
702.124	-0.07
702.306	-0.07
702.487	0.14
702.669	0.01
702.85	-0.05
703.031	-0.03
703.213	0.09
703.394	0.05
703.576	-0.05
703.757	0.06
703.938	0.11
704.12	0.13
704.301	-0.01
704.483	-0.07
704.664	-0.04
704.845	0.04
705.026	0.02
705.208	0.02
705.389	-0
705.57	-0.02
705.751	-0
705.933	0.01
706.114	0.05
706.295	-0.01
706.476	-0.06
706.657	0.1
706.838	-0.02
707.02	0.04
707.201	-0.03
707.382	0
707.563	0.05
707.744	-0.05
707.925	-0.05
708.106	-0.06
708.287	0.01
708.468	0.01
708.649	0.05
708.83	0.03
709.011	-0.05
709.192	0.1
709.373	-0.01
709.554	-0.02
709.734	0.08
709.915	0.05
710.096	-0.01
710.277	-0.07
710.458	0.03
710.639	0.04
710.819	-0.04
711	0.02
711.181	0.05
711.362	0.09
711.542	0.05
711.723	-0.02
711.904	-0.02
712.085	0.03
712.265	0.04
712.446	-0.09
712.627	-0.01
712.807	0.03
712.988	0.03
713.168	-0.04
713.349	0.02
713.53	-0.07
713.71	-0.07
713.891	-0.06
714.071	0.05
714.252	-0
714.432	-0
714.613	-0.05
714.793	-0.03
714.974	0.04
715.154	0.1
715.334	0.04
715.515	0.08
715.695	0.02
715.876	0.02
716.056	0.03
716.236	0.04
716.417	-0.01
716.597	-0.09
716.777	0.2
716.957	-0.04
717.138	0.04
717.318	0.01
717.498	-0
717.678	0.01
717.859	0.07
718.039	-0.01
718.219	0.03
718.399	0.04
718.579	-0.01
718.759	-0.01
718.939	0.02
719.12	-0.02
719.3	0
719.48	-0.15
719.66	-0.05
719.84	0.06
720.02	0.04
720.2	-0.05
720.38	0
720.56	0.12
720.74	0.03
720.92	0.02
721.1	0.1
721.279	0.04
721.459	0.03
721.639	-0.07
721.819	0.02
721.999	-0.02
722.179	0.08
722.359	-0.06
722.538	-0
722.718	0.02
722.898	0.01
723.078	-0.04
723.257	0
723.437	0.04
723.617	0.01
723.797	-0.06
723.976	0.06
724.156	0.05
724.336	0.18
724.515	0.23
724.695	-0.16
724.874	-0
725.054	0.08
725.234	-0.01
725.413	0.13
725.593	0
725.772	0.1
725.952	0.03
726.131	0.08
726.311	0.07
726.49	-0.02
726.67	-0.04
726.849	0.02
727.028	0.14
727.208	0.06
727.387	0.08
727.567	0.02
727.746	0.07
727.925	0.03
728.105	-0.02
728.284	0.02
728.463	0.02
728.643	0.08
728.822	-0.03
729.001	0.04
729.18	0.08
729.359	0.12
729.539	0.03
729.718	-0.02
729.897	0.09
730.076	0
730.255	0.02
730.434	0.16
730.614	0.04
730.793	0.15
730.972	0.06
731.151	0.09
731.33	0.16
731.509	0.08
731.688	0.11
731.867	0.08
732.046	-0.08
732.225	0.23
732.404	0.03
732.583	-0.02
732.762	0.07
732.941	0.16
733.12	0.11
733.298	0.09
733.477	0.09
733.656	0.09
733.835	0.03
734.014	0.14
734.193	0.09
734.371	0.09
734.55	0.09
734.729	-0.03
734.908	0.12
735.086	0.12
735.265	0.11
735.444	0.01
735.623	0.04
735.801	0.01
735.98	0.09
736.159	0.05
736.337	0.16
736.516	0.07
736.694	0.04
736.873	0.07
737.052	0.12
737.23	0.19
737.409	-0
737.587	0.2
737.766	-0.1
737.944	0.01
738.123	0.18
738.301	0.11
738.479	0.05
738.658	0.14
738.836	-0.11
739.015	0.19
739.193	0.21
739.371	-0.07
739.55	0.11
739.728	0
739.906	0.12
740.085	0.21
740.263	0.13
740.441	-0.09
740.62	0.21
740.798	0.19
740.976	-0.06
741.154	-0.16
741.332	0.29
741.511	0.1
741.689	0.21
741.867	0.12
742.045	0.11
742.223	0.05
742.401	0.03
742.579	-0
742.757	0.13
742.935	-0.04
743.114	0.07
743.292	-0.08
743.47	0.07
743.648	0.06
743.826	0.08
744.004	0.11
744.181	0.15
744.359	0.04
744.537	0.15
744.715	0.11
744.893	0.02
745.071	0.02
745.249	0.03
745.427	0.03
745.605	-0
745.782	0
745.96	0.11
746.138	0.07
746.316	0.07
746.493	-0.01
746.671	-0.04
746.849	0.03
747.027	0.16
747.204	-0.03
747.382	0.09
747.56	-0.08
747.737	0.05
747.915	-0.07
748.093	0.03
748.27	-0
748.448	-0.11
748.625	-0.07
748.803	-0.1
748.98	-0.08
749.158	0.05
749.335	0.1
749.513	0.03
749.69	0
749.868	0.02
750.045	0.05
750.223	-0.13
750.4	-0.16
750.578	0.19
750.755	0.04
750.932	-0.1
751.11	0.2
751.287	-0.17
751.464	0.09
751.642	-0.1
751.819	0.06
751.996	0.03
752.173	0.01
752.351	-0.11
752.528	-0
752.705	-0.02
752.882	-0.01
753.06	-0.04
753.237	0.04
753.414	0.11
753.591	0.16
753.768	0.1
753.945	-0.03
754.122	-0.02
754.299	0
754.476	-0.06
754.654	0.05
754.831	0.05
755.008	0.02
755.185	-0.05
755.362	-0.15
755.539	-0.01
755.716	-0.18
755.892	0.02
756.069	0.02
756.246	0.02
756.423	-0.06
756.6	0.09
756.777	-0.04
756.954	0.2
757.131	-0.02
757.307	-0.13
757.484	-0.05
757.661	-0.06
757.838	0.02
758.015	-0.1
758.191	-0.08
758.368	-0.05
758.545	0.02
758.721	-0
758.898	-0.08
759.075	0.18
759.251	0.02
759.428	-0.02
759.605	-0.12
759.781	-0.01
759.958	0.04
760.134	0.09
760.311	-0.08
760.488	0.07
760.664	0.05
760.841	-0.06
761.017	-0.13
761.194	-0.02
761.37	0.03
761.547	0.03
761.723	0
761.899	0.18
762.076	-0.01
762.252	-0.12
762.429	0
762.605	-0
762.781	-0
762.958	0.1
763.134	-0.1
763.31	-0.08
763.486	0.04
763.663	-0.24
763.839	0.14
764.015	-0.2
764.191	-0.16
764.368	-0.05
764.544	0.04
764.72	0.13
764.896	0.07
765.072	-0.03
765.248	-0
765.425	0.08
765.601	0.05
765.777	-0.05
765.953	-0.22
766.129	-0.07
766.305	-0.2
766.481	0.15
766.657	0.05
766.833	0.18
767.009	-0.12
767.185	-0.16
767.361	-0.03
767.537	-0.18
767.713	0.09
767.889	-0.1
768.065	0.03
768.24	-0.19
768.416	0.11
768.592	-0.06
768.768	-0.02
768.944	0.23
769.12	-0.09
769.295	-0.15
769.471	-0.12
769.647	-0.12
769.823	0.07
769.998	-0.16
770.174	-0.1
770.35	0.28
770.525	0.14
770.701	0.07
770.877	0.01
771.052	-0.05
771.228	0.14
771.403	0.13
771.579	0.01
771.755	0.3
771.93	-0.01
772.106	-0.1
772.281	-0.21
772.457	0.02
772.632	0.15
772.808	-0.07
772.983	-0.12
773.159	-0.17
773.334	0.04
773.509	0.17
773.685	-0.05
773.86	0.18
774.036	0.12
774.211	0.04
774.386	-0.15
774.562	-0.04
774.737	-0.05
774.912	-0.2
775.087	0.07
775.263	0.01
775.438	-0.01
775.613	-0.06
775.788	-0.13
775.964	0.03
776.139	0.32
776.314	-0.05
776.489	0.12
776.664	0.03
776.839	-0.21
777.014	0.11
777.19	0.1
777.365	0.17
777.54	0.11
777.715	0
777.89	-0.02
778.065	-0.19
778.24	0.07
778.415	0.1
778.59	-0.19
778.765	0.05
778.94	0.01
779.115	0.03
779.289	-0.05
779.464	-0.01
779.639	0
779.814	-0.17
779.989	-0.23
780.164	-0.01
780.339	0.02
780.513	-0.18
780.688	-0.06
780.863	-0.01
781.038	0.13
781.212	-0.14
781.387	-0.15
781.562	0.28
781.737	0.08
781.911	0.12
782.086	-0.09
782.261	0.05
782.435	0.18
782.61	0.09
782.784	-0.02
782.959	0.19
783.134	-0.16
783.308	-0.17
783.483	-0.08
783.657	0.25
783.832	0.17
784.006	-0.27
784.181	0.02
784.355	0.08
784.53	-0.17
784.704	-0.17
784.878	0.15
785.053	0.02
785.227	0.21
785.402	0.32
785.576	-0.22
785.75	0.02
785.925	-0.14
786.099	0.14
786.273	0.05
786.448	0.15
786.622	0.2
786.796	-0.21
786.97	-0.07
787.145	0.33
787.319	-0.39
787.493	-0.08
787.667	-0.04
787.841	0.04
788.015	0.12
788.19	-0.04
788.364	0
788.538	0.05
788.712	0.2
788.886	-0
789.06	0.05
789.234	0.11
789.408	-0.22
789.582	0.05
789.756	-0.04
789.93	-0.31
790.104	0.15
790.278	-0.04
790.452	-0.2
790.626	0.05
790.8	-0.17
790.973	0.09
791.147	0.21
791.321	0.19
791.495	0.19
791.669	0.19
791.843	-0.09
792.016	0.05
792.19	0.42
792.364	-0.13
792.538	0.27
792.711	0.12
792.885	-0.19
793.059	-0.02
793.233	-0.55
793.406	-0.02
793.58	-0.16
793.754	-0.08
793.927	-0.14
794.101	0.28
794.274	0.21
794.448	0.36
794.622	-0.08
794.795	0.2
794.969	-0.12
795.142	0.37
795.316	-0.06
795.489	0.02
795.663	0.27
795.836	-0.01
796.009	-0.12
796.183	0.1
796.356	0.04
796.53	-0.03
796.703	-0.12
796.876	0.47
797.05	-0.03
797.223	-0.04
797.396	0.04
797.57	-0.04
797.743	0.41
797.916	-0.21
798.09	-0.12
798.263	0.17
798.436	0.19
798.609	-0.1
798.782	-0.42
798.956	0.03
799.129	-0.16
799.302	-0.23
799.475	0.06
799.648	-0.27
799.821	-0.1
799.994	-0.16
800.167	-0.06
800.34	-0.15
800.514	-0.18
800.687	-0.21
800.86	0.01
801.033	0.11
801.206	-0.08
801.379	-0.3
801.551	0.42
801.724	0.06
801.897	0.22
802.07	-0.24
802.243	-0.33
802.416	-0.42
802.589	-0.39
802.762	0.32
802.935	0.07
803.107	0.32
803.28	0.1
803.453	0.15
803.626	-0.11
803.798	-0.24
803.971	-0.2
804.144	-0.04
804.317	-0.09
804.489	-0.17
804.662	-0
804.835	-0.09
805.007	-0.26
805.18	0.42
805.353	-0.16
805.525	-0.22
805.698	-0.16
805.87	0.16
806.043	0.14
806.215	-0.45
806.388	-0.31
806.56	0.04
806.733	0.2
806.905	0.04
807.078	-0.46
807.25	-0.12
807.423	0.1
807.595	0.02
807.768	-0.02
807.94	0.41
808.112	0.29
808.285	-0.04
808.457	0.07
808.629	-0.26
808.802	0.52
808.974	-0.24
809.146	-0.32
809.318	0.04
809.491	-0.04
809.663	0.22
809.835	-0.47
810.007	0.13
810.18	-0.05
810.352	-0.13
810.524	-0.18
810.696	0.11
810.868	0.14
811.04	-0.22
811.212	-0.14
811.384	0.39
811.556	-0.22
811.728	0.13
811.901	0.59
812.073	-0.26
812.245	0.04
812.417	0.11
812.589	-0.45
812.76	-0.1
812.932	0.29
813.104	0.37
813.276	-0.03
813.448	0.27
813.62	-0.13
813.792	0.01
813.964	-0.12
814.136	-0.01
814.307	-0.37
814.479	-0.33
814.651	-0.11
814.823	0.37
814.995	-0.13
815.166	0.15
815.338	-0.24
815.51	-0.97
815.681	0.92
815.853	0.04
816.025	-0.44
816.196	0.38
816.368	-0.39
816.54	-0.41
816.711	-0.12
816.883	0.09
817.054	0.94
817.226	-0.31
817.398	-0.04
817.569	-0.09
817.741	-0.1
817.912	-0.06
818.084	0.12
818.255	-0.19
818.426	-0.43
818.598	0.2
818.769	-0.26
818.941	0.12
819.112	0.35
819.283	0.43
819.455	-0.51
819.626	-0.11
819.798	0.37
819.969	0.28
820.14	-0.09
820.311	-0.01
820.483	0.1
820.654	-0.34
820.825	0.12
820.996	0.08
821.168	-0.34
821.339	0.37
821.51	-0.48
821.681	-0.03
821.852	0.33
822.023	-0.28
822.195	-0.17
822.366	0.02
822.537	0.22
822.708	0.33
822.879	-0.23
823.05	0.57
823.221	-0.23
823.392	0.35
823.563	-0.2
823.734	-0.1
823.905	-0.03
824.076	-0.37
824.247	-0.44
824.418	-0.43
824.589	0.47
824.759	-0.16
824.93	-0.23
825.101	-0.5
825.272	0.5
825.443	0.94
825.614	0.46
825.784	-0.72
825.955	1.08
826.126	0.33
826.297	-0.31
826.467	0.73
826.638	-0.05
826.809	-0.64
826.98	-0.44
827.15	0.26
827.321	0.23
827.492	0.81
827.662	0.28
827.833	1.03
828.003	0.29
828.174	-0.18
828.345	-0.5
828.515	0.64
828.686	-0.05
828.856	-0.28
829.027	-0.27
829.197	-0.36
829.368	0.49
829.538	-0.27
829.709	-0.34
829.879	-0.2
830.049	0.54
830.22	-0.39
830.39	-0.25
830.56	0.56
830.731	-0.2
830.901	-0.09
831.072	-0.08
831.242	-0.27
831.412	-0.48
831.582	0.01
831.753	-1.04
831.923	0.05
832.093	-0.11
832.263	0.13
832.434	-0.18
832.604	-0.15
832.774	0.09
832.944	0.05
833.114	-0.09
833.284	0.17
833.454	-0.46
833.624	-0.29
833.795	-0.24
833.965	0.61
834.135	0.53
834.305	-0.44
834.475	-0.19
834.645	0.09
834.815	0.33
834.985	-0.75
835.155	-0.03
835.325	0.15
835.494	0.69
835.664	-0.04
835.834	-0.34
836.004	0.27
836.174	0.63
836.344	-0.4
836.514	-1.33
836.684	0.21
836.853	0.56
837.023	0.14
837.193	0.08
837.363	0.34
837.532	0.37
837.702	0.12
837.872	-0.57
838.041	0.9
838.211	0.52
838.381	-0.79
838.55	-0.75
838.72	1.49
838.89	0.63
839.059	-0.41
839.229	-0.11
839.398	0.9
839.568	-0.03
839.738	0.33
839.907	1.1
840.077	0.54
840.246	-0.5
840.416	-0.66
840.585	-0.71
840.755	1.75
840.924	1.51
841.093	-0.98
841.263	0.35
841.432	0.4
841.602	-0.26
841.771	-0.17
841.94	-0.28
842.11	1.84
842.279	1.21
842.448	-0.96
842.617	-0.28
842.787	0.27
842.956	-1.05
843.125	-0.57
843.294	-0.4
843.464	-0.04
843.633	0.36
843.802	-0.53
843.971	-0.15
844.14	0.82
844.309	0.48
844.479	-0.14
844.648	-0.5
844.817	-0.84
844.986	0.17
845.155	-0.86
845.324	-0.35
845.493	-0.09
845.662	-0.75
845.831	-0.06
846	0.45
846.169	0.25
846.338	1.07
846.507	0.47
846.676	0.26
846.844	-1.18
847.013	0.6
847.182	-0.72
847.351	0.33
847.52	-0.06
847.689	0.78
847.858	0.11
848.026	-0.33
848.195	-0.09
848.364	0.3
848.533	-0.95
848.701	-0.14
848.87	-0.01
849.039	0.33
849.207	0
849.376	0.61
849.545	1.19
849.713	-0.32
849.882	-0.73
850.051	0.44
850.219	0.52
850.388	1.09
850.556	-0.81
850.725	-1.23
850.893	-0.04
851.062	-0.09
851.23	0.18
851.399	-0.88
851.567	-0.82
851.736	-0.03
851.904	-1.03
852.073	0.4
852.241	-0.18
852.41	-0.52
852.578	0.05
852.746	-0.53
852.915	1.06
853.083	0.15
853.251	-1.66
853.42	0.42
853.588	-0.5
853.756	0.55
853.924	0.32
854.093	-0.76
854.261	-0.98
854.429	-1.01
854.597	-0.09
854.765	-1.1
854.934	0.65
855.102	0.17
855.27	0.58
855.438	1.79
855.606	0.51
855.774	1.66
855.942	-1.17
856.11	-0.79
856.278	-0.51
856.446	0.07
856.614	-0.43
856.782	-1.11
856.95	1.62
857.118	0.64
857.286	0.58
857.454	-0.28
857.622	0.86
857.79	-0.13
857.958	-0.29
858.126	-0.88
858.294	-2.78
858.462	0.08
858.629	0.37
858.797	-0.76
858.965	0.63
859.133	0.94
859.301	0
859.468	1.53
859.636	-0.67
859.804	1.68
859.971	0.16
860.139	-0.37
860.307	0.66
860.474	1.21
860.642	-0.95
860.81	-0.77
860.977	-1.68
861.145	0.64
861.313	0.29
861.48	0.47
861.648	0.14
861.815	-0.58
861.983	-0.3
862.15	-0.6
862.318	0.7
862.485	1.04
862.653	-0.46
862.82	-0.5
862.988	0.96
863.155	1.31
863.322	-0.88
863.49	-0.36
863.657	0.26
863.824	1.47
863.992	0.21
864.159	-0.45
864.326	1.32
864.494	-0.65
864.661	2.85
864.828	0.38
864.996	1.68
865.163	2.44
865.33	-1.53
865.497	-2.76
865.664	-0.27
865.832	-1.13
865.999	-0.2
866.166	-0.76
866.333	-1.19
866.5	-1.38
866.667	-0.39
866.834	-0.04
867.001	2.03
867.168	-1.47
867.335	0.2
867.502	-1.14
867.669	-0.26
867.836	2.7
868.003	0.42
868.17	1.85
868.337	-1.06
868.504	2.11
868.671	-0.5
868.838	-0.93
869.005	1.01
869.172	-0.04
869.339	-1.78
869.505	0.73
869.672	1.13
869.839	2.29
870.006	0.44
870.173	-1.82
870.339	0.76
870.506	1.79
870.673	-0.66
870.84	-0.45
871.006	0.29
871.173	0.5
871.34	0.98
871.506	-0.75
871.673	0.9
871.839	-0.52
872.006	0.25
872.173	-0.59
872.339	-0.8
872.506	1.99
872.672	-0.25
872.839	-1.19
873.005	-0.58
873.172	3.86
873.338	1.24
873.505	-1.22
873.671	-0.97
873.838	1.82
874.004	-2.56
874.171	-1.31
874.337	2.02
874.503	-0.67
874.67	0.37
874.836	-0.67
875.002	2.77
875.169	1.59
875.335	0
875.501	-0.85
875.668	0.6
875.834	-0.16
876	-1.19
876.166	0.52
876.332	0.53
876.499	2.8
876.665	0.02
876.831	0.41
876.997	1.14
877.163	1.62
877.329	-1.26
877.495	-0.05
877.662	0.41
877.828	0.24
877.994	-0.71
878.16	-2.51
878.326	-0.96
878.492	-0.72
878.658	1.02
878.824	1.71
878.99	1.29
879.156	-0.98
879.322	1.55
879.487	-0.09
879.653	-0.11
879.819	0.55
879.985	-1.3
880.151	-0.59
880.317	0.53
880.483	-0.24
880.648	1.55
880.814	-0.39
880.98	1.52
881.146	-2.68
881.312	0.45
881.477	-1.99
881.643	1.06
881.809	2.15
881.974	2.24
882.14	-2.93
882.306	-1.44
882.471	3.43
882.637	-1.76
882.803	1.73
882.968	2.34
883.134	2.73
883.299	-0.05
883.465	1.09
883.63	0.51
883.796	0.04
883.961	0.93
884.127	1.44
884.292	-3.43
884.458	-1.38
884.623	-1.38
