Data from Apollo_Calib_20240827__AbsoluteIrradiance__375__05-24-02-309.txt Node

Date: Wed Aug 28 05:24:02 BST 2024
User: biology
Spectrometer: FLMT08252
Trigger mode: 0
Integration Time (sec): 5.000000E-1
Scans to average: 5
Electric dark correction enabled: true
Nonlinearity correction enabled: false
Boxcar width: 0
XAxis mode: Wavelengths
Number of Pixels in Spectrum: 3648
>>>>>Begin Spectral Data<<<<<
179.588	-0
179.809	-0
180.03	-0
180.251	-0
180.473	-0
180.694	0
180.915	0
181.136	-0
181.357	0
181.578	-0
181.799	-0
182.02	-0
182.241	0
182.462	-0
182.683	0
182.904	-0
183.125	-0
183.346	-0
183.567	0
183.788	-0
184.009	-0
184.23	-0
184.451	0
184.672	-0
184.892	-0
185.113	-0
185.334	0
185.555	-0
185.776	-0
185.996	0
186.217	0
186.438	-0
186.659	-0
186.879	0
187.1	-0
187.321	-0
187.541	-0
187.762	-0
187.983	0
188.203	-0
188.424	0
188.644	-0
188.865	-0
189.086	-0
189.306	-0
189.527	-0
189.747	0
189.968	-0
190.188	0
190.409	0
190.629	0
190.849	-0
191.07	-0
191.29	0
191.511	-0
191.731	-0
191.951	-0
192.172	0
192.392	-0
192.612	-0
192.833	-0
193.053	0
193.273	0
193.493	-0
193.714	0
193.934	0
194.154	0
194.374	0
194.594	-0
194.815	-0
195.035	-0
195.255	-0
195.475	-0
195.695	0
195.915	-0
196.135	-0
196.355	0
196.575	0
196.795	0
197.015	-0
197.235	-0
197.455	-0
197.675	0
197.895	-0
198.115	-0
198.335	0
198.555	-0
198.775	-0
198.995	-0
199.214	0
199.434	-0
199.654	-0
199.874	-0
200.094	0.45
200.313	-0.74
200.533	-0.73
200.753	-0.82
200.973	0.24
201.192	0.42
201.412	-1.07
201.632	-0.33
201.851	0.09
202.071	-0.71
202.291	-0.36
202.51	-1.07
202.73	0.57
202.95	-0.49
203.169	-1.09
203.389	-0.38
203.608	-0.29
203.828	-0.78
204.047	-0.47
204.267	0.03
204.486	-0.26
204.706	-0.06
204.925	-0.13
205.145	-0.59
205.364	0.42
205.583	0.83
205.803	-0.46
206.022	-0.6
206.242	-0.41
206.461	-0.07
206.68	-0.73
206.9	0.05
207.119	0.52
207.338	0.61
207.557	-0.42
207.777	-0.37
207.996	-0.24
208.215	0.33
208.434	-0.23
208.654	-0.24
208.873	-0.02
209.092	0.58
209.311	-0.34
209.53	-0.23
209.749	-0.07
209.968	-0.28
210.187	-0.56
210.407	-0.45
210.626	-0.34
210.845	0.4
211.064	-0.12
211.283	-0.59
211.502	-0.05
211.721	0.16
211.94	-0.26
212.159	0.02
212.377	0.35
212.596	0.22
212.815	-0.17
213.034	0.24
213.253	0.15
213.472	0.06
213.691	-0.14
213.91	-0.42
214.128	-0.35
214.347	0.23
214.566	-0.51
214.785	-0.37
215.003	0.17
215.222	0
215.441	0.04
215.66	-0.33
215.878	0.07
216.097	0.1
216.316	-0.28
216.534	-0.09
216.753	0.04
216.972	-0.15
217.19	-0.15
217.409	-0.36
217.627	-0.29
217.846	-0.28
218.064	-0.1
218.283	-0.14
218.501	0.28
218.72	0.08
218.938	-0.27
219.157	-0.23
219.375	0.13
219.594	0.04
219.812	-0.34
220.031	-0.39
220.249	0.23
220.467	0.22
220.686	-0.18
220.904	-0.27
221.122	-0.24
221.341	0.17
221.559	0.03
221.777	-0.26
221.995	-0.03
222.214	0.1
222.432	-0.11
222.65	0.1
222.868	-0.05
223.086	0.14
223.305	0.05
223.523	-0.12
223.741	0.36
223.959	-0.03
224.177	-0.33
224.395	-0.16
224.613	0.04
224.831	0.1
225.049	-0.1
225.267	-0.14
225.485	-0.03
225.703	-0.17
225.921	-0.12
226.139	-0.21
226.357	0.11
226.575	0.06
226.793	-0.2
227.011	0.52
227.229	-0.02
227.447	0.16
227.665	-0.21
227.883	-0.16
228.1	-0.07
228.318	0.03
228.536	-0.31
228.754	-0.17
228.972	0.03
229.189	0.06
229.407	-0.13
229.625	-0.16
229.843	0.12
230.06	0.12
230.278	-0.22
230.496	-0.02
230.713	0.01
230.931	0.14
231.149	-0.15
231.366	-0.2
231.584	-0.1
231.801	0.24
232.019	-0.09
232.236	-0.2
232.454	-0.19
232.671	-0.02
232.889	0.03
233.106	-0.13
233.324	-0.06
233.541	-0.06
233.759	0
233.976	-0.1
234.194	-0.07
234.411	-0.07
234.628	-0.06
234.846	-0.06
235.063	-0.06
235.28	0
235.498	-0.09
235.715	-0.23
235.932	0.06
236.149	-0.03
236.367	-0.17
236.584	-0.09
236.801	-0.08
237.018	0.14
237.236	0.01
237.453	-0.24
237.67	0.08
237.887	-0.1
238.104	-0.12
238.321	-0.21
238.538	-0.15
238.755	0.08
238.973	-0.26
239.19	-0.05
239.407	-0
239.624	0
239.841	-0.22
240.058	-0.09
240.275	-0.01
240.492	-0.04
240.709	0.02
240.925	-0.08
241.142	-0.01
241.359	-0.07
241.576	-0.13
241.793	-0.07
242.01	-0.06
242.227	0.09
242.444	-0.01
242.66	0.11
242.877	0.05
243.094	-0.1
243.311	-0.06
243.527	-0.06
243.744	-0.02
243.961	0.02
244.178	-0.08
244.394	-0.05
244.611	0.09
244.828	0.05
245.044	-0.09
245.261	-0.08
245.477	0.03
245.694	-0.01
245.911	-0.09
246.127	-0.04
246.344	0.08
246.56	0.03
246.777	-0.04
246.993	-0.07
247.21	-0.03
247.426	0.06
247.643	-0.07
247.859	-0.09
248.076	-0.16
248.292	0.17
248.508	-0.03
248.725	0.02
248.941	0.02
249.157	0.07
249.374	-0.09
249.59	-0.05
249.806	-0.04
250.023	0.01
250.239	-0.18
250.455	-0.08
250.671	-0.02
250.888	0.01
251.104	0
251.32	-0.1
251.536	-0.07
251.752	0
251.969	-0.05
252.185	0.02
252.401	0.1
252.617	0
252.833	-0.02
253.049	-0.08
253.265	0
253.481	0.06
253.697	-0.11
253.913	-0.11
254.129	-0.04
254.345	-0
254.561	-0.09
254.777	-0.06
254.993	0.06
255.209	-0.04
255.425	-0.09
255.641	-0.15
255.857	0.03
256.073	-0.05
256.288	-0.1
256.504	-0.06
256.72	-0
256.936	0.05
257.152	-0.11
257.367	-0.09
257.583	-0.06
257.799	0.01
258.015	-0.13
258.23	-0.06
258.446	0.07
258.662	-0.05
258.877	-0.08
259.093	-0.05
259.309	-0.02
259.524	0.02
259.74	-0.02
259.955	-0.17
260.171	-0.09
260.387	0.02
260.602	0.04
260.818	0.05
261.033	-0.11
261.249	-0.03
261.464	-0.08
261.68	-0.17
261.895	0
262.11	0.04
262.326	-0.13
262.541	-0.14
262.757	0.02
262.972	0.02
263.187	-0.05
263.403	-0.05
263.618	0.02
263.833	-0.02
264.049	-0.12
264.264	-0.02
264.479	0.01
264.694	0.12
264.91	-0.13
265.125	-0.11
265.34	0.09
265.555	0.15
265.77	-0.11
265.986	-0.08
266.201	0.04
266.416	0.14
266.631	-0.17
266.846	-0.06
267.061	-0.04
267.276	0.03
267.491	-0.17
267.706	-0.01
267.921	-0.05
268.136	-0.02
268.351	0.01
268.566	-0.09
268.781	0.08
268.996	0.08
269.211	-0.07
269.426	-0.1
269.641	-0.06
269.856	-0.01
270.071	-0.09
270.285	-0.11
270.5	0.07
270.715	0.09
270.93	-0.02
271.145	-0.01
271.359	0.08
271.574	-0.11
271.789	-0.05
272.004	-0.05
272.218	-0.06
272.433	0.04
272.648	-0.09
272.862	0.03
273.077	-0.05
273.292	-0.04
273.506	-0.11
273.721	-0.02
273.936	0.03
274.15	0.02
274.365	-0.1
274.579	-0.05
274.794	0.05
275.008	0.08
275.223	-0.09
275.437	0.02
275.652	0.06
275.866	0.01
276.081	-0.01
276.295	0.04
276.509	-0.06
276.724	0.02
276.938	-0.06
277.153	0.03
277.367	0.05
277.581	-0.06
277.796	-0.01
278.01	-0.08
278.224	0.07
278.438	0.14
278.653	-0.09
278.867	-0.06
279.081	-0.17
279.295	-0.03
279.51	0
279.724	-0.11
279.938	0.02
280.152	0.07
280.366	-0.09
280.58	0.04
280.794	0.07
281.008	0.03
281.222	0.02
281.437	0.05
281.651	-0.02
281.865	0.08
282.079	-0.03
282.293	-0.1
282.507	-0.07
282.721	-0.03
282.935	0
283.148	-0.1
283.362	-0.08
283.576	-0.08
283.79	-0.02
284.004	-0.04
284.218	0.03
284.432	-0.03
284.646	0.01
284.859	-0.08
285.073	-0.05
285.287	0
285.501	0.01
285.714	-0.04
285.928	0.01
286.142	-0.06
286.356	-0.03
286.569	-0.06
286.783	0.08
286.997	0.02
287.21	-0.05
287.424	0
287.637	-0.05
287.851	-0.02
288.065	-0
288.278	-0.04
288.492	-0.01
288.705	-0.02
288.919	-0
289.132	-0.1
289.346	0.07
289.559	-0.06
289.773	-0.08
289.986	-0.02
290.2	-0.03
290.413	0.06
290.626	-0.04
290.84	-0.06
291.053	-0.03
291.267	0.1
291.48	-0.05
291.693	-0.02
291.906	-0.04
292.12	-0
292.333	-0.07
292.546	-0.08
292.76	0.04
292.973	-0
293.186	-0.02
293.399	-0.04
293.612	0.1
293.826	0.02
294.039	-0.02
294.252	-0.02
294.465	-0.01
294.678	0.03
294.891	0.02
295.104	-0.06
295.317	0.01
295.53	-0.02
295.743	-0
295.956	-0.04
296.169	0.05
296.382	0.05
296.595	0
296.808	-0.06
297.021	0.06
297.234	0.06
297.447	-0.02
297.66	-0.01
297.873	0.07
298.086	0.03
298.299	-0.01
298.511	-0.04
298.724	-0.01
298.937	-0.05
299.15	0
299.363	-0.02
299.575	0.03
299.788	0.06
300.001	-0.05
300.213	-0.02
300.426	-0.01
300.639	-0.02
300.852	-0.03
301.064	0.01
301.277	0.09
301.489	0.04
301.702	-0.02
301.915	0.05
302.127	-0.01
302.34	-0.03
302.552	-0.01
302.765	-0.05
302.977	0.04
303.19	-0.01
303.402	-0.03
303.615	-0.02
303.827	-0.05
304.04	-0.02
304.252	0.03
304.464	-0.01
304.677	0.13
304.889	0.04
305.102	-0.05
305.314	-0.07
305.526	-0.02
305.739	0.02
305.951	-0.06
306.163	-0
306.375	0.05
306.588	-0.07
306.8	-0.04
307.012	-0.06
307.224	-0.03
307.436	0.06
307.649	-0.08
307.861	0.03
308.073	0.04
308.285	-0.05
308.497	-0.05
308.709	-0.03
308.921	-0.01
309.133	0.07
309.346	-0.01
309.558	0.01
309.77	0.02
309.982	0.02
310.194	0.02
310.406	-0.05
310.617	0.04
310.829	-0.05
311.041	0.01
311.253	-0.03
311.465	-0.02
311.677	-0.02
311.889	-0.03
312.101	-0.05
312.313	0.02
312.524	0.04
312.736	-0.06
312.948	0.01
313.16	0.05
313.372	0.03
313.583	0
313.795	-0.01
314.007	-0.05
314.218	0.03
314.43	-0
314.642	-0.01
314.853	-0.03
315.065	0.04
315.277	-0.06
315.488	-0
315.7	0.03
315.912	0.04
316.123	-0.01
316.335	-0.01
316.546	0.1
316.758	-0.01
316.969	-0.04
317.181	-0.01
317.392	0.02
317.604	0.05
317.815	-0.05
318.026	-0.02
318.238	0.01
318.449	0.03
318.661	-0.11
318.872	-0.08
319.083	-0.05
319.295	-0.01
319.506	-0.06
319.717	0.03
319.929	-0.02
320.14	-0.03
320.351	-0.04
320.562	-0.06
320.774	0.02
320.985	-0.03
321.196	-0.06
321.407	-0.08
321.618	0.07
321.829	-0.03
322.041	-0
322.252	-0.01
322.463	0.02
322.674	0.02
322.885	-0.05
323.096	-0.06
323.307	-0.05
323.518	0.03
323.729	-0.06
323.94	-0.02
324.151	-0.04
324.362	-0
324.573	-0.01
324.784	-0.02
324.995	0.01
325.206	-0
325.417	-0.02
325.628	-0.02
325.838	0
326.049	0.01
326.26	0.01
326.471	-0.01
326.682	0.03
326.892	-0.02
327.103	-0.09
327.314	-0.05
327.525	0.05
327.735	0
327.946	-0
328.157	-0.06
328.368	0.03
328.578	-0.03
328.789	0.03
328.999	-0.02
329.21	-0.05
329.421	0.04
329.631	-0.05
329.842	-0.04
330.052	0.01
330.263	0.06
330.473	0.02
330.684	-0.04
330.894	-0.02
331.105	-0.02
331.315	-0.01
331.526	-0.06
331.736	0.05
331.947	0.01
332.157	0.04
332.367	-0.06
332.578	0.02
332.788	0.01
332.999	-0.01
333.209	-0.01
333.419	-0.05
333.629	0.01
333.84	0.04
334.05	-0.04
334.26	0.05
334.47	0.01
334.681	0.05
334.891	-0.04
335.101	0.01
335.311	0.08
335.521	0.01
335.732	-0.08
335.942	0.04
336.152	-0.01
336.362	0.02
336.572	0
336.782	0.03
336.992	-0.06
337.202	-0.03
337.412	-0.03
337.622	0.03
337.832	-0.03
338.042	-0.02
338.252	-0.02
338.462	-0
338.672	-0.01
338.882	-0.07
339.092	-0.01
339.302	0.07
339.511	0.01
339.721	-0.05
339.931	-0.05
340.141	0.02
340.351	0.04
340.561	-0.01
340.77	0.03
340.98	0.01
341.19	0.03
341.4	-0.07
341.609	-0.07
341.819	-0.02
342.029	-0.06
342.238	-0.01
342.448	-0.03
342.658	0.01
342.867	-0.02
343.077	0.02
343.286	0.01
343.496	-0.04
343.706	0.04
343.915	-0.07
344.125	-0.03
344.334	-0.02
344.544	-0.07
344.753	-0.06
344.963	-0.02
345.172	-0.07
345.381	-0.08
345.591	-0.05
345.8	-0.01
346.01	0.03
346.219	0.05
346.428	-0.17
346.638	0.01
346.847	-0.01
347.056	0.06
347.266	-0.03
347.475	-0.01
347.684	0.03
347.893	-0.02
348.103	-0.01
348.312	-0.01
348.521	-0.06
348.73	0
348.94	0
349.149	-0.02
349.358	-0.08
349.567	-0.05
349.776	-0.07
349.985	-0.06
350.194	-0.02
350.403	0.09
350.612	-0.08
350.821	-0.01
351.03	-0
351.239	-0.1
351.448	-0.01
351.657	-0.05
351.866	0.05
352.075	0.03
352.284	-0.04
352.493	-0.04
352.702	0.07
352.911	0.03
353.12	0.01
353.329	-0.03
353.538	0.02
353.746	0.01
353.955	-0.04
354.164	0.01
354.373	-0.04
354.582	0
354.79	0
354.999	0.07
355.208	-0
355.416	0.06
355.625	-0.03
355.834	-0.03
356.042	0.04
356.251	-0.04
356.46	-0.05
356.668	0.02
356.877	0.07
357.085	0.04
357.294	-0.08
357.503	-0
357.711	0.01
357.92	0.11
358.128	-0.01
358.337	-0.05
358.545	-0.01
358.754	-0.02
358.962	0.04
359.17	-0.02
359.379	0.02
359.587	0
359.796	-0.02
360.004	0.04
360.212	-0
360.421	0.04
360.629	-0.06
360.837	-0.05
361.046	0.03
361.254	0.13
361.462	-0.04
361.67	-0.01
361.879	-0.02
362.087	0.1
362.295	-0.03
362.503	-0.04
362.711	-0.05
362.92	-0.06
363.128	-0.06
363.336	-0.07
363.544	-0.08
363.752	-0.03
363.96	-0.05
364.168	-0.02
364.376	-0.02
364.584	-0
364.792	0.04
365	-0.02
365.208	-0.01
365.416	-0.01
365.624	0
365.832	-0.05
366.04	0.02
366.248	0.01
366.456	0.05
366.664	0.02
366.872	-0.01
367.079	-0.02
367.287	-0.03
367.495	-0.03
367.703	-0.04
367.911	-0.02
368.118	-0.02
368.326	-0.01
368.534	-0.05
368.742	0.07
368.949	-0.05
369.157	-0
369.365	0.02
369.572	0.02
369.78	-0.03
369.988	0.03
370.195	0.02
370.403	0.01
370.61	-0.05
370.818	-0.03
371.026	0.02
371.233	-0.04
371.441	0.04
371.648	-0.05
371.856	-0.02
372.063	0.03
372.271	-0.03
372.478	-0.01
372.685	-0.03
372.893	0.02
373.1	-0.03
373.308	-0.04
373.515	0.07
373.722	0.02
373.93	0.01
374.137	0.03
374.344	0.05
374.552	0.06
374.759	-0
374.966	-0.03
375.173	-0.05
375.381	0.03
375.588	-0.03
375.795	-0.08
376.002	-0.02
376.209	-0.05
376.417	-0.02
376.624	-0.02
376.831	-0.01
377.038	0
377.245	-0.1
377.452	-0.03
377.659	-0.03
377.866	-0.05
378.073	-0.01
378.28	-0.02
378.487	0.05
378.694	0.02
378.901	-0.02
379.108	-0.03
379.315	0.04
379.522	0.07
379.729	-0.02
379.936	-0.01
380.143	-0.01
380.35	-0.02
380.557	-0.01
380.763	0.02
380.97	-0.04
381.177	-0.01
381.384	-0
381.591	-0.05
381.797	-0.02
382.004	0.03
382.211	0.04
382.418	0.01
382.624	0.03
382.831	0.01
383.038	-0.03
383.244	-0.03
383.451	-0
383.658	0.02
383.864	-0.02
384.071	-0.06
384.277	0.1
384.484	-0.05
384.69	-0.01
384.897	-0.03
385.103	-0.05
385.31	-0.07
385.516	-0.03
385.723	-0.04
385.929	-0.02
386.136	-0.03
386.342	0.01
386.549	-0.01
386.755	0.07
386.961	-0
387.168	-0.03
387.374	-0.05
387.58	0
387.787	-0.02
387.993	-0
388.199	-0.02
388.406	-0.06
388.612	-0.04
388.818	-0.02
389.024	-0.02
389.231	-0.01
389.437	0.03
389.643	0.04
389.849	0.01
390.055	0.02
390.261	0.02
390.467	0.01
390.674	-0.05
390.88	-0.05
391.086	0.01
391.292	-0.03
391.498	0.04
391.704	-0.01
391.91	-0.02
392.116	-0.06
392.322	-0.08
392.528	0.04
392.734	-0.01
392.94	-0.03
393.146	-0.02
393.352	-0.02
393.557	-0.04
393.763	-0
393.969	-0.01
394.175	0
394.381	-0.02
394.587	-0.06
394.792	0.01
394.998	0.01
395.204	-0.01
395.41	-0.04
395.615	0.02
395.821	-0
396.027	-0.01
396.233	-0.1
396.438	0.04
396.644	0.06
396.85	0.01
397.055	-0.03
397.261	0
397.466	-0.03
397.672	-0.04
397.878	0.01
398.083	0.01
398.289	-0.03
398.494	0.01
398.7	0.04
398.905	-0.08
399.111	0.07
399.316	-0.07
399.522	-0.01
399.727	-0.02
399.932	-0.05
400.138	-0.02
400.343	0.05
400.549	-0.02
400.754	0.02
400.959	-0.01
401.165	-0.01
401.37	-0.01
401.575	0.07
401.78	0.02
401.986	-0.02
402.191	-0.03
402.396	-0.02
402.601	0.01
402.807	0.04
403.012	-0.01
403.217	0.03
403.422	-0
403.627	-0.01
403.832	-0.04
404.037	-0.02
404.243	0.01
404.448	-0.04
404.653	-0.03
404.858	0
405.063	0.04
405.268	-0.04
405.473	-0.07
405.678	-0.03
405.883	0.09
406.088	-0.01
406.293	-0.06
406.498	-0.1
406.703	0.01
406.907	-0.03
407.112	-0.04
407.317	-0.02
407.522	0.01
407.727	-0.1
407.932	0
408.136	0.08
408.341	-0.04
408.546	-0.02
408.751	-0.02
408.956	-0.05
409.16	0.01
409.365	-0
409.57	-0.04
409.774	-0.04
409.979	0.06
410.184	-0.04
410.388	-0.04
410.593	0.02
410.798	-0.02
411.002	-0.01
411.207	-0.01
411.411	0
411.616	-0.07
411.82	-0.01
412.025	0.01
412.229	-0.04
412.434	0.03
412.638	0.01
412.843	-0.07
413.047	0.01
413.252	-0.05
413.456	-0.05
413.66	0.03
413.865	-0.06
414.069	0.06
414.273	-0.03
414.478	-0.04
414.682	-0.04
414.886	-0.07
415.091	-0.11
415.295	-0.08
415.499	-0.02
415.703	-0.05
415.908	0.03
416.112	-0.08
416.316	0.05
416.52	-0.04
416.724	-0.07
416.929	-0.03
417.133	0.06
417.337	-0.04
417.541	-0.09
417.745	-0.03
417.949	0.01
418.153	-0.01
418.357	-0.06
418.561	0.04
418.765	-0.03
418.969	0.05
419.173	0
419.377	-0.04
419.581	0.09
419.785	-0.04
419.989	-0.06
420.193	-0.07
420.397	-0.09
420.601	0.05
420.804	0.03
421.008	-0.02
421.212	0.03
421.416	0.01
421.62	-0.09
421.823	-0.04
422.027	0.06
422.231	-0.01
422.435	0
422.638	-0.03
422.842	-0.03
423.046	-0.04
423.249	0.01
423.453	0.03
423.657	-0.06
423.86	-0.02
424.064	-0.06
424.268	0.02
424.471	-0.01
424.675	0.04
424.878	0.03
425.082	-0
425.285	0.05
425.489	-0
425.692	-0.04
425.896	-0.04
426.099	0.03
426.303	-0.07
426.506	-0.11
426.71	0.05
426.913	-0
427.116	0.06
427.32	-0.03
427.523	-0.04
427.726	0.09
427.93	-0.07
428.133	-0.04
428.336	-0.08
428.54	-0.09
428.743	-0.08
428.946	0.02
429.149	-0.04
429.353	-0.08
429.556	-0.01
429.759	-0.06
429.962	-0.12
430.165	-0.05
430.368	-0.04
430.571	-0.06
430.775	0.06
430.978	-0.03
431.181	0.02
431.384	0.01
431.587	-0.05
431.79	-0.01
431.993	-0.01
432.196	-0.01
432.399	0
432.602	0.05
432.805	-0.06
433.008	-0
433.211	-0.09
433.414	0.02
433.616	0.04
433.819	-0.01
434.022	-0.11
434.225	0.09
434.428	0.03
434.631	0.06
434.833	-0.05
435.036	-0.02
435.239	0.02
435.442	-0.01
435.645	-0.03
435.847	-0
436.05	0.04
436.253	-0.01
436.455	-0.07
436.658	0.02
436.861	0.07
437.063	-0.01
437.266	-0.03
437.468	0
437.671	0.1
437.874	-0.01
438.076	-0.04
438.279	-0.1
438.481	-0.03
438.684	-0.09
438.886	0.02
439.089	-0.12
439.291	0.03
439.494	0.01
439.696	-0.07
439.899	-0
440.101	-0.02
440.303	-0.09
440.506	0
440.708	0.01
440.91	0.06
441.113	-0.04
441.315	0.02
441.517	-0.09
441.72	0.01
441.922	-0.08
442.124	-0.1
442.326	-0
442.529	0.07
442.731	-0.04
442.933	0.03
443.135	-0
443.337	-0.06
443.539	-0.03
443.742	-0.05
443.944	0.03
444.146	-0.03
444.348	-0.05
444.55	-0.03
444.752	-0.02
444.954	-0.07
445.156	-0.02
445.358	-0.02
445.56	0.01
445.762	-0.02
445.964	0.01
446.166	-0.06
446.368	-0.01
446.57	0.02
446.772	-0.02
446.974	0.01
447.175	-0.01
447.377	-0.02
447.579	-0.04
447.781	-0.11
447.983	0.03
448.184	0.01
448.386	0.04
448.588	-0.08
448.79	-0
448.991	-0.08
449.193	-0.02
449.395	-0.02
449.597	0.08
449.798	-0.01
450	-0.01
450.202	-0.04
450.403	0
450.605	0.04
450.806	0
451.008	-0.13
451.21	-0.07
451.411	0
451.613	-0.01
451.814	-0.03
452.016	-0.01
452.217	-0.02
452.419	0.02
452.62	0
452.821	0.01
453.023	0.07
453.224	0.02
453.426	-0.01
453.627	-0.02
453.828	0.06
454.03	-0.02
454.231	-0.02
454.432	-0.05
454.634	0.08
454.835	-0.08
455.036	-0.02
455.238	0.01
455.439	0.05
455.64	-0.08
455.841	-0.01
456.042	0.13
456.244	-0.02
456.445	-0.09
456.646	-0.06
456.847	-0.07
457.048	0.05
457.249	0.05
457.45	0.18
457.651	-0.08
457.852	-0.01
458.054	-0.02
458.255	0.01
458.456	-0
458.657	-0.01
458.858	-0.05
459.058	-0
459.259	0.03
459.46	-0
459.661	-0.04
459.862	0.07
460.063	-0.04
460.264	0.04
460.465	-0.05
460.666	0.14
460.866	-0.01
461.067	-0.01
461.268	-0.03
461.469	-0.03
461.67	-0.02
461.87	-0.05
462.071	-0.02
462.272	-0.02
462.473	-0.03
462.673	-0.01
462.874	-0.06
463.075	-0.01
463.275	-0.07
463.476	0.02
463.676	0.01
463.877	-0.01
464.078	-0.03
464.278	-0
464.479	-0.06
464.679	0.01
464.88	0.01
465.08	0.03
465.281	-0.07
465.481	-0.06
465.682	0.01
465.882	0.05
466.083	0
466.283	-0
466.483	-0.02
466.684	-0.05
466.884	-0.06
467.085	-0.09
467.285	0.06
467.485	-0.06
467.686	-0.05
467.886	-0.02
468.086	0
468.286	-0.02
468.487	0.02
468.687	-0.07
468.887	0
469.087	-0.01
469.287	-0.07
469.488	-0.07
469.688	0.03
469.888	0
470.088	0.01
470.288	0.01
470.488	0.03
470.688	-0.06
470.888	-0.05
471.088	-0.05
471.288	0.03
471.488	0.03
471.688	0
471.888	-0.03
472.088	0.06
472.288	0.02
472.488	-0.06
472.688	-0.04
472.888	0.04
473.088	-0.01
473.288	0.02
473.488	-0.04
473.688	0.08
473.887	0.01
474.087	-0.06
474.287	0.04
474.487	-0.05
474.687	0.02
474.886	-0.02
475.086	-0.01
475.286	-0
475.486	-0.02
475.685	-0.01
475.885	-0.02
476.085	-0.01
476.284	0.01
476.484	-0.03
476.684	0.02
476.883	0.04
477.083	0.01
477.282	-0.03
477.482	0.07
477.681	0.01
477.881	-0
478.08	-0.03
478.28	-0
478.479	0
478.679	0.06
478.878	-0.02
479.078	-0.03
479.277	-0.03
479.477	-0.03
479.676	0.04
479.875	-0
480.075	-0.05
480.274	-0
480.473	0.02
480.673	-0.02
480.872	0
481.071	0.01
481.271	0.01
481.47	-0.05
481.669	-0.03
481.868	-0.03
482.067	-0.05
482.267	-0.02
482.466	-0.03
482.665	-0.05
482.864	-0.02
483.063	-0.03
483.262	0.02
483.461	0.03
483.661	-0.01
483.86	-0.01
484.059	0
484.258	-0.01
484.457	-0.01
484.656	-0.01
484.855	0.04
485.054	-0.05
485.253	-0.05
485.452	-0.06
485.651	0.01
485.849	-0.02
486.048	-0.04
486.247	-0.02
486.446	0
486.645	-0.04
486.844	-0.03
487.043	-0.01
487.241	0.01
487.44	-0.03
487.639	-0.01
487.838	-0.01
488.037	-0.02
488.235	0.03
488.434	-0
488.633	-0.03
488.831	-0
489.03	0.02
489.229	0
489.427	-0.02
489.626	0.01
489.825	0.05
490.023	-0
490.222	-0.04
490.42	0
490.619	0.04
490.817	-0
491.016	-0.03
491.214	0.05
491.413	-0.03
491.611	-0.02
491.81	0.01
492.008	-0
492.207	0.01
492.405	0.02
492.604	-0.06
492.802	-0
493	-0
493.199	-0.02
493.397	-0.02
493.595	-0.01
493.794	-0.02
493.992	0.02
494.19	-0
494.388	-0
494.587	-0.02
494.785	-0.01
494.983	-0.01
495.181	0
495.379	-0.04
495.578	-0.03
495.776	-0
495.974	0.01
496.172	-0.03
496.37	-0.02
496.568	-0.04
496.766	-0.04
496.964	0.02
497.162	0.01
497.36	-0.03
497.558	-0.02
497.756	0.02
497.954	0
498.152	-0.05
498.35	-0.02
498.548	-0
498.746	-0
498.944	-0.01
499.142	-0.01
499.34	-0.03
499.538	-0.01
499.736	-0.02
499.933	0.02
500.131	0.02
500.329	-0
500.527	0.01
500.725	0.03
500.922	0.01
501.12	-0.02
501.318	0.01
501.516	-0.01
501.713	-0.01
501.911	-0.01
502.109	-0.06
502.306	0.02
502.504	-0
502.701	-0.05
502.899	-0.02
503.097	0.03
503.294	0
503.492	-0.02
503.689	0.01
503.887	0.02
504.084	0.04
504.282	-0.01
504.479	-0.04
504.677	0
504.874	-0.03
505.072	-0.02
505.269	-0.02
505.466	0.01
505.664	0.02
505.861	-0.04
506.059	-0.02
506.256	-0.01
506.453	-0.02
506.651	0.03
506.848	0
507.045	-0.01
507.242	-0.02
507.44	-0.04
507.637	-0.01
507.834	-0.02
508.031	-0.01
508.229	-0.02
508.426	-0.01
508.623	-0
508.82	-0.01
509.017	-0.03
509.214	-0.01
509.411	0
509.608	-0.04
509.805	-0.01
510.003	-0.04
510.2	-0.02
510.397	0.01
510.594	-0.03
510.791	-0.05
510.988	-0.02
511.184	0.01
511.381	0.01
511.578	-0.05
511.775	0.02
511.972	-0.02
512.169	0
512.366	-0.03
512.563	0
512.76	-0.03
512.956	0.02
513.153	0
513.35	0.01
513.547	-0.03
513.744	-0.01
513.94	-0.05
514.137	-0
514.334	-0
514.53	-0.01
514.727	-0.02
514.924	0.04
515.12	-0.02
515.317	-0.06
515.514	-0.02
515.71	-0.02
515.907	-0.03
516.103	-0.01
516.3	0.01
516.497	-0.01
516.693	0.02
516.89	-0.01
517.086	-0.03
517.283	0.03
517.479	0.02
517.676	-0.01
517.872	-0.01
518.068	-0.03
518.265	-0.01
518.461	-0.03
518.658	-0.02
518.854	-0
519.05	-0.03
519.247	-0.04
519.443	0
519.639	-0.02
519.836	-0.02
520.032	-0.02
520.228	-0.01
520.424	0.04
520.621	-0.02
520.817	-0
521.013	0.02
521.209	0.01
521.405	0.03
521.601	0.01
521.798	-0
521.994	0.03
522.19	-0.04
522.386	-0.05
522.582	-0.01
522.778	-0
522.974	-0.01
523.17	-0.02
523.366	0
523.562	0.01
523.758	-0.01
523.954	-0.02
524.15	-0.03
524.346	0.04
524.542	-0.02
524.738	-0.03
524.934	0
525.129	0
525.325	-0.02
525.521	-0
525.717	0.02
525.913	-0
526.109	-0.01
526.304	-0.02
526.5	0.01
526.696	-0.02
526.892	0
527.087	-0
527.283	-0.03
527.479	0.02
527.674	-0.02
527.87	-0.02
528.066	-0.02
528.261	-0
528.457	0.02
528.653	-0
528.848	-0.02
529.044	-0.02
529.239	0
529.435	0.02
529.63	-0.02
529.826	0.05
530.021	-0.01
530.217	0.02
530.412	-0.01
530.608	-0.03
530.803	-0.01
530.999	-0.02
531.194	-0.05
531.389	0
531.585	-0.05
531.78	-0.01
531.975	-0.01
532.171	0
532.366	-0.02
532.561	-0.02
532.757	-0.01
532.952	-0
533.147	0.03
533.342	0.01
533.538	-0.02
533.733	0.03
533.928	0.01
534.123	-0.02
534.318	-0.02
534.513	0.01
534.709	0.01
534.904	-0.04
535.099	-0.03
535.294	-0.01
535.489	0.01
535.684	-0
535.879	-0.03
536.074	-0.01
536.269	-0.03
536.464	0.01
536.659	-0.01
536.854	-0.02
537.049	-0
537.244	0
537.439	-0.01
537.634	0.02
537.828	0
538.023	0
538.218	-0.03
538.413	-0.01
538.608	-0.03
538.803	0.01
538.997	-0.05
539.192	0.02
539.387	0.01
539.582	-0
539.776	0
539.971	-0.01
540.166	-0
540.36	-0.03
540.555	0.01
540.75	-0.02
540.944	0
541.139	-0.04
541.334	-0.02
541.528	0.01
541.723	0.02
541.917	-0.04
542.112	-0.04
542.306	-0.01
542.501	-0.02
542.695	-0
542.89	-0.02
543.084	-0.02
543.279	-0.02
543.473	-0.01
543.668	-0.01
543.862	-0.01
544.056	-0.01
544.251	0.01
544.445	-0
544.64	-0.01
544.834	-0.04
545.028	-0.01
545.222	-0
545.417	-0
545.611	0.01
545.805	-0.01
546	-0.02
546.194	-0.01
546.388	0.01
546.582	-0.01
546.776	-0.03
546.97	-0.01
547.165	-0.01
547.359	0.01
547.553	-0.03
547.747	0
547.941	-0
548.135	-0.03
548.329	0
548.523	0
548.717	0.01
548.911	-0.02
549.105	-0.01
549.299	-0.02
549.493	-0
549.687	-0.01
549.881	0.04
550.075	-0.02
550.269	-0.03
550.463	-0
550.657	-0.02
550.85	-0.01
551.044	-0.04
551.238	-0.01
551.432	-0.03
551.626	-0.03
551.82	0.02
552.013	-0.03
552.207	-0.01
552.401	0.01
552.594	-0.01
552.788	-0.01
552.982	-0.04
553.176	-0.02
553.369	0.01
553.563	0.03
553.756	-0.05
553.95	-0.02
554.144	-0.02
554.337	0
554.531	-0.01
554.724	-0
554.918	-0.03
555.111	0.01
555.305	0
555.498	0.03
555.692	-0.01
555.885	-0.03
556.079	0.01
556.272	-0.01
556.466	0.03
556.659	-0
556.852	-0.03
557.046	-0.03
557.239	0.02
557.432	-0.05
557.626	-0.01
557.819	0.02
558.012	0.01
558.206	-0
558.399	0
558.592	0.01
558.785	-0.02
558.979	0.01
559.172	-0.01
559.365	0.02
559.558	0.02
559.751	-0.01
559.944	0.02
560.138	-0
560.331	-0.02
560.524	-0.03
560.717	-0.01
560.91	-0.01
561.103	-0.01
561.296	-0
561.489	-0.03
561.682	0.02
561.875	0.03
562.068	-0.02
562.261	-0.01
562.454	0.05
562.647	-0.01
562.84	-0
563.032	-0.01
563.225	-0.01
563.418	-0.03
563.611	-0.03
563.804	0
563.997	-0.04
564.19	-0.04
564.382	-0
564.575	-0.01
564.768	-0.02
564.961	0
565.153	-0.04
565.346	0.01
565.539	0.03
565.731	-0.01
565.924	0.01
566.117	-0.01
566.309	-0.01
566.502	-0.02
566.695	-0.02
566.887	-0
567.08	-0.03
567.272	-0.01
567.465	-0.03
567.657	-0
567.85	0.01
568.042	0.02
568.235	-0.01
568.427	-0.02
568.62	-0.01
568.812	0.01
569.005	0
569.197	-0.03
569.389	0.01
569.582	0.01
569.774	0.02
569.966	-0.04
570.159	-0.01
570.351	0
570.543	-0.02
570.736	0
570.928	-0.03
571.12	0.01
571.312	-0.02
571.505	-0.03
571.697	0.02
571.889	-0.02
572.081	-0.02
572.273	-0.04
572.465	0.03
572.658	-0.03
572.85	0
573.042	-0.03
573.234	-0.01
573.426	0.02
573.618	-0.04
573.81	0
574.002	0.02
574.194	0.03
574.386	-0.04
574.578	-0.09
574.77	-0.03
574.962	-0.02
575.154	-0.05
575.346	-0.01
575.538	0
575.729	-0.03
575.921	-0.03
576.113	-0.03
576.305	0
576.497	-0.03
576.689	-0.02
576.88	-0.02
577.072	0.02
577.264	-0
577.456	-0
577.647	-0.12
577.839	0.02
578.031	0.02
578.223	-0.05
578.414	-0.06
578.606	0.01
578.798	-0.01
578.989	-0.03
579.181	-0.02
579.372	-0.01
579.564	-0.04
579.755	-0.01
579.947	-0.03
580.139	0
580.33	-0.04
580.522	-0.03
580.713	-0.08
580.905	-0
581.096	0.01
581.287	0.01
581.479	-0
581.67	-0.01
581.862	-0.02
582.053	-0.03
582.244	-0.06
582.436	-0.01
582.627	-0.02
582.818	-0.03
583.01	-0.06
583.201	0.02
583.392	0.02
583.583	-0.01
583.775	-0.02
583.966	-0.04
584.157	-0.03
584.348	-0.03
584.54	-0.04
584.731	-0.02
584.922	-0.01
585.113	-0.04
585.304	0
585.495	0.01
585.686	-0.01
585.877	0.01
586.068	-0.02
586.259	0
586.45	0.02
586.641	-0.04
586.832	-0.05
587.023	0
587.214	-0.01
587.405	-0.01
587.596	-0.04
587.787	0.02
587.978	0.02
588.169	-0.06
588.36	-0.02
588.551	0
588.742	-0.03
588.932	0.01
589.123	-0.03
589.314	0.01
589.505	0.01
589.696	-0
589.886	-0.04
590.077	-0.1
590.268	0.01
590.458	-0.05
590.649	-0.05
590.84	0.03
591.03	-0.03
591.221	-0.04
591.412	-0.03
591.602	0.02
591.793	0.05
591.984	-0.07
592.174	-0.02
592.365	0.06
592.555	-0.01
592.746	0.01
592.936	-0.02
593.127	0
593.317	0.01
593.508	-0.01
593.698	-0.05
593.889	-0.01
594.079	-0.02
594.269	-0.01
594.46	-0.01
594.65	-0.01
594.84	-0.01
595.031	-0.03
595.221	-0.03
595.411	-0.07
595.602	0.02
595.792	-0.02
595.982	-0.04
596.172	0.03
596.363	0.01
596.553	-0.01
596.743	-0.02
596.933	-0.01
597.123	0.01
597.314	-0.03
597.504	-0.04
597.694	0
597.884	-0.01
598.074	-0.03
598.264	-0.04
598.454	-0.01
598.644	-0.02
598.834	0.02
599.024	-0.07
599.214	-0.04
599.404	0.02
599.594	-0.04
599.784	-0.07
599.974	0.02
600.164	0.01
600.354	-0.06
600.544	-0.06
600.734	0.02
600.924	0.02
601.114	-0.03
601.303	-0.01
601.493	0.02
601.683	-0.05
601.873	-0
602.063	-0.04
602.252	0.04
602.442	-0.07
602.632	-0.04
602.821	-0.04
603.011	-0
603.201	0.01
603.39	-0.04
603.58	-0.05
603.77	-0.01
603.959	0.02
604.149	-0.02
604.339	-0.01
604.528	0.01
604.718	-0
604.907	-0.03
605.097	-0.01
605.286	-0.04
605.476	0.03
605.665	-0.01
605.855	-0.02
606.044	0.02
606.234	0.01
606.423	-0.06
606.612	-0.04
606.802	-0.03
606.991	-0.02
607.181	-0.01
607.37	-0.04
607.559	-0.02
607.749	-0.05
607.938	-0.03
608.127	-0.03
608.316	-0.02
608.506	0.05
608.695	-0.01
608.884	-0.05
609.073	-0.01
609.263	-0.02
609.452	0.01
609.641	-0.02
609.83	-0.06
610.019	0.01
610.208	-0.05
610.397	-0.01
610.586	0.01
610.775	-0.04
610.965	-0.02
611.154	-0.05
611.343	-0.01
611.532	-0.01
611.721	-0.05
611.91	-0.03
612.099	0
612.287	-0.03
612.476	-0.03
612.665	0
612.854	-0.04
613.043	-0.01
613.232	-0.03
613.421	-0.06
613.61	0.02
613.798	-0.04
613.987	0.02
614.176	-0.01
614.365	0
614.554	0.01
614.742	-0.01
614.931	-0.04
615.12	0.02
615.309	-0.03
615.497	0.01
615.686	-0.05
615.875	-0.03
616.063	0
616.252	-0.03
616.44	-0.02
616.629	-0.02
616.818	0
617.006	-0.03
617.195	-0.03
617.383	-0.01
617.572	0
617.76	-0.04
617.949	-0.05
618.137	0.01
618.326	-0
618.514	-0.02
618.703	-0.03
618.891	0.01
619.079	-0.08
619.268	0
619.456	-0.04
619.644	0.05
619.833	-0.01
620.021	-0.05
620.209	-0.07
620.398	0
620.586	-0.01
620.774	0.02
620.962	-0.01
621.151	0.05
621.339	-0.02
621.527	-0.07
621.715	-0.04
621.903	-0.05
622.092	-0.06
622.28	-0.01
622.468	-0.03
622.656	0
622.844	0
623.032	-0.06
623.22	-0.07
623.408	0.04
623.596	0.01
623.784	0.03
623.972	-0.04
624.16	-0.04
624.348	0.03
624.536	-0.06
624.724	-0.04
624.912	0.03
625.1	0.03
625.288	-0.05
625.476	-0.07
625.664	0.03
625.851	-0.03
626.039	0.01
626.227	-0.01
626.415	-0.07
626.603	-0.1
626.79	0
626.978	-0.03
627.166	0.02
627.354	0.01
627.541	-0.02
627.729	-0.09
627.917	-0
628.104	0.04
628.292	0.02
628.48	-0.01
628.667	-0.01
628.855	0.01
629.042	-0.01
629.23	-0.03
629.418	-0.02
629.605	-0.03
629.793	-0.04
629.98	-0.05
630.168	-0.02
630.355	-0.01
630.543	0.02
630.73	-0.05
630.917	0.03
631.105	0.04
631.292	-0.06
631.48	-0.01
631.667	0.07
631.854	0.01
632.042	-0
632.229	-0.07
632.416	-0.02
632.604	-0.03
632.791	-0.04
632.978	0.02
633.165	-0.01
633.353	0.03
633.54	0.05
633.727	-0.07
633.914	-0.07
634.101	-0.05
634.289	0.02
634.476	-0.03
634.663	-0.02
634.85	-0.01
635.037	-0.05
635.224	-0.07
635.411	0.03
635.598	-0.01
635.785	-0.02
635.972	-0.02
636.159	0.02
636.346	-0.05
636.533	-0.01
636.72	-0.04
636.907	-0.04
637.094	0.02
637.281	-0.03
637.468	0
637.655	-0.02
637.842	-0.01
638.029	-0.03
638.215	0
638.402	-0.01
638.589	-0.03
638.776	-0.04
638.963	-0.01
639.149	0.03
639.336	0.02
639.523	-0.03
639.709	-0.04
639.896	-0
640.083	-0
640.27	-0
640.456	-0.05
640.643	0.01
640.829	-0.06
641.016	-0.02
641.203	-0.05
641.389	0.01
641.576	0
641.762	-0.01
641.949	-0.07
642.135	0.03
642.322	0.01
642.508	-0.05
642.695	-0.05
642.881	-0.05
643.068	-0.05
643.254	-0.04
643.441	0.04
643.627	-0.03
643.813	-0.01
644	0.02
644.186	-0.06
644.372	0.01
644.559	-0
644.745	-0.05
644.931	-0.05
645.118	-0.03
645.304	-0.03
645.49	-0.04
645.676	-0.04
645.862	0.02
646.049	0.04
646.235	-0.03
646.421	0.05
646.607	0.08
646.793	-0.01
646.979	-0.05
647.165	-0.01
647.352	-0.01
647.538	0.05
647.724	-0.02
647.91	-0.01
648.096	0
648.282	-0
648.468	-0.04
648.654	-0.02
648.84	-0.01
649.026	-0.02
649.212	-0.03
649.397	-0.05
649.583	-0.07
649.769	0.03
649.955	-0.02
650.141	-0.01
650.327	0.03
650.513	-0.03
650.698	0.02
650.884	-0.08
651.07	-0.01
651.256	-0.01
651.442	-0.02
651.627	-0.05
651.813	0.01
651.999	-0.03
652.184	0
652.37	-0.04
652.556	-0.05
652.741	0.03
652.927	-0.08
653.113	-0.05
653.298	-0.03
653.484	0.01
653.669	-0.1
653.855	-0.02
654.04	0.02
654.226	0
654.412	-0.06
654.597	-0.05
654.782	0.02
654.968	0.01
655.153	0.01
655.339	-0.04
655.524	-0.06
655.71	0.01
655.895	-0.07
656.08	-0.02
656.266	0.03
656.451	-0
656.636	-0.05
656.822	-0.01
657.007	-0.06
657.192	-0.01
657.378	-0.07
657.563	-0.03
657.748	-0.03
657.933	0.03
658.118	-0.09
658.304	-0.03
658.489	0.02
658.674	0.01
658.859	-0.04
659.044	0
659.229	-0.04
659.414	-0.03
659.599	-0.03
659.785	-0.11
659.97	-0.01
660.155	0.01
660.34	-0.02
660.525	-0.04
660.71	-0.02
660.895	0.04
661.08	-0.05
661.264	-0.06
661.449	0.04
661.634	0.03
661.819	-0.02
662.004	0.01
662.189	-0.07
662.374	-0.06
662.559	-0.07
662.743	-0.09
662.928	-0.02
663.113	-0.05
663.298	-0.08
663.483	-0.04
663.667	-0.03
663.852	-0.04
664.037	0.01
664.221	-0.07
664.406	0
664.591	-0.02
664.775	-0
664.96	0.01
665.145	-0.02
665.329	0.04
665.514	-0.05
665.698	-0.02
665.883	-0.09
666.068	0.03
666.252	-0.03
666.437	-0.08
666.621	-0.02
666.806	0.07
666.99	-0.02
667.174	-0.06
667.359	0.06
667.543	-0.01
667.728	-0.03
667.912	-0.09
668.096	0.02
668.281	-0.05
668.465	-0.05
668.649	-0.04
668.834	-0.04
669.018	-0.02
669.202	-0.01
669.387	-0.07
669.571	0.04
669.755	-0.04
669.939	-0.02
670.124	-0.02
670.308	0.01
670.492	-0
670.676	-0.03
670.86	-0.05
671.044	-0.03
671.228	0.04
671.413	-0.08
671.597	-0.03
671.781	-0.02
671.965	0.01
672.149	-0
672.333	-0.03
672.517	-0.07
672.701	-0.03
672.885	-0.02
673.069	-0.1
673.253	0.03
673.437	-0.04
673.621	-0.06
673.804	-0.03
673.988	-0.05
674.172	-0.03
674.356	-0.05
674.54	-0.01
674.724	0.11
674.908	-0.03
675.091	0
675.275	-0.03
675.459	0
675.643	0.01
675.826	0
676.01	-0.01
676.194	-0.06
676.377	0.01
676.561	0.01
676.745	-0.02
676.928	-0.01
677.112	-0.02
677.296	-0.06
677.479	-0.05
677.663	-0.02
677.846	0.04
678.03	-0.04
678.213	-0.06
678.397	-0.02
678.58	-0.02
678.764	-0.06
678.947	-0.06
679.131	-0.09
679.314	0.08
679.498	-0.05
679.681	-0.02
679.865	0.01
680.048	-0.03
680.231	-0
680.415	-0.03
680.598	-0.01
680.781	0.01
680.965	-0.02
681.148	-0.01
681.331	-0.01
681.514	-0.01
681.698	-0.07
681.881	0.02
682.064	0
682.247	-0.04
682.43	-0.11
682.614	0.01
682.797	0.06
682.98	0.02
683.163	-0.11
683.346	0.02
683.529	-0.03
683.712	-0.09
683.895	0.05
684.078	-0.06
684.261	-0.05
684.444	-0.01
684.627	-0.01
684.81	-0.05
684.993	-0.01
685.176	0.05
685.359	-0.05
685.542	-0.09
685.725	0.08
685.908	-0.01
686.091	0.01
686.274	0.05
686.457	0
686.639	-0.04
686.822	0
687.005	-0.04
687.188	0.02
687.371	0.06
687.553	-0.04
687.736	-0
687.919	0.03
688.102	0.07
688.284	-0.04
688.467	-0.02
688.65	-0.04
688.832	-0.05
689.015	-0.01
689.197	-0.08
689.38	0.06
689.563	0.06
689.745	-0.09
689.928	-0.04
690.11	-0.06
690.293	0.01
690.475	-0.1
690.658	0
690.84	0.03
691.023	-0.07
691.205	-0.05
691.388	-0.04
691.57	0.04
691.752	-0
691.935	-0.12
692.117	-0.09
692.3	0.03
692.482	-0.02
692.664	-0.02
692.847	-0.03
693.029	0.05
693.211	-0.01
693.393	-0.03
693.576	-0.04
693.758	-0.04
693.94	-0.04
694.122	-0.04
694.304	-0.03
694.487	-0.03
694.669	0.11
694.851	-0.06
695.033	-0.01
695.215	-0.04
695.397	-0.08
695.579	-0.03
695.761	-0.12
695.943	-0.1
696.125	0.05
696.308	-0.03
696.49	-0.13
696.671	0.05
696.853	-0.02
697.035	0.14
697.217	-0.04
697.399	0.03
697.581	-0.08
697.763	-0.07
697.945	-0.05
698.127	-0.03
698.309	0.03
698.491	-0.04
698.672	0.03
698.854	0.07
699.036	0.03
699.218	-0.03
699.399	0.01
699.581	0.06
699.763	-0.02
699.945	-0.03
700.126	-0.09
700.308	-0.01
700.49	-0.04
700.671	-0.14
700.853	-0.05
701.035	-0.05
701.216	-0.04
701.398	-0.05
701.579	0
701.761	0.09
701.943	-0.05
702.124	-0.08
702.306	-0.04
702.487	0.14
702.669	-0.03
702.85	-0.08
703.031	-0.05
703.213	0.13
703.394	0
703.576	-0.07
703.757	0.08
703.938	0.01
704.12	0.16
704.301	0.03
704.483	-0.06
704.664	-0
704.845	0.08
705.026	0.04
705.208	0.01
705.389	0.04
705.57	-0
705.751	-0.09
705.933	-0.05
706.114	0.05
706.295	-0.04
706.476	-0.11
706.657	0.05
706.838	-0.01
707.02	0.02
707.201	-0.08
707.382	-0.08
707.563	0.01
707.744	-0.04
707.925	-0.07
708.106	-0.05
708.287	0.01
708.468	0.11
708.649	0
708.83	-0.04
709.011	-0.06
709.192	0.05
709.373	-0.08
709.554	-0.06
709.734	0.03
709.915	-0.01
710.096	-0.02
710.277	-0.07
710.458	-0.1
710.639	0.07
710.819	-0.09
711	-0.07
711.181	0.04
711.362	0
711.542	-0.02
711.723	-0.05
711.904	0.01
712.085	0.04
712.265	-0.04
712.446	-0.1
712.627	-0.05
712.807	-0.02
712.988	-0.03
713.168	-0.1
713.349	-0.04
713.53	-0.17
713.71	-0.08
713.891	-0.09
714.071	-0
714.252	-0.07
714.432	-0.01
714.613	-0.16
714.793	-0.01
714.974	0.08
715.154	0.02
715.334	0.04
715.515	0.1
715.695	-0.06
715.876	-0.07
716.056	-0.09
716.236	-0.12
716.417	-0.05
716.597	-0.13
716.777	0.19
716.957	0.01
717.138	0
717.318	-0.06
717.498	-0.08
717.678	-0.02
717.859	-0.02
718.039	-0.09
718.219	0.04
718.399	-0.01
718.579	-0.08
718.759	-0.1
718.939	0.03
719.12	-0.07
719.3	-0.05
719.48	-0.17
719.66	-0.1
719.84	0.04
720.02	-0.08
720.2	-0.09
720.38	-0.04
720.56	0.09
720.74	-0.08
720.92	0.02
721.1	0.01
721.279	0.05
721.459	-0.03
721.639	-0.1
721.819	-0.02
721.999	-0.1
722.179	0.05
722.359	-0.13
722.538	0.01
722.718	-0.01
722.898	-0.03
723.078	-0.03
723.257	-0.11
723.437	0.01
723.617	-0.02
723.797	-0.07
723.976	0.02
724.156	0.01
724.336	0.03
724.515	0.13
724.695	-0.14
724.874	0
725.054	-0.02
725.234	-0.06
725.413	-0.01
725.593	-0.07
725.772	-0.02
725.952	-0.04
726.131	-0.03
726.311	-0.01
726.49	-0.1
726.67	-0.09
726.849	-0.08
727.028	-0.02
727.208	0.04
727.387	-0.03
727.567	-0.16
727.746	-0.05
727.925	-0.17
728.105	-0.14
728.284	-0.09
728.463	-0
728.643	-0.02
728.822	-0.16
729.001	-0.06
729.18	-0.07
729.359	0.02
729.539	-0.02
729.718	-0.04
729.897	-0.02
730.076	-0.1
730.255	-0.08
730.434	-0.08
730.614	0.01
730.793	0.02
730.972	-0.06
731.151	-0.04
731.33	0.02
731.509	0.01
731.688	0
731.867	-0.08
732.046	-0.13
732.225	0.16
732.404	-0.15
732.583	-0.14
732.762	0.01
732.941	0.01
733.12	-0.01
733.298	-0.11
733.477	0.05
733.656	-0.13
733.835	-0.1
734.014	0.07
734.193	-0.05
734.371	-0.01
734.55	0
734.729	-0.1
734.908	-0.01
735.086	0.04
735.265	0.04
735.444	-0.24
735.623	-0.14
735.801	-0.11
735.98	-0.04
736.159	0.02
736.337	0.04
736.516	-0.04
736.694	-0.06
736.873	-0.06
737.052	0.07
737.23	0.09
737.409	-0.04
737.587	0.11
737.766	-0.15
737.944	-0.11
738.123	-0.01
738.301	-0.03
738.479	0.02
738.658	-0
738.836	-0.17
739.015	-0.07
739.193	0.03
739.371	-0.14
739.55	-0.07
739.728	-0.25
739.906	0.02
740.085	0.17
740.263	0.03
740.441	-0.23
740.62	0.2
740.798	0.14
740.976	0
741.154	-0.17
741.332	0.12
741.511	-0.01
741.689	-0.06
741.867	0.03
742.045	0.01
742.223	-0.12
742.401	-0.14
742.579	-0.12
742.757	-0.04
742.935	-0.13
743.114	-0.09
743.292	-0.04
743.47	-0.1
743.648	0.07
743.826	-0.01
744.004	0.08
744.181	0.07
744.359	-0.11
744.537	0.01
744.715	-0.01
744.893	-0.06
745.071	-0.06
745.249	-0.25
745.427	-0.02
745.605	0.01
745.782	0.01
745.96	0.07
746.138	0.08
746.316	0.08
746.493	-0.12
746.671	-0.09
746.849	-0.11
747.027	0.08
747.204	-0.06
747.382	-0.02
747.56	-0.12
747.737	-0.11
747.915	-0.09
748.093	0.01
748.27	-0.02
748.448	-0.07
748.625	-0.1
748.803	-0.02
748.98	-0.06
749.158	0.01
749.335	0.08
749.513	-0.09
749.69	-0.1
749.868	-0.03
750.045	-0.02
750.223	-0.04
750.4	-0.2
750.578	0.12
750.755	0.05
750.932	-0.14
751.11	0.27
751.287	-0.14
751.464	0.08
751.642	-0.08
751.819	0.1
751.996	0
752.173	-0.12
752.351	-0.18
752.528	-0.03
752.705	-0.1
752.882	-0.12
753.06	-0.04
753.237	-0.07
753.414	0.22
753.591	0.25
753.768	-0.02
753.945	-0.07
754.122	-0.05
754.299	0.01
754.476	-0.03
754.654	-0.01
754.831	-0.04
755.008	-0.01
755.185	-0.16
755.362	-0.18
755.539	0.02
755.716	-0.14
755.892	-0.02
756.069	-0.03
756.246	-0.03
756.423	-0.12
756.6	0.1
756.777	-0.12
756.954	0.11
757.131	-0.06
757.307	-0.18
757.484	-0.07
757.661	0.05
757.838	0.04
758.015	-0.16
758.191	0.07
758.368	-0.01
758.545	0.08
758.721	0.05
758.898	-0.16
759.075	-0.05
759.251	-0.04
759.428	0.04
759.605	-0.24
759.781	-0.07
759.958	0
760.134	0.03
760.311	-0.04
760.488	0.09
760.664	0.13
760.841	-0
761.017	-0.12
761.194	0.06
761.37	0.03
761.547	0.01
761.723	-0.03
761.899	0.13
762.076	0.01
762.252	-0.23
762.429	-0.14
762.605	-0.04
762.781	-0.05
762.958	-0.04
763.134	-0.18
763.31	-0.1
763.486	0.05
763.663	-0.23
763.839	0.04
764.015	-0.17
764.191	-0.17
764.368	-0.1
764.544	-0.17
764.72	0.05
764.896	0.1
765.072	-0.05
765.248	0.02
765.425	-0.12
765.601	-0.1
765.777	-0.04
765.953	-0.23
766.129	-0.13
766.305	-0.2
766.481	-0.09
766.657	-0.08
766.833	0.15
767.009	-0.07
767.185	-0.1
767.361	-0.04
767.537	-0.26
767.713	0.15
767.889	-0.13
768.065	0.01
768.24	0.06
768.416	0.13
768.592	-0.02
768.768	-0.06
768.944	0.1
769.12	-0.17
769.295	-0.16
769.471	-0.11
769.647	0.05
769.823	0.02
769.998	-0.19
770.174	-0.24
770.35	0.27
770.525	0.27
770.701	-0.05
770.877	-0.08
771.052	-0.12
771.228	0.1
771.403	-0.07
771.579	0.02
771.755	0.31
771.93	-0.17
772.106	-0.19
772.281	-0.21
772.457	0.09
772.632	0.06
772.808	-0.21
772.983	-0.13
773.159	-0.28
773.334	0.11
773.509	-0.09
773.685	-0.05
773.86	0.33
774.036	0.18
774.211	0.08
774.386	-0.21
774.562	-0.09
774.737	0
774.912	-0.07
775.087	-0.03
775.263	0.05
775.438	-0.06
775.613	-0.17
775.788	0
775.964	0.1
776.139	0.31
776.314	-0.08
776.489	0.09
776.664	-0.03
776.839	-0.14
777.014	0.11
777.19	0.05
777.365	0.26
777.54	0.21
777.715	-0.17
777.89	-0.01
778.065	-0.13
778.24	0.02
778.415	0.18
778.59	-0.13
778.765	-0.15
778.94	0.13
779.115	-0.02
779.289	-0.02
779.464	-0.22
779.639	-0.06
779.814	-0.17
779.989	-0.29
780.164	0.1
780.339	0.05
780.513	-0.35
780.688	-0.09
780.863	-0.06
781.038	0.04
781.212	-0.17
781.387	-0.05
781.562	0.33
781.737	-0.1
781.911	0.1
782.086	-0.09
782.261	-0.1
782.435	0.1
782.61	-0.23
782.784	-0.06
782.959	0.31
783.134	-0.1
783.308	-0.14
783.483	-0.19
783.657	0.45
783.832	0.13
784.006	-0.45
784.181	-0.05
784.355	0.16
784.53	-0.22
784.704	-0.34
784.878	0.27
785.053	0.05
785.227	-0
785.402	0.35
785.576	-0.57
785.75	0.05
785.925	0.1
786.099	0.02
786.273	0.06
786.448	0.04
786.622	0.15
786.796	-0.11
786.97	-0.12
787.145	0.29
787.319	-0.33
787.493	-0.14
787.667	-0.4
787.841	-0.2
788.015	0.17
788.19	-0.05
788.364	-0.15
788.538	0.02
788.712	0.04
788.886	-0.06
789.06	0.12
789.234	0.2
789.408	-0.3
789.582	-0.19
789.756	-0.1
789.93	-0.16
790.104	-0.25
790.278	-0.19
790.452	-0.18
790.626	0.1
790.8	-0.29
790.973	0.07
791.147	0.2
791.321	0.11
791.495	0.17
791.669	-0.09
791.843	0.1
792.016	0.22
792.19	0.41
792.364	-0.24
792.538	0.37
792.711	0.31
792.885	-0.1
793.059	-0.28
793.233	-0.67
793.406	0.22
793.58	-0.06
793.754	0.06
793.927	-0.31
794.101	0.38
794.274	-0.11
794.448	0.26
794.622	-0.16
794.795	0.19
794.969	-0.17
795.142	-0.02
795.316	-0.11
795.489	-0.12
795.663	0.35
795.836	-0.1
796.009	-0.3
796.183	0.18
796.356	0.05
796.53	0.13
796.703	-0.17
796.876	0.55
797.05	-0.33
797.223	-0.1
797.396	0.08
797.57	-0.01
797.743	0.48
797.916	-0.1
798.09	-0.1
798.263	0.27
798.436	0.14
798.609	-0.31
798.782	-0.18
798.956	0.11
799.129	0.05
799.302	-0.22
799.475	-0.15
799.648	-0.18
799.821	-0.19
799.994	0.05
800.167	-0.49
800.34	-0.23
800.514	0.1
800.687	-0.16
800.86	-0.34
801.033	-0.23
801.206	-0.04
801.379	-0.29
801.551	-0.07
801.724	0.15
801.897	0.2
802.07	0.06
802.243	-0.63
802.416	0.03
802.589	-0.36
802.762	-0.17
802.935	-0.22
803.107	-0.17
803.28	0.46
803.453	0.1
803.626	0.14
803.798	0.26
803.971	-0.13
804.144	-0.11
804.317	0.19
804.489	0.09
804.662	0
804.835	0.11
805.007	-0.24
805.18	0.18
805.353	0.01
805.525	-0.34
805.698	-0.42
805.87	0.41
806.043	0.18
806.215	-0.5
806.388	-0.26
806.56	0
806.733	0.36
806.905	0.12
807.078	-0.23
807.25	-0.27
807.423	-0.04
807.595	-0.03
807.768	-0.3
807.94	0.05
808.112	0.06
808.285	0
808.457	-0.26
808.629	-0.07
808.802	0.12
808.974	-0.28
809.146	-0.1
809.318	-0.23
809.491	0.09
809.663	0.35
809.835	-0.49
810.007	-0.2
810.18	-0.04
810.352	-0.67
810.524	-0.29
810.696	0.33
810.868	0.35
811.04	-0.07
811.212	-0.14
811.384	0.29
811.556	-0.33
811.728	-0.2
811.901	0.35
812.073	-0.31
812.245	0.21
812.417	-0.14
812.589	-0.26
812.76	-0.12
812.932	-0.06
813.104	0.24
813.276	-0.34
813.448	0.43
813.62	-0.09
813.792	0.1
813.964	-0.21
814.136	0.4
814.307	-0.1
814.479	-0.09
814.651	-0.72
814.823	0.84
814.995	0.15
815.166	0.22
815.338	-0.56
815.51	-0.18
815.681	0.9
815.853	-0.24
816.025	-0.36
816.196	0.19
816.368	0.57
816.54	-0.43
816.711	-0.23
816.883	0.41
817.054	0.55
817.226	-1.09
817.398	0.11
817.569	-0.29
817.741	-0.19
817.912	-0.18
818.084	-0.38
818.255	0.29
818.426	-0.34
818.598	-0.05
818.769	-0.45
818.941	0.41
819.112	0.25
819.283	0.31
819.455	-0.57
819.626	0.02
819.798	0.33
819.969	0.15
820.14	-0.27
820.311	-0.32
820.483	-0.08
820.654	-0.09
820.825	-0.1
820.996	-0.25
821.168	-0.59
821.339	-0.1
821.51	-0.68
821.681	-0.01
821.852	0.22
822.023	-0.32
822.195	-0.54
822.366	0.34
822.537	0.28
822.708	-0.15
822.879	-0.64
823.05	0.44
823.221	-0.29
823.392	-0.19
823.563	-0.25
823.734	0.03
823.905	-0.1
824.076	-0.22
824.247	-0.25
824.418	-0.06
824.589	0.82
824.759	-0.01
824.93	-0.53
825.101	-1.04
825.272	0.23
825.443	0.24
825.614	-0.09
825.784	-1.07
825.955	1.02
826.126	0.84
826.297	-0.02
826.467	0.62
826.638	0.87
826.809	-0.41
826.98	-0.08
827.15	0.62
827.321	0.03
827.492	0.28
827.662	-0.12
827.833	0.61
828.003	0.04
828.174	-0.94
828.345	-0.74
828.515	0.27
828.686	-0.4
828.856	0.01
829.027	-0.5
829.197	-0.18
829.368	-0.27
829.538	-0.69
829.709	-0.22
829.879	0.01
830.049	0.35
830.22	0.14
830.39	-0.15
830.56	0.68
830.731	0.25
830.901	-0.32
831.072	-0.37
831.242	-0.19
831.412	-0.69
831.582	-0.5
831.753	-1.05
831.923	0.51
832.093	0.13
832.263	-0.85
832.434	-0.99
832.604	-0.16
832.774	-0.34
832.944	-0.47
833.114	-0.2
833.284	0.11
833.454	-0.33
833.624	-0.37
833.795	-0.36
833.965	0.57
834.135	0.6
834.305	-0.84
834.475	-1.23
834.645	-0.18
834.815	-0.08
834.985	-0.5
835.155	-0.77
835.325	-0.07
835.494	0.34
835.664	-0.45
835.834	-1.22
836.004	0.11
836.174	0.47
836.344	-0.08
836.514	-1.26
836.684	-0.47
836.853	-0.08
837.023	0.31
837.193	-0.55
837.363	0.65
837.532	0.4
837.702	-0.2
837.872	-0.29
838.041	0.58
838.211	1.06
838.381	-1.16
838.55	-0.28
838.72	1.4
838.89	1.33
839.059	-0.39
839.229	-0.77
839.398	0.8
839.568	0.46
839.738	0
839.907	0.82
840.077	-0.04
840.246	-1.03
840.416	-1.04
840.585	-0.54
840.755	1.74
840.924	0.39
841.093	-0.72
841.263	-0.46
841.432	0.02
841.602	-1.3
841.771	-0.2
841.94	-0.23
842.11	1.18
842.279	1.52
842.448	-1.49
842.617	-0.86
842.787	1.14
842.956	-0.86
843.125	-0.71
843.294	-0.07
843.464	0.7
843.633	0.73
843.802	-1.71
843.971	-0.38
844.14	0.93
844.309	0.86
844.479	-0.44
844.648	-1.57
844.817	-0.6
844.986	-0.41
845.155	-0.65
845.324	-0.06
845.493	0.03
845.662	-1.55
845.831	0.35
846	0.48
846.169	-0.14
846.338	0.93
846.507	-0.45
846.676	-0.68
846.844	-0.84
847.013	0.67
847.182	0.1
847.351	-0.41
847.52	0.04
847.689	0.23
847.858	-0.73
848.026	-1.07
848.195	-0.34
848.364	-0.5
848.533	-1.41
848.701	-1.22
848.87	-0.44
849.039	0.58
849.207	0.82
849.376	1.09
849.545	1.07
849.713	-0.18
849.882	-1.25
850.051	-0.95
850.219	-0.2
850.388	0.75
850.556	-1.12
850.725	-0.26
850.893	0.78
851.062	-0.21
851.23	0.57
851.399	-2.12
851.567	-0.58
851.736	-0.77
851.904	-0.99
852.073	-0.89
852.241	0.29
852.41	-0.25
852.578	-0.83
852.746	-0.9
852.915	0.41
853.083	-0.33
853.251	-1.37
853.42	-0.83
853.588	0.17
853.756	0.92
853.924	-0.69
854.093	-0.25
854.261	-0.48
854.429	-1.45
854.597	0.72
854.765	-1.11
854.934	0.38
855.102	1.08
855.27	0.42
855.438	-0.2
855.606	0.2
855.774	2.23
855.942	-2.03
856.11	-1.47
856.278	0.19
856.446	0.98
856.614	0.32
856.782	-1.39
856.95	-0.11
857.118	0.23
857.286	0.25
857.454	-1.03
857.622	0.74
857.79	0.65
857.958	-1.22
858.126	-0.89
858.294	-3.21
858.462	-0.18
858.629	-0.5
858.797	-2.91
858.965	-0.1
859.133	0.06
859.301	-0.86
859.468	-0.62
859.636	-1.67
859.804	0.78
859.971	1.06
860.139	-0.77
860.307	0.21
860.474	-0.45
860.642	-0.57
860.81	-0.92
860.977	-0.26
861.145	0.24
861.313	-0.29
861.48	-0.47
861.648	1.37
861.815	-0.99
861.983	-1.26
862.15	-1.21
862.318	0.54
862.485	0.86
862.653	-1.15
862.82	-1.13
862.988	1.58
863.155	0.51
863.322	-1.26
863.49	-1.54
863.657	-0.7
863.824	0.82
863.992	0.11
864.159	-0.31
864.326	2.05
864.494	-0.73
864.661	1.7
864.828	-0.59
864.996	0.7
865.163	2.15
865.33	-0.66
865.497	-1.51
865.664	-0.1
865.832	-2.09
865.999	-0.35
866.166	-1.64
866.333	-0.38
866.5	-0.4
866.667	-0.96
866.834	-0.43
867.001	1.78
867.168	-1.45
867.335	-1.05
867.502	-1.71
867.669	0.14
867.836	2.94
868.003	-0.59
868.17	0.96
868.337	-2.28
868.504	1.78
868.671	-1.99
868.838	-1.74
869.005	1.53
869.172	0.99
869.339	-1.22
869.505	-0.07
869.672	0.18
869.839	0.46
870.006	-0.78
870.173	-4.22
870.339	-0.31
870.506	0.86
870.673	-2.51
870.84	0.12
871.006	-0.84
871.173	-0.09
871.34	0.36
871.506	-2.63
871.673	-0.3
871.839	-2.64
872.006	0.66
872.173	-0.8
872.339	-0.18
872.506	2.03
872.672	-0.46
872.839	-0.99
873.005	0.82
873.172	2.29
873.338	0.39
873.505	-0.16
873.671	-0.47
873.838	0.04
874.004	-1.93
874.171	-4.15
874.337	0.66
874.503	1.11
874.67	-0.03
874.836	-0.44
875.002	0.87
875.169	1.47
875.335	-1.28
875.501	-0.05
875.668	1.29
875.834	-0.44
876	-0.85
876.166	1.74
876.332	0.47
876.499	3.29
876.665	-1.59
876.831	-0.1
876.997	4.44
877.163	0.56
877.329	-1.46
877.495	-1.16
877.662	0.13
877.828	0.7
877.994	0.06
878.16	-2.56
878.326	-1.18
878.492	-0.09
878.658	0.25
878.824	-0.05
878.99	-0.12
879.156	-1.41
879.322	0.94
879.487	-0.55
879.653	-0.14
879.819	1.33
879.985	-1.55
880.151	0.47
880.317	-0.18
880.483	-0.2
880.648	2.12
880.814	-3.67
880.98	0.25
881.146	-2.83
881.312	-0.78
881.477	-0.65
881.643	-0.52
881.809	2.25
881.974	-0.73
882.14	-3.96
882.306	-0.73
882.471	2.49
882.637	-2.08
882.803	0.61
882.968	4.42
883.134	3.45
883.299	-0.87
883.465	-1.64
883.63	0.81
883.796	1.46
883.961	0.08
884.127	1.35
884.292	-5.69
884.458	-1.54
884.623	-1.54
