Data from Apollo_Calib_20240827__AbsoluteIrradiance__499__07-28-02-025.txt Node

Date: Wed Aug 28 07:28:02 BST 2024
User: biology
Spectrometer: FLMT08252
Trigger mode: 0
Integration Time (sec): 5.000000E-1
Scans to average: 5
Electric dark correction enabled: true
Nonlinearity correction enabled: false
Boxcar width: 0
XAxis mode: Wavelengths
Number of Pixels in Spectrum: 3648
>>>>>Begin Spectral Data<<<<<
179.588	-0
179.809	-0
180.03	-0
180.251	-0
180.473	-0
180.694	0
180.915	0
181.136	-0
181.357	0
181.578	0
181.799	-0
182.02	-0
182.241	0
182.462	-0
182.683	0
182.904	-0
183.125	-0
183.346	0
183.567	0
183.788	-0
184.009	-0
184.23	-0
184.451	0
184.672	-0
184.892	-0
185.113	0
185.334	0
185.555	-0
185.776	0
185.996	0
186.217	0
186.438	0
186.659	-0
186.879	0
187.1	-0
187.321	-0
187.541	-0
187.762	-0
187.983	-0
188.203	-0
188.424	-0
188.644	-0
188.865	-0
189.086	-0
189.306	0
189.527	-0
189.747	-0
189.968	-0
190.188	0
190.409	0
190.629	0
190.849	-0
191.07	-0
191.29	0
191.511	0
191.731	-0
191.951	0
192.172	-0
192.392	-0
192.612	-0
192.833	0
193.053	0
193.273	0
193.493	0
193.714	-0
193.934	0
194.154	0
194.374	-0
194.594	0
194.815	0
195.035	0
195.255	0
195.475	-0
195.695	0
195.915	0
196.135	0
196.355	0
196.575	0
196.795	0
197.015	-0
197.235	-0
197.455	-0
197.675	0
197.895	-0
198.115	0
198.335	0
198.555	-0
198.775	0
198.995	0
199.214	0
199.434	-0
199.654	-0
199.874	-0
200.094	-1.12
200.313	-0.65
200.533	-0.08
200.753	-0.58
200.973	0.92
201.192	0.21
201.412	-1.12
201.632	-0.05
201.851	0.73
202.071	-1.04
202.291	-0.4
202.51	-0.76
202.73	0.61
202.95	-0.24
203.169	-0.12
203.389	0.17
203.608	-0.03
203.828	-0.32
204.047	0.29
204.267	0.71
204.486	-0.21
204.706	0.08
204.925	-0.14
205.145	0.33
205.364	0.25
205.583	0.4
205.803	-0.06
206.022	-0.1
206.242	0.08
206.461	0.3
206.68	0.07
206.9	-0.33
207.119	0.61
207.338	0.36
207.557	-0.16
207.777	-0.08
207.996	-0.1
208.215	0.87
208.434	-0.08
208.654	-0.28
208.873	0.06
209.092	0.64
209.311	-0.09
209.53	-0.08
209.749	0.08
209.968	-0.05
210.187	-0.27
210.407	-0.37
210.626	-0.17
210.845	0.44
211.064	0.2
211.283	-0.1
211.502	0.38
211.721	0.08
211.94	-0.01
212.159	0.31
212.377	0.3
212.596	0.31
212.815	-0.09
213.034	-0.03
213.253	0.25
213.472	0.34
213.691	-0.11
213.91	-0.08
214.128	-0.09
214.347	0.5
214.566	-0.36
214.785	-0.23
215.003	0.1
215.222	0.1
215.441	0.21
215.66	-0.38
215.878	-0.13
216.097	0.25
216.316	-0.28
216.534	-0.14
216.753	0.16
216.972	-0.03
217.19	0
217.409	-0.13
217.627	0.06
217.846	-0.03
218.064	0.03
218.283	-0.11
218.501	0.37
218.72	0.23
218.938	-0.05
219.157	-0.18
219.375	0.15
219.594	0.05
219.812	-0.2
220.031	-0.04
220.249	0.33
220.467	0.21
220.686	0.02
220.904	-0.2
221.122	-0.11
221.341	0.22
221.559	-0.05
221.777	-0.11
221.995	0.03
222.214	0.08
222.432	-0.02
222.65	0.16
222.868	-0.02
223.086	0.07
223.305	0.13
223.523	0.02
223.741	0.29
223.959	-0.01
224.177	-0.15
224.395	0.01
224.613	0.08
224.831	0.16
225.049	-0.05
225.267	-0.04
225.485	-0.08
225.703	-0.07
225.921	-0.06
226.139	-0.12
226.357	0.08
226.575	-0.02
226.793	0.11
227.011	0.54
227.229	0.08
227.447	0.12
227.665	0.05
227.883	-0.28
228.1	-0.09
228.318	0.09
228.536	-0.27
228.754	-0.07
228.972	0.14
229.189	0.22
229.407	-0.1
229.625	-0.02
229.843	0.08
230.06	0.02
230.278	-0.06
230.496	-0.01
230.713	0.06
230.931	0.16
231.149	-0.1
231.366	-0.18
231.584	0.04
231.801	0.35
232.019	-0.03
232.236	-0.17
232.454	-0.06
232.671	0.02
232.889	-0.05
233.106	-0.13
233.324	0.06
233.541	0.09
233.759	-0.08
233.976	-0.13
234.194	0.01
234.411	-0.05
234.628	0.05
234.846	0.01
235.063	0.1
235.28	-0.08
235.498	-0.01
235.715	-0.16
235.932	0.16
236.149	0
236.367	-0.08
236.584	0.05
236.801	-0.12
237.018	0.08
237.236	0.02
237.453	-0.21
237.67	0.19
237.887	0.02
238.104	0.01
238.321	-0.11
238.538	-0.09
238.755	0.11
238.973	-0.15
239.19	-0.05
239.407	0.11
239.624	-0.03
239.841	-0.15
240.058	-0.05
240.275	-0.04
240.492	-0.05
240.709	0.01
240.925	0
241.142	0
241.359	-0.08
241.576	-0.17
241.793	-0.02
242.01	0.06
242.227	0.06
242.444	0.08
242.66	0.1
242.877	0.08
243.094	-0.09
243.311	0.01
243.527	0.03
243.744	0.05
243.961	0.06
244.178	-0
244.394	0.02
244.611	0.11
244.828	0.19
245.044	-0.07
245.261	0.01
245.477	0.12
245.694	0.16
245.911	0.01
246.127	0.04
246.344	0.17
246.56	0.08
246.777	0.02
246.993	-0.04
247.21	0.05
247.426	0.08
247.643	-0.04
247.859	-0
248.076	-0.04
248.292	0.21
248.508	-0.03
248.725	-0.07
248.941	0.05
249.157	0.13
249.374	-0.05
249.59	-0.01
249.806	0.08
250.023	0.05
250.239	-0.02
250.455	-0.05
250.671	-0.02
250.888	0.08
251.104	0.04
251.32	-0.06
251.536	-0.02
251.752	0.04
251.969	0.01
252.185	-0
252.401	0.1
252.617	-0
252.833	-0.02
253.049	0.01
253.265	0.03
253.481	0.03
253.697	-0.04
253.913	-0.01
254.129	0.05
254.345	0.05
254.561	0.02
254.777	0.05
254.993	0.17
255.209	-0
255.425	-0
255.641	-0.1
255.857	0.07
256.073	0.04
256.288	-0.09
256.504	-0.03
256.72	0.04
256.936	0.09
257.152	-0.08
257.367	-0.02
257.583	0.09
257.799	0.07
258.015	-0.05
258.23	-0.07
258.446	0.07
258.662	0.04
258.877	-0.03
259.093	0.01
259.309	0.04
259.524	0
259.74	-0.03
259.955	-0.08
260.171	0.03
260.387	0
260.602	0.03
260.818	0.04
261.033	-0.06
261.249	-0.05
261.464	-0.02
261.68	-0.07
261.895	0.06
262.11	0.11
262.326	-0.06
262.541	-0.1
262.757	0.04
262.972	0.06
263.187	-0.03
263.403	0
263.618	0.13
263.833	0.01
264.049	-0.03
264.264	-0.01
264.479	0.05
264.694	0.04
264.91	-0.1
265.125	-0.03
265.34	0.04
265.555	0.1
265.77	0.04
265.986	-0.06
266.201	0.01
266.416	0.13
266.631	-0.01
266.846	0.01
267.061	0.07
267.276	0.01
267.491	-0.07
267.706	0.04
267.921	0.01
268.136	-0.01
268.351	-0.01
268.566	-0.03
268.781	0.12
268.996	0.02
269.211	0.01
269.426	-0.08
269.641	-0.02
269.856	0.03
270.071	-0.07
270.285	-0.04
270.5	0.07
270.715	0.08
270.93	-0.03
271.145	0.04
271.359	0.06
271.574	-0.04
271.789	0.01
272.004	-0.06
272.218	-0.02
272.433	0.06
272.648	-0.04
272.862	0.03
273.077	0
273.292	-0.01
273.506	-0.04
273.721	0.01
273.936	0.06
274.15	0.06
274.365	-0.02
274.579	0.08
274.794	0.04
275.008	0.07
275.223	-0.05
275.437	0.01
275.652	0.05
275.866	0.05
276.081	0.03
276.295	0.08
276.509	0.01
276.724	0.05
276.938	-0.02
277.153	0.09
277.367	0.04
277.581	-0
277.796	0.03
278.01	0.01
278.224	0.02
278.438	0.15
278.653	-0.05
278.867	-0.04
279.081	0.06
279.295	-0.05
279.51	0.03
279.724	-0.06
279.938	0.05
280.152	0.06
280.366	-0.03
280.58	0.03
280.794	0.08
281.008	-0.02
281.222	0.06
281.437	0.1
281.651	0
281.865	0.05
282.079	0.02
282.293	-0.08
282.507	-0.03
282.721	0.06
282.935	0.02
283.148	-0.04
283.362	-0.02
283.576	-0.01
283.79	-0.04
284.004	-0.03
284.218	0.06
284.432	-0.04
284.646	-0.03
284.859	-0.01
285.073	-0.03
285.287	-0.03
285.501	-0.01
285.714	0.05
285.928	0.02
286.142	0
286.356	-0.08
286.569	0.03
286.783	0.1
286.997	0.02
287.21	-0.01
287.424	0
287.637	-0.01
287.851	0.02
288.065	-0.01
288.278	0.03
288.492	0.01
288.705	-0.02
288.919	0.06
289.132	-0.07
289.346	0.06
289.559	-0.06
289.773	-0.06
289.986	-0.03
290.2	-0
290.413	0.09
290.626	-0.05
290.84	0
291.053	-0.01
291.267	0.06
291.48	0
291.693	0.01
291.906	-0.01
292.12	-0.02
292.333	-0.03
292.546	0
292.76	0.08
292.973	0.05
293.186	0.01
293.399	-0.03
293.612	0.07
293.826	-0.01
294.039	0.01
294.252	0.02
294.465	0.04
294.678	0.05
294.891	0
295.104	0.01
295.317	-0.04
295.53	0.04
295.743	0.04
295.956	0.02
296.169	0.08
296.382	0.04
296.595	-0.01
296.808	-0.03
297.021	0.05
297.234	0.03
297.447	0.01
297.66	-0
297.873	0.06
298.086	-0.02
298.299	0.01
298.511	-0.02
298.724	-0
298.937	-0.04
299.15	-0
299.363	0.02
299.575	0.06
299.788	0.02
300.001	-0.02
300.213	-0.09
300.426	-0.03
300.639	0.02
300.852	-0.05
301.064	0
301.277	0.11
301.489	0.08
301.702	0.06
301.915	-0.02
302.127	0.01
302.34	-0.01
302.552	0.01
302.765	-0.02
302.977	0.04
303.19	-0
303.402	-0.03
303.615	-0.03
303.827	0.01
304.04	0.02
304.252	0.04
304.464	-0.01
304.677	0.13
304.889	0.07
305.102	0
305.314	0
305.526	0.03
305.739	0.02
305.951	-0.02
306.163	-0.04
306.375	0.09
306.588	-0.02
306.8	-0.03
307.012	-0.02
307.224	0.05
307.436	0.09
307.649	-0.07
307.861	-0.03
308.073	0.02
308.285	0.02
308.497	-0.04
308.709	-0.06
308.921	0.03
309.133	0.05
309.346	0.02
309.558	0.02
309.77	0.03
309.982	0.07
310.194	0.06
310.406	0
310.617	0.1
310.829	0.02
311.041	0.02
311.253	0.02
311.465	-0.01
311.677	-0
311.889	0.03
312.101	0.02
312.313	0.05
312.524	0.07
312.736	-0.03
312.948	0
313.16	0.06
313.372	0.06
313.583	0.04
313.795	-0.04
314.007	-0.04
314.218	0.01
314.43	0.06
314.642	-0.04
314.853	-0.03
315.065	0.04
315.277	-0.01
315.488	0.03
315.7	0.02
315.912	0.03
316.123	-0
316.335	0.01
316.546	0.1
316.758	0.03
316.969	-0.01
317.181	0.02
317.392	0.03
317.604	0.02
317.815	-0.05
318.026	-0.03
318.238	-0.03
318.449	0.05
318.661	-0.04
318.872	-0.05
319.083	-0.03
319.295	0.09
319.506	0.02
319.717	0.04
319.929	0.05
320.14	-0.01
320.351	0.02
320.562	-0.04
320.774	-0
320.985	-0
321.196	-0.01
321.407	-0.07
321.618	0.03
321.829	0.01
322.041	0.04
322.252	-0.01
322.463	0.01
322.674	0
322.885	-0.07
323.096	-0.04
323.307	0
323.518	0.01
323.729	-0
323.94	-0.01
324.151	0.01
324.362	0
324.573	0.02
324.784	-0.01
324.995	0.03
325.206	0.02
325.417	0.01
325.628	0.02
325.838	-0.01
326.049	0.04
326.26	0.03
326.471	-0.02
326.682	0.01
326.892	-0.01
327.103	-0.08
327.314	0
327.525	0.04
327.735	0.02
327.946	0.02
328.157	-0.01
328.368	-0.02
328.578	-0.04
328.789	0.03
328.999	0.02
329.21	0.03
329.421	-0.01
329.631	-0
329.842	-0.01
330.052	0.02
330.263	0.02
330.473	0.03
330.684	-0.01
330.894	-0.02
331.105	0.03
331.315	0.01
331.526	-0.04
331.736	0.03
331.947	0.09
332.157	0.01
332.367	-0.04
332.578	0.07
332.788	0.06
332.999	0.04
333.209	0.01
333.419	-0.04
333.629	-0.02
333.84	0.02
334.05	0.01
334.26	0.07
334.47	0.05
334.681	0.08
334.891	0.03
335.101	0.04
335.311	0.09
335.521	0.01
335.732	-0.04
335.942	0.09
336.152	0.07
336.362	0.03
336.572	0.02
336.782	0.05
336.992	-0
337.202	-0.02
337.412	-0.05
337.622	0.05
337.832	0.05
338.042	0.02
338.252	-0.03
338.462	-0.03
338.672	0.02
338.882	0
339.092	0.04
339.302	0.09
339.511	0.03
339.721	-0.06
339.931	-0.03
340.141	0.06
340.351	0.09
340.561	0.02
340.77	0.05
340.98	0.01
341.19	0.08
341.4	-0.02
341.609	-0.01
341.819	-0.03
342.029	-0.04
342.238	0.02
342.448	-0.03
342.658	-0
342.867	0.02
343.077	0.01
343.286	0.01
343.496	0.04
343.706	0.07
343.915	-0.05
344.125	0.02
344.334	0.03
344.544	-0.04
344.753	-0
344.963	-0.04
345.172	-0.03
345.381	-0.01
345.591	0.04
345.8	0.01
346.01	0.02
346.219	0.03
346.428	-0.13
346.638	-0.01
346.847	0.02
347.056	0.09
347.266	-0.05
347.475	-0.02
347.684	0.04
347.893	-0.01
348.103	0.04
348.312	-0
348.521	0.02
348.73	-0.02
348.94	0.01
349.149	0.01
349.358	-0.03
349.567	-0.05
349.776	-0.01
349.985	-0.04
350.194	0.03
350.403	0.03
350.612	-0.03
350.821	-0.02
351.03	-0
351.239	-0.01
351.448	0.03
351.657	-0.01
351.866	0.09
352.075	-0.01
352.284	0.04
352.493	-0.05
352.702	0.04
352.911	0.06
353.12	0.03
353.329	-0.02
353.538	0.03
353.746	0.01
353.955	-0.02
354.164	0.05
354.373	0
354.582	0.04
354.79	0.04
354.999	0.08
355.208	-0.04
355.416	0.06
355.625	-0.03
355.834	-0.04
356.042	-0.01
356.251	-0
356.46	-0.03
356.668	0.04
356.877	0.1
357.085	0.1
357.294	-0.06
357.503	-0.01
357.711	0.02
357.92	0.11
358.128	0.04
358.337	0.02
358.545	-0.03
358.754	-0.04
358.962	-0
359.17	-0.01
359.379	0.02
359.587	0.02
359.796	-0.05
360.004	0.06
360.212	0.07
360.421	0.06
360.629	0
360.837	-0
361.046	-0
361.254	0.12
361.462	0.02
361.67	-0.03
361.879	0.01
362.087	0.09
362.295	0.04
362.503	-0.03
362.711	-0.01
362.92	-0.03
363.128	0
363.336	-0.03
363.544	-0.03
363.752	-0.01
363.96	-0.01
364.168	-0.05
364.376	-0
364.584	0.02
364.792	0.03
365	0.01
365.208	0.01
365.416	-0.01
365.624	0.01
365.832	0.02
366.04	0.06
366.248	0.02
366.456	0.03
366.664	0.01
366.872	0
367.079	-0.02
367.287	0.02
367.495	0.05
367.703	-0
367.911	0
368.118	-0.03
368.326	-0.01
368.534	-0.05
368.742	0.06
368.949	-0.05
369.157	-0.04
369.365	0.01
369.572	0
369.78	-0.03
369.988	0.05
370.195	0.04
370.403	0.04
370.61	-0.01
370.818	0.02
371.026	0.08
371.233	-0.05
371.441	0.03
371.648	-0.03
371.856	-0.01
372.063	-0.02
372.271	-0.03
372.478	-0
372.685	-0.01
372.893	0.07
373.1	-0.05
373.308	-0.01
373.515	0.07
373.722	0.03
373.93	-0
374.137	-0
374.344	0.07
374.552	0.07
374.759	0
374.966	0.07
375.173	0.01
375.381	0.03
375.588	0.01
375.795	-0.05
376.002	-0.02
376.209	-0.02
376.417	0.02
376.624	0.02
376.831	0.02
377.038	-0.02
377.245	-0.04
377.452	-0.02
377.659	0.01
377.866	0.03
378.073	0.03
378.28	0.05
378.487	0.01
378.694	0.01
378.901	-0.01
379.108	-0
379.315	0.07
379.522	0.09
379.729	0.01
379.936	-0.04
380.143	-0.01
380.35	0.01
380.557	0.04
380.763	-0
380.97	0.03
381.177	0.01
381.384	0.02
381.591	0
381.797	-0.02
382.004	0.07
382.211	0.03
382.418	0
382.624	0.06
382.831	0.04
383.038	0.02
383.244	0.02
383.451	0.02
383.658	0.01
383.864	0
384.071	-0.02
384.277	0.06
384.484	-0.03
384.69	0.05
384.897	-0.02
385.103	-0.03
385.31	-0
385.516	-0
385.723	0.01
385.929	-0
386.136	-0.03
386.342	-0.01
386.549	0.01
386.755	0.05
386.961	0.04
387.168	-0.03
387.374	0.03
387.58	0.04
387.787	0.02
387.993	0.04
388.199	0.01
388.406	0
388.612	-0.01
388.818	0
389.024	0.03
389.231	0.05
389.437	0.06
389.643	0
389.849	-0.01
390.055	0.07
390.261	-0.02
390.467	0.04
390.674	-0.05
390.88	0
391.086	0.05
391.292	-0.04
391.498	0.04
391.704	0
391.91	0.01
392.116	-0.04
392.322	-0.07
392.528	0.03
392.734	-0
392.94	0.03
393.146	-0.02
393.352	0.03
393.557	-0.01
393.763	-0.01
393.969	0.04
394.175	0.01
394.381	0.03
394.587	-0.06
394.792	-0.03
394.998	0.05
395.204	0.06
395.41	-0.05
395.615	0.03
395.821	0.05
396.027	0.02
396.233	-0.02
396.438	0.02
396.644	0.06
396.85	0.02
397.055	-0.01
397.261	0.04
397.466	0.08
397.672	0.02
397.878	0.08
398.083	-0.01
398.289	-0.04
398.494	0.04
398.7	0.04
398.905	-0.07
399.111	0.14
399.316	-0.01
399.522	-0.01
399.727	0.02
399.932	0.02
400.138	-0.02
400.343	0.02
400.549	0.05
400.754	-0.02
400.959	0.04
401.165	0.04
401.37	0.04
401.575	-0.03
401.78	0.02
401.986	-0.03
402.191	-0.03
402.396	-0.02
402.601	0.03
402.807	0
403.012	0.01
403.217	0.02
403.422	0
403.627	-0.02
403.832	-0
404.037	0.03
404.243	0.05
404.448	-0.03
404.653	0.02
404.858	0.01
405.063	0.03
405.268	0.02
405.473	-0.02
405.678	-0
405.883	0.11
406.088	0.02
406.293	-0.04
406.498	-0.02
406.703	0.03
406.907	-0.04
407.112	-0.06
407.317	0.02
407.522	0.04
407.727	-0.09
407.932	-0.01
408.136	0.06
408.341	-0.03
408.546	0.02
408.751	-0.01
408.956	-0.01
409.16	0.04
409.365	-0.03
409.57	-0.01
409.774	-0.01
409.979	0.07
410.184	0
410.388	-0.03
410.593	0.07
410.798	-0.03
411.002	0.04
411.207	-0
411.411	-0
411.616	-0.03
411.82	-0.03
412.025	-0.03
412.229	-0.04
412.434	0.05
412.638	-0
412.843	-0
413.047	-0.03
413.252	-0
413.456	-0.03
413.66	0.05
413.865	0
414.069	0.07
414.273	-0.05
414.478	-0.04
414.682	-0.1
414.886	-0.01
415.091	-0.05
415.295	-0.07
415.499	0.03
415.703	-0.06
415.908	0.02
416.112	-0.1
416.316	0.03
416.52	-0.05
416.724	-0.05
416.929	-0.06
417.133	0.06
417.337	-0.06
417.541	0.03
417.745	0.04
417.949	0.02
418.153	-0
418.357	-0.07
418.561	0.04
418.765	-0.03
418.969	0.08
419.173	0.08
419.377	-0.01
419.581	0.08
419.785	0
419.989	-0.06
420.193	-0.04
420.397	-0.01
420.601	0.07
420.804	0.02
421.008	-0
421.212	0.04
421.416	0.04
421.62	-0.04
421.823	-0.05
422.027	0.1
422.231	0.01
422.435	0.05
422.638	0.05
422.842	-0.02
423.046	-0.04
423.249	0.05
423.453	0.05
423.657	0.02
423.86	0
424.064	-0.01
424.268	0.07
424.471	-0.02
424.675	0.07
424.878	0.03
425.082	-0.01
425.285	0.09
425.489	-0
425.692	0.03
425.896	-0.03
426.099	0.03
426.303	-0.08
426.506	-0.03
426.71	0.07
426.913	0.04
427.116	0.06
427.32	0.01
427.523	-0.04
427.726	0.07
427.93	-0.05
428.133	0.03
428.336	-0.05
428.54	-0.03
428.743	0.07
428.946	0.03
429.149	-0.02
429.353	0
429.556	0.01
429.759	-0.05
429.962	-0.03
430.165	-0.02
430.368	-0.03
430.571	-0.06
430.775	0.03
430.978	-0.01
431.181	-0.01
431.384	0.01
431.587	-0.02
431.79	-0.01
431.993	0.03
432.196	-0.01
432.399	-0.03
432.602	0.08
432.805	-0
433.008	-0.04
433.211	-0.06
433.414	0.05
433.616	0.01
433.819	0.03
434.022	-0.05
434.225	0.07
434.428	-0.01
434.631	0.06
434.833	0.02
435.036	0.01
435.239	0.07
435.442	0.02
435.645	-0.03
435.847	0.02
436.05	0.05
436.253	0.04
436.455	-0.05
436.658	0.02
436.861	0.08
437.063	0.03
437.266	-0.03
437.468	0.03
437.671	0.13
437.874	0.02
438.076	-0.07
438.279	-0.05
438.481	0.02
438.684	-0.05
438.886	0.05
439.089	-0.07
439.291	0
439.494	-0.01
439.696	-0.01
439.899	0.01
440.101	0.02
440.303	-0.06
440.506	0.02
440.708	0.03
440.91	0.02
441.113	-0.03
441.315	0.02
441.517	-0.05
441.72	-0
441.922	-0.03
442.124	-0.07
442.326	0.01
442.529	0.07
442.731	-0.04
442.933	0.09
443.135	0
443.337	0
443.539	-0.01
443.742	-0
443.944	-0.01
444.146	-0.03
444.348	-0.02
444.55	-0.04
444.752	-0.01
444.954	-0.06
445.156	-0.02
445.358	-0.06
445.56	0.08
445.762	-0.06
445.964	-0.01
446.166	-0.04
446.368	-0.01
446.57	0.04
446.772	-0.01
446.974	-0.03
447.175	0.03
447.377	-0.05
447.579	-0.06
447.781	-0.06
447.983	0.08
448.184	-0.02
448.386	0.02
448.588	-0.07
448.79	-0.05
448.991	-0
449.193	-0.01
449.395	0.01
449.597	0.05
449.798	0.03
450	0
450.202	0.01
450.403	0.02
450.605	0.06
450.806	-0
451.008	-0.06
451.21	-0.02
451.411	0.02
451.613	-0.04
451.814	0.05
452.016	0
452.217	-0
452.419	0.02
452.62	0.01
452.821	0.02
453.023	0.04
453.224	0
453.426	0
453.627	0.02
453.828	0.01
454.03	0
454.231	-0.02
454.432	-0.05
454.634	0.08
454.835	-0.02
455.036	-0.07
455.238	0.05
455.439	0.04
455.64	-0.04
455.841	-0.04
456.042	0.09
456.244	0.02
456.445	-0.02
456.646	-0.07
456.847	-0.03
457.048	0.06
457.249	0.03
457.45	0.18
457.651	-0.03
457.852	0.07
458.054	-0.02
458.255	-0.03
458.456	0.03
458.657	0
458.858	-0.04
459.058	0.05
459.259	0.02
459.46	0.02
459.661	-0.01
459.862	0.12
460.063	-0.02
460.264	0.04
460.465	-0.05
460.666	0.09
460.866	-0.07
461.067	0.01
461.268	0.02
461.469	-0.01
461.67	-0.02
461.87	-0.01
462.071	0.02
462.272	-0.05
462.473	0.01
462.673	0.02
462.874	-0.06
463.075	0.02
463.275	-0.08
463.476	0.05
463.676	0
463.877	0.02
464.078	-0.01
464.278	-0
464.479	0
464.679	-0.01
464.88	-0.01
465.08	0.08
465.281	-0.03
465.481	-0.02
465.682	0.07
465.882	-0.02
466.083	-0.01
466.283	0.01
466.483	0.03
466.684	-0.03
466.884	-0.02
467.085	-0.03
467.285	0.06
467.485	-0.03
467.686	0.04
467.886	-0.01
468.086	-0.01
468.286	0.04
468.487	0.05
468.687	-0.04
468.887	-0
469.087	0.04
469.287	-0.02
469.488	-0.04
469.688	0.05
469.888	0.05
470.088	0.06
470.288	0.04
470.488	0.05
470.688	-0.03
470.888	-0.03
471.088	-0.04
471.288	0.07
471.488	0.03
471.688	0.04
471.888	-0.05
472.088	0.08
472.288	-0
472.488	-0.06
472.688	-0.01
472.888	-0
473.088	-0.02
473.288	-0
473.488	0.01
473.688	0.07
473.887	-0.01
474.087	-0.03
474.287	0
474.487	-0.03
474.687	0.01
474.886	-0.02
475.086	0.03
475.286	0.04
475.486	0
475.685	0
475.885	-0.04
476.085	0
476.284	0.05
476.484	-0.04
476.684	0.04
476.883	0.07
477.083	0.03
477.282	-0.01
477.482	0.06
477.681	0.07
477.881	0.01
478.08	-0.07
478.28	-0.01
478.479	-0
478.679	0.07
478.878	-0.02
479.078	-0.03
479.277	0.01
479.477	-0.01
479.676	0.04
479.875	-0.01
480.075	-0.03
480.274	0.06
480.473	0.06
480.673	-0.02
480.872	0.04
481.071	0.02
481.271	0
481.47	-0.02
481.669	0.01
481.868	0.01
482.067	-0.01
482.267	-0
482.466	-0.04
482.665	-0.02
482.864	-0.03
483.063	-0.04
483.262	-0
483.461	0.05
483.661	0.05
483.86	0.02
484.059	0
484.258	-0.02
484.457	0
484.656	0.03
484.855	0.04
485.054	-0.06
485.253	-0.02
485.452	-0.04
485.651	-0.01
485.849	-0
486.048	-0.02
486.247	-0.03
486.446	0.01
486.645	-0.03
486.844	-0.02
487.043	0.02
487.241	0.01
487.44	-0.02
487.639	-0.02
487.838	0.04
488.037	0.01
488.235	0.05
488.434	-0
488.633	-0.02
488.831	-0
489.03	0.05
489.229	-0
489.427	0.01
489.626	0.04
489.825	0.05
490.023	0.03
490.222	-0.01
490.42	0.04
490.619	0.04
490.817	0.03
491.016	-0.02
491.214	0.03
491.413	0
491.611	0.01
491.81	0.02
492.008	0.02
492.207	0.03
492.405	0.02
492.604	-0.03
492.802	-0.01
493	0.01
493.199	0.01
493.397	0.01
493.595	-0
493.794	-0.02
493.992	0.03
494.19	0
494.388	0.01
494.587	0
494.785	0.02
494.983	-0.03
495.181	-0.01
495.379	0.01
495.578	0.01
495.776	0.03
495.974	0.01
496.172	-0.02
496.37	-0.03
496.568	-0.02
496.766	-0.03
496.964	0.05
497.162	0.01
497.36	0.01
497.558	0.01
497.756	0.02
497.954	0.01
498.152	-0.02
498.35	-0
498.548	-0.01
498.746	0.01
498.944	-0.03
499.142	-0.01
499.34	-0.03
499.538	-0
499.736	-0.01
499.933	0.04
500.131	0.04
500.329	0.01
500.527	0.04
500.725	0.05
500.922	0.01
501.12	0
501.318	0.03
501.516	-0.01
501.713	0.03
501.911	-0.01
502.109	-0.03
502.306	0.01
502.504	-0.01
502.701	-0.02
502.899	-0.01
503.097	0.04
503.294	0
503.492	-0.01
503.689	0.02
503.887	0.03
504.084	0.07
504.282	0.02
504.479	-0.01
504.677	-0
504.874	-0.04
505.072	0.01
505.269	-0
505.466	0.02
505.664	0.02
505.861	-0.03
506.059	-0.04
506.256	0.03
506.453	-0.04
506.651	0.02
506.848	0.02
507.045	0.01
507.242	0.03
507.44	-0.02
507.637	0.01
507.834	0
508.031	0.02
508.229	-0.04
508.426	0.01
508.623	0.02
508.82	0
509.017	0.01
509.214	-0
509.411	0.01
509.608	-0.02
509.805	-0.01
510.003	-0.01
510.2	-0.02
510.397	0.03
510.594	-0.02
510.791	-0.02
510.988	0
511.184	0.03
511.381	0.02
511.578	-0.01
511.775	0.01
511.972	-0.03
512.169	-0
512.366	0
512.563	0.03
512.76	0
512.956	0.02
513.153	-0.02
513.35	0.02
513.547	-0.01
513.744	-0.01
513.94	-0
514.137	0.01
514.334	0.01
514.53	0.01
514.727	0.01
514.924	0.06
515.12	0
515.317	-0.03
515.514	-0.01
515.71	-0.04
515.907	0.01
516.103	0.01
516.3	0.01
516.497	0.03
516.693	0.04
516.89	-0
517.086	-0.02
517.283	0.05
517.479	0.01
517.676	-0.02
517.872	-0
518.068	-0.01
518.265	-0.01
518.461	-0.01
518.658	-0.02
518.854	0.02
519.05	-0.02
519.247	-0
519.443	0.01
519.639	-0.02
519.836	0
520.032	-0.01
520.228	0.01
520.424	0.03
520.621	0.02
520.817	0.01
521.013	0.02
521.209	0
521.405	0.04
521.601	0.02
521.798	0
521.994	0.05
522.19	-0.01
522.386	-0.03
522.582	-0.01
522.778	-0.01
522.974	0
523.17	0.01
523.366	0
523.562	0.01
523.758	-0
523.954	-0
524.15	-0.02
524.346	0.02
524.542	-0.01
524.738	-0.03
524.934	-0.01
525.129	0.01
525.325	0.01
525.521	-0.01
525.717	0.04
525.913	0.01
526.109	0.02
526.304	0.01
526.5	0.02
526.696	0.04
526.892	0.01
527.087	0.03
527.283	-0.01
527.479	0.02
527.674	0
527.87	-0
528.066	-0.01
528.261	0.02
528.457	0.02
528.653	0
528.848	-0.01
529.044	0.01
529.239	-0.02
529.435	0.04
529.63	0.02
529.826	0.03
530.021	0.02
530.217	0.03
530.412	-0.01
530.608	-0
530.803	0.02
530.999	0
531.194	-0.04
531.389	-0.02
531.585	-0.03
531.78	0
531.975	0.01
532.171	-0
532.366	0.02
532.561	0.01
532.757	-0.01
532.952	0.01
533.147	-0
533.342	-0
533.538	-0.02
533.733	0.02
533.928	0
534.123	-0
534.318	-0.04
534.513	-0.01
534.709	0.02
534.904	-0.01
535.099	0.01
535.294	-0
535.489	0.01
535.684	-0.01
535.879	-0.02
536.074	0
536.269	-0.01
536.464	0.01
536.659	0
536.854	-0
537.049	0.02
537.244	0.03
537.439	-0.02
537.634	0.05
537.828	0
538.023	0.01
538.218	-0.04
538.413	0.02
538.608	-0.05
538.803	0.03
538.997	-0.03
539.192	0.03
539.387	0.03
539.582	0.02
539.776	0.01
539.971	-0.01
540.166	-0.01
540.36	-0.03
540.555	-0
540.75	0.01
540.944	0
541.139	-0.02
541.334	-0.01
541.528	0.02
541.723	0.02
541.917	0
542.112	-0.04
542.306	0.01
542.501	0.01
542.695	0.02
542.89	0.01
543.084	-0
543.279	-0.02
543.473	-0
543.668	-0.01
543.862	-0
544.056	0.03
544.251	0.01
544.445	0
544.64	0.01
544.834	-0.02
545.028	0.01
545.222	0.02
545.417	0.02
545.611	0
545.805	-0
546	-0.01
546.194	-0.01
546.388	-0.01
546.582	0.02
546.776	0.01
546.97	-0
547.165	0.01
547.359	0.02
547.553	-0.02
547.747	0.02
547.941	0.02
548.135	-0.02
548.329	0.04
548.523	0.03
548.717	-0
548.911	0.01
549.105	-0
549.299	0.02
549.493	0.03
549.687	0.01
549.881	0.02
550.075	-0.01
550.269	-0.02
550.463	0.03
550.657	-0.01
550.85	0
551.044	0.01
551.238	0.01
551.432	-0
551.626	-0.03
551.82	-0
552.013	-0
552.207	0
552.401	0.04
552.594	-0
552.788	-0
552.982	-0.01
553.176	-0.01
553.369	-0.01
553.563	0.02
553.756	-0.04
553.95	-0
554.144	0
554.337	0.04
554.531	0.02
554.724	0
554.918	0
555.111	0.03
555.305	0.02
555.498	0.04
555.692	0.02
555.885	-0.02
556.079	-0.01
556.272	-0.02
556.466	0.03
556.659	0.01
556.852	0.02
557.046	0
557.239	0.04
557.432	-0.01
557.626	-0.02
557.819	0.02
558.012	0.06
558.206	0.03
558.399	-0
558.592	0.02
558.785	0
558.979	0.02
559.172	0.02
559.365	0.01
559.558	0.03
559.751	0
559.944	0.02
560.138	0.01
560.331	-0
560.524	-0.01
560.717	0.02
560.91	0.01
561.103	0.04
561.296	0.02
561.489	0.03
561.682	0.03
561.875	0.05
562.068	0.02
562.261	-0
562.454	0.06
562.647	0.01
562.84	0
563.032	0.01
563.225	0.02
563.418	0.02
563.611	-0.01
563.804	0.03
563.997	-0.03
564.19	-0.02
564.382	-0.06
564.575	0.02
564.768	0.01
564.961	-0.01
565.153	-0.01
565.346	0.03
565.539	0.04
565.731	0.05
565.924	0.03
566.117	0.03
566.309	0.03
566.502	0.02
566.695	0.04
566.887	0.01
567.08	-0
567.272	-0.01
567.465	-0
567.657	0.02
567.85	0.01
568.042	0.03
568.235	0.05
568.427	0.04
568.62	0.01
568.812	0.02
569.005	0.03
569.197	0.01
569.389	0.02
569.582	0.02
569.774	0.04
569.966	0
570.159	-0.03
570.351	0.04
570.543	-0.01
570.736	0.01
570.928	0.02
571.12	0.02
571.312	-0.01
571.505	-0
571.697	0.07
571.889	-0.01
572.081	0.03
572.273	0.02
572.465	0.04
572.658	0.03
572.85	0.04
573.042	0.04
573.234	0.01
573.426	0.06
573.618	0
573.81	0.05
574.002	0.07
574.194	0.07
574.386	0.02
574.578	-0.03
574.77	0.03
574.962	0.05
575.154	-0
575.346	0.03
575.538	0.05
575.729	-0
575.921	0.04
576.113	0.03
576.305	0.06
576.497	0.03
576.689	0.01
576.88	0.01
577.072	0.05
577.264	0.03
577.456	0.05
577.647	-0.02
577.839	0.03
578.031	0.07
578.223	0.04
578.414	0.01
578.606	0.06
578.798	0.03
578.989	0.04
579.181	0.05
579.372	0.04
579.564	0.02
579.755	0.06
579.947	0.05
580.139	0.07
580.33	0.03
580.522	0.04
580.713	-0.01
580.905	0.05
581.096	0.07
581.287	0.08
581.479	0.05
581.67	0.06
581.862	0.07
582.053	0.05
582.244	0.01
582.436	0.07
582.627	0.07
582.818	0.05
583.01	0.03
583.201	0.11
583.392	0.07
583.583	0.1
583.775	0.06
583.966	0.08
584.157	0.09
584.348	0.08
584.54	0.08
584.731	0.13
584.922	0.09
585.113	0.06
585.304	0.12
585.495	0.13
585.686	0.11
585.877	0.13
586.068	0.14
586.259	0.12
586.45	0.15
586.641	0.12
586.832	0.07
587.023	0.14
587.214	0.12
587.405	0.15
587.596	0.11
587.787	0.21
587.978	0.15
588.169	0.11
588.36	0.15
588.551	0.16
588.742	0.14
588.932	0.18
589.123	0.16
589.314	0.18
589.505	0.17
589.696	0.21
589.886	0.16
590.077	0.14
590.268	0.2
590.458	0.15
590.649	0.17
590.84	0.22
591.03	0.18
591.221	0.18
591.412	0.18
591.602	0.23
591.793	0.22
591.984	0.2
592.174	0.23
592.365	0.32
592.555	0.2
592.746	0.25
592.936	0.26
593.127	0.28
593.317	0.3
593.508	0.26
593.698	0.27
593.889	0.29
594.079	0.29
594.269	0.27
594.46	0.26
594.65	0.29
594.84	0.31
595.031	0.29
595.221	0.3
595.411	0.3
595.602	0.35
595.792	0.34
595.982	0.32
596.172	0.39
596.363	0.39
596.553	0.39
596.743	0.39
596.933	0.39
597.123	0.42
597.314	0.38
597.504	0.42
597.694	0.45
597.884	0.44
598.074	0.46
598.264	0.43
598.454	0.48
598.644	0.47
598.834	0.49
599.024	0.43
599.214	0.49
599.404	0.54
599.594	0.5
599.784	0.49
599.974	0.59
600.164	0.56
600.354	0.5
600.544	0.51
600.734	0.58
600.924	0.58
601.114	0.58
601.303	0.6
601.493	0.57
601.683	0.66
601.873	0.64
602.063	0.58
602.252	0.69
602.442	0.62
602.632	0.66
602.821	0.66
603.011	0.75
603.201	0.73
603.39	0.72
603.58	0.72
603.77	0.78
603.959	0.81
604.149	0.78
604.339	0.8
604.528	0.88
604.718	0.9
604.907	0.84
605.097	0.86
605.286	0.88
605.476	0.9
605.665	0.95
605.855	0.94
606.044	0.95
606.234	0.96
606.423	1
606.612	0.99
606.802	1.05
606.991	1.05
607.181	1.1
607.37	1.03
607.559	1.06
607.749	1.09
607.938	1.14
608.127	1.13
608.316	1.16
608.506	1.22
608.695	1.23
608.884	1.18
609.073	1.28
609.263	1.32
609.452	1.35
609.641	1.34
609.83	1.35
610.019	1.4
610.208	1.38
610.397	1.48
610.586	1.52
610.775	1.48
610.965	1.52
611.154	1.51
611.343	1.65
611.532	1.6
611.721	1.73
611.91	1.7
612.099	1.75
612.287	1.74
612.476	1.74
612.665	1.87
612.854	1.82
613.043	1.93
613.232	1.95
613.421	1.93
613.61	2.04
613.798	2.03
613.987	2.12
614.176	2.17
614.365	2.18
614.554	2.27
614.742	2.32
614.931	2.28
615.12	2.43
615.309	2.42
615.497	2.44
615.686	2.49
615.875	2.54
616.063	2.54
616.252	2.64
616.44	2.71
616.629	2.77
616.818	2.8
617.006	2.84
617.195	2.88
617.383	2.92
617.572	2.95
617.76	3.04
617.949	3.1
618.137	3.21
618.326	3.22
618.514	3.16
618.703	3.26
618.891	3.43
619.079	3.37
619.268	3.53
619.456	3.45
619.644	3.63
619.833	3.59
620.021	3.67
620.209	3.61
620.398	3.8
620.586	3.77
620.774	3.88
620.962	3.94
621.151	4.04
621.339	3.98
621.527	3.99
621.715	4.05
621.903	4.14
622.092	4.12
622.28	4.22
622.468	4.15
622.656	4.32
622.844	4.28
623.032	4.43
623.22	4.31
623.408	4.48
623.596	4.47
623.784	4.55
623.972	4.47
624.16	4.5
624.348	4.59
624.536	4.69
624.724	4.53
624.912	4.56
625.1	4.66
625.288	4.64
625.476	4.54
625.664	4.7
625.851	4.55
626.039	4.57
626.227	4.54
626.415	4.57
626.603	4.48
626.79	4.49
626.978	4.49
627.166	4.46
627.354	4.35
627.541	4.27
627.729	4.2
627.917	4.31
628.104	4.21
628.292	4.05
628.48	4.09
628.667	3.88
628.855	3.95
629.042	3.91
629.23	3.78
629.418	3.63
629.605	3.63
629.793	3.51
629.98	3.39
630.168	3.4
630.355	3.31
630.543	3.21
630.73	3.08
630.917	3.03
631.105	3
631.292	2.87
631.48	2.81
631.667	2.78
631.854	2.55
632.042	2.5
632.229	2.35
632.416	2.36
632.604	2.3
632.791	2.13
632.978	2.15
633.165	2.04
633.353	1.97
633.54	1.92
633.727	1.77
633.914	1.73
634.101	1.7
634.289	1.68
634.476	1.53
634.663	1.52
634.85	1.51
635.037	1.39
635.224	1.31
635.411	1.39
635.598	1.31
635.785	1.2
635.972	1.14
636.159	1.18
636.346	1.06
636.533	1.02
636.72	1.02
636.907	0.97
637.094	0.94
637.281	0.91
637.468	0.94
637.655	0.84
637.842	0.8
638.029	0.75
638.215	0.77
638.402	0.73
638.589	0.68
638.776	0.65
638.963	0.67
639.149	0.69
639.336	0.7
639.523	0.59
639.709	0.58
639.896	0.56
640.083	0.57
640.27	0.56
640.456	0.52
640.643	0.5
640.829	0.43
641.016	0.46
641.203	0.41
641.389	0.47
641.576	0.44
641.762	0.41
641.949	0.36
642.135	0.39
642.322	0.4
642.508	0.31
642.695	0.35
642.881	0.32
643.068	0.3
643.254	0.32
643.441	0.33
643.627	0.29
643.813	0.27
644	0.31
644.186	0.24
644.372	0.23
644.559	0.28
644.745	0.23
644.931	0.2
645.118	0.21
645.304	0.19
645.49	0.14
645.676	0.16
645.862	0.22
646.049	0.25
646.235	0.17
646.421	0.24
646.607	0.24
646.793	0.14
646.979	0.15
647.165	0.19
647.352	0.14
647.538	0.18
647.724	0.18
647.91	0.14
648.096	0.18
648.282	0.2
648.468	0.13
648.654	0.13
648.84	0.15
649.026	0.1
649.212	0.13
649.397	0.08
649.583	0.07
649.769	0.16
649.955	0.09
650.141	0.14
650.327	0.17
650.513	0.09
650.698	0.14
650.884	0.01
651.07	0.1
651.256	0.09
651.442	0.09
651.627	0.07
651.813	0.1
651.999	0.06
652.184	0.1
652.37	0.06
652.556	0.06
652.741	0.1
652.927	0.02
653.113	0.04
653.298	0.1
653.484	0.03
653.669	0.02
653.855	0.05
654.04	0.11
654.226	0.07
654.412	0.02
654.597	0.05
654.782	0.08
654.968	0.1
655.153	0.09
655.339	0.04
655.524	-0.01
655.71	0.08
655.895	0.04
656.08	0.05
656.266	0.09
656.451	0.05
656.636	0.01
656.822	0.05
657.007	0.03
657.192	0.02
657.378	0.01
657.563	0.04
657.748	0.06
657.933	0.05
658.118	-0.02
658.304	-0.01
658.489	0.05
658.674	0.05
658.859	0.01
659.044	0.05
659.229	0.07
659.414	0.03
659.599	0.01
659.785	-0.01
659.97	0.02
660.155	0.05
660.34	0.05
660.525	0.03
660.71	0.03
660.895	0.09
661.08	-0.01
661.264	-0.01
661.449	0.07
661.634	0.09
661.819	0.05
662.004	0.05
662.189	-0.08
662.374	-0
662.559	-0.03
662.743	-0.03
662.928	0.06
663.113	-0.01
663.298	-0.05
663.483	0.01
663.667	0.05
663.852	-0.01
664.037	0.06
664.221	0.02
664.406	0.03
664.591	0.02
664.775	0.03
664.96	-0.04
665.145	0.03
665.329	0.07
665.514	-0.02
665.698	0.03
665.883	-0.05
666.068	0.08
666.252	0.03
666.437	-0
666.621	0
666.806	0.03
666.99	-0
667.174	-0.04
667.359	0.1
667.543	-0.01
667.728	0.02
667.912	-0.03
668.096	0.03
668.281	-0.01
668.465	0
668.649	0.06
668.834	-0.02
669.018	0.03
669.202	-0
669.387	-0.05
669.571	0.06
669.755	-0.03
669.939	0.03
670.124	0.02
670.308	0.09
670.492	0.02
670.676	-0.02
670.86	-0.01
671.044	0
671.228	0.03
671.413	-0.01
671.597	-0.06
671.781	-0.04
671.965	0.04
672.149	0.02
672.333	0
672.517	-0.01
672.701	0.06
672.885	0.02
673.069	-0.02
673.253	0.06
673.437	0.01
673.621	0.03
673.804	-0
673.988	0.02
674.172	0.05
674.356	-0.08
674.54	0
674.724	0.09
674.908	0.01
675.091	0.04
675.275	0
675.459	0.06
675.643	-0.04
675.826	0.01
676.01	-0.03
676.194	-0.01
676.377	0.03
676.561	0.01
676.745	0.04
676.928	0.04
677.112	0.03
677.296	-0
677.479	-0.02
677.663	0.03
677.846	0.01
678.03	0.02
678.213	-0.01
678.397	0.06
678.58	-0.03
678.764	0.02
678.947	-0.01
679.131	-0.02
679.314	0.05
679.498	-0.02
679.681	0.04
679.865	0.08
680.048	0.01
680.231	0.02
680.415	0.02
680.598	-0.01
680.781	-0
680.965	-0.02
681.148	0.02
681.331	0
681.514	0.04
681.698	-0
681.881	-0.01
682.064	-0
682.247	0.01
682.43	-0.1
682.614	0.03
682.797	0.06
682.98	0.02
683.163	-0.04
683.346	0.05
683.529	-0.04
683.712	-0.05
683.895	0.07
684.078	-0.07
684.261	-0.01
684.444	0.01
684.627	0.03
684.81	-0.01
684.993	0.01
685.176	0.02
685.359	0.03
685.542	0.02
685.725	0.08
685.908	0.03
686.091	-0.02
686.274	0.06
686.457	0.01
686.639	0.02
686.822	0.06
687.005	0.04
687.188	0.04
687.371	0.09
687.553	-0.04
687.736	0.04
687.919	0.12
688.102	-0
688.284	0.04
688.467	0.03
688.65	-0.04
688.832	-0.02
689.015	0.03
689.197	-0.06
689.38	0.09
689.563	0.08
689.745	-0.02
689.928	-0.04
690.11	-0.01
690.293	-0.03
690.475	-0.05
690.658	0.01
690.84	0.03
691.023	-0.04
691.205	-0.02
691.388	0.01
691.57	0.06
691.752	0.07
691.935	-0.06
692.117	0.02
692.3	0.07
692.482	-0.01
692.664	-0
692.847	0.05
693.029	0.1
693.211	-0
693.393	0.02
693.576	-0.04
693.758	0
693.94	0.01
694.122	-0
694.304	-0.02
694.487	0.03
694.669	0.1
694.851	0
695.033	0.04
695.215	-0.04
695.397	-0.01
695.579	0.02
695.761	-0.02
695.943	-0.06
696.125	0.07
696.308	0.09
696.49	-0.11
696.671	0.11
696.853	0.02
697.035	0.12
697.217	0.03
697.399	0.03
697.581	-0.03
697.763	-0.01
697.945	0.01
698.127	0
698.309	0.05
698.491	-0.01
698.672	0.03
698.854	0.08
699.036	0.09
699.218	-0.01
699.399	0.09
699.581	0.09
699.763	0.05
699.945	-0.04
700.126	0
700.308	0.01
700.49	0.02
700.671	-0.04
700.853	-0.06
701.035	-0.05
701.216	-0.02
701.398	-0.06
701.579	0
701.761	0.03
701.943	-0.02
702.124	-0.03
702.306	-0
702.487	0.17
702.669	0
702.85	-0.07
703.031	-0.06
703.213	0.11
703.394	0.09
703.576	-0
703.757	0.06
703.938	0.06
704.12	0.12
704.301	0.02
704.483	-0.05
704.664	0.06
704.845	0.14
705.026	0.02
705.208	-0
705.389	-0.02
705.57	0.06
705.751	0.01
705.933	-0.01
706.114	0.08
706.295	-0.02
706.476	0
706.657	0.14
706.838	0.08
707.02	0.06
707.201	-0.02
707.382	-0.06
707.563	0.03
707.744	0.03
707.925	-0.01
708.106	-0.08
708.287	0.03
708.468	0.07
708.649	-0.01
708.83	0.02
709.011	-0.04
709.192	0.03
709.373	-0.05
709.554	0.03
709.734	0.01
709.915	-0.02
710.096	-0.02
710.277	-0.09
710.458	0.01
710.639	0.07
710.819	-0.1
711	0.02
711.181	0.07
711.362	0.06
711.542	0
711.723	-0.01
711.904	0.06
712.085	0.06
712.265	0.03
712.446	-0.1
712.627	-0
712.807	0.04
712.988	-0.06
713.168	-0
713.349	0.05
713.53	-0.08
713.71	-0.06
713.891	-0.08
714.071	0.03
714.252	-0.03
714.432	0.04
714.613	-0.12
714.793	-0
714.974	0.04
715.154	0.07
715.334	0.04
715.515	0.07
715.695	-0.08
715.876	-0.01
716.056	-0.02
716.236	0.05
716.417	0.02
716.597	-0.03
716.777	0.07
716.957	0.08
717.138	0.03
717.318	0
717.498	-0.08
717.678	0.04
717.859	-0.01
718.039	-0.08
718.219	0.02
718.399	0.12
718.579	-0.07
718.759	-0.06
718.939	0.08
719.12	-0.02
719.3	0.04
719.48	-0.16
719.66	-0.11
719.84	0.1
720.02	-0.01
720.2	0.01
720.38	0.02
720.56	0.08
720.74	-0.04
720.92	0
721.1	0.07
721.279	0.07
721.459	-0.03
721.639	-0.03
721.819	0.03
721.999	-0.02
722.179	0.11
722.359	-0.06
722.538	0.01
722.718	-0
722.898	-0.04
723.078	-0.1
723.257	-0.08
723.437	0.06
723.617	0
723.797	-0.06
723.976	0.04
724.156	0.02
724.336	0.06
724.515	0.16
724.695	-0.12
724.874	-0.04
725.054	0.09
725.234	-0.1
725.413	0.02
725.593	0.05
725.772	0.03
725.952	0.06
726.131	0.07
726.311	-0.01
726.49	0
726.67	-0.08
726.849	-0.03
727.028	-0.01
727.208	-0.07
727.387	0.11
727.567	-0.11
727.746	-0.02
727.925	0
728.105	-0.05
728.284	-0.06
728.463	-0.03
728.643	0.02
728.822	-0.03
729.001	0.01
729.18	-0.02
729.359	0.07
729.539	-0.04
729.718	-0.01
729.897	-0.04
730.076	-0.07
730.255	-0.1
730.434	0.12
730.614	0.01
730.793	0.07
730.972	-0.05
731.151	0.02
731.33	0.11
731.509	0.07
731.688	0.04
731.867	0.01
732.046	-0.12
732.225	0.12
732.404	-0.04
732.583	-0.06
732.762	0.04
732.941	0.05
733.12	-0
733.298	-0.01
733.477	0.03
733.656	-0.05
733.835	-0.08
734.014	0.06
734.193	-0.03
734.371	0.07
734.55	0.07
734.729	-0.01
734.908	0.01
735.086	0.02
735.265	0.12
735.444	-0.12
735.623	-0.11
735.801	-0.11
735.98	0.02
736.159	0.06
736.337	0.11
736.516	-0.04
736.694	0.03
736.873	-0.03
737.052	0.03
737.23	0.13
737.409	-0.02
737.587	0.21
737.766	-0.18
737.944	-0.03
738.123	0.06
738.301	0.02
738.479	0.07
738.658	0.01
738.836	-0.18
739.015	0.01
739.193	0.13
739.371	-0.13
739.55	-0.06
739.728	-0.1
739.906	0.15
740.085	0.12
740.263	0.05
740.441	-0.17
740.62	0.14
740.798	0.07
740.976	-0.08
741.154	-0.12
741.332	0.11
741.511	-0.03
741.689	0.08
741.867	0.05
742.045	0.04
742.223	-0.05
742.401	-0.13
742.579	-0.03
742.757	-0
742.935	-0.11
743.114	-0.02
743.292	0.01
743.47	-0
743.648	0.01
743.826	-0.21
744.004	0.09
744.181	0.08
744.359	-0.08
744.537	-0.02
744.715	-0
744.893	-0.04
745.071	0.05
745.249	-0.07
745.427	0
745.605	0.1
745.782	0.02
745.96	0.03
746.138	0.07
746.316	0.04
746.493	0.01
746.671	0.12
746.849	-0.03
747.027	0.02
747.204	-0.1
747.382	0.03
747.56	-0.1
747.737	-0.08
747.915	-0.12
748.093	0.04
748.27	0
748.448	0.04
748.625	-0.14
748.803	-0.04
748.98	-0.01
749.158	0.02
749.335	0.12
749.513	-0.04
749.69	-0.04
749.868	0.02
750.045	0.08
750.223	0.02
750.4	-0.1
750.578	0.18
750.755	0.01
750.932	-0.09
751.11	0.14
751.287	-0.13
751.464	0.11
751.642	-0.15
751.819	-0.02
751.996	0.02
752.173	-0.05
752.351	-0.1
752.528	0.07
752.705	-0.06
752.882	-0.11
753.06	0.04
753.237	0.02
753.414	0.24
753.591	0.19
753.768	0.01
753.945	0.01
754.122	-0.08
754.299	0.02
754.476	0.02
754.654	0.02
754.831	0.17
755.008	0.01
755.185	-0.1
755.362	-0.22
755.539	0.06
755.716	-0.05
755.892	-0.13
756.069	-0.01
756.246	0.02
756.423	-0.05
756.6	0.1
756.777	0.01
756.954	0.03
757.131	-0.04
757.307	-0.21
757.484	-0.15
757.661	0.06
757.838	-0.02
758.015	-0.03
758.191	0.11
758.368	-0.05
758.545	0.13
758.721	0.1
758.898	-0.04
759.075	0.22
759.251	0.09
759.428	0.06
759.605	-0.16
759.781	-0.05
759.958	0.04
760.134	0.02
760.311	-0.04
760.488	0.17
760.664	0.06
760.841	-0.04
761.017	-0.2
761.194	0.01
761.37	0.06
761.547	-0.02
761.723	0.01
761.899	0.15
762.076	-0.07
762.252	-0.08
762.429	0.02
762.605	0.11
762.781	0.04
762.958	0.1
763.134	-0.08
763.31	-0.1
763.486	0.1
763.663	-0.15
763.839	0.07
764.015	-0.24
764.191	-0.13
764.368	0.03
764.544	-0.1
764.72	0.09
764.896	0.03
765.072	-0.07
765.248	-0.06
765.425	0.02
765.601	-0.01
765.777	-0.02
765.953	-0.22
766.129	0.05
766.305	-0.08
766.481	-0.03
766.657	0.04
766.833	0.32
767.009	-0.08
767.185	0.02
767.361	0
767.537	-0.17
767.713	0.12
767.889	0.02
768.065	0.05
768.24	-0.2
768.416	0.15
768.592	-0.19
768.768	-0.02
768.944	0.07
769.12	-0.07
769.295	-0.09
769.471	-0.04
769.647	-0.06
769.823	0.07
769.998	-0.13
770.174	-0.04
770.35	0.24
770.525	0.23
770.701	0.1
770.877	-0.03
771.052	-0.13
771.228	-0.01
771.403	0.04
771.579	0.16
771.755	0.39
771.93	-0.11
772.106	-0.05
772.281	-0.28
772.457	0.04
772.632	0.03
772.808	-0.1
772.983	0.01
773.159	-0.14
773.334	0.2
773.509	-0.06
773.685	-0.06
773.86	0.18
774.036	0.13
774.211	0.26
774.386	-0.07
774.562	0.02
774.737	0.01
774.912	-0.06
775.087	0.12
775.263	0
775.438	-0.06
775.613	-0.1
775.788	0.01
775.964	-0.04
776.139	0.22
776.314	-0.2
776.489	0.16
776.664	0.13
776.839	-0.08
777.014	0.06
777.19	-0.06
777.365	0.12
777.54	0.11
777.715	0.01
777.89	-0.03
778.065	-0.08
778.24	-0.02
778.415	0.06
778.59	0.04
778.765	-0.01
778.94	0.04
779.115	-0.11
779.289	0.25
779.464	-0.02
779.639	-0.01
779.814	-0.16
779.989	-0.23
780.164	0.24
780.339	0.17
780.513	-0.11
780.688	-0.09
780.863	-0.05
781.038	0.01
781.212	-0.14
781.387	0.08
781.562	0.28
781.737	-0.08
781.911	0.27
782.086	-0.24
782.261	0.05
782.435	0.23
782.61	-0.1
782.784	-0.11
782.959	0.15
783.134	-0.21
783.308	-0.39
783.483	-0.14
783.657	0.4
783.832	0.14
784.006	-0.29
784.181	-0.03
784.355	0.2
784.53	-0.23
784.704	-0.16
784.878	0.29
785.053	0.17
785.227	0.2
785.402	0.33
785.576	-0.3
785.75	-0.16
785.925	0.08
786.099	-0.04
786.273	0.06
786.448	0.03
786.622	0.28
786.796	-0.15
786.97	-0.1
787.145	0.55
787.319	-0.2
787.493	0.04
787.667	-0.39
787.841	-0.03
788.015	0.15
788.19	-0.12
788.364	-0.01
788.538	0.04
788.712	-0.05
788.886	0.02
789.06	-0.03
789.234	0.02
789.408	-0.12
789.582	0.05
789.756	-0.03
789.93	-0.15
790.104	-0.08
790.278	-0.17
790.452	-0.2
790.626	0.16
790.8	-0.1
790.973	0.32
791.147	0.3
791.321	0.26
791.495	-0.01
791.669	0.16
791.843	0.16
792.016	-0.03
792.19	0.3
792.364	-0.22
792.538	0.68
792.711	0.29
792.885	-0.06
793.059	-0.38
793.233	-0.5
793.406	0.34
793.58	0.11
793.754	0.27
793.927	-0.06
794.101	0.37
794.274	-0.07
794.448	0.05
794.622	-0.03
794.795	0.35
794.969	-0.24
795.142	0.32
795.316	-0.05
795.489	0.06
795.663	0.42
795.836	0
796.009	-0.35
796.183	0.3
796.356	0.26
796.53	-0.12
796.703	-0.02
796.876	0.64
797.05	-0.17
797.223	-0.17
797.396	0.14
797.57	0.1
797.743	0.33
797.916	0.31
798.09	-0.11
798.263	0.1
798.436	0.21
798.609	0.04
798.782	-0.19
798.956	0.07
799.129	-0.04
799.302	-0.07
799.475	-0.36
799.648	-0.11
799.821	-0.25
799.994	0.28
800.167	-0.38
800.34	0.33
800.514	-0.02
800.687	-0.14
800.86	-0.17
801.033	0.21
801.206	0.1
801.379	-0.41
801.551	0.13
801.724	0.11
801.897	0.48
802.07	0.04
802.243	-0.48
802.416	-0.11
802.589	-0.16
802.762	0.13
802.935	0.04
803.107	0.45
803.28	0.3
803.453	0.32
803.626	-0.17
803.798	-0.1
803.971	-0.27
804.144	0.13
804.317	-0.01
804.489	0.31
804.662	-0.08
804.835	0.09
805.007	-0.11
805.18	0.6
805.353	-0.33
805.525	-0.33
805.698	-0.18
805.87	0.27
806.043	0.1
806.215	-0.08
806.388	-0.09
806.56	-0.11
806.733	0.41
806.905	-0.09
807.078	-0.06
807.25	-0.04
807.423	0.12
807.595	-0.11
807.768	0.09
807.94	0.16
808.112	0.04
808.285	0.42
808.457	-0.12
808.629	-0.07
808.802	0.47
808.974	-0.07
809.146	-0.29
809.318	-0.24
809.491	0.36
809.663	0.5
809.835	-0.25
810.007	-0.07
810.18	0.18
810.352	-0.39
810.524	-0.18
810.696	-0.07
810.868	0.31
811.04	0.02
811.212	0.18
811.384	0.31
811.556	0.19
811.728	-0.22
811.901	0.33
812.073	-0.24
812.245	0.03
812.417	0.26
812.589	-0.36
812.76	0.07
812.932	-0.08
813.104	0.15
813.276	-0.21
813.448	0.39
813.62	0.11
813.792	0.18
813.964	0.07
814.136	0.3
814.307	-0.14
814.479	-0.47
814.651	0.15
814.823	0.59
814.995	-0.19
815.166	0.31
815.338	-0.11
815.51	-0.17
815.681	0.85
815.853	0.24
816.025	0.1
816.196	0.5
816.368	0.29
816.54	-0.16
816.711	-0.11
816.883	0.17
817.054	0.99
817.226	-0.97
817.398	0.04
817.569	-0.04
817.741	-0.02
817.912	-0.08
818.084	-0.08
818.255	0.32
818.426	-0.2
818.598	0.33
818.769	0.26
818.941	0.14
819.112	0.58
819.283	0.28
819.455	0.17
819.626	0.35
819.798	0.29
819.969	-0.2
820.14	-0.41
820.311	0.17
820.483	0.29
820.654	0.47
820.825	-0.14
820.996	0.07
821.168	-0.6
821.339	-0.24
821.51	0.15
821.681	-0.29
821.852	-0.07
822.023	-0.36
822.195	-0.76
822.366	0.42
822.537	0.02
822.708	0.08
822.879	-0.08
823.05	0.55
823.221	-0.34
823.392	0.45
823.563	0.01
823.734	0.32
823.905	0.18
824.076	0.39
824.247	-0.34
824.418	-0.36
824.589	0.53
824.759	0.09
824.93	-0.1
825.101	-0.3
825.272	0.42
825.443	0.07
825.614	-0.01
825.784	-0.69
825.955	0.9
826.126	0.4
826.297	0.1
826.467	1
826.638	0.84
826.809	-0.69
826.98	0.01
827.15	0.02
827.321	-0.02
827.492	0.74
827.662	-0.04
827.833	0.92
828.003	0.63
828.174	-0.99
828.345	-0.55
828.515	0.4
828.686	-0.32
828.856	-0.39
829.027	0.15
829.197	-0.1
829.368	0.18
829.538	-0.21
829.709	-0.02
829.879	0.95
830.049	0.08
830.22	-0.24
830.39	0.19
830.56	0.82
830.731	-0.19
830.901	-0.44
831.072	0.23
831.242	-0.14
831.412	-0.01
831.582	0.22
831.753	0.01
831.923	0.16
832.093	0.23
832.263	-0
832.434	-0.25
832.604	-0.11
832.774	0.6
832.944	0.26
833.114	-0.44
833.284	0.52
833.454	-0.38
833.624	-0.56
833.795	-0.76
833.965	1.21
834.135	0.85
834.305	-0.88
834.475	-0.09
834.645	0.26
834.815	0.02
834.985	-0.13
835.155	-0.31
835.325	1.03
835.494	0.37
835.664	-0.21
835.834	-0.44
836.004	-0.04
836.174	0.27
836.344	0.56
836.514	-0.64
836.684	-0.22
836.853	0.01
837.023	-0.01
837.193	0.26
837.363	1.03
837.532	0.58
837.702	0.26
837.872	-0.61
838.041	0.65
838.211	1.13
838.381	-0.86
838.55	-0.43
838.72	1.36
838.89	1.46
839.059	-0
839.229	-0.13
839.398	0.78
839.568	0.16
839.738	-0
839.907	0.85
840.077	-0.01
840.246	-0.65
840.416	0.31
840.585	-0.24
840.755	1.53
840.924	1.25
841.093	-0.56
841.263	0.43
841.432	-0.08
841.602	-0.77
841.771	-0.34
841.94	0.34
842.11	1.44
842.279	1.63
842.448	-0.57
842.617	-0.31
842.787	0.84
842.956	-0.92
843.125	0.08
843.294	0.24
843.464	0.06
843.633	0.28
843.802	-0.32
843.971	0.39
844.14	0.73
844.309	1.03
844.479	-0.98
844.648	-0.67
844.817	-1.39
844.986	0.34
845.155	0.5
845.324	-0.08
845.493	0.43
845.662	-0.67
845.831	1.05
846	0.34
846.169	0.21
846.338	1.18
846.507	0.65
846.676	0.23
846.844	-0.31
847.013	1.01
847.182	0.3
847.351	-0.5
847.52	0.22
847.689	0.76
847.858	-0.37
848.026	-0.42
848.195	-0.18
848.364	-0.02
848.533	-0.51
848.701	-0.2
848.87	-0.02
849.039	2.19
849.207	1.52
849.376	0.84
849.545	1.09
849.713	-0.3
849.882	0.07
850.051	0.33
850.219	1.26
850.388	0.79
850.556	-0.1
850.725	-0.39
850.893	-0.66
851.062	0.16
851.23	0.19
851.399	-0.28
851.567	-0.61
851.736	0.29
851.904	-1.17
852.073	0.55
852.241	0.82
852.41	0.21
852.578	-0.25
852.746	-0.91
852.915	0.15
853.083	0.1
853.251	-0.27
853.42	-0.58
853.588	0.04
853.756	1.31
853.924	0.73
854.093	-0.09
854.261	0.21
854.429	-1.58
854.597	-0.08
854.765	-0.32
854.934	0.88
855.102	0.96
855.27	0.29
855.438	1.12
855.606	0.69
855.774	1.06
855.942	-0.46
856.11	-1.29
856.278	0.19
856.446	1.13
856.614	-1.01
856.782	0.16
856.95	1.28
857.118	1.28
857.286	0.32
857.454	0.54
857.622	2.29
857.79	-0.1
857.958	-0.66
858.126	0.19
858.294	-2.76
858.462	0.27
858.629	-1.35
858.797	-0.57
858.965	0.58
859.133	-0.93
859.301	-0.86
859.468	1.49
859.636	-0.37
859.804	0.57
859.971	0.8
860.139	-1.23
860.307	1.04
860.474	0.64
860.642	-0.85
860.81	-0.37
860.977	0.2
861.145	0.38
861.313	0.17
861.48	0.68
861.648	0.39
861.815	-0.42
861.983	-0.53
862.15	-1.16
862.318	0.58
862.485	1.61
862.653	-1.43
862.82	-0.6
862.988	2.22
863.155	0.53
863.322	-0.9
863.49	-1.88
863.657	-1.07
863.824	0.48
863.992	0.15
864.159	1.28
864.326	1.92
864.494	-1.63
864.661	3.38
864.828	-1.43
864.996	0.1
865.163	2.11
865.33	-0.78
865.497	-1.89
865.664	-0.66
865.832	-1.58
865.999	-0.1
866.166	-0.93
866.333	-0.26
866.5	0.37
866.667	0.33
866.834	-0.27
867.001	0.79
867.168	-1.53
867.335	1.14
867.502	-2.98
867.669	-0.11
867.836	2.22
868.003	0.19
868.17	1.01
868.337	0.79
868.504	2.54
868.671	-2.24
868.838	-0.49
869.005	-0.79
869.172	0.84
869.339	0.08
869.505	-0.24
869.672	1.33
869.839	1.26
870.006	0.89
870.173	-1.53
870.339	-0.54
870.506	2.49
870.673	0.87
870.84	1.92
871.006	-0.07
871.173	-0.85
871.34	1.64
871.506	-2.25
871.673	-1.32
871.839	-1.86
872.006	1.27
872.173	-0.71
872.339	-0.32
872.506	1.26
872.672	-0.05
872.839	-1.25
873.005	0.2
873.172	1.98
873.338	2.45
873.505	-0.87
873.671	0.86
873.838	0.37
874.004	-1.21
874.171	-0.48
874.337	1.8
874.503	0.19
874.67	-1.57
874.836	0.05
875.002	1.86
875.169	1.3
875.335	0.43
875.501	-1.55
875.668	1.46
875.834	-0.38
876	-0.5
876.166	1.27
876.332	2.24
876.499	4.02
876.665	0.41
876.831	-0.06
876.997	3.09
877.163	0.68
877.329	0.78
877.495	-0
877.662	1.94
877.828	-0.11
877.994	-0.33
878.16	-1.87
878.326	-1.81
878.492	1.5
878.658	-0.82
878.824	1.84
878.99	0.68
879.156	-0.06
879.322	3.75
879.487	0.54
879.653	1.32
879.819	0.57
879.985	-2.92
880.151	0.59
880.317	0.28
880.483	1.32
880.648	1.92
880.814	-1.63
880.98	2.23
881.146	-2.14
881.312	-0.49
881.477	0.52
881.643	0.5
881.809	1.73
881.974	0.77
882.14	-2.41
882.306	0.75
882.471	3.91
882.637	-0.66
882.803	2.39
882.968	2.82
883.134	3.79
883.299	-0.4
883.465	-0.77
883.63	3.3
883.796	0.41
883.961	1.03
884.127	1.21
884.292	-4.27
884.458	-2.46
884.623	-2.46
