Data from Apollo_Calib_20240827__AbsoluteIrradiance__212__02-41-02-980.txt Node

Date: Wed Aug 28 02:41:02 BST 2024
User: biology
Spectrometer: FLMT08252
Trigger mode: 0
Integration Time (sec): 5.000000E-1
Scans to average: 5
Electric dark correction enabled: true
Nonlinearity correction enabled: false
Boxcar width: 0
XAxis mode: Wavelengths
Number of Pixels in Spectrum: 3648
>>>>>Begin Spectral Data<<<<<
179.588	-0
179.809	-0
180.03	-0
180.251	-0
180.473	-0
180.694	0
180.915	0
181.136	-0
181.357	0
181.578	-0
181.799	-0
182.02	-0
182.241	-0
182.462	-0
182.683	0
182.904	0
183.125	-0
183.346	0
183.567	0
183.788	-0
184.009	-0
184.23	0
184.451	0
184.672	-0
184.892	-0
185.113	0
185.334	0
185.555	-0
185.776	-0
185.996	0
186.217	-0
186.438	-0
186.659	-0
186.879	0
187.1	0
187.321	-0
187.541	-0
187.762	-0
187.983	-0
188.203	-0
188.424	-0
188.644	-0
188.865	0
189.086	-0
189.306	-0
189.527	-0
189.747	-0
189.968	-0
190.188	0
190.409	0
190.629	0
190.849	-0
191.07	-0
191.29	0
191.511	-0
191.731	-0
191.951	-0
192.172	-0
192.392	-0
192.612	-0
192.833	-0
193.053	0
193.273	0
193.493	-0
193.714	-0
193.934	0
194.154	0
194.374	-0
194.594	-0
194.815	0
195.035	-0
195.255	-0
195.475	-0
195.695	0
195.915	0
196.135	-0
196.355	0
196.575	0
196.795	0
197.015	-0
197.235	-0
197.455	-0
197.675	0
197.895	-0
198.115	-0
198.335	0
198.555	-0
198.775	0
198.995	0
199.214	0
199.434	-0
199.654	-0
199.874	-0
200.094	0.66
200.313	-0.7
200.533	-0.64
200.753	-1.1
200.973	0.9
201.192	0.23
201.412	-1.05
201.632	-0.8
201.851	1.27
202.071	-0.32
202.291	-0.88
202.51	-0.49
202.73	0.32
202.95	-0.04
203.169	-0.73
203.389	-0.29
203.608	0.14
203.828	-0.62
204.047	-0.41
204.267	0.2
204.486	-0.1
204.706	0.19
204.925	-0.1
205.145	-0.43
205.364	0.62
205.583	0.35
205.803	-0.42
206.022	-0.36
206.242	-0.14
206.461	-0.07
206.68	-0.5
206.9	0.04
207.119	0.41
207.338	0.53
207.557	-0.33
207.777	-0.39
207.996	-0.24
208.215	0.24
208.434	-0.42
208.654	-0.77
208.873	0.01
209.092	0.27
209.311	-0.28
209.53	-0.41
209.749	-0.1
209.968	-0.22
210.187	-0.14
210.407	-0.47
210.626	-0.1
210.845	0.09
211.064	0.01
211.283	-0.36
211.502	0.29
211.721	0.02
211.94	-0.19
212.159	0.17
212.377	0.13
212.596	0.31
212.815	0.04
213.034	0.1
213.253	0.28
213.472	0.18
213.691	-0.36
213.91	-0.2
214.128	-0.26
214.347	0.27
214.566	-0.5
214.785	-0.44
215.003	0
215.222	0.16
215.441	-0.02
215.66	-0.44
215.878	-0.13
216.097	0.04
216.316	-0.15
216.534	-0.19
216.753	-0.09
216.972	-0.15
217.19	-0.21
217.409	-0.23
217.627	-0.18
217.846	-0.23
218.064	-0.17
218.283	-0.21
218.501	0.29
218.72	0.17
218.938	-0.21
219.157	-0.17
219.375	0.01
219.594	-0.16
219.812	-0.36
220.031	-0.17
220.249	0.11
220.467	0.39
220.686	-0.02
220.904	-0.25
221.122	-0.2
221.341	0.39
221.559	-0.1
221.777	-0.32
221.995	-0.06
222.214	-0.01
222.432	-0.32
222.65	0.11
222.868	0.03
223.086	0.11
223.305	-0.02
223.523	-0.18
223.741	0.1
223.959	-0.21
224.177	-0.27
224.395	-0.17
224.613	-0.01
224.831	0.17
225.049	-0.27
225.267	-0.19
225.485	-0.05
225.703	-0.03
225.921	-0.1
226.139	-0.21
226.357	0.12
226.575	0.04
226.793	-0.05
227.011	0.6
227.229	-0.01
227.447	0.19
227.665	-0.21
227.883	-0.23
228.1	-0.16
228.318	0.04
228.536	-0.27
228.754	-0.22
228.972	0.1
229.189	0.22
229.407	-0.15
229.625	-0.21
229.843	0.1
230.06	0.07
230.278	-0.18
230.496	-0.04
230.713	-0
230.931	0.21
231.149	-0.22
231.366	-0.35
231.584	-0.15
231.801	0.37
232.019	-0.01
232.236	-0.2
232.454	-0.16
232.671	0.06
232.889	-0.08
233.106	-0.27
233.324	-0.06
233.541	-0.12
233.759	-0.05
233.976	-0.17
234.194	-0.14
234.411	-0.07
234.628	-0.29
234.846	-0.14
235.063	-0.03
235.28	-0.03
235.498	-0.08
235.715	-0.23
235.932	0.06
236.149	-0.08
236.367	-0.13
236.584	-0.01
236.801	-0.05
237.018	0.08
237.236	0.08
237.453	-0.23
237.67	0.2
237.887	-0.11
238.104	-0.08
238.321	-0.14
238.538	-0.17
238.755	0.15
238.973	-0.14
239.19	-0.03
239.407	-0.03
239.624	0.02
239.841	-0.21
240.058	-0.13
240.275	0.06
240.492	-0.09
240.709	-0.12
240.925	-0.08
241.142	-0.02
241.359	-0.14
241.576	-0.11
241.793	-0.13
242.01	-0.02
242.227	0.02
242.444	0.01
242.66	-0.02
242.877	-0.02
243.094	-0.04
243.311	0.01
243.527	-0.09
243.744	0.01
243.961	0.01
244.178	-0.19
244.394	-0.03
244.611	0.1
244.828	0.07
245.044	-0.08
245.261	-0.02
245.477	-0.07
245.694	-0.03
245.911	-0.15
246.127	-0.04
246.344	0.1
246.56	0.02
246.777	-0.1
246.993	-0.02
247.21	0.02
247.426	0.06
247.643	-0.09
247.859	-0.1
248.076	-0.11
248.292	0.16
248.508	-0.09
248.725	-0.04
248.941	0.06
249.157	0.15
249.374	-0.09
249.59	-0.1
249.806	-0.03
250.023	0.14
250.239	-0.12
250.455	-0.16
250.671	-0.05
250.888	0.04
251.104	0.02
251.32	-0.05
251.536	-0.07
251.752	-0.02
251.969	-0.05
252.185	0.01
252.401	0.11
252.617	0.02
252.833	-0.04
253.049	-0.06
253.265	-0.02
253.481	-0.01
253.697	-0.04
253.913	-0.13
254.129	0.05
254.345	0.09
254.561	-0.04
254.777	-0.02
254.993	0.02
255.209	-0.05
255.425	-0.02
255.641	-0.06
255.857	0.02
256.073	-0.01
256.288	-0.08
256.504	-0.08
256.72	0.01
256.936	0.11
257.152	-0.12
257.367	-0.12
257.583	-0.02
257.799	0.01
258.015	-0.12
258.23	-0.05
258.446	0.03
258.662	-0.09
258.877	-0.07
259.093	-0.1
259.309	-0.08
259.524	0.06
259.74	-0.04
259.955	-0.14
260.171	0.04
260.387	-0.06
260.602	0.07
260.818	0.03
261.033	-0.13
261.249	-0.09
261.464	-0.08
261.68	-0.16
261.895	0.07
262.11	0.03
262.326	-0.07
262.541	-0.12
262.757	0.07
262.972	-0.04
263.187	0.02
263.403	-0.04
263.618	0.04
263.833	-0.05
264.049	-0.1
264.264	0
264.479	0.07
264.694	0.07
264.91	-0.12
265.125	-0.08
265.34	-0
265.555	0.21
265.77	0.03
265.986	-0.06
266.201	0.02
266.416	0.06
266.631	-0.08
266.846	-0.04
267.061	0.04
267.276	-0
267.491	-0.12
267.706	-0.02
267.921	0.05
268.136	0.04
268.351	-0.01
268.566	-0.14
268.781	0.07
268.996	0.09
269.211	-0.04
269.426	-0.07
269.641	-0.1
269.856	0.02
270.071	-0.1
270.285	-0.2
270.5	0.02
270.715	0.03
270.93	0.01
271.145	0.01
271.359	0.07
271.574	-0.04
271.789	-0.03
272.004	-0.07
272.218	-0.06
272.433	-0.01
272.648	-0.07
272.862	0.06
273.077	-0.09
273.292	-0.03
273.506	-0.09
273.721	-0.08
273.936	0
274.15	0
274.365	-0.02
274.579	-0.06
274.794	0.01
275.008	0.07
275.223	-0.1
275.437	-0.01
275.652	-0.02
275.866	0.03
276.081	-0.04
276.295	0.05
276.509	0.01
276.724	-0.03
276.938	0.01
277.153	0.03
277.367	0.05
277.581	-0.1
277.796	-0.04
278.01	-0.1
278.224	0.03
278.438	0.07
278.653	-0.06
278.867	-0.08
279.081	0
279.295	-0.03
279.51	0.02
279.724	-0.12
279.938	0.03
280.152	0.02
280.366	-0.08
280.58	0.02
280.794	0.09
281.008	0.02
281.222	0.09
281.437	0.16
281.651	0.02
281.865	0.1
282.079	-0.06
282.293	-0.15
282.507	-0.07
282.721	-0.02
282.935	-0.06
283.148	-0.07
283.362	-0.03
283.576	-0.05
283.79	-0.03
284.004	-0.08
284.218	0.06
284.432	-0.05
284.646	0.01
284.859	-0.02
285.073	-0.02
285.287	0.03
285.501	-0.04
285.714	-0.03
285.928	-0.02
286.142	-0.01
286.356	-0.07
286.569	-0.05
286.783	0.07
286.997	0.05
287.21	-0
287.424	-0.01
287.637	-0.03
287.851	-0.01
288.065	0.02
288.278	-0.05
288.492	0.03
288.705	-0.01
288.919	0.05
289.132	-0.09
289.346	0.03
289.559	-0.09
289.773	-0.05
289.986	-0.03
290.2	-0.05
290.413	0.09
290.626	-0.07
290.84	-0.05
291.053	-0.13
291.267	0.11
291.48	-0.02
291.693	-0.02
291.906	-0.02
292.12	-0.04
292.333	-0.04
292.546	-0.07
292.76	0.04
292.973	0.01
293.186	0.05
293.399	-0.03
293.612	0.03
293.826	0.04
294.039	-0
294.252	-0.02
294.465	0.05
294.678	0.01
294.891	-0.02
295.104	-0.08
295.317	0
295.53	0.04
295.743	-0.02
295.956	-0.01
296.169	0.04
296.382	0.02
296.595	-0
296.808	-0.01
297.021	0.09
297.234	0.04
297.447	0.01
297.66	0.04
297.873	-0.01
298.086	0.03
298.299	-0.07
298.511	-0.09
298.724	0.01
298.937	-0.04
299.15	-0.05
299.363	-0.04
299.575	0.05
299.788	0.02
300.001	-0.01
300.213	-0.08
300.426	-0
300.639	0
300.852	-0.05
301.064	0.03
301.277	0.07
301.489	0.06
301.702	0.04
301.915	0.03
302.127	-0.01
302.34	0.02
302.552	0.02
302.765	-0
302.977	0.1
303.19	-0.02
303.402	-0.05
303.615	-0.05
303.827	-0
304.04	-0.03
304.252	-0
304.464	-0.01
304.677	0.11
304.889	0.02
305.102	-0.08
305.314	-0.08
305.526	0.06
305.739	0
305.951	-0.05
306.163	0
306.375	0.07
306.588	-0.04
306.8	-0.04
307.012	-0.06
307.224	0.01
307.436	0.15
307.649	-0.09
307.861	-0
308.073	0.01
308.285	-0.01
308.497	-0.06
308.709	-0.01
308.921	0.02
309.133	0.02
309.346	-0.06
309.558	-0.01
309.77	0.06
309.982	0.06
310.194	0.03
310.406	-0
310.617	0.08
310.829	-0.05
311.041	0
311.253	-0.05
311.465	-0.01
311.677	-0.01
311.889	0.05
312.101	-0.04
312.313	0.04
312.524	0.06
312.736	-0.03
312.948	-0.01
313.16	0.09
313.372	0.02
313.583	0.02
313.795	-0.05
314.007	-0.02
314.218	0.02
314.43	0
314.642	-0.04
314.853	-0.09
315.065	0.04
315.277	-0.05
315.488	0.01
315.7	0.04
315.912	0.05
316.123	-0.01
316.335	-0.02
316.546	0.1
316.758	-0.04
316.969	-0.04
317.181	0.02
317.392	-0.02
317.604	0.04
317.815	-0.1
318.026	-0.05
318.238	-0.03
318.449	-0.01
318.661	-0.07
318.872	-0.06
319.083	-0.08
319.295	0.05
319.506	-0.03
319.717	-0.02
319.929	0.03
320.14	0.01
320.351	-0
320.562	-0.03
320.774	0.02
320.985	-0.01
321.196	-0.04
321.407	-0.11
321.618	0
321.829	0.01
322.041	0.04
322.252	0.01
322.463	0.03
322.674	0.01
322.885	-0.07
323.096	-0.04
323.307	-0.04
323.518	-0
323.729	-0.04
323.94	-0.07
324.151	-0.01
324.362	0.01
324.573	-0.01
324.784	-0.05
324.995	0.08
325.206	-0.02
325.417	-0.02
325.628	-0.03
325.838	0.02
326.049	0.01
326.26	0.03
326.471	-0.03
326.682	0.01
326.892	0
327.103	-0.07
327.314	-0.06
327.525	0.06
327.735	-0
327.946	-0.06
328.157	-0.04
328.368	-0
328.578	-0.04
328.789	-0
328.999	0.02
329.21	-0.06
329.421	0.03
329.631	-0.05
329.842	-0.04
330.052	0
330.263	0.02
330.473	0.07
330.684	-0.03
330.894	-0.03
331.105	-0.01
331.315	-0
331.526	-0.11
331.736	0.09
331.947	0.02
332.157	0.01
332.367	-0.09
332.578	0.02
332.788	0.04
332.999	0
333.209	-0.02
333.419	-0.05
333.629	0
333.84	0.04
334.05	0
334.26	0.05
334.47	0.01
334.681	0.06
334.891	-0.03
335.101	0.07
335.311	0.05
335.521	-0.01
335.732	-0.06
335.942	0.06
336.152	0.02
336.362	0
336.572	0
336.782	0.06
336.992	-0.02
337.202	0
337.412	-0.04
337.622	0.01
337.832	-0.02
338.042	-0.03
338.252	-0.02
338.462	-0.02
338.672	0.04
338.882	-0.02
339.092	-0.03
339.302	0.05
339.511	-0.02
339.721	-0.05
339.931	-0.05
340.141	0.04
340.351	0.07
340.561	0.02
340.77	-0.02
340.98	0.02
341.19	-0
341.4	-0.03
341.609	-0.07
341.819	-0.05
342.029	-0.06
342.238	-0.01
342.448	-0.07
342.658	0.01
342.867	-0.01
343.077	-0.04
343.286	0.02
343.496	0.04
343.706	0.08
343.915	-0.03
344.125	-0
344.334	0.02
344.544	-0.08
344.753	-0.06
344.963	-0.05
345.172	-0.05
345.381	-0.03
345.591	-0.05
345.8	0.02
346.01	0.04
346.219	0.08
346.428	-0.12
346.638	-0.02
346.847	0.02
347.056	0.05
347.266	-0.03
347.475	0.01
347.684	0.04
347.893	-0
348.103	0.03
348.312	-0.04
348.521	-0.04
348.73	-0.02
348.94	0.03
349.149	-0.04
349.358	0.01
349.567	-0.03
349.776	-0.1
349.985	-0.06
350.194	0.03
350.403	0.05
350.612	-0.1
350.821	-0.05
351.03	0.02
351.239	-0.08
351.448	0.04
351.657	-0.04
351.866	0.08
352.075	-0.01
352.284	-0.03
352.493	-0.08
352.702	0.02
352.911	0.02
353.12	-0.01
353.329	-0
353.538	0.03
353.746	0.03
353.955	-0.01
354.164	0.02
354.373	0
354.582	0.06
354.79	0
354.999	0.01
355.208	-0.03
355.416	0.08
355.625	-0.04
355.834	-0.03
356.042	0.02
356.251	-0.05
356.46	-0.02
356.668	0
356.877	0.11
357.085	0.03
357.294	-0.01
357.503	0.03
357.711	-0.01
357.92	0.13
358.128	0.03
358.337	-0.02
358.545	0.01
358.754	-0.03
358.962	0.02
359.17	-0.02
359.379	0.03
359.587	0.02
359.796	0.01
360.004	0.05
360.212	0.02
360.421	0.05
360.629	-0.05
360.837	-0.03
361.046	0.03
361.254	0.12
361.462	-0.02
361.67	-0.03
361.879	0.02
362.087	0.03
362.295	0.03
362.503	-0.03
362.711	-0.03
362.92	-0.05
363.128	-0.05
363.336	-0.04
363.544	0
363.752	-0.02
363.96	-0.03
364.168	-0.02
364.376	0.01
364.584	0
364.792	0.03
365	0.03
365.208	0.01
365.416	0
365.624	0.04
365.832	-0.04
366.04	0.06
366.248	0.02
366.456	0.03
366.664	0.03
366.872	-0.03
367.079	-0.05
367.287	-0.01
367.495	-0.01
367.703	0
367.911	-0.06
368.118	-0.03
368.326	-0.02
368.534	-0.05
368.742	0.03
368.949	-0.05
369.157	-0.01
369.365	0.04
369.572	-0.01
369.78	-0.03
369.988	-0.01
370.195	-0.01
370.403	-0.01
370.61	-0.01
370.818	0.01
371.026	0.05
371.233	-0.04
371.441	-0
371.648	-0.02
371.856	0
372.063	0.01
372.271	-0.04
372.478	-0.06
372.685	-0.03
372.893	0.01
373.1	-0.03
373.308	-0.06
373.515	0.05
373.722	0.03
373.93	-0.04
374.137	0.01
374.344	0.07
374.552	0.02
374.759	0.02
374.966	-0
375.173	-0.01
375.381	0.04
375.588	-0.03
375.795	-0.08
376.002	-0.02
376.209	-0.03
376.417	-0.02
376.624	-0.01
376.831	-0.02
377.038	-0.02
377.245	-0.07
377.452	-0.03
377.659	-0.02
377.866	-0.05
378.073	-0.03
378.28	-0.03
378.487	0.03
378.694	0.02
378.901	-0.03
379.108	0.01
379.315	0.03
379.522	0.1
379.729	0
379.936	-0.01
380.143	0.03
380.35	0.01
380.557	0.01
380.763	-0.04
380.97	-0.01
381.177	0.03
381.384	0
381.591	-0.04
381.797	0.04
382.004	0.01
382.211	0.05
382.418	-0.01
382.624	0.01
382.831	0.02
383.038	-0.04
383.244	0.03
383.451	-0
383.658	0.02
383.864	-0.04
384.071	-0.05
384.277	0.07
384.484	-0.09
384.69	0.01
384.897	-0.03
385.103	-0.01
385.31	0.01
385.516	-0.01
385.723	-0.04
385.929	-0.03
386.136	-0.03
386.342	0.03
386.549	-0.03
386.755	0.07
386.961	0.03
387.168	-0.03
387.374	-0
387.58	0.01
387.787	-0
387.993	-0
388.199	-0.03
388.406	-0.04
388.612	-0.04
388.818	-0.04
389.024	-0.04
389.231	-0.01
389.437	0.06
389.643	0.02
389.849	-0.03
390.055	0.01
390.261	-0.02
390.467	0
390.674	-0.06
390.88	-0.06
391.086	0.06
391.292	-0.06
391.498	0.01
391.704	0.01
391.91	-0.02
392.116	-0.04
392.322	-0.1
392.528	-0.03
392.734	-0
392.94	0.01
393.146	-0.04
393.352	0.03
393.557	-0.05
393.763	-0.02
393.969	0.01
394.175	-0.01
394.381	0
394.587	-0.09
394.792	0
394.998	0.03
395.204	0.08
395.41	-0.04
395.615	0.01
395.821	-0
396.027	0.01
396.233	-0.07
396.438	0.03
396.644	0.06
396.85	-0.02
397.055	-0
397.261	0.01
397.466	0.08
397.672	-0.03
397.878	0.04
398.083	0.04
398.289	-0.06
398.494	0.02
398.7	0
398.905	-0.11
399.111	0.05
399.316	-0.08
399.522	0.02
399.727	-0.05
399.932	-0.02
400.138	-0.04
400.343	0.04
400.549	-0.01
400.754	-0.02
400.959	0.05
401.165	-0.01
401.37	-0.01
401.575	-0.08
401.78	-0.03
401.986	-0.03
402.191	-0.03
402.396	-0
402.601	0.02
402.807	-0.03
403.012	-0.01
403.217	0.02
403.422	-0.02
403.627	0.02
403.832	-0.06
404.037	0.02
404.243	0.04
404.448	-0.07
404.653	-0.01
404.858	-0.01
405.063	0.05
405.268	-0.07
405.473	-0.08
405.678	-0.09
405.883	0.12
406.088	0.04
406.293	-0.06
406.498	-0.03
406.703	0.03
406.907	-0.01
407.112	-0.03
407.317	-0.02
407.522	0.04
407.727	-0.09
407.932	0.03
408.136	0.08
408.341	-0.05
408.546	0.04
408.751	0.01
408.956	-0.04
409.16	0.03
409.365	-0
409.57	-0.08
409.774	-0.01
409.979	0.05
410.184	0.02
410.388	-0.07
410.593	0.04
410.798	0.01
411.002	-0.02
411.207	0.02
411.411	-0.01
411.616	-0.04
411.82	-0.01
412.025	-0.02
412.229	-0.05
412.434	0.04
412.638	0.01
412.843	-0.02
413.047	0
413.252	-0.04
413.456	-0.02
413.66	0.04
413.865	-0.03
414.069	0.07
414.273	-0.05
414.478	-0.01
414.682	-0.05
414.886	-0.01
415.091	-0.07
415.295	-0.08
415.499	0
415.703	0
415.908	0.02
416.112	-0.08
416.316	0.02
416.52	-0.02
416.724	-0.07
416.929	-0.08
417.133	0.12
417.337	-0.04
417.541	-0.08
417.745	-0.08
417.949	0
418.153	0.01
418.357	-0.09
418.561	0.07
418.765	0.01
418.969	0.06
419.173	0
419.377	-0.05
419.581	0.1
419.785	-0.04
419.989	-0.08
420.193	-0.04
420.397	-0.01
420.601	0.04
420.804	0.01
421.008	-0.01
421.212	0.02
421.416	-0
421.62	-0.03
421.823	-0.02
422.027	0.07
422.231	0.02
422.435	-0.06
422.638	-0.04
422.842	-0
423.046	-0.05
423.249	0.03
423.453	0
423.657	0.02
423.86	-0.03
424.064	-0
424.268	0.05
424.471	-0.02
424.675	0.09
424.878	0.04
425.082	-0.01
425.285	0.06
425.489	-0.03
425.692	0.02
425.896	-0.08
426.099	0.03
426.303	-0.04
426.506	-0.11
426.71	-0.02
426.913	0.06
427.116	0.03
427.32	0.01
427.523	-0.01
427.726	0.07
427.93	-0.09
428.133	-0.01
428.336	-0.05
428.54	-0.09
428.743	-0.01
428.946	-0.04
429.149	-0.06
429.353	-0
429.556	-0.05
429.759	-0.01
429.962	-0.09
430.165	-0.01
430.368	-0.06
430.571	-0.03
430.775	-0.03
430.978	-0.05
431.181	0.06
431.384	-0.03
431.587	-0.03
431.79	-0.04
431.993	-0.1
432.196	-0.04
432.399	-0.04
432.602	0.06
432.805	-0.08
433.008	-0.02
433.211	-0.07
433.414	0
433.616	0.03
433.819	-0
434.022	-0.14
434.225	0.01
434.428	0.03
434.631	0.1
434.833	-0.05
435.036	-0.04
435.239	0
435.442	0.01
435.645	-0.06
435.847	-0.02
436.05	0.02
436.253	-0.01
436.455	-0.08
436.658	-0
436.861	0.06
437.063	-0.03
437.266	-0.01
437.468	0.02
437.671	0.1
437.874	-0.04
438.076	-0.06
438.279	-0.04
438.481	-0.01
438.684	-0.06
438.886	0.02
439.089	-0.11
439.291	0.02
439.494	0.04
439.696	-0.04
439.899	-0.03
440.101	0
440.303	-0.13
440.506	0.04
440.708	-0
440.91	0.08
441.113	-0.04
441.315	0.02
441.517	-0.09
441.72	0.06
441.922	-0.09
442.124	-0.06
442.326	0.06
442.529	0.04
442.731	-0.03
442.933	0.03
443.135	-0.05
443.337	0
443.539	-0.04
443.742	-0.02
443.944	0.03
444.146	-0.06
444.348	-0.05
444.55	-0.03
444.752	0.02
444.954	-0.03
445.156	-0.03
445.358	-0.02
445.56	0.06
445.762	-0.05
445.964	-0.06
446.166	-0.04
446.368	-0.02
446.57	0.03
446.772	-0.1
446.974	-0.02
447.175	-0.04
447.377	-0.04
447.579	-0.01
447.781	-0.13
447.983	0.02
448.184	0.02
448.386	-0
448.588	-0.07
448.79	-0.03
448.991	-0.02
449.193	-0.02
449.395	-0.05
449.597	0.01
449.798	0.03
450	0.01
450.202	-0
450.403	-0.02
450.605	0.02
450.806	-0.03
451.008	-0.1
451.21	-0.04
451.411	-0.03
451.613	-0
451.814	-0.02
452.016	-0.01
452.217	-0.04
452.419	-0.01
452.62	-0.04
452.821	0.02
453.023	0.1
453.224	0.01
453.426	0.01
453.627	-0.02
453.828	0.02
454.03	0
454.231	0.02
454.432	-0.03
454.634	0.07
454.835	-0.1
455.036	-0.06
455.238	0.03
455.439	0.11
455.64	-0.08
455.841	-0.09
456.042	0.11
456.244	0.02
456.445	-0.04
456.646	-0.1
456.847	-0.06
457.048	0.02
457.249	-0.01
457.45	0.21
457.651	-0.06
457.852	0.05
458.054	-0.02
458.255	-0.04
458.456	0.02
458.657	0.02
458.858	-0.09
459.058	-0.01
459.259	-0.01
459.46	-0.02
459.661	-0.02
459.862	0.13
460.063	-0.05
460.264	-0
460.465	-0.07
460.666	0.09
460.866	-0.03
461.067	0.03
461.268	-0.02
461.469	-0.04
461.67	-0.01
461.87	-0.01
462.071	-0.05
462.272	-0.05
462.473	0.04
462.673	0.03
462.874	-0.09
463.075	-0.06
463.275	-0.04
463.476	-0.01
463.676	0.01
463.877	-0
464.078	-0.01
464.278	0.06
464.479	-0.04
464.679	-0.02
464.88	-0.01
465.08	0.05
465.281	-0.03
465.481	-0.02
465.682	0.01
465.882	0.04
466.083	0.01
466.283	-0.01
466.483	0.02
466.684	-0.06
466.884	-0.02
467.085	-0.01
467.285	0
467.485	-0.04
467.686	0.02
467.886	-0.09
468.086	-0.04
468.286	0
468.487	0.04
468.687	-0.07
468.887	-0.02
469.087	0.03
469.287	-0.03
469.488	-0.08
469.688	0.03
469.888	-0.01
470.088	0.03
470.288	0.01
470.488	0.06
470.688	-0.04
470.888	-0.08
471.088	-0.04
471.288	0.04
471.488	0.02
471.688	-0.01
471.888	-0.04
472.088	0.08
472.288	0.04
472.488	-0.05
472.688	-0.04
472.888	-0.01
473.088	-0.04
473.288	0
473.488	0.01
473.688	0.09
473.887	0.01
474.087	-0.05
474.287	0.03
474.487	-0.03
474.687	0.04
474.886	-0.02
475.086	-0.01
475.286	0.01
475.486	0.05
475.685	-0.01
475.885	-0.03
476.085	0.02
476.284	0.02
476.484	-0.03
476.684	0.03
476.883	0.05
477.083	0
477.282	-0.04
477.482	0.06
477.681	0.03
477.881	0.01
478.08	-0.06
478.28	-0.04
478.479	0.03
478.679	0.05
478.878	-0.04
479.078	-0.02
479.277	-0.04
479.477	-0.03
479.676	0.01
479.875	-0
480.075	-0.09
480.274	0
480.473	0.03
480.673	-0.07
480.872	0.02
481.071	-0.01
481.271	-0
481.47	-0.03
481.669	-0.01
481.868	-0.03
482.067	-0.03
482.267	-0.05
482.466	-0.05
482.665	-0.03
482.864	-0.07
483.063	-0.05
483.262	0.01
483.461	0.03
483.661	0.04
483.86	-0.03
484.059	-0.02
484.258	-0.01
484.457	-0
484.656	-0.02
484.855	0.02
485.054	-0.05
485.253	-0.03
485.452	-0.03
485.651	-0.01
485.849	0
486.048	-0.02
486.247	-0.06
486.446	0.01
486.645	-0.03
486.844	-0.04
487.043	-0.01
487.241	0.03
487.44	-0.05
487.639	-0.02
487.838	0
488.037	0.01
488.235	0.05
488.434	0.01
488.633	-0.03
488.831	-0.02
489.03	0.02
489.229	0
489.427	-0.02
489.626	0.01
489.825	0.06
490.023	-0.01
490.222	-0.04
490.42	-0
490.619	0.02
490.817	0
491.016	-0.02
491.214	0.02
491.413	-0.02
491.611	-0.01
491.81	0
492.008	0.02
492.207	-0.01
492.405	-0
492.604	-0.06
492.802	-0.03
493	0.01
493.199	-0.02
493.397	0
493.595	-0
493.794	-0.02
493.992	0.03
494.19	-0.03
494.388	0.01
494.587	-0.01
494.785	-0.02
494.983	-0.04
495.181	0.01
495.379	0.01
495.578	-0.03
495.776	0.01
495.974	0.01
496.172	0
496.37	-0.02
496.568	-0.03
496.766	-0.03
496.964	0.03
497.162	0
497.36	-0.04
497.558	0
497.756	0.02
497.954	-0.05
498.152	-0.03
498.35	-0.02
498.548	-0.01
498.746	-0.01
498.944	-0.03
499.142	-0.02
499.34	-0.04
499.538	-0.03
499.736	-0.04
499.933	0.05
500.131	0.04
500.329	-0.01
500.527	0.02
500.725	0.02
500.922	0.02
501.12	-0.01
501.318	-0.01
501.516	-0.03
501.713	-0.01
501.911	-0.02
502.109	-0.02
502.306	-0.01
502.504	-0.03
502.701	-0.03
502.899	-0.02
503.097	0.02
503.294	-0
503.492	-0.03
503.689	0
503.887	0.03
504.084	0.03
504.282	0.01
504.479	-0.03
504.677	-0
504.874	-0.01
505.072	-0.02
505.269	-0.01
505.466	0.01
505.664	0
505.861	-0.03
506.059	-0.04
506.256	0.01
506.453	-0.02
506.651	0.04
506.848	0
507.045	0.01
507.242	0.02
507.44	-0.01
507.637	-0.01
507.834	-0.03
508.031	0.01
508.229	-0.04
508.426	-0.01
508.623	0.02
508.82	-0.04
509.017	-0.02
509.214	-0
509.411	-0.01
509.608	-0.03
509.805	-0.01
510.003	-0.04
510.2	-0.02
510.397	0.04
510.594	-0.03
510.791	-0.03
510.988	-0.02
511.184	0.01
511.381	0.01
511.578	-0.03
511.775	0.03
511.972	-0.03
512.169	-0.02
512.366	-0.01
512.563	0
512.76	-0.02
512.956	0
513.153	-0.03
513.35	-0.01
513.547	-0.01
513.744	-0.01
513.94	-0.04
514.137	-0
514.334	0.03
514.53	-0.01
514.727	-0.01
514.924	0.04
515.12	-0.02
515.317	-0.04
515.514	-0.02
515.71	-0.01
515.907	-0.01
516.103	0
516.3	-0.01
516.497	0.06
516.693	0.01
516.89	-0.01
517.086	-0.03
517.283	0.04
517.479	0
517.676	-0
517.872	-0
518.068	-0.01
518.265	-0
518.461	-0.05
518.658	-0.03
518.854	0.02
519.05	-0.01
519.247	-0.02
519.443	0.02
519.639	0
519.836	-0
520.032	-0.01
520.228	-0.01
520.424	0.04
520.621	-0.01
520.817	-0
521.013	0
521.209	-0.01
521.405	0.04
521.601	-0.01
521.798	0.01
521.994	0.04
522.19	-0.03
522.386	-0.01
522.582	-0.02
522.778	-0.01
522.974	-0.01
523.17	-0.01
523.366	0.02
523.562	0.03
523.758	0
523.954	-0.04
524.15	-0.03
524.346	0
524.542	-0.02
524.738	-0.02
524.934	-0
525.129	-0.01
525.325	-0.02
525.521	-0.01
525.717	0.01
525.913	-0
526.109	0.01
526.304	-0.01
526.5	0
526.696	0.02
526.892	-0
527.087	0.01
527.283	-0.02
527.479	0.01
527.674	-0.02
527.87	-0.01
528.066	-0.01
528.261	0
528.457	-0
528.653	-0.02
528.848	-0.03
529.044	0.01
529.239	0.01
529.435	0.02
529.63	0.01
529.826	0.03
530.021	0
530.217	0.02
530.412	-0.02
530.608	-0.02
530.803	0
530.999	-0.01
531.194	-0.03
531.389	0.01
531.585	-0.05
531.78	-0
531.975	-0.01
532.171	0
532.366	0
532.561	0
532.757	-0.01
532.952	-0.02
533.147	-0
533.342	-0.01
533.538	-0
533.733	0.03
533.928	-0.01
534.123	-0.04
534.318	-0.04
534.513	-0.01
534.709	-0.03
534.904	-0.02
535.099	-0.03
535.294	-0.02
535.489	-0.01
535.684	0
535.879	-0.04
536.074	0.01
536.269	-0.03
536.464	0
536.659	-0.01
536.854	-0
537.049	0.03
537.244	-0
537.439	-0
537.634	0.03
537.828	0.02
538.023	0
538.218	-0.04
538.413	-0.01
538.608	-0.01
538.803	-0.01
538.997	-0.05
539.192	0.03
539.387	0.02
539.582	-0.01
539.776	0
539.971	-0.04
540.166	0.01
540.36	-0.04
540.555	-0.01
540.75	-0.01
540.944	0.01
541.139	-0.04
541.334	0
541.528	-0.01
541.723	0.02
541.917	-0.02
542.112	-0.04
542.306	-0.02
542.501	-0.01
542.695	0
542.89	-0.02
543.084	-0
543.279	-0.03
543.473	-0.03
543.668	-0.02
543.862	-0.03
544.056	0.01
544.251	-0.01
544.445	0
544.64	-0.02
544.834	-0.04
545.028	-0.01
545.222	-0.02
545.417	0.01
545.611	0.01
545.805	-0.02
546	-0.01
546.194	-0.01
546.388	-0.04
546.582	0.02
546.776	0
546.97	-0.01
547.165	0.01
547.359	0.01
547.553	-0.03
547.747	-0.02
547.941	0
548.135	0
548.329	0.03
548.523	0.02
548.717	-0.01
548.911	-0.01
549.105	-0.02
549.299	-0.01
549.493	0.03
549.687	0.01
549.881	-0.01
550.075	0
550.269	-0.04
550.463	0.01
550.657	-0.02
550.85	-0.01
551.044	-0.03
551.238	0.01
551.432	-0.04
551.626	-0.04
551.82	0.01
552.013	-0.02
552.207	0.01
552.401	0
552.594	0.02
552.788	-0.01
552.982	0.01
553.176	-0.02
553.369	0.03
553.563	0.01
553.756	-0.05
553.95	-0.02
554.144	-0.02
554.337	0.01
554.531	0.01
554.724	-0.01
554.918	-0.03
555.111	0.03
555.305	-0
555.498	0.05
555.692	0.01
555.885	-0.03
556.079	0.01
556.272	-0.02
556.466	0
556.659	-0.01
556.852	-0.01
557.046	-0.02
557.239	0.03
557.432	-0.06
557.626	-0.01
557.819	-0.01
558.012	0.02
558.206	0
558.399	0
558.592	0.01
558.785	-0.02
558.979	0.01
559.172	-0
559.365	0.02
559.558	0.02
559.751	0.02
559.944	0.01
560.138	-0.03
560.331	0
560.524	-0.04
560.717	-0
560.91	-0.01
561.103	0.01
561.296	0
561.489	0.02
561.682	-0
561.875	0.03
562.068	0.01
562.261	0.01
562.454	0.03
562.647	0.01
562.84	0
563.032	-0.02
563.225	0.01
563.418	-0.02
563.611	-0.04
563.804	-0.04
563.997	-0.03
564.19	-0.02
564.382	-0.01
564.575	-0.01
564.768	-0.01
564.961	-0.01
565.153	-0.01
565.346	0.02
565.539	0
565.731	0.02
565.924	0
566.117	0.02
566.309	0
566.502	-0.01
566.695	0.01
566.887	0.01
567.08	-0.03
567.272	-0.02
567.465	-0.04
567.657	-0.01
567.85	0.01
568.042	0.02
568.235	0.01
568.427	-0.02
568.62	0
568.812	-0.01
569.005	-0.01
569.197	-0.05
569.389	-0.01
569.582	0
569.774	-0
569.966	-0.04
570.159	-0.03
570.351	-0
570.543	-0.04
570.736	0.01
570.928	-0.05
571.12	-0.01
571.312	-0.01
571.505	-0.07
571.697	0.04
571.889	-0.03
572.081	-0.03
572.273	-0.06
572.465	0.04
572.658	-0.01
572.85	0
573.042	-0.01
573.234	-0
573.426	0.03
573.618	-0.06
573.81	0.01
574.002	0.02
574.194	0.05
574.386	-0.05
574.578	-0.07
574.77	-0.03
574.962	0
575.154	-0.04
575.346	-0.02
575.538	-0.02
575.729	-0.02
575.921	-0.02
576.113	-0.02
576.305	0.04
576.497	-0.03
576.689	-0.02
576.88	-0.03
577.072	0.01
577.264	-0.02
577.456	-0.01
577.647	-0.09
577.839	0.02
578.031	0.05
578.223	-0.04
578.414	-0.02
578.606	0
578.798	0.03
578.989	-0.03
579.181	-0.04
579.372	0.01
579.564	-0
579.755	-0.01
579.947	0
580.139	0.03
580.33	-0.06
580.522	-0.02
580.713	-0.06
580.905	-0.02
581.096	-0
581.287	0.01
581.479	-0.02
581.67	0.01
581.862	-0.01
582.053	-0.02
582.244	-0.07
582.436	-0.03
582.627	0.01
582.818	-0.02
583.01	-0.04
583.201	0.02
583.392	0.02
583.583	-0.01
583.775	-0.03
583.966	-0.03
584.157	-0.02
584.348	-0.03
584.54	-0.06
584.731	0.02
584.922	-0.01
585.113	-0.01
585.304	0.01
585.495	0
585.686	-0.02
585.877	0.03
586.068	-0.01
586.259	0
586.45	0.01
586.641	-0.03
586.832	-0.07
587.023	-0.02
587.214	-0.02
587.405	-0.01
587.596	-0.04
587.787	0.04
587.978	0.02
588.169	-0.05
588.36	-0.04
588.551	0.01
588.742	-0.03
588.932	0.01
589.123	-0.03
589.314	0.03
589.505	-0.01
589.696	0.01
589.886	-0.02
590.077	-0.05
590.268	-0.01
590.458	-0.05
590.649	-0.08
590.84	0.04
591.03	-0.04
591.221	-0.07
591.412	-0.04
591.602	0.01
591.793	0.02
591.984	-0.07
592.174	-0.05
592.365	0.07
592.555	-0.05
592.746	0.01
592.936	0
593.127	0.02
593.317	0.03
593.508	-0.01
593.698	-0.02
593.889	-0
594.079	-0
594.269	-0.02
594.46	-0.01
594.65	-0.02
594.84	-0.01
595.031	-0.03
595.221	-0.04
595.411	-0.07
595.602	0.01
595.792	-0.02
595.982	-0.05
596.172	0.03
596.363	0.01
596.553	-0.02
596.743	-0.02
596.933	0.01
597.123	0.01
597.314	-0.05
597.504	-0.06
597.694	0.03
597.884	-0
598.074	-0.05
598.264	-0.06
598.454	0
598.644	0.01
598.834	0
599.024	-0.08
599.214	-0.04
599.404	0.02
599.594	-0.03
599.784	-0.05
599.974	0.01
600.164	0.01
600.354	-0.05
600.544	-0.04
600.734	-0.01
600.924	0.03
601.114	-0.03
601.303	0.01
601.493	-0.01
601.683	-0.02
601.873	-0.01
602.063	-0.06
602.252	0.02
602.442	-0.08
602.632	-0.04
602.821	-0.05
603.011	0.02
603.201	-0.03
603.39	-0.04
603.58	-0.05
603.77	0.01
603.959	0.04
604.149	0.01
604.339	-0.03
604.528	0.02
604.718	0.01
604.907	-0.03
605.097	-0.02
605.286	-0.05
605.476	0.02
605.665	0.01
605.855	-0.04
606.044	0.04
606.234	0.01
606.423	-0.05
606.612	-0.07
606.802	0.01
606.991	0.01
607.181	-0.01
607.37	-0.06
607.559	-0.01
607.749	-0.06
607.938	-0
608.127	-0.02
608.316	-0.02
608.506	0.02
608.695	-0.02
608.884	-0.03
609.073	0.01
609.263	-0.01
609.452	0
609.641	-0.02
609.83	-0.05
610.019	-0
610.208	-0.03
610.397	-0.03
610.586	-0
610.775	-0.05
610.965	-0
611.154	-0.02
611.343	0.03
611.532	0.02
611.721	-0.04
611.91	-0.05
612.099	0.02
612.287	-0.02
612.476	-0.01
612.665	-0.01
612.854	-0.03
613.043	0.05
613.232	-0.02
613.421	-0.06
613.61	-0.01
613.798	-0.02
613.987	0.05
614.176	-0
614.365	0.01
614.554	-0.01
614.742	0.04
614.931	-0.04
615.12	0.03
615.309	-0.03
615.497	-0.02
615.686	-0.05
615.875	-0.01
616.063	-0.01
616.252	-0.03
616.44	-0.03
616.629	-0
616.818	0.01
617.006	-0.02
617.195	-0.02
617.383	0.02
617.572	-0.04
617.76	-0.03
617.949	-0.01
618.137	0.01
618.326	-0.01
618.514	-0.03
618.703	-0.02
618.891	0.08
619.079	-0.05
619.268	-0.02
619.456	-0.05
619.644	0.04
619.833	-0.03
620.021	-0.04
620.209	-0.06
620.398	-0.01
620.586	-0
620.774	0.02
620.962	-0.02
621.151	0
621.339	-0.02
621.527	-0.03
621.715	-0.06
621.903	-0.02
622.092	-0.05
622.28	-0
622.468	-0.04
622.656	-0.01
622.844	0.01
623.032	-0.03
623.22	-0.09
623.408	0.02
623.596	0.01
623.784	0
623.972	-0.04
624.16	-0.03
624.348	0.05
624.536	-0.02
624.724	0
624.912	0.07
625.1	0.03
625.288	-0.03
625.476	-0.05
625.664	0.01
625.851	-0.04
626.039	-0.03
626.227	0.01
626.415	-0.02
626.603	-0.07
626.79	-0.01
626.978	-0.04
627.166	0
627.354	-0.03
627.541	-0.03
627.729	-0.07
627.917	0.04
628.104	0.02
628.292	-0.01
628.48	0
628.667	0.02
628.855	-0.02
629.042	-0.01
629.23	-0.01
629.418	0
629.605	-0.04
629.793	-0.03
629.98	-0.04
630.168	-0.03
630.355	-0.03
630.543	-0.02
630.73	-0.07
630.917	0.02
631.105	0.03
631.292	-0.03
631.48	-0.04
631.667	0.08
631.854	-0.03
632.042	-0.03
632.229	-0.07
632.416	-0.02
632.604	-0.02
632.791	-0.05
632.978	-0
633.165	0.01
633.353	0.08
633.54	0.02
633.727	-0.07
633.914	-0.03
634.101	-0.04
634.289	0.01
634.476	-0.05
634.663	-0.05
634.85	0.01
635.037	-0.08
635.224	-0.07
635.411	0.04
635.598	0.04
635.785	-0.01
635.972	-0.05
636.159	0.04
636.346	-0.03
636.533	-0.03
636.72	-0.04
636.907	0.01
637.094	0.02
637.281	-0.04
637.468	0.03
637.655	-0.02
637.842	-0.03
638.029	-0.05
638.215	0.01
638.402	0.02
638.589	-0.01
638.776	-0.03
638.963	-0.04
639.149	0.02
639.336	0.05
639.523	-0.04
639.709	-0.03
639.896	-0.01
640.083	0.04
640.27	-0
640.456	-0.02
640.643	-0
640.829	-0.09
641.016	-0
641.203	-0.07
641.389	0.03
641.576	0.02
641.762	-0.02
641.949	-0.05
642.135	0
642.322	-0.01
642.508	-0.07
642.695	0
642.881	-0.04
643.068	-0.02
643.254	-0.04
643.441	0.02
643.627	-0.04
643.813	-0.05
644	0
644.186	-0.03
644.372	0.01
644.559	-0.01
644.745	-0.03
644.931	-0.04
645.118	-0.05
645.304	-0.03
645.49	-0.05
645.676	-0.03
645.862	0
646.049	0.05
646.235	-0
646.421	0.09
646.607	0.04
646.793	-0.05
646.979	-0.09
647.165	-0.01
647.352	-0.02
647.538	0.02
647.724	0
647.91	-0.03
648.096	0
648.282	0.04
648.468	-0.04
648.654	-0.02
648.84	0.01
649.026	-0.05
649.212	-0.03
649.397	-0.04
649.583	-0.04
649.769	-0.02
649.955	-0.01
650.141	-0.01
650.327	0.04
650.513	-0.01
650.698	-0.02
650.884	-0.1
651.07	0.04
651.256	-0.02
651.442	-0.03
651.627	-0.03
651.813	-0
651.999	-0.02
652.184	-0.01
652.37	-0.05
652.556	-0.04
652.741	0.05
652.927	-0.1
653.113	-0.04
653.298	0.03
653.484	-0.01
653.669	-0.08
653.855	-0
654.04	0.02
654.226	-0.03
654.412	-0.02
654.597	-0.06
654.782	0.03
654.968	0.03
655.153	-0
655.339	-0.03
655.524	-0.05
655.71	0.03
655.895	-0.06
656.08	-0.02
656.266	-0
656.451	0.03
656.636	-0.06
656.822	-0.02
657.007	-0.03
657.192	-0.08
657.378	-0.06
657.563	-0.05
657.748	0.01
657.933	-0.01
658.118	-0
658.304	-0.06
658.489	0.02
658.674	0
658.859	-0.05
659.044	-0.03
659.229	0.01
659.414	-0.02
659.599	-0.05
659.785	-0.05
659.97	-0.04
660.155	0.03
660.34	-0.01
660.525	-0.02
660.71	-0.07
660.895	-0.02
661.08	-0.07
661.264	-0.04
661.449	0.03
661.634	0.03
661.819	-0.03
662.004	0.01
662.189	-0.06
662.374	-0.06
662.559	-0.08
662.743	-0.06
662.928	-0.01
663.113	-0.02
663.298	-0.08
663.483	-0.04
663.667	-0.01
663.852	-0.05
664.037	0
664.221	-0.04
664.406	0.01
664.591	0.02
664.775	-0.01
664.96	-0.08
665.145	-0.04
665.329	0.02
665.514	-0.03
665.698	-0.02
665.883	-0.08
666.068	0.06
666.252	-0.04
666.437	-0.06
666.621	-0
666.806	-0
666.99	0
667.174	-0.07
667.359	0.06
667.543	-0.04
667.728	-0.02
667.912	-0.07
668.096	0.02
668.281	-0.06
668.465	-0.03
668.649	-0.03
668.834	-0.06
669.018	-0.07
669.202	-0.04
669.387	-0.06
669.571	0.02
669.755	-0.06
669.939	0.01
670.124	-0.03
670.308	0.05
670.492	0.01
670.676	-0.01
670.86	-0.05
671.044	-0.06
671.228	0.03
671.413	-0.04
671.597	-0.04
671.781	-0.07
671.965	0.01
672.149	-0.05
672.333	-0.01
672.517	-0.05
672.701	-0
672.885	-0.01
673.069	-0.06
673.253	0.02
673.437	-0.01
673.621	-0.06
673.804	0
673.988	-0.01
674.172	-0
674.356	-0.08
674.54	-0.04
674.724	0.1
674.908	-0.01
675.091	-0.01
675.275	-0.02
675.459	0.01
675.643	0.08
675.826	0.01
676.01	-0
676.194	-0.01
676.377	0.03
676.561	0.03
676.745	0.01
676.928	0.01
677.112	0.05
677.296	-0.05
677.479	-0.04
677.663	-0.04
677.846	0.03
678.03	-0.02
678.213	-0.04
678.397	-0
678.58	-0.05
678.764	-0.04
678.947	-0.08
679.131	-0.07
679.314	0.02
679.498	-0.04
679.681	-0.03
679.865	0.04
680.048	-0.01
680.231	-0
680.415	-0.06
680.598	-0.03
680.781	-0.01
680.965	-0.07
681.148	-0.01
681.331	-0.07
681.514	-0.02
681.698	-0.04
681.881	-0.01
682.064	0.02
682.247	0.03
682.43	-0.11
682.614	0.01
682.797	0.06
682.98	0.01
683.163	-0.05
683.346	-0.04
683.529	-0.01
683.712	-0.03
683.895	0.01
684.078	-0.06
684.261	-0.04
684.444	0.02
684.627	-0.01
684.81	-0.03
684.993	-0.02
685.176	-0
685.359	-0.07
685.542	-0.05
685.725	-0
685.908	-0.01
686.091	-0.02
686.274	0.03
686.457	0.08
686.639	-0.04
686.822	-0.01
687.005	-0.02
687.188	0.03
687.371	0.07
687.553	0.06
687.736	0.06
687.919	0.12
688.102	0.04
688.284	-0.03
688.467	-0
688.65	0.02
688.832	0
689.015	-0.06
689.197	-0.1
689.38	0.05
689.563	0.11
689.745	-0.07
689.928	-0.08
690.11	0
690.293	0.03
690.475	-0.08
690.658	0.01
690.84	-0.01
691.023	-0.08
691.205	-0.01
691.388	-0.01
691.57	0.01
691.752	0.01
691.935	-0.08
692.117	-0.04
692.3	-0.05
692.482	-0.03
692.664	-0.01
692.847	0.04
693.029	0.04
693.211	0.04
693.393	-0.07
693.576	-0.01
693.758	-0.01
693.94	-0.03
694.122	-0.07
694.304	-0.05
694.487	-0.05
694.669	0.09
694.851	-0.08
695.033	-0.03
695.215	-0.06
695.397	-0.04
695.579	0.01
695.761	-0.08
695.943	-0.08
696.125	0.05
696.308	0.03
696.49	-0.14
696.671	0.12
696.853	-0.04
697.035	0.14
697.217	0.03
697.399	0.05
697.581	-0.08
697.763	0
697.945	-0.11
698.127	-0.01
698.309	0.05
698.491	-0.03
698.672	0.04
698.854	0.04
699.036	0.06
699.218	-0.04
699.399	0.01
699.581	0.02
699.763	-0.03
699.945	-0.06
700.126	-0.07
700.308	-0.02
700.49	-0.04
700.671	-0.11
700.853	-0.03
701.035	-0.06
701.216	0.01
701.398	-0.04
701.579	-0.05
701.761	0.03
701.943	-0.07
702.124	-0.09
702.306	-0.03
702.487	0.12
702.669	-0
702.85	-0.09
703.031	-0.08
703.213	0.09
703.394	0.07
703.576	0
703.757	0.17
703.938	0.08
704.12	0.16
704.301	-0.04
704.483	-0.08
704.664	0.05
704.845	0.09
705.026	-0.01
705.208	-0.01
705.389	-0.01
705.57	0.01
705.751	-0
705.933	-0.02
706.114	-0.01
706.295	-0.11
706.476	-0.09
706.657	0.09
706.838	-0.01
707.02	0.02
707.201	-0.08
707.382	-0.08
707.563	0.04
707.744	-0.06
707.925	-0.08
708.106	-0.14
708.287	0
708.468	0.08
708.649	-0.02
708.83	-0
709.011	-0.06
709.192	0.03
709.373	-0.08
709.554	-0.06
709.734	-0.06
709.915	0.02
710.096	0.01
710.277	-0.1
710.458	-0
710.639	0.03
710.819	-0.09
711	-0.06
711.181	0.06
711.362	0.07
711.542	-0.01
711.723	-0.05
711.904	0.06
712.085	0.05
712.265	-0
712.446	-0.04
712.627	-0.09
712.807	-0.04
712.988	-0.03
713.168	-0.09
713.349	-0.01
713.53	-0.16
713.71	-0.11
713.891	-0.07
714.071	0.04
714.252	-0.01
714.432	0.01
714.613	-0.11
714.793	-0.04
714.974	0.08
715.154	0.06
715.334	-0
715.515	0.07
715.695	-0.12
715.876	-0.06
716.056	-0.09
716.236	-0.06
716.417	-0.06
716.597	-0.09
716.777	0.14
716.957	0.05
717.138	-0.01
717.318	0.04
717.498	-0.12
717.678	0.01
717.859	0.03
718.039	-0.06
718.219	-0.04
718.399	0.03
718.579	-0.04
718.759	-0.08
718.939	0.01
719.12	-0.09
719.3	0.05
719.48	-0.19
719.66	-0.16
719.84	0.07
720.02	0.05
720.2	0.03
720.38	-0.04
720.56	0.09
720.74	-0.05
720.92	0.03
721.1	0.02
721.279	0.08
721.459	-0.03
721.639	-0.03
721.819	0.08
721.999	-0.05
722.179	0.05
722.359	-0.05
722.538	0.01
722.718	0.01
722.898	-0.07
723.078	-0.1
723.257	-0.11
723.437	0.05
723.617	-0.02
723.797	-0.01
723.976	-0.06
724.156	-0
724.336	-0.01
724.515	0.16
724.695	-0.1
724.874	-0.06
725.054	0.06
725.234	-0.08
725.413	0.05
725.593	-0.02
725.772	-0.01
725.952	-0.06
726.131	-0.03
726.311	0.01
726.49	-0.04
726.67	-0.08
726.849	-0.09
727.028	-0.05
727.208	-0
727.387	0.03
727.567	-0.13
727.746	-0.01
727.925	-0.12
728.105	-0.12
728.284	-0.02
728.463	-0.08
728.643	0.04
728.822	-0.14
729.001	-0.13
729.18	-0.01
729.359	0.03
729.539	-0.05
729.718	0.02
729.897	0.07
730.076	-0.12
730.255	-0.15
730.434	-0.03
730.614	0.08
730.793	0.04
730.972	-0.05
731.151	-0.04
731.33	0.03
731.509	0.12
731.688	-0
731.867	-0.01
732.046	-0.17
732.225	0.26
732.404	-0.13
732.583	-0.07
732.762	-0.05
732.941	0.09
733.12	-0.02
733.298	-0.08
733.477	0.03
733.656	-0.07
733.835	-0.15
734.014	0.06
734.193	-0.08
734.371	-0.01
734.55	-0.05
734.729	-0.14
734.908	0.03
735.086	-0.06
735.265	-0.02
735.444	-0.1
735.623	-0.04
735.801	-0.12
735.98	-0
736.159	-0.06
736.337	0.05
736.516	0.06
736.694	-0
736.873	-0.12
737.052	0.12
737.23	0.07
737.409	-0.1
737.587	0.18
737.766	-0.04
737.944	-0.05
738.123	-0
738.301	0.07
738.479	-0.05
738.658	0.05
738.836	-0.2
739.015	-0.03
739.193	0.08
739.371	-0.05
739.55	-0.01
739.728	-0.01
739.906	0.1
740.085	0.13
740.263	-0.04
740.441	-0.19
740.62	0.23
740.798	0.11
740.976	-0.06
741.154	-0.06
741.332	0.06
741.511	-0.04
741.689	-0.01
741.867	0.03
742.045	0.02
742.223	-0.05
742.401	-0.12
742.579	-0
742.757	0.05
742.935	-0.2
743.114	-0.12
743.292	0.02
743.47	-0.02
743.648	-0
743.826	-0.05
744.004	-0.01
744.181	0.07
744.359	-0.03
744.537	-0.06
744.715	-0.06
744.893	0.06
745.071	-0.07
745.249	-0.14
745.427	-0.03
745.605	0.02
745.782	0.01
745.96	0.03
746.138	-0.11
746.316	0.11
746.493	-0.06
746.671	-0.08
746.849	-0.04
747.027	0.11
747.204	-0.14
747.382	0.11
747.56	-0.13
747.737	-0
747.915	-0.02
748.093	0.05
748.27	-0.09
748.448	-0.03
748.625	-0.11
748.803	-0.01
748.98	-0.07
749.158	0.06
749.335	0.14
749.513	-0.09
749.69	0
749.868	-0.02
750.045	0.02
750.223	-0.13
750.4	-0.16
750.578	0.11
750.755	0.1
750.932	-0.12
751.11	0.16
751.287	-0.23
751.464	0.14
751.642	-0.16
751.819	0.01
751.996	-0.06
752.173	-0.11
752.351	0.01
752.528	-0.01
752.705	-0.01
752.882	-0.09
753.06	0.01
753.237	0.09
753.414	0.2
753.591	0.16
753.768	-0.07
753.945	-0.21
754.122	-0.04
754.299	0.02
754.476	-0.18
754.654	-0.01
754.831	-0.08
755.008	0.06
755.185	-0.11
755.362	-0.25
755.539	-0.07
755.716	-0.05
755.892	-0.02
756.069	0.01
756.246	-0.01
756.423	0.03
756.6	0.13
756.777	-0.19
756.954	0.03
757.131	-0.01
757.307	-0.1
757.484	-0.1
757.661	0.06
757.838	0.08
758.015	-0.25
758.191	0.09
758.368	0.03
758.545	0.18
758.721	0.12
758.898	-0.1
759.075	-0.04
759.251	0.03
759.428	-0
759.605	-0.24
759.781	-0.05
759.958	0.03
760.134	0.04
760.311	-0.08
760.488	0.07
760.664	0.14
760.841	-0.09
761.017	-0.19
761.194	0.04
761.37	0.06
761.547	0.06
761.723	-0.02
761.899	0.12
762.076	-0.05
762.252	-0.22
762.429	-0.02
762.605	0.16
762.781	-0.09
762.958	0.12
763.134	-0.08
763.31	-0.07
763.486	0.14
763.663	-0.19
763.839	0.01
764.015	-0.25
764.191	-0.07
764.368	-0.03
764.544	-0.05
764.72	0.01
764.896	0.07
765.072	0
765.248	-0.04
765.425	-0.03
765.601	0.08
765.777	-0.04
765.953	-0.24
766.129	-0.02
766.305	-0.08
766.481	0.14
766.657	-0.09
766.833	0.15
767.009	-0.07
767.185	-0.01
767.361	-0.04
767.537	-0.21
767.713	0.15
767.889	-0.16
768.065	-0.13
768.24	-0.17
768.416	0.03
768.592	-0.09
768.768	-0.12
768.944	-0
769.12	-0.15
769.295	-0.1
769.471	-0.22
769.647	-0.09
769.823	0.12
769.998	-0.15
770.174	-0.2
770.35	0.21
770.525	0.26
770.701	0.09
770.877	0.04
771.052	-0.15
771.228	0.07
771.403	0.03
771.579	-0
771.755	0.23
771.93	-0.05
772.106	-0.21
772.281	-0.18
772.457	0
772.632	-0.01
772.808	-0.07
772.983	-0.18
773.159	-0.18
773.334	0.13
773.509	0.04
773.685	-0.09
773.86	0.31
774.036	0.24
774.211	0.01
774.386	-0.17
774.562	0.03
774.737	-0.16
774.912	-0.09
775.087	-0.02
775.263	-0.04
775.438	0.02
775.613	-0.12
775.788	-0.06
775.964	0.04
776.139	0.36
776.314	-0.18
776.489	0.05
776.664	0.03
776.839	-0.12
777.014	0.23
777.19	0.05
777.365	0.15
777.54	0.16
777.715	-0.11
777.89	-0.03
778.065	-0.1
778.24	-0.1
778.415	0.07
778.59	-0.08
778.765	-0.05
778.94	0.02
779.115	0.06
779.289	-0.11
779.464	-0.05
779.639	-0.14
779.814	-0.24
779.989	-0.13
780.164	0.15
780.339	-0.01
780.513	-0.13
780.688	-0.25
780.863	-0.06
781.038	0.25
781.212	-0.17
781.387	-0.1
781.562	0.22
781.737	0.01
781.911	0.09
782.086	-0.19
782.261	-0.01
782.435	0.25
782.61	-0.18
782.784	-0.1
782.959	0.22
783.134	-0.13
783.308	-0.22
783.483	-0.07
783.657	0.3
783.832	-0
784.006	-0.36
784.181	-0.11
784.355	0.13
784.53	0.15
784.704	-0.14
784.878	0.27
785.053	0.01
785.227	-0.05
785.402	0.33
785.576	-0.31
785.75	-0.05
785.925	-0.16
786.099	-0.04
786.273	-0.02
786.448	0.23
786.622	0.13
786.796	-0.27
786.97	-0.3
787.145	0.53
787.319	-0.25
787.493	-0.09
787.667	-0.52
787.841	-0.04
788.015	0.28
788.19	-0.15
788.364	-0.01
788.538	0.15
788.712	0.08
788.886	0.04
789.06	0.12
789.234	-0.03
789.408	-0.08
789.582	-0.12
789.756	-0.16
789.93	-0.1
790.104	0.07
790.278	-0.1
790.452	-0.1
790.626	0.19
790.8	-0.13
790.973	0.03
791.147	0.17
791.321	0.24
791.495	0.2
791.669	0.07
791.843	0.07
792.016	0.03
792.19	0.55
792.364	-0.05
792.538	0.58
792.711	0.33
792.885	-0.01
793.059	-0.4
793.233	-0.71
793.406	0.03
793.58	0.05
793.754	0.04
793.927	-0.12
794.101	0.34
794.274	0.12
794.448	0.21
794.622	-0.16
794.795	0.29
794.969	-0.03
795.142	0.5
795.316	-0.15
795.489	-0.25
795.663	0.23
795.836	0.13
796.009	-0.12
796.183	0.51
796.356	0.04
796.53	-0.09
796.703	0.06
796.876	0.61
797.05	-0.01
797.223	-0.13
797.396	0
797.57	-0.02
797.743	0.44
797.916	0.12
798.09	-0.19
798.263	0.45
798.436	0.24
798.609	-0.21
798.782	-0.15
798.956	0.01
799.129	0.09
799.302	-0.09
799.475	-0.1
799.648	-0.27
799.821	-0.11
799.994	-0
800.167	-0.34
800.34	-0.19
800.514	-0.14
800.687	-0.14
800.86	-0.39
801.033	-0.26
801.206	0.31
801.379	-0.33
801.551	0.23
801.724	0.24
801.897	0.48
802.07	-0.38
802.243	-0.46
802.416	-0.08
802.589	-0.13
802.762	0.25
802.935	0.08
803.107	0.34
803.28	0.44
803.453	0.33
803.626	0.16
803.798	-0.02
803.971	-0.06
804.144	0.14
804.317	-0.18
804.489	0.16
804.662	0.11
804.835	-0.09
805.007	-0.2
805.18	0.29
805.353	0.21
805.525	-0.26
805.698	-0.39
805.87	0.39
806.043	0.42
806.215	-0.28
806.388	0.23
806.56	0.19
806.733	0.18
806.905	0.04
807.078	-0.31
807.25	-0.29
807.423	0.17
807.595	-0.07
807.768	-0.34
807.94	0.2
808.112	-0.28
808.285	-0.26
808.457	-0.47
808.629	-0.1
808.802	0.42
808.974	-0.04
809.146	-0.31
809.318	-0.41
809.491	-0.09
809.663	0.48
809.835	-0.37
810.007	-0.11
810.18	0.07
810.352	-0.63
810.524	-0.18
810.696	-0.05
810.868	0.26
811.04	-0.22
811.212	-0.13
811.384	0.26
811.556	0.07
811.728	0.05
811.901	0.5
812.073	0.12
812.245	0.35
812.417	-0.27
812.589	-0.84
812.76	0.07
812.932	-0.23
813.104	0.13
813.276	-0.25
813.448	0.46
813.62	-0.15
813.792	-0.17
813.964	-0.4
814.136	-0.09
814.307	-0.44
814.479	-0.2
814.651	0.03
814.823	0.77
814.995	0.1
815.166	-0.18
815.338	-0.48
815.51	-0.71
815.681	0.66
815.853	0.14
816.025	-0.3
816.196	0.34
816.368	0.33
816.54	-0.75
816.711	-0.32
816.883	-0.09
817.054	1.17
817.226	-0.62
817.398	0.23
817.569	-0.31
817.741	-0.08
817.912	-0.3
818.084	-0.41
818.255	-0.2
818.426	-0.21
818.598	0.02
818.769	-0.35
818.941	0.5
819.112	0.22
819.283	0.26
819.455	-0.52
819.626	-0.17
819.798	0.22
819.969	0.17
820.14	-0.04
820.311	0.01
820.483	0.28
820.654	0.14
820.825	0.05
820.996	-0.17
821.168	-0.59
821.339	-0.02
821.51	-0.41
821.681	-0.33
821.852	0.1
822.023	-0.57
822.195	-0.62
822.366	0.49
822.537	0.03
822.708	0.11
822.879	-0.12
823.05	0.14
823.221	-0.27
823.392	0.45
823.563	-0.05
823.734	-0.29
823.905	0.03
824.076	-0.51
824.247	-0.23
824.418	-0.04
824.589	0.18
824.759	-0.15
824.93	-0.59
825.101	-0.32
825.272	0.69
825.443	0.38
825.614	0.69
825.784	-0.97
825.955	0.86
826.126	0.46
826.297	0.32
826.467	1.2
826.638	0.03
826.809	-0.72
826.98	-0.33
827.15	0.37
827.321	0.03
827.492	0.8
827.662	-0.3
827.833	1.28
828.003	0.31
828.174	-0.25
828.345	-0.42
828.515	0.61
828.686	0.23
828.856	-0.08
829.027	0.4
829.197	-0.29
829.368	0.03
829.538	-0.31
829.709	-0.1
829.879	-0.09
830.049	-0.32
830.22	-0.19
830.39	-0.44
830.56	0.1
830.731	-0.45
830.901	-0.65
831.072	-0.1
831.242	0.16
831.412	-0.39
831.582	0.03
831.753	-0.95
831.923	0.5
832.093	0.12
832.263	-0.56
832.434	-0.9
832.604	0.06
832.774	0.23
832.944	-0.2
833.114	-0.49
833.284	0.47
833.454	-0.38
833.624	-0.7
833.795	-1.24
833.965	0.38
834.135	1
834.305	-0.99
834.475	-1.53
834.645	0.43
834.815	-0.63
834.985	-0.5
835.155	-0.28
835.325	-0.14
835.494	0.03
835.664	0.14
835.834	-1.15
836.004	0.21
836.174	0.07
836.344	-0.82
836.514	-0.71
836.684	-0.69
836.853	0.06
837.023	0.36
837.193	-0.27
837.363	0.39
837.532	0.4
837.702	0.27
837.872	-0.7
838.041	0.42
838.211	1.06
838.381	-1.15
838.55	0.17
838.72	1.72
838.89	0.65
839.059	-0.21
839.229	-0.47
839.398	1.36
839.568	0.63
839.738	-0.79
839.907	0.43
840.077	-0.13
840.246	-0.66
840.416	-0.26
840.585	-0.78
840.755	1.69
840.924	0.79
841.093	-1.18
841.263	-0.38
841.432	0.33
841.602	-1.12
841.771	-0.54
841.94	-0.62
842.11	1.86
842.279	1.15
842.448	-0.6
842.617	0.03
842.787	0.94
842.956	-0.19
843.125	-0.39
843.294	-0.18
843.464	0.28
843.633	-0.71
843.802	-0.79
843.971	-0.1
844.14	1.1
844.309	0.3
844.479	-0.47
844.648	-0.9
844.817	-0.74
844.986	0.43
845.155	-0.96
845.324	-0.81
845.493	0.13
845.662	-0.17
845.831	0.65
846	-0.49
846.169	-0.63
846.338	0.88
846.507	0.25
846.676	0.06
846.844	-0.23
847.013	0.1
847.182	0.37
847.351	-0.27
847.52	-0.24
847.689	0.17
847.858	-0.32
848.026	-1.29
848.195	-0.55
848.364	-0.26
848.533	-1.01
848.701	-0.58
848.87	1.03
849.039	1.91
849.207	0.15
849.376	1.44
849.545	1.1
849.713	-0.42
849.882	-1.92
850.051	-0.06
850.219	-0.28
850.388	0.36
850.556	-0.52
850.725	-1.11
850.893	0.46
851.062	-0.02
851.23	0.26
851.399	-2.25
851.567	-0.91
851.736	-0.23
851.904	-1.49
852.073	0.17
852.241	0.96
852.41	-1.06
852.578	-0.74
852.746	-0.46
852.915	-0.06
853.083	0.07
853.251	-1.18
853.42	-0.45
853.588	-0.18
853.756	1.11
853.924	-0.41
854.093	0.02
854.261	-0.51
854.429	-1.34
854.597	-0.43
854.765	-0.93
854.934	0.43
855.102	1.16
855.27	0.04
855.438	0.17
855.606	1.07
855.774	0.64
855.942	-1.6
856.11	-1.3
856.278	0.09
856.446	1.78
856.614	0.74
856.782	-1.23
856.95	1.06
857.118	1.31
857.286	-0.21
857.454	-0.8
857.622	1.27
857.79	0.46
857.958	-1.81
858.126	-0.59
858.294	-2.48
858.462	0.84
858.629	-0.77
858.797	-1.83
858.965	-0.55
859.133	0.5
859.301	-0.26
859.468	-0.08
859.636	-0.33
859.804	2.27
859.971	0.49
860.139	-1.09
860.307	1.32
860.474	0.89
860.642	-2.29
860.81	-0.75
860.977	-0.6
861.145	0.61
861.313	-1.04
861.48	-0.06
861.648	0.44
861.815	0.18
861.983	-1.92
862.15	-0.01
862.318	0.25
862.485	1.02
862.653	-1.36
862.82	-1.2
862.988	2.45
863.155	1.26
863.322	-2.07
863.49	-1.44
863.657	-0.74
863.824	2.18
863.992	-0.53
864.159	-0.88
864.326	0.35
864.494	-0.67
864.661	2.26
864.828	-1.36
864.996	1.42
865.163	0.15
865.33	-1.93
865.497	-3.06
865.664	-1.62
865.832	-1.76
865.999	-0.97
866.166	-2.18
866.333	-0.34
866.5	-1.73
866.667	0.55
866.834	-0.41
867.001	1.3
867.168	-1.83
867.335	0.38
867.502	-0.94
867.669	0
867.836	4.38
868.003	0.14
868.17	1.7
868.337	-0.67
868.504	2.97
868.671	-1.9
868.838	-2.61
869.005	-0.92
869.172	-0.23
869.339	0.3
869.505	-1.79
869.672	0.18
869.839	2
870.006	0.21
870.173	-1.15
870.339	0.89
870.506	3.4
870.673	-1.05
870.84	0.31
871.006	-0.55
871.173	0.02
871.34	-0.55
871.506	-2.31
871.673	0.09
871.839	-0.81
872.006	-0.22
872.173	0.76
872.339	-0.29
872.506	1.2
872.672	-1.31
872.839	-1.04
873.005	-1.06
873.172	3.11
873.338	1.21
873.505	0.11
873.671	1.5
873.838	0.34
874.004	-2.63
874.171	-0.92
874.337	0.14
874.503	0.19
874.67	-0.75
874.836	1.08
875.002	1.42
875.169	0.82
875.335	-0.55
875.501	-0.47
875.668	-3.45
875.834	-0.97
876	-0.74
876.166	0.15
876.332	-0.01
876.499	2.48
876.665	-1.73
876.831	0.9
876.997	2.99
877.163	1.14
877.329	-2.72
877.495	-0.43
877.662	1.05
877.828	0.65
877.994	-1.65
878.16	-3.87
878.326	-2.21
878.492	0.41
878.658	-0.31
878.824	-0.76
878.99	0.42
879.156	-0.94
879.322	1.97
879.487	-0.65
879.653	-0.09
879.819	-1.45
879.985	-1.15
880.151	0.99
880.317	-1.04
880.483	0.57
880.648	1.24
880.814	-3.28
880.98	0.23
881.146	-3.2
881.312	-2.79
881.477	-0.26
881.643	-1.2
881.809	3.15
881.974	3.22
882.14	-1.35
882.306	-0.8
882.471	3.23
882.637	0.16
882.803	0.61
882.968	3.19
883.134	3.73
883.299	-1
883.465	-1.17
883.63	1.67
883.796	0.6
883.961	0.8
884.127	-0.55
884.292	-6.29
884.458	-1.1
884.623	-1.1
