Data from Apollo_Calib_20240827__AbsoluteIrradiance__326__04-35-01-623.txt Node

Date: Wed Aug 28 04:35:01 BST 2024
User: biology
Spectrometer: FLMT08252
Trigger mode: 0
Integration Time (sec): 5.000000E-1
Scans to average: 5
Electric dark correction enabled: true
Nonlinearity correction enabled: false
Boxcar width: 0
XAxis mode: Wavelengths
Number of Pixels in Spectrum: 3648
>>>>>Begin Spectral Data<<<<<
179.588	-0
179.809	-0
180.03	-0
180.251	-0
180.473	-0
180.694	0
180.915	0
181.136	-0
181.357	0
181.578	-0
181.799	0
182.02	-0
182.241	0
182.462	-0
182.683	0
182.904	-0
183.125	-0
183.346	0
183.567	0
183.788	-0
184.009	-0
184.23	0
184.451	0
184.672	-0
184.892	-0
185.113	0
185.334	0
185.555	-0
185.776	-0
185.996	0
186.217	0
186.438	0
186.659	-0
186.879	0
187.1	-0
187.321	-0
187.541	-0
187.762	0
187.983	-0
188.203	-0
188.424	0
188.644	-0
188.865	0
189.086	-0
189.306	-0
189.527	0
189.747	0
189.968	-0
190.188	0
190.409	-0
190.629	0
190.849	-0
191.07	-0
191.29	0
191.511	0
191.731	-0
191.951	-0
192.172	0
192.392	-0
192.612	-0
192.833	-0
193.053	0
193.273	0
193.493	-0
193.714	-0
193.934	0
194.154	0
194.374	-0
194.594	0
194.815	0
195.035	0
195.255	0
195.475	-0
195.695	0
195.915	0
196.135	-0
196.355	0
196.575	0
196.795	0
197.015	-0
197.235	-0
197.455	-0
197.675	0
197.895	-0
198.115	-0
198.335	0
198.555	-0
198.775	0
198.995	-0
199.214	0
199.434	0
199.654	-0
199.874	-0
200.094	0.8
200.313	-0.5
200.533	-0.05
200.753	-0.94
200.973	0.79
201.192	1.13
201.412	-0.82
201.632	-0.49
201.851	0.69
202.071	-0.42
202.291	-0.26
202.51	-0.22
202.73	0.35
202.95	-0.09
203.169	-0.41
203.389	-0.03
203.608	0.11
203.828	-0.43
204.047	-0.22
204.267	0.53
204.486	0.52
204.706	0.3
204.925	0.21
205.145	-0.54
205.364	0.56
205.583	0.77
205.803	-0.43
206.022	-0.6
206.242	0.05
206.461	0.25
206.68	-0.12
206.9	-0.12
207.119	0.6
207.338	0.48
207.557	-0.14
207.777	-0.15
207.996	-0.14
208.215	0.44
208.434	-0.38
208.654	-0.49
208.873	0.06
209.092	0.46
209.311	-0.05
209.53	-0.16
209.749	-0.04
209.968	0.05
210.187	-0.18
210.407	-0.2
210.626	0.07
210.845	0.35
211.064	0.04
211.283	-0.36
211.502	0.24
211.721	0.21
211.94	-0.12
212.159	0.07
212.377	0.22
212.596	0.4
212.815	0.08
213.034	0.12
213.253	0.35
213.472	0.33
213.691	-0.09
213.91	-0.35
214.128	-0.2
214.347	0.34
214.566	-0.32
214.785	-0.45
215.003	0.33
215.222	0.16
215.441	0.11
215.66	-0.2
215.878	0.18
216.097	0.26
216.316	-0.29
216.534	-0.15
216.753	0.2
216.972	0.06
217.19	0.02
217.409	-0.18
217.627	-0.31
217.846	-0.09
218.064	0.09
218.283	-0.12
218.501	0.56
218.72	0.29
218.938	-0.21
219.157	-0.19
219.375	0.13
219.594	0.2
219.812	-0.16
220.031	-0.23
220.249	0.42
220.467	0.46
220.686	-0.1
220.904	-0.1
221.122	-0.15
221.341	0.34
221.559	0.07
221.777	-0.21
221.995	0.02
222.214	0.12
222.432	-0.02
222.65	0.06
222.868	-0.06
223.086	0.09
223.305	0.13
223.523	0.02
223.741	0.37
223.959	-0.1
224.177	-0.26
224.395	-0.11
224.613	0.11
224.831	0.27
225.049	-0.12
225.267	-0.05
225.485	0.09
225.703	-0.04
225.921	-0.04
226.139	-0.04
226.357	0.17
226.575	0.26
226.793	-0.1
227.011	0.6
227.229	0.14
227.447	0.26
227.665	-0.2
227.883	-0.23
228.1	0.09
228.318	0.13
228.536	-0.33
228.754	-0.15
228.972	0.08
229.189	0.04
229.407	-0.14
229.625	0
229.843	0.19
230.06	0.2
230.278	-0.14
230.496	-0.08
230.713	0
230.931	0.25
231.149	-0.06
231.366	-0.21
231.584	0.1
231.801	0.54
232.019	0.13
232.236	-0.08
232.454	-0.01
232.671	0.03
232.889	0.02
233.106	-0.1
233.324	0.13
233.541	-0.04
233.759	0.08
233.976	-0.08
234.194	-0.01
234.411	0.05
234.628	-0.05
234.846	-0.04
235.063	0
235.28	0.03
235.498	0.03
235.715	-0.12
235.932	0.11
236.149	-0.03
236.367	-0.09
236.584	0.08
236.801	0.03
237.018	0.16
237.236	0.01
237.453	-0.16
237.67	0.1
237.887	0.03
238.104	-0.03
238.321	-0.21
238.538	-0.06
238.755	0.17
238.973	-0.11
239.19	-0.06
239.407	0.09
239.624	0.04
239.841	-0.05
240.058	-0.09
240.275	0.07
240.492	-0.01
240.709	0.04
240.925	-0.06
241.142	-0.11
241.359	-0.11
241.576	-0.17
241.793	0.06
242.01	0.09
242.227	0.17
242.444	-0
242.66	0.09
242.877	0.08
243.094	-0.05
243.311	-0
243.527	0.02
243.744	0.07
243.961	0.11
244.178	-0.08
244.394	0.03
244.611	0.13
244.828	0.22
245.044	-0.08
245.261	-0.01
245.477	0.09
245.694	0.02
245.911	-0.08
246.127	0
246.344	0.11
246.56	0.12
246.777	0.03
246.993	-0.01
247.21	0.09
247.426	0.12
247.643	-0.07
247.859	-0.16
248.076	-0.01
248.292	0.19
248.508	-0.01
248.725	0.04
248.941	0.01
249.157	0.17
249.374	-0.09
249.59	0.07
249.806	0.01
250.023	0.12
250.239	-0.04
250.455	-0.12
250.671	-0.05
250.888	0.06
251.104	0.09
251.32	-0.06
251.536	-0.04
251.752	-0
251.969	0.04
252.185	0.01
252.401	0.24
252.617	0.06
252.833	0.04
253.049	0.02
253.265	0.01
253.481	0.05
253.697	-0.02
253.913	-0.05
254.129	0.04
254.345	0.04
254.561	-0.06
254.777	0.03
254.993	0.1
255.209	0.08
255.425	0.02
255.641	-0
255.857	0.11
256.073	0.08
256.288	-0.11
256.504	0.01
256.72	0.1
256.936	0.18
257.152	-0.02
257.367	-0.02
257.583	0.03
257.799	0.02
258.015	-0.1
258.23	0.01
258.446	0.18
258.662	0.03
258.877	-0.05
259.093	0.01
259.309	0.11
259.524	0.07
259.74	-0.06
259.955	-0.11
260.171	0.08
260.387	0
260.602	0.1
260.818	0.05
261.033	-0.02
261.249	-0.01
261.464	-0.08
261.68	-0.06
261.895	0.09
262.11	0.1
262.326	-0.02
262.541	-0.05
262.757	0.07
262.972	0.14
263.187	0.1
263.403	0.08
263.618	0.05
263.833	0.11
264.049	-0.11
264.264	0.03
264.479	0.03
264.694	0.14
264.91	-0
265.125	0.06
265.34	0.11
265.555	0.2
265.77	0.05
265.986	-0.01
266.201	0.06
266.416	0.09
266.631	-0.04
266.846	0.02
267.061	0.04
267.276	0.06
267.491	-0.1
267.706	0.04
267.921	0.12
268.136	0.05
268.351	-0
268.566	-0.04
268.781	0.13
268.996	0.14
269.211	0.03
269.426	-0.06
269.641	-0.02
269.856	0.04
270.071	-0
270.285	-0.06
270.5	0.09
270.715	0.09
270.93	0.03
271.145	0.04
271.359	0.08
271.574	0.01
271.789	0.02
272.004	0
272.218	-0.05
272.433	0.03
272.648	-0.04
272.862	0.01
273.077	-0.01
273.292	0.06
273.506	-0.06
273.721	-0.02
273.936	0.07
274.15	0.12
274.365	0.04
274.579	0.06
274.794	0.09
275.008	0.1
275.223	-0.09
275.437	0.01
275.652	0.23
275.866	0.07
276.081	-0.01
276.295	0.13
276.509	0.01
276.724	0.08
276.938	-0.02
277.153	-0
277.367	0.06
277.581	0.03
277.796	-0.05
278.01	-0.05
278.224	0.06
278.438	0.17
278.653	-0.04
278.867	-0.02
279.081	0.08
279.295	0
279.51	0.04
279.724	-0.11
279.938	0.11
280.152	0.05
280.366	-0.02
280.58	-0
280.794	0.13
281.008	0.02
281.222	0.03
281.437	0.1
281.651	0.09
281.865	0.08
282.079	0.03
282.293	-0.02
282.507	-0.05
282.721	0.01
282.935	0
283.148	-0.03
283.362	0.03
283.576	-0.06
283.79	0.03
284.004	-0.03
284.218	0.15
284.432	-0.03
284.646	0.02
284.859	-0.01
285.073	0.04
285.287	0.01
285.501	0.06
285.714	0.03
285.928	0.06
286.142	0.06
286.356	-0
286.569	-0.01
286.783	0.1
286.997	0.1
287.21	0.02
287.424	0.03
287.637	0.01
287.851	0.08
288.065	0.07
288.278	0.02
288.492	0.06
288.705	-0.01
288.919	0.07
289.132	-0.06
289.346	0.06
289.559	-0.06
289.773	-0.01
289.986	0.03
290.2	0.03
290.413	0.06
290.626	-0.01
290.84	0
291.053	-0
291.267	0.06
291.48	0.05
291.693	0.03
291.906	-0.02
292.12	0.01
292.333	-0.03
292.546	-0.04
292.76	0.14
292.973	0.08
293.186	0.02
293.399	-0.04
293.612	0.11
293.826	0.04
294.039	0.01
294.252	0.04
294.465	0.03
294.678	0.03
294.891	0.03
295.104	-0.01
295.317	0
295.53	0.04
295.743	0.01
295.956	0.01
296.169	0.08
296.382	0.08
296.595	0.03
296.808	0.01
297.021	0.08
297.234	0.07
297.447	0.05
297.66	0.05
297.873	0.06
298.086	0.02
298.299	-0.01
298.511	-0.03
298.724	-0
298.937	0.01
299.15	0.01
299.363	0.04
299.575	0.09
299.788	0.1
300.001	0.01
300.213	-0.05
300.426	0.01
300.639	-0.04
300.852	0.02
301.064	0.04
301.277	0.1
301.489	0.05
301.702	0.08
301.915	0.07
302.127	0.03
302.34	0.05
302.552	0.07
302.765	-0
302.977	0.09
303.19	-0.02
303.402	0.02
303.615	-0.02
303.827	0
304.04	0.01
304.252	0.04
304.464	-0
304.677	0.12
304.889	0.09
305.102	-0.03
305.314	-0.02
305.526	0.07
305.739	0.08
305.951	0.04
306.163	0.03
306.375	0.12
306.588	0.03
306.8	-0
307.012	-0.04
307.224	0.05
307.436	0.07
307.649	-0.05
307.861	0.06
308.073	0.06
308.285	0.02
308.497	-0.01
308.709	0.01
308.921	0
309.133	0.1
309.346	0.02
309.558	-0.02
309.77	0.05
309.982	0.09
310.194	0.11
310.406	-0.03
310.617	0.09
310.829	0.07
311.041	0.03
311.253	-0.02
311.465	0.02
311.677	0.02
311.889	0
312.101	-0.04
312.313	0.11
312.524	0.12
312.736	-0.03
312.948	-0.02
313.16	0.09
313.372	0.05
313.583	0.04
313.795	0.03
314.007	0.01
314.218	0.09
314.43	-0.02
314.642	0.02
314.853	-0.02
315.065	0.09
315.277	0.02
315.488	0.05
315.7	0.07
315.912	0
316.123	0.05
316.335	0.02
316.546	0.15
316.758	0.04
316.969	0.02
317.181	0.07
317.392	0.01
317.604	0.11
317.815	-0.03
318.026	-0.01
318.238	0.02
318.449	0.05
318.661	-0.04
318.872	-0.05
319.083	0.01
319.295	0.07
319.506	0.02
319.717	0.04
319.929	0.04
320.14	0.04
320.351	0.03
320.562	-0.01
320.774	0.09
320.985	0.04
321.196	-0.01
321.407	-0.04
321.618	0.08
321.829	0.07
322.041	0.05
322.252	0
322.463	0.06
322.674	0.05
322.885	0.03
323.096	0.03
323.307	-0.01
323.518	0.05
323.729	-0.01
323.94	0.03
324.151	-0
324.362	0.02
324.573	0.06
324.784	-0.01
324.995	0.06
325.206	0.05
325.417	-0.01
325.628	0.02
325.838	0.04
326.049	0.07
326.26	0.06
326.471	0.03
326.682	0.06
326.892	0.06
327.103	-0.05
327.314	-0.04
327.525	0.08
327.735	0.03
327.946	0.03
328.157	-0.01
328.368	0.09
328.578	0.04
328.789	0.05
328.999	0.03
329.21	0
329.421	0.05
329.631	-0.03
329.842	-0.04
330.052	0.05
330.263	0.03
330.473	0.08
330.684	-0
330.894	0.03
331.105	0.02
331.315	0.02
331.526	-0.01
331.736	0.1
331.947	0.04
332.157	0.04
332.367	-0.02
332.578	0.07
332.788	0.09
332.999	0.06
333.209	0.02
333.419	-0.02
333.629	0.04
333.84	0.05
334.05	0.04
334.26	0.08
334.47	0.12
334.681	0.09
334.891	0.02
335.101	0.06
335.311	0.14
335.521	0.01
335.732	-0
335.942	0.15
336.152	0.06
336.362	0.06
336.572	0.04
336.782	0.08
336.992	-0.01
337.202	-0.02
337.412	0.02
337.622	0.04
337.832	0.02
338.042	0.01
338.252	-0.03
338.462	-0.04
338.672	0.03
338.882	0
339.092	0.01
339.302	0.07
339.511	0.03
339.721	-0.02
339.931	-0.03
340.141	0.03
340.351	0.07
340.561	-0.01
340.77	0.06
340.98	0.02
341.19	0.07
341.4	-0.03
341.609	-0.07
341.819	0.03
342.029	-0.02
342.238	0.02
342.448	-0.01
342.658	0.07
342.867	0.03
343.077	0.07
343.286	0.05
343.496	0.05
343.706	0.07
343.915	-0.04
344.125	0.04
344.334	0.03
344.544	-0.03
344.753	0.02
344.963	-0.02
345.172	-0.01
345.381	0.03
345.591	-0.04
345.8	0.02
346.01	0.09
346.219	0.1
346.428	-0.12
346.638	0.05
346.847	0.03
347.056	0.09
347.266	0.01
347.475	0.03
347.684	0.08
347.893	0.08
348.103	0.04
348.312	-0.02
348.521	0.01
348.73	0.06
348.94	0.04
349.149	0.09
349.358	0.06
349.567	0.01
349.776	-0.04
349.985	0
350.194	0.11
350.403	0.12
350.612	-0.02
350.821	0.03
351.03	0.05
351.239	-0.05
351.448	-0.03
351.657	0.01
351.866	0.13
352.075	0.04
352.284	0.05
352.493	-0.04
352.702	0.05
352.911	0.08
353.12	0.02
353.329	0.03
353.538	0.03
353.746	0.03
353.955	-0.01
354.164	0.04
354.373	0.04
354.582	0.06
354.79	0.01
354.999	0.05
355.208	0.02
355.416	0.12
355.625	-0.01
355.834	-0.01
356.042	0.02
356.251	0.01
356.46	-0.03
356.668	0.07
356.877	0.14
357.085	0.06
357.294	-0.07
357.503	0.07
357.711	0.03
357.92	0.18
358.128	0.01
358.337	0.02
358.545	0.05
358.754	0
358.962	0.05
359.17	0.03
359.379	0.05
359.587	0.05
359.796	0.01
360.004	0.09
360.212	0.08
360.421	0.08
360.629	0.02
360.837	0
361.046	0.06
361.254	0.17
361.462	0.01
361.67	-0.02
361.879	0.03
362.087	0.1
362.295	0.05
362.503	0.02
362.711	-0.04
362.92	0
363.128	-0.01
363.336	-0.03
363.544	-0.01
363.752	0
363.96	0.01
364.168	0.01
364.376	0.07
364.584	0.02
364.792	0.07
365	0.04
365.208	0.01
365.416	0.04
365.624	0.11
365.832	0.03
366.04	0.08
366.248	0.03
366.456	0.05
366.664	0.01
366.872	0.01
367.079	0.03
367.287	0.02
367.495	0.06
367.703	0.05
367.911	0.02
368.118	0.02
368.326	0.02
368.534	-0.02
368.742	0.08
368.949	-0.03
369.157	-0
369.365	0.06
369.572	0.06
369.78	-0.01
369.988	0.07
370.195	0.05
370.403	0.08
370.61	-0
370.818	0.05
371.026	0.08
371.233	-0.02
371.441	0.05
371.648	0.01
371.856	0.06
372.063	0.02
372.271	-0.01
372.478	0
372.685	-0.04
372.893	0.12
373.1	0.03
373.308	0.01
373.515	0.14
373.722	0.09
373.93	0.02
374.137	0.04
374.344	0.09
374.552	0.09
374.759	0.06
374.966	0.04
375.173	0.02
375.381	0.07
375.588	-0.01
375.795	-0.03
376.002	0
376.209	0
376.417	0.05
376.624	0.04
376.831	0.1
377.038	0.01
377.245	-0.01
377.452	-0.01
377.659	0.03
377.866	0.01
378.073	0.07
378.28	0
378.487	0.1
378.694	0.06
378.901	0
379.108	0.03
379.315	0.06
379.522	0.15
379.729	0.04
379.936	0.04
380.143	0.07
380.35	0.08
380.557	0.07
380.763	0.02
380.97	0.06
381.177	0.06
381.384	0.09
381.591	-0.03
381.797	0
382.004	0.06
382.211	0.04
382.418	0.05
382.624	0.05
382.831	0.09
383.038	0.02
383.244	0.03
383.451	0.01
383.658	0.08
383.864	0.01
384.071	-0.04
384.277	0.08
384.484	-0.06
384.69	0.04
384.897	0.04
385.103	0.02
385.31	-0.01
385.516	0.04
385.723	-0
385.929	0.04
386.136	-0.02
386.342	0.04
386.549	-0.01
386.755	0.05
386.961	0.06
387.168	-0.02
387.374	-0.03
387.58	0.08
387.787	0.03
387.993	0.02
388.199	0.04
388.406	0.04
388.612	0.06
388.818	0.01
389.024	-0.01
389.231	0.08
389.437	0.1
389.643	0.1
389.849	0.03
390.055	0.07
390.261	0.07
390.467	0.05
390.674	-0
390.88	0.05
391.086	0.08
391.292	-0.05
391.498	0.06
391.704	0.06
391.91	0.03
392.116	0.01
392.322	-0.03
392.528	0.03
392.734	0.03
392.94	0.06
393.146	0.02
393.352	0.05
393.557	0.02
393.763	0.03
393.969	0.08
394.175	0.04
394.381	0.05
394.587	-0.03
394.792	-0.04
394.998	0.06
395.204	0.07
395.41	0.04
395.615	0.06
395.821	0.05
396.027	0.06
396.233	-0.03
396.438	0.02
396.644	0.1
396.85	0.05
397.055	-0
397.261	0.05
397.466	0.08
397.672	0.06
397.878	0.09
398.083	0.05
398.289	0.03
398.494	0.11
398.7	0.11
398.905	-0.04
399.111	0.08
399.316	-0.04
399.522	0.05
399.727	0.02
399.932	0.04
400.138	0.05
400.343	0.09
400.549	0.04
400.754	0.08
400.959	0.05
401.165	0.01
401.37	0.02
401.575	0.11
401.78	0.04
401.986	0.03
402.191	-0.01
402.396	0.04
402.601	0.1
402.807	0.09
403.012	0.09
403.217	0.1
403.422	0.01
403.627	0.08
403.832	0.01
404.037	0.07
404.243	0.04
404.448	0
404.653	0.06
404.858	0.07
405.063	0.11
405.268	0.06
405.473	0
405.678	0.03
405.883	0.18
406.088	0.09
406.293	0.02
406.498	0.04
406.703	0.1
406.907	0.03
407.112	0.04
407.317	0.07
407.522	0.1
407.727	0.02
407.932	0.03
408.136	0.18
408.341	0.08
408.546	0.08
408.751	0.07
408.956	0.03
409.16	0.09
409.365	0.06
409.57	0.04
409.774	0.06
409.979	0.1
410.184	0.09
410.388	0.04
410.593	0.12
410.798	0.14
411.002	0.06
411.207	0.11
411.411	0.09
411.616	0.09
411.82	0.06
412.025	0.09
412.229	0.06
412.434	0.14
412.638	0.12
412.843	0.08
413.047	0.12
413.252	0.09
413.456	0.13
413.66	0.14
413.865	0.12
414.069	0.22
414.273	0.1
414.478	0.07
414.682	0.15
414.886	0.15
415.091	0.05
415.295	0.08
415.499	0.22
415.703	0.16
415.908	0.22
416.112	0.09
416.316	0.23
416.52	0.18
416.724	0.12
416.929	0.18
417.133	0.35
417.337	0.22
417.541	0.17
417.745	0.23
417.949	0.28
418.153	0.26
418.357	0.22
418.561	0.42
418.765	0.27
418.969	0.4
419.173	0.34
419.377	0.35
419.581	0.39
419.785	0.41
419.989	0.36
420.193	0.36
420.397	0.41
420.601	0.48
420.804	0.53
421.008	0.48
421.212	0.52
421.416	0.52
421.62	0.46
421.823	0.52
422.027	0.56
422.231	0.55
422.435	0.48
422.638	0.52
422.842	0.62
423.046	0.53
423.249	0.64
423.453	0.71
423.657	0.76
423.86	0.7
424.064	0.76
424.268	0.86
424.471	0.81
424.675	0.9
424.878	0.89
425.082	0.91
425.285	0.98
425.489	0.95
425.692	1.02
425.896	0.92
426.099	1.08
426.303	1.03
426.506	1.02
426.71	1.19
426.913	1.24
427.116	1.31
427.32	1.23
427.523	1.28
427.726	1.43
427.93	1.37
428.133	1.42
428.336	1.45
428.54	1.48
428.743	1.61
428.946	1.76
429.149	1.68
429.353	1.75
429.556	1.73
429.759	1.8
429.962	1.8
430.165	1.86
430.368	1.82
430.571	1.77
430.775	1.81
430.978	1.87
431.181	1.86
431.384	1.9
431.587	1.93
431.79	2.01
431.993	2.03
432.196	2.13
432.399	2.17
432.602	2.31
432.805	2.24
433.008	2.46
433.211	2.31
433.414	2.54
433.616	2.58
433.819	2.47
434.022	2.52
434.225	2.71
434.428	2.67
434.631	2.96
434.833	2.78
435.036	2.81
435.239	3.01
435.442	3.02
435.645	3.07
435.847	3.07
436.05	3.25
436.253	3.34
436.455	3.36
436.658	3.32
436.861	3.55
437.063	3.49
437.266	3.47
437.468	3.64
437.671	3.9
437.874	3.85
438.076	3.82
438.279	3.98
438.481	4.11
438.684	4.37
438.886	4.33
439.089	4.4
439.291	4.52
439.494	4.73
439.696	4.82
439.899	5.06
440.101	5.24
440.303	5.32
440.506	5.73
440.708	5.69
440.91	5.8
441.113	6
441.315	6.16
441.517	6.15
441.72	6.43
441.922	6.38
442.124	6.49
442.326	6.79
442.529	6.97
442.731	7.04
442.933	7.38
443.135	7.16
443.337	7.3
443.539	7.81
443.742	7.66
443.944	8.11
444.146	8.1
444.348	8.21
444.55	8.31
444.752	8.48
444.954	8.6
445.156	8.6
445.358	8.93
445.56	9.28
445.762	9.22
445.964	9.49
446.166	9.35
446.368	9.66
446.57	9.76
446.772	9.59
446.974	9.57
447.175	9.84
447.377	9.77
447.579	10.13
447.781	9.96
447.983	9.98
448.184	9.75
448.386	10.12
448.588	9.8
448.79	10.01
448.991	10.17
449.193	10.24
449.395	9.89
449.597	9.77
449.798	9.67
450	9.49
450.202	9.45
450.403	9.44
450.605	9.49
450.806	9.3
451.008	9.12
451.21	9
451.411	8.82
451.613	8.3
451.814	8.37
452.016	8.4
452.217	7.95
452.419	7.94
452.62	7.82
452.821	7.6
453.023	7.55
453.224	7.21
453.426	7.06
453.627	6.57
453.828	6.6
454.03	6.63
454.231	6.58
454.432	6.38
454.634	6.27
454.835	5.98
455.036	5.91
455.238	5.81
455.439	5.53
455.64	5.29
455.841	5.15
456.042	5.26
456.244	5.11
456.445	4.89
456.646	4.75
456.847	4.6
457.048	4.59
457.249	4.56
457.45	4.5
457.651	4.1
457.852	4
458.054	3.84
458.255	3.77
458.456	3.86
458.657	3.79
458.858	3.45
459.058	3.45
459.259	3.53
459.46	3.3
459.661	3.24
459.862	3.42
460.063	3.2
460.264	3.13
460.465	3.01
460.666	3.14
460.866	2.94
461.067	2.79
461.268	2.79
461.469	2.73
461.67	2.66
461.87	2.59
462.071	2.58
462.272	2.51
462.473	2.53
462.673	2.59
462.874	2.47
463.075	2.53
463.275	2.46
463.476	2.5
463.676	2.49
463.877	2.34
464.078	2.33
464.278	2.44
464.479	2.28
464.679	2.26
464.88	2.17
465.08	2.17
465.281	1.98
465.481	1.97
465.682	1.86
465.882	1.85
466.083	1.8
466.283	1.75
466.483	1.71
466.684	1.57
466.884	1.55
467.085	1.51
467.285	1.61
467.485	1.5
467.686	1.43
467.886	1.35
468.086	1.31
468.286	1.32
468.487	1.39
468.687	1.21
468.887	1.2
469.087	1.26
469.287	1.18
469.488	1.02
469.688	1.17
469.888	1.15
470.088	1.11
470.288	1.07
470.488	1.05
470.688	0.89
470.888	0.91
471.088	0.83
471.288	0.9
471.488	0.89
471.688	0.86
471.888	0.82
472.088	0.91
472.288	0.84
472.488	0.71
472.688	0.73
472.888	0.76
473.088	0.69
473.288	0.68
473.488	0.67
473.688	0.79
473.887	0.66
474.087	0.63
474.287	0.64
474.487	0.58
474.687	0.65
474.886	0.55
475.086	0.49
475.286	0.53
475.486	0.56
475.685	0.53
475.885	0.5
476.085	0.52
476.284	0.51
476.484	0.49
476.684	0.48
476.883	0.55
477.083	0.45
477.282	0.38
477.482	0.51
477.681	0.46
477.881	0.41
478.08	0.37
478.28	0.39
478.479	0.39
478.679	0.48
478.878	0.37
479.078	0.33
479.277	0.37
479.477	0.36
479.676	0.39
479.875	0.32
480.075	0.29
480.274	0.36
480.473	0.34
480.673	0.29
480.872	0.34
481.071	0.3
481.271	0.35
481.47	0.25
481.669	0.28
481.868	0.25
482.067	0.27
482.267	0.22
482.466	0.21
482.665	0.21
482.864	0.21
483.063	0.18
483.262	0.26
483.461	0.26
483.661	0.25
483.86	0.22
484.059	0.25
484.258	0.23
484.457	0.2
484.656	0.21
484.855	0.25
485.054	0.13
485.253	0.16
485.452	0.13
485.651	0.19
485.849	0.19
486.048	0.13
486.247	0.16
486.446	0.18
486.645	0.12
486.844	0.13
487.043	0.15
487.241	0.17
487.44	0.12
487.639	0.13
487.838	0.16
488.037	0.15
488.235	0.18
488.434	0.14
488.633	0.11
488.831	0.1
489.03	0.14
489.229	0.13
489.427	0.1
489.626	0.15
489.825	0.18
490.023	0.1
490.222	0.09
490.42	0.14
490.619	0.13
490.817	0.12
491.016	0.08
491.214	0.13
491.413	0.07
491.611	0.08
491.81	0.08
492.008	0.1
492.207	0.1
492.405	0.08
492.604	0.06
492.802	0.08
493	0.1
493.199	0.05
493.397	0.07
493.595	0.07
493.794	0.07
493.992	0.12
494.19	0.07
494.388	0.08
494.587	0.07
494.785	0.08
494.983	0.02
495.181	0.07
495.379	0.05
495.578	0.04
495.776	0.07
495.974	0.05
496.172	0.06
496.37	0.03
496.568	0.05
496.766	0.04
496.964	0.1
497.162	0.08
497.36	0.02
497.558	0.08
497.756	0.1
497.954	0.04
498.152	0.03
498.35	0.04
498.548	0.07
498.746	0.04
498.944	0.02
499.142	0.07
499.34	0
499.538	0.06
499.736	0.03
499.933	0.09
500.131	0.06
500.329	0.05
500.527	0.07
500.725	0.1
500.922	0.07
501.12	0.05
501.318	0.06
501.516	0.01
501.713	0.06
501.911	0.01
502.109	0
502.306	0.06
502.504	0.03
502.701	0.03
502.899	0.03
503.097	0.09
503.294	0.05
503.492	0.03
503.689	0.04
503.887	0.08
504.084	0.07
504.282	0.05
504.479	0.01
504.677	0.05
504.874	0
505.072	0.03
505.269	0.03
505.466	0.05
505.664	0.04
505.861	-0
506.059	-0.01
506.256	0.05
506.453	0.03
506.651	0.07
506.848	0.05
507.045	0.03
507.242	0.04
507.44	-0.01
507.637	0.03
507.834	0.02
508.031	0.03
508.229	0
508.426	0.03
508.623	0.06
508.82	-0.01
509.017	0.01
509.214	-0
509.411	0.03
509.608	-0
509.805	0.01
510.003	0.02
510.2	0.02
510.397	0.05
510.594	-0.01
510.791	-0.01
510.988	0.02
511.184	0.05
511.381	0.01
511.578	0
511.775	0.06
511.972	0.02
512.169	0.02
512.366	0.02
512.563	0.05
512.76	-0
512.956	0.04
513.153	0.04
513.35	0.02
513.547	-0.03
513.744	-0.02
513.94	-0
514.137	0.06
514.334	0.03
514.53	0.02
514.727	0.01
514.924	0.1
515.12	0.02
515.317	-0.01
515.514	-0.01
515.71	-0.02
515.907	0.02
516.103	0.02
516.3	0.01
516.497	0.03
516.693	0.07
516.89	-0
517.086	-0.02
517.283	0.06
517.479	0.04
517.676	0.03
517.872	0.01
518.068	0.01
518.265	-0.02
518.461	-0.01
518.658	-0
518.854	0.03
519.05	0.02
519.247	-0
519.443	0.04
519.639	0.03
519.836	0.03
520.032	0.02
520.228	0.02
520.424	0.08
520.621	0.02
520.817	0.01
521.013	0.03
521.209	0.01
521.405	0.07
521.601	0.02
521.798	0.04
521.994	0.04
522.19	0
522.386	-0.01
522.582	0.02
522.778	0.02
522.974	-0
523.17	0.02
523.366	0.03
523.562	0.06
523.758	0.02
523.954	-0.01
524.15	0
524.346	0.04
524.542	0.02
524.738	-0.02
524.934	0
525.129	0.01
525.325	0
525.521	0
525.717	0.04
525.913	0.02
526.109	0.02
526.304	0
526.5	0.02
526.696	0.04
526.892	0.01
527.087	0.01
527.283	-0.01
527.479	0.05
527.674	-0.01
527.87	-0
528.066	-0
528.261	0.03
528.457	0.01
528.653	-0.01
528.848	0.01
529.044	0.01
529.239	-0
529.435	0.03
529.63	0.03
529.826	0.06
530.021	0.04
530.217	0.03
530.412	-0
530.608	0
530.803	0.01
530.999	0.01
531.194	-0.03
531.389	0.01
531.585	-0.04
531.78	0
531.975	0.02
532.171	0.04
532.366	-0.01
532.561	0.01
532.757	-0.02
532.952	-0
533.147	0.04
533.342	0.01
533.538	-0.01
533.733	0.05
533.928	0.02
534.123	0
534.318	-0.02
534.513	0.02
534.709	0.02
534.904	-0.01
535.099	0.01
535.294	0.01
535.489	0.02
535.684	-0
535.879	-0
536.074	0.03
536.269	-0.01
536.464	-0
536.659	-0.01
536.854	0.02
537.049	0.01
537.244	0.02
537.439	0
537.634	0.04
537.828	0.01
538.023	-0.01
538.218	-0.03
538.413	0.01
538.608	-0.04
538.803	0.03
538.997	-0.01
539.192	0.05
539.387	0.03
539.582	0.01
539.776	0.03
539.971	0.01
540.166	0.01
540.36	-0.02
540.555	0.01
540.75	-0.01
540.944	0
541.139	-0.03
541.334	0
541.528	0.03
541.723	0.01
541.917	-0.01
542.112	-0.01
542.306	0.01
542.501	0
542.695	0
542.89	-0.01
543.084	0.02
543.279	-0.02
543.473	0.02
543.668	0.02
543.862	0.02
544.056	0.03
544.251	0.02
544.445	-0.01
544.64	0.02
544.834	-0.01
545.028	0
545.222	0.02
545.417	0.04
545.611	0
545.805	0.03
546	-0.01
546.194	0.01
546.388	0.01
546.582	0.02
546.776	0.03
546.97	-0
547.165	0.02
547.359	0.03
547.553	-0
547.747	0.03
547.941	0.02
548.135	0
548.329	0.03
548.523	0.02
548.717	0.01
548.911	-0.01
549.105	0.02
549.299	0
549.493	0.04
549.687	0.02
549.881	0.03
550.075	0.02
550.269	-0.01
550.463	0.02
550.657	-0
550.85	-0
551.044	-0.02
551.238	0.01
551.432	0
551.626	0
551.82	0.03
552.013	-0.01
552.207	0.02
552.401	0.02
552.594	0.03
552.788	0
552.982	0.05
553.176	-0.02
553.369	0.03
553.563	0.03
553.756	-0.02
553.95	-0
554.144	0.02
554.337	0.05
554.531	0.02
554.724	0.01
554.918	0.02
555.111	0.03
555.305	-0.01
555.498	0.06
555.692	0.04
555.885	0
556.079	0.03
556.272	-0.01
556.466	0.04
556.659	0.05
556.852	0.02
557.046	0.01
557.239	0.04
557.432	-0.03
557.626	-0
557.819	0.02
558.012	0.03
558.206	0.04
558.399	-0
558.592	0.03
558.785	0
558.979	0.03
559.172	0.02
559.365	0.01
559.558	0.03
559.751	0
559.944	0.01
560.138	-0.01
560.331	0.01
560.524	-0.01
560.717	-0
560.91	0
561.103	0.03
561.296	0.03
561.489	0.03
561.682	0
561.875	0.03
562.068	0.01
562.261	0.02
562.454	0.05
562.647	0.01
562.84	-0.01
563.032	-0.01
563.225	0.04
563.418	0.02
563.611	-0.02
563.804	0
563.997	-0.03
564.19	-0.03
564.382	0.03
564.575	0
564.768	-0
564.961	0.01
565.153	0.01
565.346	0.05
565.539	0.04
565.731	0.04
565.924	0.02
566.117	0.04
566.309	0.03
566.502	0
566.695	-0
566.887	0.03
567.08	-0.01
567.272	-0.03
567.465	-0
567.657	0.01
567.85	0.05
568.042	0.01
568.235	0.03
568.427	0
568.62	-0.02
568.812	0.02
569.005	0
569.197	-0.05
569.389	0.02
569.582	0.01
569.774	0.01
569.966	-0.04
570.159	-0.01
570.351	0.01
570.543	-0.01
570.736	0.01
570.928	-0.02
571.12	0.02
571.312	-0.02
571.505	-0.04
571.697	0.03
571.889	-0.01
572.081	0.01
572.273	-0.05
572.465	0.03
572.658	0
572.85	0.03
573.042	-0.02
573.234	0
573.426	0.04
573.618	-0.03
573.81	0.01
574.002	0.06
574.194	0.05
574.386	-0.04
574.578	-0.04
574.77	-0.01
574.962	0.01
575.154	-0.02
575.346	-0.01
575.538	0.02
575.729	-0.01
575.921	-0.02
576.113	-0
576.305	0.05
576.497	-0.01
576.689	0
576.88	-0.03
577.072	0.05
577.264	0.01
577.456	0.02
577.647	-0.05
577.839	-0.02
578.031	0.03
578.223	-0.04
578.414	-0.02
578.606	0.02
578.798	0.01
578.989	-0.03
579.181	0
579.372	0.01
579.564	0.01
579.755	-0.01
579.947	0.03
580.139	0.02
580.33	-0.07
580.522	0
580.713	-0.07
580.905	-0
581.096	0.03
581.287	0.02
581.479	0.01
581.67	0.03
581.862	0.01
582.053	-0.01
582.244	-0.02
582.436	-0.02
582.627	-0.01
582.818	-0
583.01	-0.02
583.201	0.02
583.392	0.05
583.583	0.02
583.775	-0.01
583.966	-0.04
584.157	-0.01
584.348	-0.02
584.54	-0.03
584.731	0.02
584.922	0
585.113	-0.03
585.304	0.01
585.495	0.02
585.686	0.05
585.877	0.01
586.068	0.01
586.259	0.03
586.45	0.01
586.641	-0.01
586.832	-0.04
587.023	0
587.214	-0.01
587.405	0.03
587.596	-0.01
587.787	0.03
587.978	0.02
588.169	-0.02
588.36	0.01
588.551	0.02
588.742	-0.01
588.932	0.01
589.123	-0.01
589.314	0.02
589.505	0.01
589.696	-0
589.886	-0.02
590.077	-0.02
590.268	0.02
590.458	-0.04
590.649	-0.03
590.84	0.04
591.03	-0.02
591.221	-0.03
591.412	-0.04
591.602	0.02
591.793	0.07
591.984	-0.02
592.174	0.01
592.365	0.06
592.555	-0.01
592.746	0
592.936	0.01
593.127	0.01
593.317	0.04
593.508	-0.02
593.698	-0.02
593.889	0.01
594.079	0.04
594.269	-0.01
594.46	-0.02
594.65	0
594.84	0.02
595.031	-0.03
595.221	-0.03
595.411	-0.05
595.602	0.03
595.792	-0
595.982	-0.04
596.172	0.05
596.363	0.01
596.553	0.02
596.743	-0
596.933	0
597.123	0.05
597.314	-0.03
597.504	-0.03
597.694	0.04
597.884	0.02
598.074	-0.01
598.264	-0.03
598.454	0.03
598.644	-0
598.834	-0.01
599.024	-0.01
599.214	-0.01
599.404	0.02
599.594	-0.02
599.784	-0.02
599.974	0.02
600.164	0.03
600.354	-0.06
600.544	-0.04
600.734	0.01
600.924	0.03
601.114	-0.04
601.303	-0.01
601.493	-0.02
601.683	-0.01
601.873	-0.01
602.063	-0.06
602.252	0.04
602.442	-0.08
602.632	-0.01
602.821	-0.03
603.011	0.04
603.201	0
603.39	-0.02
603.58	-0.04
603.77	0.01
603.959	0.04
604.149	-0.01
604.339	-0
604.528	0.04
604.718	0.06
604.907	-0.02
605.097	-0.01
605.286	-0.06
605.476	0.04
605.665	0.02
605.855	-0.01
606.044	0.03
606.234	0.02
606.423	-0.02
606.612	-0.03
606.802	-0
606.991	0.03
607.181	-0
607.37	-0.03
607.559	0
607.749	-0.05
607.938	-0
608.127	-0.01
608.316	-0.04
608.506	0.03
608.695	-0.02
608.884	-0.07
609.073	0
609.263	0.03
609.452	0.04
609.641	0
609.83	-0.02
610.019	-0.02
610.208	-0.02
610.397	0.02
610.586	0.03
610.775	-0.05
610.965	-0.02
611.154	-0.03
611.343	0.03
611.532	0.01
611.721	-0.02
611.91	-0.05
612.099	0.04
612.287	-0.02
612.476	-0.02
612.665	-0.03
612.854	-0.04
613.043	0.06
613.232	-0
613.421	-0.04
613.61	0.01
613.798	-0.03
613.987	0.02
614.176	0.01
614.365	0.03
614.554	-0.01
614.742	0.01
614.931	-0.01
615.12	0.02
615.309	0.01
615.497	0.01
615.686	-0.01
615.875	-0.04
616.063	0.01
616.252	-0.01
616.44	-0.03
616.629	-0.01
616.818	0.04
617.006	-0.01
617.195	-0.01
617.383	-0
617.572	-0.01
617.76	-0
617.949	-0.03
618.137	0.01
618.326	0.04
618.514	0
618.703	0.01
618.891	0.08
619.079	-0.06
619.268	-0
619.456	-0.02
619.644	0.05
619.833	0
620.021	-0.01
620.209	-0.04
620.398	0.01
620.586	-0.01
620.774	-0.01
620.962	-0.02
621.151	0.05
621.339	0.01
621.527	-0.04
621.715	-0.02
621.903	-0.05
622.092	-0.04
622.28	-0
622.468	0.04
622.656	-0.01
622.844	0.02
623.032	-0.03
623.22	-0.08
623.408	0.02
623.596	0.03
623.784	0.01
623.972	-0.05
624.16	-0.02
624.348	0.05
624.536	-0
624.724	-0.01
624.912	0.02
625.1	0.02
625.288	-0.03
625.476	-0.02
625.664	-0
625.851	-0.06
626.039	-0.01
626.227	0.01
626.415	-0.01
626.603	-0.06
626.79	0
626.978	-0.01
627.166	0.02
627.354	-0.02
627.541	-0.02
627.729	-0.09
627.917	0.03
628.104	0.07
628.292	0.02
628.48	-0.03
628.667	0.02
628.855	0.01
629.042	0.02
629.23	-0.03
629.418	-0.03
629.605	0.02
629.793	-0.05
629.98	-0.03
630.168	-0.01
630.355	-0
630.543	-0
630.73	-0.02
630.917	0.02
631.105	0.04
631.292	-0.04
631.48	-0.03
631.667	0.08
631.854	0.04
632.042	-0.03
632.229	-0.04
632.416	0.01
632.604	0.03
632.791	-0.07
632.978	0.02
633.165	0.02
633.353	0.05
633.54	0.08
633.727	-0.07
633.914	-0.03
634.101	-0.07
634.289	-0
634.476	-0.04
634.663	-0.04
634.85	0.02
635.037	-0.03
635.224	-0.06
635.411	0.01
635.598	0.04
635.785	-0.02
635.972	-0.01
636.159	0.03
636.346	-0.04
636.533	0
636.72	-0.01
636.907	-0.02
637.094	0.05
637.281	0.02
637.468	0.02
637.655	0.01
637.842	-0.03
638.029	0.01
638.215	0.03
638.402	-0
638.589	-0.05
638.776	-0.02
638.963	-0.01
639.149	0.05
639.336	0.08
639.523	-0.02
639.709	-0.02
639.896	0
640.083	0.04
640.27	-0
640.456	-0.02
640.643	-0.01
640.829	-0.07
641.016	-0.03
641.203	-0.08
641.389	0.01
641.576	0.03
641.762	-0.01
641.949	-0.04
642.135	0.01
642.322	0
642.508	-0.06
642.695	-0.01
642.881	-0.02
643.068	-0.03
643.254	-0.01
643.441	0.02
643.627	0
643.813	-0.04
644	0.04
644.186	-0.05
644.372	0.01
644.559	0.05
644.745	-0.01
644.931	-0.01
645.118	-0.03
645.304	-0.03
645.49	-0.04
645.676	-0.01
645.862	-0.02
646.049	0.05
646.235	-0.03
646.421	0.06
646.607	0.08
646.793	-0.04
646.979	-0.03
647.165	-0.01
647.352	0.04
647.538	0.05
647.724	-0
647.91	-0.01
648.096	0.02
648.282	0.08
648.468	-0.02
648.654	0.03
648.84	0.04
649.026	-0
649.212	-0.02
649.397	-0.01
649.583	-0.04
649.769	0.03
649.955	0.01
650.141	0.01
650.327	0.05
650.513	-0.04
650.698	0.04
650.884	-0.06
651.07	0
651.256	0.01
651.442	-0.02
651.627	-0.01
651.813	0.02
651.999	-0.02
652.184	-0
652.37	0
652.556	-0.01
652.741	0.02
652.927	-0.07
653.113	0.02
653.298	0.02
653.484	-0.03
653.669	-0.01
653.855	-0.01
654.04	0.04
654.226	0.05
654.412	-0.01
654.597	-0.05
654.782	0.01
654.968	0.05
655.153	-0.02
655.339	-0.06
655.524	-0.04
655.71	0.05
655.895	-0.02
656.08	0.01
656.266	0.04
656.451	0.02
656.636	-0.02
656.822	0.01
657.007	-0.03
657.192	-0.01
657.378	-0.08
657.563	-0.04
657.748	0.02
657.933	-0.01
658.118	-0.03
658.304	-0.02
658.489	-0.01
658.674	-0.03
658.859	-0.01
659.044	0.01
659.229	0.03
659.414	-0.05
659.599	0
659.785	-0.02
659.97	-0.02
660.155	0.03
660.34	0.01
660.525	0.01
660.71	0
660.895	0.04
661.08	-0.01
661.264	-0.05
661.449	0.03
661.634	0.06
661.819	-0.02
662.004	0.04
662.189	-0.05
662.374	-0.05
662.559	-0.05
662.743	-0.06
662.928	0
663.113	0.02
663.298	-0.07
663.483	0.01
663.667	0.02
663.852	-0.05
664.037	0.05
664.221	-0.03
664.406	0.05
664.591	0.02
664.775	-0.01
664.96	-0.02
665.145	-0.01
665.329	0.03
665.514	-0.05
665.698	-0.04
665.883	-0.08
666.068	0.07
666.252	0
666.437	-0.05
666.621	-0.03
666.806	0.01
666.99	0
667.174	-0.05
667.359	0.05
667.543	0.03
667.728	0.01
667.912	-0.05
668.096	0.04
668.281	-0.01
668.465	0.01
668.649	0.01
668.834	-0.03
669.018	-0.01
669.202	-0.02
669.387	-0.03
669.571	0.05
669.755	-0.02
669.939	-0.05
670.124	-0.02
670.308	0.1
670.492	0.02
670.676	-0.01
670.86	-0.02
671.044	-0.03
671.228	0.01
671.413	-0.03
671.597	-0.03
671.781	-0.07
671.965	-0
672.149	-0
672.333	-0.01
672.517	-0.03
672.701	0.05
672.885	-0
673.069	-0.04
673.253	0.05
673.437	-0.03
673.621	-0.04
673.804	-0.05
673.988	-0.03
674.172	-0.01
674.356	-0.07
674.54	-0.03
674.724	0.07
674.908	0.01
675.091	-0.01
675.275	0.02
675.459	0.05
675.643	0.08
675.826	0.03
676.01	0.01
676.194	-0.01
676.377	0.06
676.561	0.04
676.745	0.02
676.928	0.05
677.112	0.06
677.296	-0.02
677.479	-0.03
677.663	-0.03
677.846	0.02
678.03	-0.01
678.213	-0.04
678.397	0.08
678.58	-0.01
678.764	-0.04
678.947	-0.04
679.131	-0.01
679.314	0.03
679.498	-0.02
679.681	-0.01
679.865	0.06
680.048	0.01
680.231	-0.03
680.415	-0.03
680.598	-0.04
680.781	-0.02
680.965	-0.04
681.148	-0
681.331	-0.03
681.514	0.01
681.698	-0.05
681.881	0.02
682.064	-0.02
682.247	0.01
682.43	-0.07
682.614	0.06
682.797	0.05
682.98	0.06
683.163	-0.05
683.346	0.04
683.529	-0.04
683.712	-0.02
683.895	0.04
684.078	-0.03
684.261	-0.02
684.444	0.02
684.627	0.01
684.81	-0.01
684.993	-0.01
685.176	0.02
685.359	-0.08
685.542	-0.07
685.725	0.09
685.908	0.04
686.091	-0.04
686.274	0.04
686.457	-0
686.639	-0.03
686.822	0.01
687.005	0.03
687.188	0.03
687.371	0.08
687.553	0.03
687.736	0.01
687.919	0.08
688.102	0.09
688.284	-0.03
688.467	0.02
688.65	-0.01
688.832	-0.04
689.015	0.02
689.197	-0.05
689.38	0.09
689.563	0.13
689.745	-0.04
689.928	-0.06
690.11	0.01
690.293	0.04
690.475	-0.07
690.658	0.04
690.84	0
691.023	-0.03
691.205	-0.06
691.388	-0.01
691.57	0.02
691.752	0.05
691.935	-0.03
692.117	-0.01
692.3	0.03
692.482	-0.02
692.664	-0.03
692.847	0.07
693.029	0.07
693.211	0.02
693.393	0.01
693.576	-0
693.758	-0.01
693.94	-0.05
694.122	0.02
694.304	0.01
694.487	0.01
694.669	0.05
694.851	-0.07
695.033	-0.01
695.215	-0.04
695.397	-0.07
695.579	0
695.761	-0.02
695.943	-0.1
696.125	0.06
696.308	0.06
696.49	-0.14
696.671	0.14
696.853	-0.01
697.035	0.13
697.217	0.03
697.399	-0.02
697.581	-0.04
697.763	-0.06
697.945	-0.07
698.127	-0.02
698.309	0.06
698.491	0.05
698.672	-0.01
698.854	-0.01
699.036	0.05
699.218	-0.03
699.399	0.06
699.581	0.07
699.763	-0.01
699.945	-0.04
700.126	-0.03
700.308	0.09
700.49	0.03
700.671	-0.09
700.853	-0.01
701.035	-0
701.216	0.02
701.398	-0.03
701.579	-0.03
701.761	0.07
701.943	0.02
702.124	-0.03
702.306	-0
702.487	0.15
702.669	0.02
702.85	-0.03
703.031	-0.07
703.213	0.15
703.394	0.06
703.576	-0.04
703.757	0.12
703.938	0.09
704.12	0.13
704.301	-0.02
704.483	0.01
704.664	0.05
704.845	0.07
705.026	0.04
705.208	0
705.389	0.01
705.57	-0.05
705.751	0.08
705.933	0.01
706.114	0.04
706.295	-0
706.476	-0.06
706.657	0.03
706.838	0.03
707.02	0.09
707.201	0.01
707.382	-0.1
707.563	0.07
707.744	-0.01
707.925	-0.09
708.106	-0.06
708.287	0.03
708.468	0.09
708.649	0.03
708.83	-0.02
709.011	-0.02
709.192	0.06
709.373	-0.07
709.554	-0.01
709.734	0.03
709.915	0.02
710.096	-0.03
710.277	-0.12
710.458	0.04
710.639	0.03
710.819	-0.18
711	-0.05
711.181	0.05
711.362	0.05
711.542	0.01
711.723	-0
711.904	0.03
712.085	0.03
712.265	0.02
712.446	-0.12
712.627	-0.01
712.807	0.01
712.988	-0.05
713.168	-0.12
713.349	0.02
713.53	-0.16
713.71	-0.01
713.891	-0.08
714.071	-0.02
714.252	-0.03
714.432	0
714.613	-0.08
714.793	-0
714.974	0.08
715.154	0.02
715.334	0.01
715.515	0.08
715.695	-0.06
715.876	-0.05
716.056	-0.03
716.236	0.06
716.417	-0.05
716.597	0.05
716.777	0.14
716.957	0
717.138	-0.04
717.318	-0
717.498	-0.09
717.678	-0.02
717.859	0.03
718.039	-0.07
718.219	-0.07
718.399	0.04
718.579	-0.04
718.759	-0.1
718.939	0
719.12	-0.02
719.3	0.06
719.48	-0.14
719.66	-0.11
719.84	0.05
720.02	-0.05
720.2	-0.1
720.38	-0.02
720.56	0.11
720.74	-0.05
720.92	0.01
721.1	0.12
721.279	0.13
721.459	0
721.639	-0.1
721.819	0.04
721.999	-0.1
722.179	0.06
722.359	-0.11
722.538	-0.09
722.718	-0.02
722.898	-0.06
723.078	-0.05
723.257	-0.06
723.437	0.02
723.617	0.09
723.797	-0.06
723.976	0
724.156	0.06
724.336	0.11
724.515	0.1
724.695	-0.1
724.874	-0.04
725.054	-0
725.234	-0.08
725.413	0.05
725.593	-0.02
725.772	-0.04
725.952	-0.02
726.131	0
726.311	-0.03
726.49	0.04
726.67	-0.11
726.849	-0.02
727.028	0.04
727.208	-0.04
727.387	0.01
727.567	-0.04
727.746	-0.02
727.925	-0.09
728.105	-0.14
728.284	0.04
728.463	-0.13
728.643	0
728.822	-0.14
729.001	-0.13
729.18	-0
729.359	0.13
729.539	0.02
729.718	0.11
729.897	0.11
730.076	-0.07
730.255	-0.08
730.434	-0.06
730.614	0.01
730.793	0.14
730.972	-0.01
731.151	-0.01
731.33	0.05
731.509	0.05
731.688	0.04
731.867	-0.04
732.046	-0.12
732.225	0.25
732.404	-0.08
732.583	-0.04
732.762	-0.08
732.941	0.06
733.12	0.03
733.298	-0.05
733.477	0.11
733.656	-0.12
733.835	-0.1
734.014	0.01
734.193	-0.05
734.371	0.01
734.55	0.05
734.729	-0.15
734.908	0.01
735.086	0.06
735.265	0.03
735.444	-0.15
735.623	-0.12
735.801	-0.12
735.98	0.04
736.159	-0.07
736.337	0.06
736.516	0.1
736.694	0.05
736.873	-0.1
737.052	0.1
737.23	0.15
737.409	-0.03
737.587	0.24
737.766	-0.25
737.944	0
738.123	0.02
738.301	0.12
738.479	-0.1
738.658	0.03
738.836	-0.19
739.015	0.03
739.193	0.18
739.371	-0.05
739.55	-0.02
739.728	-0.09
739.906	0.14
740.085	0.13
740.263	-0.07
740.441	-0.19
740.62	0.13
740.798	0.05
740.976	-0.09
741.154	-0.01
741.332	0.08
741.511	-0
741.689	0.04
741.867	0.05
742.045	0.03
742.223	-0.11
742.401	-0.08
742.579	-0.08
742.757	-0.03
742.935	-0.06
743.114	-0.01
743.292	-0.03
743.47	0.03
743.648	-0
743.826	-0.02
744.004	0.1
744.181	0.12
744.359	-0.11
744.537	-0.07
744.715	0.01
744.893	-0.08
745.071	0.02
745.249	0.02
745.427	-0.06
745.605	0.04
745.782	-0.1
745.96	-0.01
746.138	-0.04
746.316	0.12
746.493	-0.08
746.671	0.04
746.849	-0.04
747.027	0.16
747.204	-0.12
747.382	0.07
747.56	-0.1
747.737	0.03
747.915	-0.02
748.093	0.08
748.27	-0.05
748.448	-0.05
748.625	-0.1
748.803	-0.19
748.98	-0.14
749.158	0.02
749.335	0.13
749.513	-0.03
749.69	0.02
749.868	-0.11
750.045	0.07
750.223	-0.03
750.4	-0.04
750.578	0.15
750.755	-0.02
750.932	-0.17
751.11	0.06
751.287	-0.08
751.464	0.02
751.642	-0.1
751.819	0.09
751.996	0.03
752.173	-0.02
752.351	-0.12
752.528	-0.03
752.705	0.05
752.882	-0.13
753.06	0.02
753.237	0
753.414	0.25
753.591	0.19
753.768	-0.04
753.945	-0
754.122	-0.06
754.299	0.13
754.476	-0.13
754.654	-0
754.831	0.09
755.008	-0.03
755.185	-0.04
755.362	-0.13
755.539	-0.03
755.716	-0.07
755.892	-0.01
756.069	-0.12
756.246	0.01
756.423	-0.08
756.6	0.14
756.777	-0.01
756.954	0.1
757.131	-0.02
757.307	-0.12
757.484	-0.13
757.661	-0.07
757.838	0.03
758.015	-0.1
758.191	-0.06
758.368	-0.01
758.545	0.2
758.721	0.05
758.898	-0.11
759.075	0.03
759.251	0.18
759.428	0.07
759.605	-0.12
759.781	0.03
759.958	-0.01
760.134	0.08
760.311	-0.05
760.488	0.15
760.664	0.15
760.841	0.03
761.017	-0.07
761.194	0.22
761.37	0.05
761.547	0.01
761.723	-0.1
761.899	0.07
762.076	-0.06
762.252	-0.15
762.429	-0.14
762.605	0.07
762.781	-0.04
762.958	0.08
763.134	-0.23
763.31	-0.04
763.486	0.14
763.663	-0.16
763.839	-0.01
764.015	-0.27
764.191	-0.11
764.368	-0.03
764.544	0.04
764.72	0.05
764.896	0.12
765.072	0.02
765.248	-0.02
765.425	0.04
765.601	0.02
765.777	-0
765.953	-0.24
766.129	-0.04
766.305	-0.03
766.481	0.05
766.657	-0.02
766.833	0.15
767.009	-0.1
767.185	0.08
767.361	-0.09
767.537	-0.03
767.713	0.18
767.889	-0.1
768.065	0.01
768.24	0.05
768.416	0.04
768.592	-0.14
768.768	-0.07
768.944	0.05
769.12	-0.12
769.295	-0.11
769.471	-0.07
769.647	-0.22
769.823	0.19
769.998	-0.06
770.174	-0.23
770.35	0.35
770.525	0.14
770.701	0.1
770.877	-0.02
771.052	-0.04
771.228	0.15
771.403	0.09
771.579	-0.02
771.755	0.34
771.93	-0.12
772.106	-0.28
772.281	-0.36
772.457	-0.03
772.632	-0
772.808	-0.15
772.983	-0.19
773.159	-0.22
773.334	0.12
773.509	0.02
773.685	-0.14
773.86	0.26
774.036	0.13
774.211	0.02
774.386	-0.11
774.562	-0.06
774.737	-0
774.912	-0.07
775.087	0.1
775.263	-0.15
775.438	0.08
775.613	-0.03
775.788	-0.14
775.964	0.14
776.139	0.37
776.314	-0.19
776.489	-0.03
776.664	-0.1
776.839	-0.05
777.014	0.05
777.19	0.17
777.365	0.19
777.54	0.28
777.715	-0.11
777.89	-0.1
778.065	-0.05
778.24	-0.07
778.415	0.2
778.59	-0.22
778.765	-0.13
778.94	0.04
779.115	0.05
779.289	-0.02
779.464	0.05
779.639	-0.1
779.814	-0.33
779.989	-0.32
780.164	0.17
780.339	0.1
780.513	-0.09
780.688	-0.1
780.863	0.01
781.038	0.12
781.212	-0.15
781.387	-0.01
781.562	0.31
781.737	0.01
781.911	0.33
782.086	-0.07
782.261	0.05
782.435	0.3
782.61	-0.05
782.784	0.09
782.959	0.21
783.134	-0.21
783.308	-0.18
783.483	-0.16
783.657	0.28
783.832	0.25
784.006	-0.41
784.181	0.02
784.355	0.06
784.53	-0.15
784.704	-0.04
784.878	0.18
785.053	0.06
785.227	0.26
785.402	0.4
785.576	-0.15
785.75	-0.14
785.925	0.16
786.099	-0.21
786.273	-0.11
786.448	0.24
786.622	0.16
786.796	0.05
786.97	-0.04
787.145	0.59
787.319	-0.19
787.493	-0.1
787.667	-0.45
787.841	-0.01
788.015	0.09
788.19	-0.17
788.364	-0.07
788.538	-0.06
788.712	-0.01
788.886	0.02
789.06	0.12
789.234	0.38
789.408	-0.19
789.582	-0.08
789.756	0.06
789.93	-0.01
790.104	0.02
790.278	-0.14
790.452	-0.3
790.626	0.24
790.8	-0.26
790.973	-0.12
791.147	0.44
791.321	0.23
791.495	0.31
791.669	-0.02
791.843	0.25
792.016	0.04
792.19	0.53
792.364	-0.32
792.538	0.35
792.711	0.32
792.885	-0.09
793.059	-0.08
793.233	-0.53
793.406	0.24
793.58	-0.06
793.754	0.05
793.927	-0.07
794.101	0.17
794.274	0.06
794.448	0.2
794.622	-0.19
794.795	0.12
794.969	0.05
795.142	0.19
795.316	-0.09
795.489	0.02
795.663	0.29
795.836	0.06
796.009	-0.3
796.183	0.44
796.356	-0.08
796.53	0.03
796.703	-0.12
796.876	0.68
797.05	-0.26
797.223	0.02
797.396	-0.07
797.57	-0
797.743	0.13
797.916	0.07
798.09	-0.01
798.263	0.21
798.436	0.26
798.609	-0.5
798.782	-0.01
798.956	0.09
799.129	0.04
799.302	-0.1
799.475	-0.17
799.648	-0.47
799.821	-0.1
799.994	0.16
800.167	-0.25
800.34	0.26
800.514	-0.03
800.687	-0.05
800.86	-0.19
801.033	0.02
801.206	-0.04
801.379	-0.27
801.551	0.4
801.724	0.56
801.897	0.6
802.07	-0.27
802.243	-0.59
802.416	-0.08
802.589	-0.25
802.762	0.14
802.935	0.14
803.107	0.24
803.28	0.19
803.453	0.15
803.626	-0.37
803.798	-0.1
803.971	-0.16
804.144	-0.05
804.317	-0.01
804.489	0.64
804.662	0.11
804.835	0.02
805.007	-0.13
805.18	0.3
805.353	0.07
805.525	-0.44
805.698	-0.42
805.87	0.17
806.043	0.29
806.215	-0.46
806.388	-0.39
806.56	-0.06
806.733	0.28
806.905	0.04
807.078	-0.14
807.25	-0.29
807.423	0.09
807.595	-0.1
807.768	-0.12
807.94	0.42
808.112	-0.03
808.285	0.15
808.457	-0.33
808.629	-0.26
808.802	0.25
808.974	0.04
809.146	-0.12
809.318	-0.63
809.491	-0.05
809.663	0.08
809.835	0
810.007	0.23
810.18	-0.14
810.352	-0.37
810.524	-0.21
810.696	-0.01
810.868	0.43
811.04	-0.1
811.212	-0.31
811.384	0.31
811.556	0.06
811.728	-0.19
811.901	0.55
812.073	0.41
812.245	0.32
812.417	-0.1
812.589	-0.78
812.76	0
812.932	0.3
813.104	0.15
813.276	-0.1
813.448	0.34
813.62	-0.09
813.792	-0.01
813.964	0.34
814.136	0.06
814.307	-0.36
814.479	-0.38
814.651	-0.35
814.823	0.68
814.995	0.07
815.166	0.2
815.338	-0.2
815.51	-0.74
815.681	0.77
815.853	0.11
816.025	-0.07
816.196	0.44
816.368	0.22
816.54	-0.56
816.711	-0.54
816.883	0.36
817.054	0.92
817.226	-0.02
817.398	0.04
817.569	-0.37
817.741	0.17
817.912	0.31
818.084	0.16
818.255	0.13
818.426	-0.32
818.598	0.16
818.769	-0.33
818.941	0.4
819.112	0.57
819.283	0.26
819.455	-0.15
819.626	0.04
819.798	0.18
819.969	0.28
820.14	0.17
820.311	-0.05
820.483	0.42
820.654	0.18
820.825	-0.42
820.996	-0.31
821.168	-0.53
821.339	0.1
821.51	-0.2
821.681	-0.28
821.852	0.19
822.023	-0.7
822.195	-0.36
822.366	0.41
822.537	-0.16
822.708	-0.02
822.879	-0.54
823.05	0.81
823.221	-0.59
823.392	0.22
823.563	-0.08
823.734	-0.09
823.905	-0.09
824.076	-0.07
824.247	-0.78
824.418	0.02
824.589	0.45
824.759	-0.14
824.93	0.12
825.101	-0.94
825.272	0.18
825.443	0.38
825.614	0.53
825.784	-0.86
825.955	0.67
826.126	0.19
826.297	0.14
826.467	0.48
826.638	0.37
826.809	-1.08
826.98	0.37
827.15	0.29
827.321	0.45
827.492	0.02
827.662	-0.38
827.833	1.06
828.003	0.49
828.174	-0.48
828.345	-0.58
828.515	1.02
828.686	0.03
828.856	-0.18
829.027	-0.3
829.197	0.47
829.368	-0.15
829.538	-0.52
829.709	-0.64
829.879	0.19
830.049	-0.45
830.22	-0.45
830.39	-0.08
830.56	0.71
830.731	-0.07
830.901	-0.61
831.072	0.37
831.242	0.19
831.412	0.27
831.582	-0.15
831.753	-1.1
831.923	0.52
832.093	0.45
832.263	-0.28
832.434	-0.16
832.604	0.14
832.774	0.83
832.944	-0.26
833.114	-0.07
833.284	0.36
833.454	-0.29
833.624	-0.76
833.795	0.09
833.965	1.08
834.135	1
834.305	-0.74
834.475	-0.89
834.645	-0.21
834.815	0.21
834.985	-0.57
835.155	-0.1
835.325	0.67
835.494	0.43
835.664	-0.16
835.834	-0.78
836.004	-0.41
836.174	0.23
836.344	0.17
836.514	-0.83
836.684	-0.35
836.853	-0.11
837.023	-0.71
837.193	-0.38
837.363	1.33
837.532	0.45
837.702	0.02
837.872	-0.57
838.041	0.58
838.211	1.91
838.381	-0.75
838.55	0.04
838.72	2.08
838.89	0.9
839.059	-0.24
839.229	-0.9
839.398	1.05
839.568	-0.3
839.738	0.06
839.907	0.18
840.077	-0.46
840.246	-0.2
840.416	-0.84
840.585	-0.89
840.755	0.87
840.924	0.9
841.093	-0.38
841.263	-0.2
841.432	0.22
841.602	-0.6
841.771	-0.68
841.94	0.28
842.11	2.03
842.279	1.25
842.448	-0.66
842.617	-0.67
842.787	1.32
842.956	-0.1
843.125	0.17
843.294	0.17
843.464	0.56
843.633	0.08
843.802	-0.88
843.971	0.08
844.14	0.64
844.309	1.07
844.479	-1.36
844.648	-0.79
844.817	-0.44
844.986	-0.05
845.155	-0.66
845.324	-0.56
845.493	-0.42
845.662	-0.1
845.831	0.87
846	0.33
846.169	-0.17
846.338	1.07
846.507	0.77
846.676	0.97
846.844	-0.21
847.013	0.75
847.182	0.23
847.351	-0.46
847.52	-0.79
847.689	0.52
847.858	-0.69
848.026	-0.4
848.195	0.39
848.364	-0.62
848.533	-0.38
848.701	-0.34
848.87	-0.06
849.039	0.95
849.207	1.39
849.376	1.17
849.545	1.01
849.713	-0.23
849.882	-0.02
850.051	0.34
850.219	0.59
850.388	0.49
850.556	-0.85
850.725	-0.79
850.893	0.55
851.062	0.04
851.23	0.34
851.399	-1.1
851.567	0.74
851.736	-1.01
851.904	-0.48
852.073	0.06
852.241	0.91
852.41	-0.32
852.578	-0.01
852.746	-0.01
852.915	0.89
853.083	-0.18
853.251	-1.45
853.42	-0.12
853.588	0.63
853.756	1.49
853.924	-0.16
854.093	-1.07
854.261	-0.2
854.429	-2
854.597	-0.59
854.765	-0.1
854.934	0.55
855.102	1.99
855.27	-0.09
855.438	0.16
855.606	1.29
855.774	0.87
855.942	-0.67
856.11	-1.63
856.278	-0.61
856.446	0.73
856.614	-0.2
856.782	-0.72
856.95	0.05
857.118	1.55
857.286	0.03
857.454	-1.25
857.622	-0.19
857.79	0.17
857.958	-1.04
858.126	-1.6
858.294	-3.39
858.462	0.05
858.629	-0.19
858.797	-0.59
858.965	-0.36
859.133	-0.34
859.301	0.24
859.468	0.06
859.636	-0.28
859.804	1.44
859.971	0.33
860.139	-0.19
860.307	1.02
860.474	-0.52
860.642	-1.51
860.81	-1.09
860.977	0.24
861.145	1.97
861.313	-0.22
861.48	1.4
861.648	1.33
861.815	-0.64
861.983	-1.18
862.15	-0.52
862.318	0.48
862.485	1.76
862.653	-0.44
862.82	-0.54
862.988	1.04
863.155	1.6
863.322	0.03
863.49	-1.38
863.657	-0.58
863.824	2.85
863.992	0.02
864.159	0.68
864.326	1.83
864.494	-0.56
864.661	1.59
864.828	-1.08
864.996	0.68
865.163	2.01
865.33	0.44
865.497	-1.97
865.664	-0.45
865.832	-2.05
865.999	0.55
866.166	-0.6
866.333	-0.74
866.5	0.08
866.667	0.64
866.834	-0.77
867.001	1.41
867.168	-2.39
867.335	-0.34
867.502	-1.77
867.669	-0.41
867.836	2.18
868.003	0.45
868.17	1.54
868.337	2.05
868.504	2.64
868.671	-2.09
868.838	-1.31
869.005	1.58
869.172	0.18
869.339	0.27
869.505	-1.54
869.672	1.62
869.839	1.45
870.006	0.08
870.173	-0.8
870.339	0.64
870.506	2.11
870.673	-0.37
870.84	0.01
871.006	1.05
871.173	-0.27
871.34	1.19
871.506	-2.74
871.673	0.61
871.839	-2.02
872.006	0.38
872.173	-0.26
872.339	-0.46
872.506	1.07
872.672	-0.53
872.839	-0.46
873.005	1.44
873.172	3.86
873.338	1.71
873.505	-0.6
873.671	-0.1
873.838	1.12
874.004	-2.56
874.171	-0.9
874.337	0.9
874.503	1.91
874.67	0.32
874.836	0.21
875.002	1.96
875.169	1.78
875.335	-0.05
875.501	-0.15
875.668	2.59
875.834	1.18
876	-1.29
876.166	1.04
876.332	1.42
876.499	3.99
876.665	-0.96
876.831	0.12
876.997	2.07
877.163	0.17
877.329	0.3
877.495	0.76
877.662	0.3
877.828	0.15
877.994	-0.86
878.16	-2.71
878.326	-1.43
878.492	1.8
878.658	-1.72
878.824	-0.64
878.99	-0.48
879.156	1.74
879.322	1.84
879.487	-1
879.653	0.81
879.819	-1.15
879.985	-0.63
880.151	2.52
880.317	0.12
880.483	1.39
880.648	-0.27
880.814	-4.3
880.98	3.02
881.146	-2.83
881.312	-1.12
881.477	-0.31
881.643	-0.46
881.809	2.79
881.974	1.19
882.14	-1.93
882.306	1.98
882.471	2.91
882.637	-0.93
882.803	0.85
882.968	3
883.134	3.5
883.299	-0.05
883.465	-0.68
883.63	0.81
883.796	3.23
883.961	1.08
884.127	0.47
884.292	-3.61
884.458	-2.32
884.623	-2.32
