Data from Apollo_Calib_20240827__AbsoluteIrradiance__135__01-24-02-359.txt Node

Date: Wed Aug 28 01:24:02 BST 2024
User: biology
Spectrometer: FLMT08252
Trigger mode: 0
Integration Time (sec): 5.000000E-1
Scans to average: 5
Electric dark correction enabled: true
Nonlinearity correction enabled: false
Boxcar width: 0
XAxis mode: Wavelengths
Number of Pixels in Spectrum: 3648
>>>>>Begin Spectral Data<<<<<
179.588	-0
179.809	-0
180.03	-0
180.251	-0
180.473	-0
180.694	0
180.915	0
181.136	-0
181.357	0
181.578	0
181.799	-0
182.02	-0
182.241	0
182.462	-0
182.683	0
182.904	-0
183.125	-0
183.346	0
183.567	0
183.788	-0
184.009	-0
184.23	0
184.451	0
184.672	-0
184.892	-0
185.113	0
185.334	0
185.555	-0
185.776	-0
185.996	0
186.217	0
186.438	-0
186.659	-0
186.879	0
187.1	-0
187.321	-0
187.541	-0
187.762	-0
187.983	-0
188.203	0
188.424	-0
188.644	-0
188.865	-0
189.086	-0
189.306	-0
189.527	-0
189.747	-0
189.968	-0
190.188	0
190.409	0
190.629	0
190.849	-0
191.07	0
191.29	0
191.511	-0
191.731	-0
191.951	-0
192.172	-0
192.392	0
192.612	0
192.833	-0
193.053	0
193.273	0
193.493	-0
193.714	-0
193.934	0
194.154	0
194.374	0
194.594	0
194.815	-0
195.035	0
195.255	-0
195.475	-0
195.695	0
195.915	0
196.135	-0
196.355	0
196.575	0
196.795	-0
197.015	-0
197.235	-0
197.455	-0
197.675	0
197.895	-0
198.115	-0
198.335	-0
198.555	-0
198.775	0
198.995	0
199.214	0
199.434	-0
199.654	-0
199.874	-0
200.094	0.47
200.313	-0.27
200.533	-0.48
200.753	-0.91
200.973	0.51
201.192	0.43
201.412	-0.33
201.632	-0.41
201.851	0.23
202.071	-0.18
202.291	-0.48
202.51	-0.53
202.73	0.53
202.95	-0.26
203.169	-0.65
203.389	-0.08
203.608	-0.16
203.828	-0.38
204.047	-0.29
204.267	0.08
204.486	0.03
204.706	-0.17
204.925	-0.16
205.145	0.06
205.364	0.31
205.583	0.64
205.803	-0.44
206.022	-0.5
206.242	0.24
206.461	-0.19
206.68	-0.13
206.9	-0.02
207.119	0.42
207.338	0.16
207.557	-0.16
207.777	0.07
207.996	-0.42
208.215	0.6
208.434	-0.29
208.654	-0.23
208.873	-0.05
209.092	0.32
209.311	-0.27
209.53	-0.01
209.749	-0.13
209.968	-0.44
210.187	0.15
210.407	-0.44
210.626	-0.17
210.845	0.09
211.064	-0.17
211.283	-0.25
211.502	0.27
211.721	-0.01
211.94	-0.08
212.159	0.24
212.377	0.2
212.596	0.18
212.815	0.04
213.034	0.09
213.253	0.14
213.472	0.27
213.691	-0.23
213.91	-0.43
214.128	-0.19
214.347	0.33
214.566	-0.37
214.785	-0.32
215.003	0.1
215.222	0.02
215.441	0.03
215.66	-0.33
215.878	0.05
216.097	0.2
216.316	-0.2
216.534	-0.2
216.753	0.07
216.972	-0.04
217.19	0.04
217.409	-0.23
217.627	-0.2
217.846	-0.05
218.064	-0.13
218.283	-0.24
218.501	0.41
218.72	0.15
218.938	-0.23
219.157	-0.13
219.375	0.18
219.594	0.15
219.812	-0.22
220.031	-0.29
220.249	0.41
220.467	0.35
220.686	-0.02
220.904	-0.3
221.122	-0.13
221.341	0.4
221.559	-0.15
221.777	-0.2
221.995	-0.04
222.214	0.09
222.432	-0.14
222.65	0.15
222.868	0.03
223.086	0.06
223.305	0.12
223.523	-0.16
223.741	0.37
223.959	-0.11
224.177	-0.23
224.395	-0.25
224.613	0.03
224.831	0.13
225.049	-0.2
225.267	-0.19
225.485	0.05
225.703	-0.16
225.921	-0.08
226.139	-0.13
226.357	0.07
226.575	0.02
226.793	-0.12
227.011	0.4
227.229	-0.07
227.447	0.06
227.665	-0.03
227.883	-0.2
228.1	0.01
228.318	0.05
228.536	-0.07
228.754	-0.2
228.972	0
229.189	-0.01
229.407	-0.23
229.625	-0.11
229.843	0.2
230.06	0.12
230.278	-0.09
230.496	-0.07
230.713	0.01
230.931	0.12
231.149	-0.03
231.366	-0.22
231.584	-0.12
231.801	0.28
232.019	-0.05
232.236	-0.29
232.454	-0.07
232.671	-0.04
232.889	-0.07
233.106	-0.09
233.324	0
233.541	-0.03
233.759	0.08
233.976	-0.12
234.194	-0.06
234.411	-0.05
234.628	-0.09
234.846	-0.16
235.063	-0.15
235.28	-0.08
235.498	-0.05
235.715	-0.08
235.932	0.04
236.149	0.08
236.367	-0.07
236.584	0.04
236.801	-0.06
237.018	0.08
237.236	0.03
237.453	-0.2
237.67	0.08
237.887	-0.04
238.104	-0.07
238.321	-0.2
238.538	-0.12
238.755	0.16
238.973	-0.1
239.19	-0.05
239.407	0.06
239.624	-0.01
239.841	-0.14
240.058	-0.06
240.275	0.02
240.492	-0.06
240.709	0.02
240.925	-0
241.142	-0.05
241.359	-0.13
241.576	-0.08
241.793	-0.1
242.01	-0.03
242.227	-0.01
242.444	0.03
242.66	0.01
242.877	-0.03
243.094	-0.1
243.311	0.01
243.527	-0.01
243.744	0.01
243.961	-0.01
244.178	-0.12
244.394	-0.1
244.611	0.12
244.828	0.1
245.044	-0.15
245.261	-0.09
245.477	0.04
245.694	0.05
245.911	-0.07
246.127	0.01
246.344	0.03
246.56	0.04
246.777	-0.07
246.993	-0.02
247.21	-0.03
247.426	0.04
247.643	-0.06
247.859	-0.12
248.076	-0.03
248.292	0.15
248.508	-0.07
248.725	0.1
248.941	-0.1
249.157	0.13
249.374	-0.08
249.59	-0.04
249.806	0.06
250.023	0.13
250.239	-0.01
250.455	-0.04
250.671	-0.03
250.888	0.06
251.104	0.02
251.32	-0.08
251.536	0.05
251.752	-0.05
251.969	0.02
252.185	0.08
252.401	0.13
252.617	0.06
252.833	-0.09
253.049	0.03
253.265	-0.02
253.481	0.07
253.697	-0.06
253.913	-0.07
254.129	0.01
254.345	0.04
254.561	-0.08
254.777	-0.02
254.993	0.04
255.209	0.08
255.425	-0.02
255.641	-0.11
255.857	0.06
256.073	0.02
256.288	-0.1
256.504	-0.06
256.72	-0.01
256.936	0.08
257.152	-0.03
257.367	-0.03
257.583	0.02
257.799	-0
258.015	-0.04
258.23	-0.03
258.446	0.14
258.662	0.01
258.877	-0.02
259.093	-0.09
259.309	0.01
259.524	0.03
259.74	-0.04
259.955	-0.11
260.171	-0.03
260.387	-0.06
260.602	0.11
260.818	0.05
261.033	-0.03
261.249	-0.05
261.464	-0.1
261.68	-0.07
261.895	0.05
262.11	0.05
262.326	-0.02
262.541	-0.11
262.757	0.01
262.972	0.02
263.187	-0
263.403	0.02
263.618	0.04
263.833	-0.05
264.049	-0.04
264.264	-0.02
264.479	0.04
264.694	0.14
264.91	-0.07
265.125	-0.07
265.34	0.03
265.555	0.13
265.77	0.02
265.986	-0.04
266.201	0.07
266.416	0.09
266.631	0.03
266.846	0.03
267.061	0.01
267.276	0
267.491	-0.16
267.706	0.05
267.921	0.03
268.136	0.01
268.351	-0.02
268.566	-0.02
268.781	0.1
268.996	0.1
269.211	-0.04
269.426	-0.08
269.641	-0.03
269.856	-0.02
270.071	-0.07
270.285	-0.07
270.5	-0
270.715	0.07
270.93	-0.03
271.145	0.02
271.359	0.02
271.574	-0.02
271.789	-0.1
272.004	-0.04
272.218	-0.05
272.433	0.02
272.648	-0
272.862	0.05
273.077	-0.01
273.292	-0.03
273.506	-0.02
273.721	-0.11
273.936	0.02
274.15	0.07
274.365	-0.04
274.579	0.03
274.794	0.03
275.008	0.05
275.223	-0.09
275.437	0.02
275.652	0.05
275.866	0.02
276.081	0.03
276.295	0.05
276.509	-0
276.724	-0.01
276.938	0.01
277.153	0.02
277.367	0.06
277.581	-0.07
277.796	-0.07
278.01	-0.06
278.224	0.07
278.438	0.14
278.653	-0.07
278.867	-0.02
279.081	-0.24
279.295	-0.04
279.51	0.02
279.724	-0.09
279.938	0.06
280.152	-0
280.366	-0.05
280.58	-0.01
280.794	0.08
281.008	0.02
281.222	-0.03
281.437	0.04
281.651	-0.05
281.865	0.07
282.079	-0.01
282.293	-0.04
282.507	-0.02
282.721	-0
282.935	-0.03
283.148	-0.11
283.362	-0.07
283.576	-0.07
283.79	-0.04
284.004	-0.03
284.218	0.05
284.432	-0.03
284.646	-0.04
284.859	-0.01
285.073	-0.03
285.287	-0.02
285.501	-0.04
285.714	-0.06
285.928	-0.02
286.142	-0.02
286.356	-0.06
286.569	-0.01
286.783	0.02
286.997	0.02
287.21	0.04
287.424	0.01
287.637	0.01
287.851	0.03
288.065	0.03
288.278	-0
288.492	-0.01
288.705	-0.04
288.919	0.04
289.132	-0.06
289.346	0.11
289.559	-0.06
289.773	-0.05
289.986	-0.03
290.2	0.02
290.413	0.02
290.626	-0.03
290.84	0.03
291.053	-0.03
291.267	0.08
291.48	-0
291.693	0.05
291.906	-0.03
292.12	-0.02
292.333	-0.04
292.546	-0.03
292.76	0.1
292.973	0.02
293.186	0.04
293.399	-0.03
293.612	0.06
293.826	-0.01
294.039	-0.01
294.252	0.02
294.465	0.04
294.678	0.05
294.891	-0.01
295.104	-0.06
295.317	-0.02
295.53	0.03
295.743	0.01
295.956	-0.02
296.169	-0
296.382	0.05
296.595	0.02
296.808	-0.03
297.021	0.01
297.234	0.03
297.447	-0.02
297.66	0.03
297.873	0.08
298.086	0.04
298.299	-0.04
298.511	-0.08
298.724	0.04
298.937	-0.07
299.15	-0.03
299.363	0.02
299.575	0.03
299.788	0.01
300.001	0.02
300.213	-0
300.426	-0.02
300.639	-0.06
300.852	-0.01
301.064	0.03
301.277	0.07
301.489	0.04
301.702	0.01
301.915	-0
302.127	0.03
302.34	0.01
302.552	0.07
302.765	-0.01
302.977	0.04
303.19	-0.02
303.402	-0.01
303.615	-0.04
303.827	-0.04
304.04	-0.02
304.252	0.01
304.464	-0.04
304.677	0.13
304.889	0.03
305.102	-0.04
305.314	-0.01
305.526	0.04
305.739	0.04
305.951	-0.05
306.163	-0.02
306.375	0.01
306.588	-0.02
306.8	-0.02
307.012	-0.05
307.224	-0.01
307.436	0.09
307.649	-0.03
307.861	0.04
308.073	0.01
308.285	-0.04
308.497	0
308.709	-0.03
308.921	0.02
309.133	0.06
309.346	-0.01
309.558	0
309.77	0.06
309.982	0.05
310.194	0.01
310.406	-0
310.617	0.09
310.829	0.02
311.041	0.04
311.253	-0.05
311.465	0
311.677	-0.02
311.889	-0.01
312.101	0.01
312.313	0.03
312.524	0.06
312.736	-0.04
312.948	-0.03
313.16	0.06
313.372	0.04
313.583	0.02
313.795	-0.03
314.007	-0.01
314.218	0.03
314.43	-0
314.642	-0.02
314.853	-0.05
315.065	-0.01
315.277	-0.03
315.488	-0
315.7	0.07
315.912	0.01
316.123	-0.05
316.335	-0.04
316.546	0.08
316.758	0.02
316.969	-0
317.181	0.01
317.392	-0.04
317.604	0.01
317.815	-0.11
318.026	-0.06
318.238	-0
318.449	0.03
318.661	-0.08
318.872	-0.05
319.083	-0.05
319.295	0.01
319.506	-0.02
319.717	0.04
319.929	0.03
320.14	-0
320.351	0.03
320.562	-0.06
320.774	-0.01
320.985	-0.03
321.196	-0.05
321.407	-0.04
321.618	0.06
321.829	0.05
322.041	0.04
322.252	0.01
322.463	0.04
322.674	0.05
322.885	-0.01
323.096	-0.03
323.307	-0.01
323.518	0.02
323.729	-0.02
323.94	-0.01
324.151	-0.01
324.362	-0.03
324.573	-0.02
324.784	-0.05
324.995	0.04
325.206	0.01
325.417	-0.02
325.628	-0.01
325.838	-0.01
326.049	0.01
326.26	0.03
326.471	-0.02
326.682	0.03
326.892	-0
327.103	-0.05
327.314	-0.08
327.525	0.08
327.735	0.01
327.946	-0.03
328.157	-0.01
328.368	0.03
328.578	0.02
328.789	0.03
328.999	0.01
329.21	-0
329.421	0.06
329.631	-0.01
329.842	-0.01
330.052	0.01
330.263	-0.03
330.473	0.05
330.684	-0.02
330.894	0
331.105	0.02
331.315	-0
331.526	-0.06
331.736	0.07
331.947	0.02
332.157	-0.02
332.367	-0.03
332.578	0.02
332.788	0.06
332.999	-0.01
333.209	-0.04
333.419	-0.05
333.629	0.03
333.84	0.01
334.05	-0.01
334.26	0.03
334.47	-0.02
334.681	0.02
334.891	-0
335.101	0.03
335.311	0.08
335.521	-0
335.732	-0.02
335.942	0.03
336.152	0.02
336.362	0.01
336.572	0.02
336.782	-0
336.992	0
337.202	-0.02
337.412	-0.03
337.622	0.02
337.832	0.02
338.042	0.03
338.252	-0.06
338.462	-0.02
338.672	0.04
338.882	-0
339.092	-0.01
339.302	0.06
339.511	0.03
339.721	-0.02
339.931	-0.02
340.141	0.02
340.351	0.05
340.561	0.01
340.77	-0.02
340.98	-0.02
341.19	0.02
341.4	-0.04
341.609	-0.06
341.819	-0.02
342.029	-0.06
342.238	0.02
342.448	-0.04
342.658	0.05
342.867	0.01
343.077	0
343.286	0.02
343.496	0
343.706	0.05
343.915	-0.04
344.125	-0.01
344.334	0.04
344.544	-0.07
344.753	-0.02
344.963	-0.02
345.172	0.03
345.381	-0.02
345.591	-0.04
345.8	0.01
346.01	0.07
346.219	0.06
346.428	-0.15
346.638	-0.03
346.847	0
347.056	0.09
347.266	-0.03
347.475	0.03
347.684	0.04
347.893	0.01
348.103	-0.02
348.312	-0.03
348.521	-0.03
348.73	-0
348.94	0
349.149	-0
349.358	-0.02
349.567	-0.01
349.776	-0.07
349.985	0
350.194	0.04
350.403	0.04
350.612	-0.1
350.821	-0.02
351.03	0.01
351.239	-0.05
351.448	-0.01
351.657	-0.02
351.866	0.06
352.075	0.02
352.284	0.04
352.493	0
352.702	0.07
352.911	0.05
353.12	0.01
353.329	-0.06
353.538	0.02
353.746	-0.02
353.955	-0.02
354.164	0
354.373	0.01
354.582	0
354.79	0.04
354.999	0.03
355.208	-0.04
355.416	0.07
355.625	-0.07
355.834	-0.01
356.042	0.01
356.251	-0.05
356.46	-0.04
356.668	-0.02
356.877	0.07
357.085	0.01
357.294	-0.08
357.503	0.01
357.711	-0
357.92	0.1
358.128	0
358.337	-0.01
358.545	-0
358.754	0
358.962	0.02
359.17	-0.02
359.379	0.01
359.587	-0
359.796	0.01
360.004	0
360.212	0.04
360.421	0.04
360.629	0.01
360.837	-0.01
361.046	0.05
361.254	0.11
361.462	0.02
361.67	-0.05
361.879	-0.02
362.087	0.08
362.295	-0.01
362.503	-0.04
362.711	-0.07
362.92	-0.02
363.128	-0.01
363.336	-0.05
363.544	-0.06
363.752	-0.05
363.96	-0.02
364.168	-0.01
364.376	0.01
364.584	0.03
364.792	0.04
365	0.05
365.208	-0
365.416	0
365.624	-0.01
365.832	-0.01
366.04	0.05
366.248	0.02
366.456	-0.02
366.664	0.02
366.872	-0.03
367.079	-0.01
367.287	0
367.495	0
367.703	0.01
367.911	-0.03
368.118	0
368.326	-0.02
368.534	-0.04
368.742	0.04
368.949	-0.07
369.157	-0.04
369.365	0.02
369.572	0.02
369.78	-0.03
369.988	0.02
370.195	0.02
370.403	0.02
370.61	-0.03
370.818	0.02
371.026	0.04
371.233	-0.02
371.441	0.03
371.648	-0.02
371.856	0.01
372.063	-0
372.271	-0.03
372.478	-0.04
372.685	-0
372.893	0.04
373.1	0.01
373.308	-0
373.515	0.08
373.722	0
373.93	-0
374.137	0.04
374.344	0.09
374.552	0.06
374.759	0.02
374.966	0.03
375.173	0
375.381	0.07
375.588	0.01
375.795	-0.06
376.002	-0.02
376.209	-0.01
376.417	0.01
376.624	-0
376.831	0.04
377.038	-0.05
377.245	-0.07
377.452	-0
377.659	0.01
377.866	-0.02
378.073	-0.02
378.28	-0.01
378.487	0.03
378.694	0.01
378.901	-0
379.108	0.02
379.315	0.01
379.522	0.09
379.729	0.05
379.936	-0.01
380.143	0.02
380.35	-0.02
380.557	0
380.763	-0
380.97	0.02
381.177	-0.01
381.384	0.06
381.591	-0.01
381.797	-0.03
382.004	-0.01
382.211	0.01
382.418	0.01
382.624	0.01
382.831	0
383.038	-0.02
383.244	-0.02
383.451	-0.03
383.658	0.02
383.864	-0.05
384.071	-0.05
384.277	0.07
384.484	-0.03
384.69	0.03
384.897	-0.04
385.103	0.01
385.31	-0.05
385.516	-0.01
385.723	-0.02
385.929	-0.01
386.136	-0.02
386.342	-0.05
386.549	0.01
386.755	0.03
386.961	-0.02
387.168	-0.04
387.374	-0.01
387.58	0.01
387.787	0
387.993	0
388.199	0
388.406	-0.03
388.612	-0.01
388.818	-0
389.024	0
389.231	0.01
389.437	0.04
389.643	0.03
389.849	-0.02
390.055	0.01
390.261	-0.01
390.467	0
390.674	-0.04
390.88	0.01
391.086	0.02
391.292	-0.01
391.498	0.04
391.704	-0.02
391.91	-0.02
392.116	0.02
392.322	-0.07
392.528	0.03
392.734	-0.05
392.94	-0
393.146	-0
393.352	-0.01
393.557	-0.02
393.763	-0.04
393.969	-0
394.175	0.01
394.381	-0.02
394.587	-0.07
394.792	0.01
394.998	0.04
395.204	0.07
395.41	-0.03
395.615	0.02
395.821	-0.04
396.027	0
396.233	-0.06
396.438	-0.02
396.644	0.04
396.85	0.02
397.055	-0.04
397.261	0
397.466	0.01
397.672	-0.02
397.878	-0.01
398.083	0.02
398.289	-0.02
398.494	0.02
398.7	-0.01
398.905	-0.06
399.111	0.02
399.316	-0.06
399.522	-0
399.727	-0.02
399.932	-0.02
400.138	-0.06
400.343	0.04
400.549	0
400.754	0
400.959	0.04
401.165	-0.01
401.37	0.05
401.575	0.02
401.78	-0.02
401.986	-0.04
402.191	0.01
402.396	-0.04
402.601	0.03
402.807	-0.01
403.012	0.01
403.217	0.02
403.422	0.01
403.627	-0.01
403.832	-0.07
404.037	0.04
404.243	-0.01
404.448	-0.01
404.653	-0.02
404.858	0.01
405.063	0.07
405.268	-0.02
405.473	-0.04
405.678	-0
405.883	0.07
406.088	-0
406.293	-0.07
406.498	-0.02
406.703	-0
406.907	-0.02
407.112	-0
407.317	0.01
407.522	0.01
407.727	-0.05
407.932	-0.02
408.136	0.07
408.341	-0
408.546	-0.01
408.751	0.05
408.956	-0.06
409.16	0.05
409.365	0
409.57	-0.05
409.774	0
409.979	0.03
410.184	0.01
410.388	-0.04
410.593	0.03
410.798	0.01
411.002	-0.02
411.207	0.02
411.411	0
411.616	-0.03
411.82	-0.05
412.025	-0
412.229	-0
412.434	0
412.638	-0.01
412.843	-0.01
413.047	-0
413.252	-0.04
413.456	0
413.66	0.04
413.865	-0.03
414.069	0.09
414.273	-0
414.478	-0.04
414.682	-0.04
414.886	-0
415.091	-0.09
415.295	-0.06
415.499	0.01
415.703	-0.04
415.908	0.05
416.112	-0.07
416.316	0
416.52	-0.08
416.724	-0.11
416.929	-0.01
417.133	0.13
417.337	-0.01
417.541	-0.06
417.745	-0.05
417.949	0.02
418.153	0.02
418.357	-0.06
418.561	0.12
418.765	0.02
418.969	0.11
419.173	-0.04
419.377	-0.07
419.581	0.1
419.785	-0.03
419.989	-0.09
420.193	-0.03
420.397	-0.01
420.601	0.07
420.804	0.02
421.008	-0.05
421.212	-0.01
421.416	0.04
421.62	0.02
421.823	-0.02
422.027	0.07
422.231	-0.01
422.435	-0.02
422.638	-0.02
422.842	-0
423.046	-0.03
423.249	0.01
423.453	0.06
423.657	0.02
423.86	-0.01
424.064	-0.03
424.268	-0.01
424.471	-0.02
424.675	0.08
424.878	0.05
425.082	-0.02
425.285	0.05
425.489	-0.01
425.692	0
425.896	-0.01
426.099	-0.01
426.303	-0.03
426.506	-0.04
426.71	0.01
426.913	0.07
427.116	0.04
427.32	-0.02
427.523	0.01
427.726	0.1
427.93	-0.05
428.133	0.03
428.336	-0.04
428.54	-0.04
428.743	0.01
428.946	0.03
429.149	-0.05
429.353	0.04
429.556	-0.01
429.759	0.02
429.962	-0.06
430.165	-0.01
430.368	-0.02
430.571	-0.03
430.775	0
430.978	0.03
431.181	-0.02
431.384	0.05
431.587	-0.02
431.79	-0
431.993	-0.06
432.196	-0.01
432.399	-0.07
432.602	0.09
432.805	-0.02
433.008	0.01
433.211	-0.07
433.414	0.01
433.616	0.03
433.819	-0.02
434.022	-0.09
434.225	0.09
434.428	-0
434.631	0.06
434.833	0.04
435.036	0.01
435.239	0.11
435.442	-0.02
435.645	-0.01
435.847	0.01
436.05	0.07
436.253	0.01
436.455	-0.04
436.658	-0.01
436.861	0.08
437.063	-0.07
437.266	0.01
437.468	0.01
437.671	0.16
437.874	0.02
438.076	-0.04
438.279	-0.06
438.481	0.03
438.684	-0.03
438.886	0.06
439.089	-0.03
439.291	-0
439.494	0.07
439.696	-0.03
439.899	-0.01
440.101	0.04
440.303	-0.05
440.506	0.08
440.708	0.05
440.91	0.08
441.113	-0
441.315	0.06
441.517	-0.02
441.72	0.08
441.922	-0.05
442.124	-0.03
442.326	0.07
442.529	0.1
442.731	0
442.933	0.13
443.135	0.04
443.337	0.01
443.539	0.02
443.742	0.02
443.944	0.04
444.146	0.05
444.348	0.02
444.55	0
444.752	0.06
444.954	-0.04
445.156	0.04
445.358	0.04
445.56	0.06
445.762	0.05
445.964	0.05
446.166	0
446.368	0.03
446.57	0.1
446.772	0.02
446.974	0.06
447.175	0.06
447.377	0.01
447.579	0.05
447.781	-0.01
447.983	0.11
448.184	0.06
448.386	0.1
448.588	-0.02
448.79	0.02
448.991	0.02
449.193	0.05
449.395	0.08
449.597	0.12
449.798	0.07
450	0.08
450.202	0.04
450.403	0.07
450.605	0.1
450.806	0.03
451.008	-0.01
451.21	0.04
451.411	0.07
451.613	0.04
451.814	0.04
452.016	0.03
452.217	0.06
452.419	0.08
452.62	0.07
452.821	0.06
453.023	0.09
453.224	0.08
453.426	0.01
453.627	0.06
453.828	0.07
454.03	0.04
454.231	0.09
454.432	-0.02
454.634	0.16
454.835	-0.02
455.036	0.03
455.238	0.09
455.439	0.15
455.64	-0.02
455.841	0.01
456.042	0.15
456.244	0.04
456.445	0
456.646	0.03
456.847	-0.03
457.048	0.09
457.249	0.06
457.45	0.18
457.651	0.03
457.852	0.09
458.054	0.06
458.255	0
458.456	0.04
458.657	0.05
458.858	0
459.058	0.05
459.259	0.06
459.46	-0.01
459.661	-0.02
459.862	0.12
460.063	0.02
460.264	0.08
460.465	-0.05
460.666	0.11
460.866	-0.02
461.067	0.01
461.268	-0
461.469	0.02
461.67	0.06
461.87	0.01
462.071	-0.03
462.272	0.02
462.473	0.01
462.673	0.04
462.874	0.02
463.075	0.01
463.275	-0.02
463.476	0.02
463.676	0.01
463.877	0.02
464.078	0.02
464.278	0.04
464.479	0.03
464.679	-0.01
464.88	0.02
465.08	0.03
465.281	-0.03
465.481	-0
465.682	-0.01
465.882	0.04
466.083	0.04
466.283	-0.02
466.483	0.01
466.684	-0.03
466.884	-0.01
467.085	0.02
467.285	0.06
467.485	-0.02
467.686	0
467.886	-0.03
468.086	0
468.286	0.03
468.487	0.04
468.687	-0.03
468.887	-0.01
469.087	0.03
469.287	-0.01
469.488	-0.06
469.688	0.04
469.888	0.07
470.088	0.01
470.288	0.09
470.488	0.05
470.688	-0.07
470.888	-0.02
471.088	-0.05
471.288	0.06
471.488	0.05
471.688	0.04
471.888	0.01
472.088	0.04
472.288	0.05
472.488	-0.01
472.688	-0.01
472.888	0.01
473.088	0
473.288	-0
473.488	-0.01
473.688	0.11
473.887	-0.01
474.087	-0.01
474.287	0.05
474.487	-0.01
474.687	0.07
474.886	0
475.086	0.01
475.286	0.02
475.486	-0.01
475.685	-0
475.885	-0.03
476.085	0.02
476.284	0.01
476.484	-0.02
476.684	0.02
476.883	0.08
477.083	0.02
477.282	-0.03
477.482	0.06
477.681	0.06
477.881	0.01
478.08	-0.03
478.28	0.01
478.479	0.02
478.679	0.07
478.878	0.01
479.078	-0.02
479.277	-0.01
479.477	0.01
479.676	0.04
479.875	-0.02
480.075	-0.06
480.274	0
480.473	0.03
480.673	-0.04
480.872	0.02
481.071	-0.01
481.271	0.03
481.47	-0.02
481.669	-0.01
481.868	-0.01
482.067	-0.04
482.267	-0.02
482.466	-0
482.665	-0.01
482.864	-0.04
483.063	-0.01
483.262	0.02
483.461	0.04
483.661	0.02
483.86	0.01
484.059	-0
484.258	-0.02
484.457	-0.01
484.656	0.03
484.855	0.01
485.054	-0.04
485.253	0.01
485.452	-0.04
485.651	0.02
485.849	-0.02
486.048	-0.02
486.247	-0.03
486.446	-0.02
486.645	-0.03
486.844	-0.03
487.043	-0.01
487.241	0.01
487.44	-0.02
487.639	-0
487.838	0.03
488.037	0.01
488.235	0.02
488.434	0.02
488.633	-0.03
488.831	0.01
489.03	0.04
489.229	0
489.427	-0
489.626	0.02
489.825	0.04
490.023	-0
490.222	-0.03
490.42	0.03
490.619	0.04
490.817	0.02
491.016	-0.02
491.214	0.02
491.413	-0
491.611	0
491.81	0
492.008	0.01
492.207	0.01
492.405	0
492.604	-0
492.802	-0.01
493	0
493.199	-0.02
493.397	0.01
493.595	-0.02
493.794	-0.01
493.992	0.03
494.19	0.01
494.388	0.03
494.587	-0.01
494.785	-0
494.983	-0.05
495.181	-0.01
495.379	-0.01
495.578	-0.03
495.776	0.01
495.974	0.03
496.172	-0
496.37	-0.02
496.568	-0.04
496.766	-0.02
496.964	0.03
497.162	-0.01
497.36	-0.04
497.558	0
497.756	0.03
497.954	-0.01
498.152	-0.01
498.35	0
498.548	-0.03
498.746	0
498.944	-0.02
499.142	-0.02
499.34	-0.03
499.538	0.01
499.736	-0.01
499.933	0.05
500.131	0.03
500.329	0
500.527	0.02
500.725	0.03
500.922	-0
501.12	0.02
501.318	-0.01
501.516	-0.03
501.713	0.01
501.911	0
502.109	-0.04
502.306	0
502.504	-0.01
502.701	-0.03
502.899	-0.03
503.097	0.05
503.294	0
503.492	-0.01
503.689	0.01
503.887	0.01
504.084	0.04
504.282	-0
504.479	-0.04
504.677	0.01
504.874	-0.02
505.072	-0.01
505.269	-0.01
505.466	0.02
505.664	0.04
505.861	-0.02
506.059	-0.02
506.256	0.03
506.453	-0.03
506.651	0.04
506.848	0.01
507.045	0.02
507.242	0.01
507.44	0
507.637	-0
507.834	-0
508.031	0
508.229	-0.01
508.426	0
508.623	-0.01
508.82	-0.02
509.017	-0.02
509.214	-0
509.411	0
509.608	-0.03
509.805	0.01
510.003	-0.02
510.2	-0.01
510.397	-0
510.594	-0.01
510.791	-0.04
510.988	-0.03
511.184	0.02
511.381	0
511.578	-0.03
511.775	0.01
511.972	-0.01
512.169	-0.01
512.366	-0.01
512.563	-0
512.76	0
512.956	0.02
513.153	-0.01
513.35	0.01
513.547	-0.01
513.744	-0.03
513.94	-0.03
514.137	0
514.334	0.01
514.53	-0
514.727	-0
514.924	0.03
515.12	-0
515.317	-0.05
515.514	-0.04
515.71	-0
515.907	0.01
516.103	0
516.3	0.01
516.497	0.02
516.693	0.01
516.89	-0.03
517.086	-0.03
517.283	0.04
517.479	-0
517.676	-0
517.872	0
518.068	-0.03
518.265	0.01
518.461	-0.02
518.658	-0.03
518.854	0.02
519.05	-0.01
519.247	-0.02
519.443	-0
519.639	0.01
519.836	-0
520.032	-0.02
520.228	0
520.424	0.01
520.621	-0
520.817	0.01
521.013	0
521.209	0.02
521.405	0.03
521.601	0
521.798	-0.01
521.994	-0
522.19	-0.03
522.386	-0.01
522.582	0.01
522.778	-0.01
522.974	-0.01
523.17	-0.01
523.366	-0.01
523.562	0.04
523.758	-0.01
523.954	-0.03
524.15	-0.03
524.346	-0.01
524.542	-0
524.738	-0.03
524.934	-0.01
525.129	-0.01
525.325	0
525.521	-0
525.717	0.03
525.913	-0.01
526.109	0
526.304	-0.01
526.5	-0
526.696	0.03
526.892	-0.01
527.087	0.02
527.283	-0.03
527.479	0
527.674	-0.03
527.87	-0.02
528.066	-0.01
528.261	0.02
528.457	-0
528.653	0
528.848	0
529.044	0.01
529.239	-0.01
529.435	0.04
529.63	0
529.826	0.04
530.021	-0.02
530.217	-0.01
530.412	-0.02
530.608	-0.02
530.803	-0.03
530.999	-0.01
531.194	-0.03
531.389	0.01
531.585	-0.04
531.78	0.02
531.975	0
532.171	0.03
532.366	-0
532.561	-0.01
532.757	-0.01
532.952	-0.01
533.147	0.01
533.342	-0.01
533.538	-0.03
533.733	0.03
533.928	-0.01
534.123	-0
534.318	-0.04
534.513	0
534.709	-0.01
534.904	-0.04
535.099	-0.04
535.294	-0.02
535.489	-0
535.684	-0.02
535.879	-0.03
536.074	-0
536.269	-0.03
536.464	0
536.659	0
536.854	-0.01
537.049	0.01
537.244	-0.01
537.439	-0.02
537.634	-0
537.828	0.01
538.023	-0.01
538.218	-0.04
538.413	-0
538.608	-0.01
538.803	0.02
538.997	-0.03
539.192	0.04
539.387	-0.01
539.582	-0
539.776	0.01
539.971	-0.02
540.166	-0
540.36	-0.04
540.555	0.01
540.75	-0.02
540.944	0
541.139	-0.04
541.334	-0.02
541.528	0.01
541.723	0.03
541.917	-0.02
542.112	-0.05
542.306	0
542.501	-0.01
542.695	0.01
542.89	-0.01
543.084	0
543.279	0
543.473	-0.02
543.668	0.01
543.862	-0.01
544.056	0
544.251	-0.03
544.445	0.02
544.64	-0.01
544.834	-0.02
545.028	-0
545.222	0.02
545.417	0.02
545.611	0
545.805	-0
546	-0.02
546.194	0.01
546.388	-0.03
546.582	0.01
546.776	0
546.97	0
547.165	0.01
547.359	0.01
547.553	-0.02
547.747	0.01
547.941	0.01
548.135	-0.01
548.329	0.01
548.523	-0.01
548.717	-0.01
548.911	0.01
549.105	-0.01
549.299	0.02
549.493	0.02
549.687	0.01
549.881	0
550.075	-0
550.269	-0.04
550.463	0.02
550.657	-0.03
550.85	-0.01
551.044	0.01
551.238	0.02
551.432	-0.01
551.626	-0.02
551.82	0.01
552.013	-0.03
552.207	0.02
552.401	0.01
552.594	-0.02
552.788	-0
552.982	-0.01
553.176	-0.02
553.369	0.01
553.563	0
553.756	-0.03
553.95	-0.04
554.144	-0.01
554.337	0.03
554.531	0.01
554.724	-0.01
554.918	-0.02
555.111	0.01
555.305	0
555.498	0.06
555.692	0.01
555.885	-0.01
556.079	0
556.272	-0.02
556.466	0.01
556.659	-0
556.852	-0.02
557.046	-0.03
557.239	0.03
557.432	-0.03
557.626	-0.02
557.819	-0.03
558.012	0.01
558.206	0.01
558.399	0.01
558.592	-0.01
558.785	-0.03
558.979	0.01
559.172	-0
559.365	0.02
559.558	0.02
559.751	-0
559.944	0.02
560.138	-0
560.331	-0
560.524	-0
560.717	0.01
560.91	0.01
561.103	0.03
561.296	0
561.489	0.02
561.682	-0.01
561.875	0.04
562.068	-0
562.261	0.01
562.454	0.03
562.647	0.04
562.84	0.02
563.032	0
563.225	0.01
563.418	-0.02
563.611	-0.01
563.804	-0.01
563.997	-0.03
564.19	-0.02
564.382	-0
564.575	-0.01
564.768	0.01
564.961	-0.01
565.153	-0.01
565.346	0.02
565.539	0.04
565.731	0.02
565.924	0.01
566.117	0.01
566.309	0.01
566.502	-0.01
566.695	-0.02
566.887	-0
567.08	-0.01
567.272	-0.03
567.465	-0.01
567.657	0.01
567.85	-0.02
568.042	0.01
568.235	0.04
568.427	0.01
568.62	-0
568.812	0.01
569.005	0
569.197	-0.05
569.389	0.02
569.582	-0
569.774	-0.01
569.966	-0.02
570.159	-0.04
570.351	0.02
570.543	-0.04
570.736	-0.01
570.928	-0.03
571.12	0
571.312	-0.01
571.505	-0.02
571.697	0.02
571.889	-0.04
572.081	-0.03
572.273	-0.01
572.465	0.02
572.658	-0.02
572.85	-0.01
573.042	-0.02
573.234	-0.02
573.426	0.03
573.618	-0.03
573.81	0.01
574.002	0.01
574.194	0.01
574.386	-0.04
574.578	-0.07
574.77	-0.02
574.962	-0.03
575.154	-0.03
575.346	0.01
575.538	-0.01
575.729	-0.03
575.921	-0
576.113	-0.02
576.305	0.02
576.497	-0.02
576.689	0
576.88	-0.01
577.072	0.02
577.264	-0.02
577.456	0.01
577.647	-0.08
577.839	-0.01
578.031	0.02
578.223	-0.04
578.414	-0.06
578.606	0.01
578.798	-0.01
578.989	-0.03
579.181	-0.01
579.372	-0.01
579.564	-0.01
579.755	-0
579.947	0.01
580.139	0.03
580.33	-0.05
580.522	-0.05
580.713	-0.07
580.905	-0
581.096	0.01
581.287	0.01
581.479	-0.02
581.67	-0.01
581.862	-0.02
582.053	-0.03
582.244	-0.03
582.436	-0.01
582.627	0.01
582.818	-0.03
583.01	-0.03
583.201	0.01
583.392	0.01
583.583	-0.01
583.775	0.02
583.966	-0.02
584.157	-0
584.348	0.01
584.54	-0.03
584.731	-0.02
584.922	-0.01
585.113	-0.03
585.304	0.01
585.495	0.05
585.686	0.01
585.877	-0.01
586.068	-0
586.259	0.02
586.45	-0
586.641	-0.03
586.832	-0.05
587.023	-0
587.214	-0.01
587.405	-0.02
587.596	-0.02
587.787	0.03
587.978	-0.01
588.169	-0.04
588.36	-0.04
588.551	0
588.742	-0.01
588.932	0
589.123	-0.01
589.314	-0
589.505	0.02
589.696	0
589.886	-0.02
590.077	-0.04
590.268	-0.02
590.458	-0.07
590.649	-0.03
590.84	0.01
591.03	-0.03
591.221	-0.04
591.412	-0.04
591.602	-0
591.793	0.03
591.984	-0.02
592.174	-0.01
592.365	0.06
592.555	-0.04
592.746	0.02
592.936	-0
593.127	-0.01
593.317	0.05
593.508	-0.04
593.698	-0.02
593.889	-0
594.079	-0.02
594.269	-0
594.46	0.01
594.65	-0.02
594.84	-0.01
595.031	-0.03
595.221	-0.03
595.411	-0.04
595.602	0.01
595.792	-0.01
595.982	-0.01
596.172	0.03
596.363	0.01
596.553	0.01
596.743	-0.01
596.933	-0
597.123	0.03
597.314	-0.04
597.504	-0.02
597.694	0.01
597.884	0
598.074	-0.01
598.264	-0.02
598.454	-0.01
598.644	-0.01
598.834	-0.02
599.024	-0.08
599.214	-0.04
599.404	0.01
599.594	-0.01
599.784	-0.04
599.974	0.05
600.164	0.02
600.354	-0.05
600.544	-0.03
600.734	0.02
600.924	0.02
601.114	-0.05
601.303	-0.02
601.493	-0
601.683	-0
601.873	0
602.063	-0.05
602.252	0.02
602.442	-0.06
602.632	-0.04
602.821	-0.06
603.011	0.02
603.201	0
603.39	-0.05
603.58	-0.06
603.77	0.01
603.959	0.02
604.149	-0.01
604.339	-0.03
604.528	0.03
604.718	0.02
604.907	-0.02
605.097	-0.01
605.286	-0.04
605.476	0.03
605.665	0.01
605.855	-0.01
606.044	0.06
606.234	0.04
606.423	-0.04
606.612	0
606.802	-0.01
606.991	0.03
607.181	0
607.37	-0.04
607.559	0
607.749	-0.02
607.938	-0.03
608.127	-0.02
608.316	-0.02
608.506	0.01
608.695	-0.01
608.884	-0.03
609.073	-0.01
609.263	0.02
609.452	-0.01
609.641	0.01
609.83	-0.06
610.019	-0.03
610.208	-0.02
610.397	0
610.586	0.02
610.775	-0.05
610.965	-0.02
611.154	-0.01
611.343	0.02
611.532	0.01
611.721	-0.03
611.91	-0.03
612.099	0.04
612.287	-0.02
612.476	-0.04
612.665	0.02
612.854	-0.04
613.043	0.02
613.232	-0
613.421	-0.06
613.61	-0.02
613.798	-0.02
613.987	0.01
614.176	0.01
614.365	0.02
614.554	-0.01
614.742	0.01
614.931	-0.01
615.12	0.01
615.309	0.01
615.497	-0
615.686	-0.04
615.875	0
616.063	-0.01
616.252	-0.03
616.44	-0.02
616.629	-0.01
616.818	0.04
617.006	-0.02
617.195	-0.02
617.383	0.03
617.572	0
617.76	-0.01
617.949	-0.06
618.137	0.01
618.326	0.02
618.514	-0.04
618.703	-0.03
618.891	0.05
619.079	-0.05
619.268	0.01
619.456	-0.03
619.644	0.03
619.833	-0.03
620.021	-0.03
620.209	-0.03
620.398	-0.01
620.586	0
620.774	0.03
620.962	0
621.151	0.05
621.339	-0
621.527	-0.04
621.715	-0.03
621.903	-0.02
622.092	-0.04
622.28	0.05
622.468	-0.03
622.656	-0.01
622.844	0.01
623.032	-0.03
623.22	-0.05
623.408	0.02
623.596	-0.03
623.784	0.04
623.972	-0.06
624.16	-0.02
624.348	0.06
624.536	-0
624.724	-0.01
624.912	0.05
625.1	0.02
625.288	-0.01
625.476	0
625.664	0.02
625.851	-0.06
626.039	-0.01
626.227	0.02
626.415	-0
626.603	-0.05
626.79	0
626.978	-0.02
627.166	0.01
627.354	0.03
627.541	-0.01
627.729	-0.06
627.917	0.01
628.104	0.03
628.292	-0.02
628.48	0.03
628.667	0.01
628.855	-0.01
629.042	0.01
629.23	-0.03
629.418	0.01
629.605	-0.01
629.793	-0
629.98	-0.02
630.168	-0
630.355	-0.01
630.543	0.02
630.73	0.01
630.917	0.02
631.105	0.06
631.292	-0.01
631.48	-0.01
631.667	0.09
631.854	-0.01
632.042	-0
632.229	-0.04
632.416	0.01
632.604	-0.02
632.791	-0.02
632.978	0.03
633.165	0.02
633.353	0.08
633.54	0.02
633.727	-0.06
633.914	-0.01
634.101	-0.09
634.289	0.03
634.476	-0.01
634.663	-0.02
634.85	0.07
635.037	-0.03
635.224	-0.03
635.411	0.06
635.598	0.05
635.785	0.02
635.972	0.01
636.159	0.02
636.346	-0
636.533	0.02
636.72	0
636.907	0.01
637.094	0.02
637.281	0.01
637.468	-0
637.655	0.03
637.842	0
638.029	0.02
638.215	0.03
638.402	0.03
638.589	-0.02
638.776	-0
638.963	-0.01
639.149	0.07
639.336	0.05
639.523	0.01
639.709	0.02
639.896	-0.01
640.083	0.07
640.27	0.02
640.456	0.01
640.643	0.06
640.829	-0.03
641.016	0.01
641.203	-0.01
641.389	0.07
641.576	0.01
641.762	0.04
641.949	-0
642.135	0.04
642.322	0.04
642.508	-0.01
642.695	0.03
642.881	0.01
643.068	0.01
643.254	0.04
643.441	0.06
643.627	0.03
643.813	-0.01
644	0.07
644.186	0.02
644.372	0.03
644.559	0.07
644.745	0.04
644.931	0.03
645.118	0.05
645.304	0.01
645.49	0.01
645.676	0.06
645.862	0.04
646.049	0.08
646.235	0.06
646.421	0.12
646.607	0.12
646.793	0.03
646.979	0
647.165	0.07
647.352	0.04
647.538	0.09
647.724	0.03
647.91	0.06
648.096	0.05
648.282	0.06
648.468	0.04
648.654	0.07
648.84	0.07
649.026	0.06
649.212	0.08
649.397	0.02
649.583	0.02
649.769	0.04
649.955	0.07
650.141	0.05
650.327	0.12
650.513	0.05
650.698	0.12
650.884	0.01
651.07	0.07
651.256	0.08
651.442	0.05
651.627	0.05
651.813	0.09
651.999	0.05
652.184	0.1
652.37	0.05
652.556	0.04
652.741	0.1
652.927	0.02
653.113	0.05
653.298	0.07
653.484	0.05
653.669	0.06
653.855	0.08
654.04	0.08
654.226	0.09
654.412	0.08
654.597	0.04
654.782	0.08
654.968	0.11
655.153	0.14
655.339	0.07
655.524	0.04
655.71	0.13
655.895	0.09
656.08	0.05
656.266	0.15
656.451	0.1
656.636	0.08
656.822	0.09
657.007	0.07
657.192	0.1
657.378	0.04
657.563	0.14
657.748	0.13
657.933	0.06
658.118	0.09
658.304	0.06
658.489	0.13
658.674	0.1
658.859	0.05
659.044	0.14
659.229	0.09
659.414	0.09
659.599	0.08
659.785	0.04
659.97	0.09
660.155	0.16
660.34	0.18
660.525	0.09
660.71	0.11
660.895	0.14
661.08	0.09
661.264	0.07
661.449	0.14
661.634	0.07
661.819	0.14
662.004	0.12
662.189	0.01
662.374	0.04
662.559	0.03
662.743	0.03
662.928	0.07
663.113	0.05
663.298	0
663.483	0.05
663.667	0.04
663.852	0.01
664.037	0.1
664.221	-0.01
664.406	0.09
664.591	0.1
664.775	0.06
664.96	0.02
665.145	0.04
665.329	0.07
665.514	0.02
665.698	0.05
665.883	0.03
666.068	0.07
666.252	0.03
666.437	0.02
666.621	0.06
666.806	0.09
666.99	0.02
667.174	-0.02
667.359	0.1
667.543	0.04
667.728	0.05
667.912	-0.04
668.096	0.04
668.281	-0
668.465	0
668.649	0.01
668.834	-0.04
669.018	-0.01
669.202	-0
669.387	0.03
669.571	0.07
669.755	0.01
669.939	0
670.124	0.01
670.308	0.06
670.492	0.05
670.676	0
670.86	-0.02
671.044	-0.05
671.228	0.06
671.413	-0.02
671.597	-0
671.781	0
671.965	0.03
672.149	-0.02
672.333	-0.02
672.517	-0.02
672.701	0.06
672.885	0.02
673.069	-0.05
673.253	0.04
673.437	-0.04
673.621	-0.03
673.804	-0.03
673.988	-0.01
674.172	0
674.356	-0.05
674.54	-0.01
674.724	0.07
674.908	-0.02
675.091	0.04
675.275	-0
675.459	-0
675.643	-0.02
675.826	0
676.01	0.01
676.194	-0.05
676.377	0.04
676.561	0.02
676.745	-0
676.928	0.04
677.112	0.01
677.296	-0.01
677.479	0.01
677.663	-0.04
677.846	0.01
678.03	-0
678.213	-0.02
678.397	0.01
678.58	-0.06
678.764	-0.03
678.947	-0.06
679.131	-0.06
679.314	0.03
679.498	-0.01
679.681	-0
679.865	0.02
680.048	-0.03
680.231	-0.02
680.415	-0.02
680.598	-0.02
680.781	-0.03
680.965	-0.03
681.148	0.03
681.331	-0.01
681.514	0.04
681.698	-0
681.881	-0.05
682.064	-0.04
682.247	0.02
682.43	-0.05
682.614	-0.01
682.797	0.08
682.98	0.02
683.163	-0.06
683.346	0.04
683.529	-0.06
683.712	-0.08
683.895	0.06
684.078	-0.03
684.261	0.01
684.444	0.02
684.627	0
684.81	-0.05
684.993	-0.02
685.176	-0.01
685.359	-0.07
685.542	-0.03
685.725	0.07
685.908	-0.01
686.091	-0.01
686.274	0.08
686.457	0.01
686.639	0.02
686.822	0.01
687.005	0.03
687.188	0.01
687.371	0.1
687.553	-0
687.736	0.04
687.919	0.06
688.102	0.05
688.284	-0.04
688.467	-0
688.65	-0.02
688.832	-0.06
689.015	-0.01
689.197	-0.07
689.38	0.06
689.563	0.05
689.745	-0.03
689.928	-0.05
690.11	0.02
690.293	0.06
690.475	-0.09
690.658	-0.01
690.84	-0.03
691.023	-0.01
691.205	-0.03
691.388	0.01
691.57	0.08
691.752	0.05
691.935	-0.07
692.117	-0.02
692.3	0.03
692.482	0.01
692.664	-0.03
692.847	0.07
693.029	0.04
693.211	-0
693.393	-0
693.576	0.02
693.758	-0.01
693.94	-0.02
694.122	-0.03
694.304	-0.03
694.487	-0.01
694.669	0.09
694.851	-0.02
695.033	-0.01
695.215	-0.02
695.397	-0.06
695.579	-0.03
695.761	-0.02
695.943	-0.04
696.125	0.05
696.308	0.02
696.49	-0.11
696.671	0.09
696.853	0.03
697.035	0.07
697.217	-0.04
697.399	0.09
697.581	-0.01
697.763	-0
697.945	-0.05
698.127	-0.02
698.309	0.1
698.491	0.01
698.672	0.06
698.854	0.03
699.036	0.09
699.218	-0.05
699.399	0.02
699.581	-0.01
699.763	-0.01
699.945	-0.06
700.126	-0
700.308	0.06
700.49	-0.07
700.671	-0.09
700.853	-0.01
701.035	-0.03
701.216	-0.02
701.398	-0.02
701.579	-0.03
701.761	0
701.943	-0.05
702.124	-0.03
702.306	-0.01
702.487	0.09
702.669	0.03
702.85	-0.07
703.031	-0.03
703.213	0.12
703.394	0.01
703.576	0.03
703.757	0.04
703.938	0.07
704.12	0.09
704.301	-0.01
704.483	-0.01
704.664	0.03
704.845	0.09
705.026	0.04
705.208	-0.03
705.389	0.04
705.57	0.01
705.751	-0.03
705.933	0.04
706.114	0.11
706.295	0
706.476	-0.05
706.657	0.1
706.838	0.07
707.02	0.09
707.201	-0.01
707.382	-0.06
707.563	0.06
707.744	-0.09
707.925	-0.01
708.106	-0.06
708.287	0.06
708.468	0.11
708.649	0
708.83	0.05
709.011	-0.02
709.192	0.06
709.373	-0.01
709.554	-0.01
709.734	0.03
709.915	0.04
710.096	0.04
710.277	-0.09
710.458	0.05
710.639	0.07
710.819	-0.06
711	-0.01
711.181	0.11
711.362	0.05
711.542	0.02
711.723	0.05
711.904	0.1
712.085	0.03
712.265	0.04
712.446	-0.01
712.627	-0.05
712.807	0.02
712.988	-0.01
713.168	-0.05
713.349	0.03
713.53	-0.11
713.71	-0.05
713.891	-0.03
714.071	0.01
714.252	-0.05
714.432	-0
714.613	-0.07
714.793	0.01
714.974	0.09
715.154	0.15
715.334	0.09
715.515	0.11
715.695	-0.02
715.876	0.03
716.056	0.01
716.236	0.02
716.417	-0.06
716.597	-0.07
716.777	0.09
716.957	0.05
717.138	-0.01
717.318	0.07
717.498	-0.08
717.678	-0.02
717.859	0.04
718.039	-0.08
718.219	0.01
718.399	0.06
718.579	-0.08
718.759	-0.01
718.939	0.09
719.12	0.07
719.3	0.04
719.48	-0.1
719.66	-0.1
719.84	0.09
720.02	0.01
720.2	-0.04
720.38	0.04
720.56	0.11
720.74	0.06
720.92	0.04
721.1	0.04
721.279	0.05
721.459	0.09
721.639	-0.07
721.819	0.05
721.999	-0.01
722.179	0.09
722.359	0.03
722.538	-0.02
722.718	0.05
722.898	-0
723.078	0.06
723.257	0.04
723.437	0.09
723.617	0.11
723.797	0.04
723.976	0.11
724.156	0.01
724.336	0.16
724.515	0.15
724.695	-0.06
724.874	0.06
725.054	0.04
725.234	0.06
725.413	0.09
725.593	0.01
725.772	0.11
725.952	0.03
726.131	0.03
726.311	0
726.49	0
726.67	-0.08
726.849	0.05
727.028	0.15
727.208	0.03
727.387	0.03
727.567	-0.04
727.746	0.08
727.925	0.05
728.105	-0.07
728.284	0.09
728.463	-0.01
728.643	0.11
728.822	-0.09
729.001	0.08
729.18	0.05
729.359	0.12
729.539	0.04
729.718	0.06
729.897	0.11
730.076	0.09
730.255	-0.04
730.434	0.07
730.614	0.16
730.793	0.09
730.972	0.15
731.151	0.06
731.33	0.22
731.509	0.13
731.688	0.08
731.867	0.1
732.046	-0.05
732.225	0.19
732.404	0.09
732.583	0.06
732.762	0.12
732.941	0.18
733.12	0.11
733.298	0.05
733.477	0.17
733.656	0.07
733.835	0.07
734.014	0.19
734.193	0.08
734.371	0.13
734.55	0.12
734.729	0.07
734.908	0.19
735.086	0.22
735.265	0.15
735.444	-0.06
735.623	0
735.801	0.04
735.98	0.12
736.159	0.06
736.337	0.15
736.516	0.08
736.694	0.2
736.873	0
737.052	0.34
737.23	0.16
737.409	0.04
737.587	0.22
737.766	0.04
737.944	0.01
738.123	0.15
738.301	0.15
738.479	0.05
738.658	0.1
738.836	-0.05
739.015	0.29
739.193	0.2
739.371	-0.05
739.55	0.06
739.728	-0.03
739.906	0.18
740.085	0.32
740.263	0.02
740.441	-0.16
740.62	0.24
740.798	0.21
740.976	-0.02
741.154	-0.11
741.332	0.26
741.511	0.09
741.689	0.08
741.867	0.18
742.045	0
742.223	0.04
742.401	0.03
742.579	0.02
742.757	0.13
742.935	-0.11
743.114	0.03
743.292	-0.01
743.47	0.02
743.648	0.03
743.826	0.07
744.004	0.05
744.181	0.12
744.359	0
744.537	-0.02
744.715	-0
744.893	0.04
745.071	0.06
745.249	0.02
745.427	-0.02
745.605	0.06
745.782	0.11
745.96	0.04
746.138	-0
746.316	0.02
746.493	-0.03
746.671	-0.01
746.849	-0.03
747.027	0.14
747.204	0.06
747.382	0.1
747.56	-0.11
747.737	0
747.915	-0
748.093	0.07
748.27	-0.06
748.448	0.01
748.625	-0.15
748.803	-0.05
748.98	-0.02
749.158	0.11
749.335	0.11
749.513	0.08
749.69	0.05
749.868	-0.02
750.045	0.09
750.223	-0.04
750.4	-0.23
750.578	0.16
750.755	0.06
750.932	-0.12
751.11	0
751.287	-0.17
751.464	0.17
751.642	-0.09
751.819	0.04
751.996	0.01
752.173	-0.09
752.351	-0.07
752.528	0.04
752.705	0
752.882	0.01
753.06	-0.01
753.237	0.08
753.414	0.2
753.591	0.09
753.768	0.1
753.945	-0.05
754.122	-0.08
754.299	0.08
754.476	-0.01
754.654	0.02
754.831	0.07
755.008	0.06
755.185	-0.02
755.362	-0.06
755.539	0.04
755.716	-0.17
755.892	-0.01
756.069	-0.02
756.246	-0
756.423	-0.06
756.6	0.12
756.777	-0.03
756.954	0.13
757.131	-0.05
757.307	-0.03
757.484	-0.04
757.661	0.1
757.838	0.06
758.015	-0.16
758.191	0.12
758.368	-0.01
758.545	0.24
758.721	0.08
758.898	-0.08
759.075	0.06
759.251	0.07
759.428	0.03
759.605	-0.1
759.781	-0.01
759.958	-0.02
760.134	0.07
760.311	-0.11
760.488	0.07
760.664	0.11
760.841	0.03
761.017	-0.1
761.194	-0.07
761.37	0.09
761.547	-0.06
761.723	-0.11
761.899	0.1
762.076	-0.06
762.252	-0.09
762.429	-0.11
762.605	0.02
762.781	-0.11
762.958	0.06
763.134	-0.07
763.31	-0.08
763.486	0.02
763.663	-0.15
763.839	0.08
764.015	-0.21
764.191	-0.14
764.368	-0.05
764.544	0.01
764.72	0.06
764.896	0.1
765.072	-0
765.248	-0
765.425	-0.13
765.601	-0.12
765.777	0.13
765.953	-0.12
766.129	-0.04
766.305	-0.11
766.481	0.08
766.657	0.05
766.833	0.22
767.009	0
767.185	-0.1
767.361	-0.08
767.537	-0.11
767.713	0.08
767.889	-0.09
768.065	-0.01
768.24	-0.21
768.416	0.15
768.592	0.04
768.768	0.02
768.944	0.03
769.12	-0.03
769.295	-0.14
769.471	0.07
769.647	-0.09
769.823	-0.01
769.998	-0.02
770.174	-0.17
770.35	0.35
770.525	0.23
770.701	0.01
770.877	-0.02
771.052	-0.06
771.228	0.11
771.403	0.13
771.579	0.11
771.755	0.28
771.93	-0.12
772.106	-0.02
772.281	-0.15
772.457	0.08
772.632	0.06
772.808	-0.3
772.983	-0.13
773.159	-0.18
773.334	0.06
773.509	0.03
773.685	-0.18
773.86	0.21
774.036	0.13
774.211	-0.03
774.386	-0.04
774.562	-0.1
774.737	0.05
774.912	-0.15
775.087	0.12
775.263	-0.05
775.438	-0.03
775.613	-0.23
775.788	0.05
775.964	0.1
776.139	0.45
776.314	-0.14
776.489	0.16
776.664	0.08
776.839	-0.18
777.014	0.16
777.19	0.04
777.365	0.15
777.54	0.16
777.715	-0.04
777.89	-0
778.065	-0.07
778.24	0.12
778.415	0.09
778.59	-0.25
778.765	-0.07
778.94	0.11
779.115	-0.04
779.289	-0.03
779.464	0.01
779.639	0
779.814	-0.32
779.989	-0.14
780.164	0.13
780.339	0.01
780.513	-0.17
780.688	0.02
780.863	-0.03
781.038	-0.04
781.212	-0.15
781.387	0.1
781.562	0.17
781.737	0.21
781.911	0.26
782.086	-0.2
782.261	-0.2
782.435	0.21
782.61	-0.07
782.784	-0.13
782.959	0.14
783.134	-0.06
783.308	-0.17
783.483	-0.09
783.657	0.26
783.832	0.1
784.006	-0.28
784.181	0.07
784.355	0.27
784.53	0.18
784.704	-0.1
784.878	0.21
785.053	0.04
785.227	0.28
785.402	0.26
785.576	-0.22
785.75	-0.01
785.925	-0.06
786.099	0.04
786.273	0.05
786.448	0.24
786.622	0.06
786.796	-0.07
786.97	-0.15
787.145	0.31
787.319	-0.06
787.493	-0.07
787.667	-0.46
787.841	-0.02
788.015	0.31
788.19	-0.17
788.364	0.06
788.538	0.3
788.712	0.3
788.886	0.02
789.06	0.29
789.234	0.24
789.408	-0.15
789.582	0.1
789.756	0.05
789.93	-0.02
790.104	-0.16
790.278	-0.07
790.452	-0.15
790.626	-0.04
790.8	0.04
790.973	0.15
791.147	0.29
791.321	0.25
791.495	0.06
791.669	0.12
791.843	0.37
792.016	0.2
792.19	0.46
792.364	-0.46
792.538	0.55
792.711	0.33
792.885	0.1
793.059	-0.04
793.233	-0.55
793.406	0.14
793.58	-0.05
793.754	0.15
793.927	0.01
794.101	0.33
794.274	-0
794.448	0.39
794.622	-0.3
794.795	0.28
794.969	-0.17
795.142	0.31
795.316	-0.08
795.489	-0.12
795.663	0.08
795.836	0.11
796.009	-0.36
796.183	0.15
796.356	0.23
796.53	-0.07
796.703	-0.2
796.876	0.26
797.05	-0.06
797.223	0.04
797.396	0.14
797.57	0.07
797.743	0.69
797.916	0.11
798.09	0.21
798.263	0.13
798.436	0.12
798.609	-0.01
798.782	-0.32
798.956	0.11
799.129	0.14
799.302	0.07
799.475	-0.33
799.648	-0.15
799.821	-0.3
799.994	0.06
800.167	-0.25
800.34	0.06
800.514	-0
800.687	-0.23
800.86	-0.22
801.033	-0.3
801.206	0.12
801.379	-0.21
801.551	0.1
801.724	-0.02
801.897	0.31
802.07	-0.07
802.243	-0.54
802.416	-0.22
802.589	0.08
802.762	0.07
802.935	0.1
803.107	0.48
803.28	0.41
803.453	0.03
803.626	-0.21
803.798	-0.03
803.971	-0.21
804.144	0.11
804.317	0.02
804.489	0.02
804.662	-0.12
804.835	0.19
805.007	-0.26
805.18	0.56
805.353	0
805.525	-0.42
805.698	-0.06
805.87	0.02
806.043	0.52
806.215	-0.3
806.388	0.11
806.56	0.36
806.733	0.37
806.905	0.07
807.078	-0.18
807.25	-0.14
807.423	0.15
807.595	-0.04
807.768	-0
807.94	0.23
808.112	0.14
808.285	-0.1
808.457	0.03
808.629	0.27
808.802	0.09
808.974	-0.2
809.146	-0.08
809.318	-0.54
809.491	-0.03
809.663	0.35
809.835	-0.18
810.007	0.33
810.18	0.18
810.352	-0.3
810.524	-0.11
810.696	0.04
810.868	0.15
811.04	0.04
811.212	-0.13
811.384	0.43
811.556	-0.2
811.728	-0.08
811.901	0.61
812.073	-0.17
812.245	0.09
812.417	0.1
812.589	-1.04
812.76	0.31
812.932	-0.18
813.104	0.51
813.276	0.01
813.448	0.08
813.62	-0.21
813.792	0.34
813.964	0.43
814.136	0.28
814.307	0.21
814.479	-0.05
814.651	-0.32
814.823	0.81
814.995	-0.25
815.166	0.08
815.338	-0.17
815.51	-0.25
815.681	0.35
815.853	-0.28
816.025	0.03
816.196	0.58
816.368	-0.15
816.54	-0.43
816.711	-0.1
816.883	0.31
817.054	0.94
817.226	-0.65
817.398	-0
817.569	-0.53
817.741	0.28
817.912	-0.39
818.084	-0.3
818.255	0.24
818.426	0.03
818.598	0.09
818.769	-0.26
818.941	0.23
819.112	0.58
819.283	0.09
819.455	-0.09
819.626	0.5
819.798	0.39
819.969	0.39
820.14	-0.13
820.311	-0.37
820.483	-0.28
820.654	-0.08
820.825	-0.1
820.996	-0.21
821.168	-0.13
821.339	-0.11
821.51	-0.18
821.681	-0.15
821.852	-0.28
822.023	-0.57
822.195	-0.2
822.366	0.33
822.537	-0.4
822.708	-0.11
822.879	-0.23
823.05	0.49
823.221	-0.04
823.392	0.27
823.563	0.23
823.734	0.01
823.905	0.13
824.076	-0.71
824.247	-0.23
824.418	-0.1
824.589	0.73
824.759	0.23
824.93	-0.1
825.101	-0.39
825.272	0.69
825.443	0.91
825.614	0.44
825.784	-0.85
825.955	0.93
826.126	0.19
826.297	-0.21
826.467	1.08
826.638	0.66
826.809	-1.07
826.98	0.13
827.15	0.42
827.321	-0.47
827.492	0.82
827.662	0.17
827.833	0.93
828.003	0.32
828.174	0.03
828.345	-0.13
828.515	0.59
828.686	0.19
828.856	-0.42
829.027	-0.36
829.197	0.18
829.368	0.17
829.538	-0.27
829.709	-0.25
829.879	0.3
830.049	0.28
830.22	-0.74
830.39	-0.37
830.56	0.63
830.731	-0.36
830.901	-0.07
831.072	0.5
831.242	0.2
831.412	-0.02
831.582	0.29
831.753	-0.64
831.923	-0.08
832.093	0.19
832.263	-0.2
832.434	-0.44
832.604	-0.01
832.774	0.31
832.944	0.06
833.114	-0.55
833.284	0.18
833.454	-0.16
833.624	-0.03
833.795	-0.49
833.965	0.15
834.135	1.08
834.305	-0.83
834.475	-0.2
834.645	-0.13
834.815	0.24
834.985	-0.41
835.155	-0.12
835.325	0.69
835.494	0.16
835.664	-0.58
835.834	-0.91
836.004	-0.01
836.174	0.66
836.344	1.07
836.514	-0.77
836.684	-0.34
836.853	0.21
837.023	-0.12
837.193	-0.1
837.363	0.93
837.532	0.44
837.702	0.29
837.872	-0.03
838.041	0.45
838.211	1.49
838.381	-0.29
838.55	-0.32
838.72	1.36
838.89	0.78
839.059	-0.34
839.229	-0.66
839.398	0.74
839.568	0.1
839.738	0.08
839.907	0.9
840.077	0.02
840.246	-0.6
840.416	-0.87
840.585	-0.82
840.755	0.99
840.924	0.67
841.093	-0.16
841.263	-0.4
841.432	0.12
841.602	-0.23
841.771	-0.82
841.94	0.14
842.11	1.97
842.279	1.18
842.448	-0.95
842.617	-1.18
842.787	0.99
842.956	-0.39
843.125	0.14
843.294	-0.27
843.464	1.07
843.633	-0.33
843.802	-0.42
843.971	-0.84
844.14	0.55
844.309	1.12
844.479	-0.72
844.648	-0.41
844.817	-0.73
844.986	0.02
845.155	-0.55
845.324	0.58
845.493	0.01
845.662	-0.39
845.831	1.07
846	0.88
846.169	0.31
846.338	1.26
846.507	0.76
846.676	-0.12
846.844	-0.25
847.013	-0.2
847.182	-0.61
847.351	-0.94
847.52	0.06
847.689	0.46
847.858	-0.36
848.026	-0.46
848.195	0.5
848.364	-0.56
848.533	-0.5
848.701	-0.2
848.87	-0.36
849.039	0.2
849.207	1.59
849.376	0.41
849.545	1.56
849.713	-0.16
849.882	0.33
850.051	0.2
850.219	0.13
850.388	0.01
850.556	-1.63
850.725	-1.07
850.893	0.58
851.062	-0.13
851.23	0.73
851.399	-1.61
851.567	-0.49
851.736	0.07
851.904	-1.4
852.073	-0.59
852.241	0.35
852.41	-0.77
852.578	0.09
852.746	0.02
852.915	1.5
853.083	-0.69
853.251	-1.17
853.42	-0.25
853.588	0.74
853.756	0.89
853.924	-0.77
854.093	-0.35
854.261	0.28
854.429	-1.49
854.597	-0.55
854.765	-0.92
854.934	-0.33
855.102	1.46
855.27	-1.04
855.438	0.18
855.606	0.43
855.774	0.52
855.942	-2.04
856.11	-2.34
856.278	0.65
856.446	1.68
856.614	-0.18
856.782	-0.61
856.95	1.74
857.118	0.79
857.286	0.3
857.454	-0.3
857.622	0.35
857.79	0.74
857.958	-0.7
858.126	0.22
858.294	-1.62
858.462	0.06
858.629	-1.03
858.797	-0.63
858.965	0.74
859.133	0.41
859.301	0.04
859.468	-0.36
859.636	-0.86
859.804	1.56
859.971	0.39
860.139	-0.75
860.307	0.7
860.474	0.56
860.642	-1.18
860.81	-1.07
860.977	0.05
861.145	0.26
861.313	-0.27
861.48	0.01
861.648	-0.25
861.815	-0.47
861.983	-0.76
862.15	-0.18
862.318	0.5
862.485	0.53
862.653	0.25
862.82	-0.86
862.988	1.94
863.155	-1.55
863.322	-1.4
863.49	-0.99
863.657	0.61
863.824	1.58
863.992	0.4
864.159	1.37
864.326	1.42
864.494	-1.2
864.661	1.89
864.828	-1.67
864.996	1.15
865.163	0.73
865.33	-0.26
865.497	-1.74
865.664	-0.66
865.832	-1.35
865.999	-0.04
866.166	-1.74
866.333	-0.48
866.5	-0.46
866.667	1.32
866.834	0.39
867.001	1.4
867.168	-1.01
867.335	0.42
867.502	-2.34
867.669	0.58
867.836	0.67
868.003	1.44
868.17	1.23
868.337	-1.21
868.504	1.81
868.671	0.21
868.838	-0.09
869.005	-0.79
869.172	-0.36
869.339	-0.17
869.505	-0.76
869.672	-0.57
869.839	1.87
870.006	0.85
870.173	-1.84
870.339	0.62
870.506	1.69
870.673	-0.76
870.84	1.88
871.006	0.52
871.173	-0.21
871.34	-1.25
871.506	-1.99
871.673	-0.58
871.839	-2.14
872.006	0.51
872.173	-0.82
872.339	1.09
872.506	0.83
872.672	-0.4
872.839	-2.63
873.005	0.17
873.172	2.6
873.338	1.03
873.505	-0.45
873.671	1.43
873.838	2.3
874.004	-0.63
874.171	0.17
874.337	-0.27
874.503	3.14
874.67	-0.71
874.836	-0.1
875.002	1.04
875.169	0.38
875.335	2.02
875.501	-0.63
875.668	1.55
875.834	0.76
876	-1.96
876.166	-0.43
876.332	1.27
876.499	2.44
876.665	-0.89
876.831	1.22
876.997	2.03
877.163	1.62
877.329	1.02
877.495	-0.05
877.662	2.55
877.828	1.1
877.994	0.2
878.16	-2.49
878.326	-0.63
878.492	1.06
878.658	-0.56
878.824	2.04
878.99	1.88
879.156	-0.99
879.322	2.48
879.487	-0.04
879.653	-0.47
879.819	0.35
879.985	-0.95
880.151	1.12
880.317	2.24
880.483	-0.43
880.648	1.25
880.814	-2.05
880.98	0.79
881.146	-2.46
881.312	-0.56
881.477	-1.67
881.643	-0.7
881.809	2.01
881.974	2.95
882.14	-3.85
882.306	-0.34
882.471	4.2
882.637	-0.85
882.803	0.52
882.968	1.98
883.134	3.81
883.299	1.7
883.465	-0.43
883.63	1.94
883.796	0.86
883.961	1.69
884.127	0.2
884.292	-4.16
884.458	-1.9
884.623	-1.9
