Data from Apollo_Calib_20240827__AbsoluteIrradiance__216__02-45-02-972.txt Node

Date: Wed Aug 28 02:45:02 BST 2024
User: biology
Spectrometer: FLMT08252
Trigger mode: 0
Integration Time (sec): 5.000000E-1
Scans to average: 5
Electric dark correction enabled: true
Nonlinearity correction enabled: false
Boxcar width: 0
XAxis mode: Wavelengths
Number of Pixels in Spectrum: 3648
>>>>>Begin Spectral Data<<<<<
179.588	-0
179.809	-0
180.03	-0
180.251	-0
180.473	-0
180.694	0
180.915	0
181.136	-0
181.357	0
181.578	-0
181.799	-0
182.02	-0
182.241	0
182.462	-0
182.683	0
182.904	-0
183.125	0
183.346	0
183.567	-0
183.788	-0
184.009	-0
184.23	0
184.451	0
184.672	-0
184.892	-0
185.113	0
185.334	0
185.555	-0
185.776	-0
185.996	0
186.217	0
186.438	-0
186.659	-0
186.879	0
187.1	-0
187.321	-0
187.541	-0
187.762	-0
187.983	-0
188.203	-0
188.424	0
188.644	-0
188.865	-0
189.086	-0
189.306	-0
189.527	-0
189.747	0
189.968	-0
190.188	-0
190.409	0
190.629	0
190.849	-0
191.07	-0
191.29	-0
191.511	0
191.731	-0
191.951	-0
192.172	-0
192.392	-0
192.612	-0
192.833	-0
193.053	-0
193.273	0
193.493	-0
193.714	-0
193.934	0
194.154	0
194.374	-0
194.594	-0
194.815	-0
195.035	-0
195.255	-0
195.475	-0
195.695	0
195.915	-0
196.135	-0
196.355	0
196.575	0
196.795	0
197.015	-0
197.235	-0
197.455	-0
197.675	-0
197.895	-0
198.115	-0
198.335	0
198.555	-0
198.775	-0
198.995	-0
199.214	0
199.434	-0
199.654	-0
199.874	-0
200.094	0.53
200.313	-0.72
200.533	-0.85
200.753	-0.89
200.973	0.68
201.192	0.37
201.412	-1.29
201.632	-0.4
201.851	1.01
202.071	-0.78
202.291	-0.8
202.51	-1.05
202.73	0.29
202.95	-0.47
203.169	-0.46
203.389	-0.13
203.608	-0.23
203.828	-0.53
204.047	-0.39
204.267	-0.01
204.486	-0.32
204.706	-0.1
204.925	-0.19
205.145	-0.51
205.364	0.34
205.583	0.48
205.803	-0.44
206.022	-0.9
206.242	0.12
206.461	-0.18
206.68	-0.38
206.9	-0.1
207.119	0.36
207.338	0.6
207.557	-0.6
207.777	-0.37
207.996	-0.2
208.215	0.32
208.434	-0.24
208.654	-0.51
208.873	0.21
209.092	0.48
209.311	-0.47
209.53	-0.3
209.749	-0.34
209.968	-0.43
210.187	-0.42
210.407	-0.46
210.626	-0.27
210.845	0.27
211.064	-0.16
211.283	-0.73
211.502	0.15
211.721	-0.18
211.94	-0.24
212.159	-0.12
212.377	0.04
212.596	0.34
212.815	-0.26
213.034	-0.03
213.253	0.24
213.472	0.21
213.691	0
213.91	-0.61
214.128	-0.28
214.347	0.28
214.566	-0.3
214.785	-0.59
215.003	0.33
215.222	0.1
215.441	-0.33
215.66	-0.32
215.878	0.06
216.097	0.23
216.316	-0.32
216.534	-0.27
216.753	0.14
216.972	-0.17
217.19	-0.03
217.409	-0.14
217.627	-0.2
217.846	-0.15
218.064	-0.12
218.283	-0.29
218.501	0.18
218.72	0.18
218.938	-0.24
219.157	-0.14
219.375	0.06
219.594	-0.06
219.812	-0.31
220.031	-0.33
220.249	0.17
220.467	0.3
220.686	-0.35
220.904	-0.35
221.122	-0.15
221.341	0.22
221.559	-0.08
221.777	-0.35
221.995	-0.01
222.214	0.05
222.432	-0.13
222.65	-0.14
222.868	-0.03
223.086	0.15
223.305	0.06
223.523	-0.04
223.741	0.15
223.959	-0.16
224.177	-0.32
224.395	-0.24
224.613	0.03
224.831	0.29
225.049	-0.23
225.267	-0.15
225.485	0.01
225.703	-0.12
225.921	-0.18
226.139	-0.15
226.357	0.09
226.575	-0.04
226.793	-0.05
227.011	0.58
227.229	0.05
227.447	0.1
227.665	-0.1
227.883	-0.34
228.1	0.03
228.318	-0.09
228.536	-0.39
228.754	-0.26
228.972	0.04
229.189	0.04
229.407	-0.11
229.625	-0.2
229.843	0.24
230.06	0.1
230.278	-0.1
230.496	-0.03
230.713	-0.07
230.931	0.12
231.149	-0.18
231.366	-0.38
231.584	-0.16
231.801	0.39
232.019	-0.11
232.236	-0.28
232.454	-0.15
232.671	-0.07
232.889	0
233.106	-0.22
233.324	0.02
233.541	-0.13
233.759	-0.03
233.976	-0.17
234.194	-0.12
234.411	-0.11
234.628	-0.13
234.846	-0.14
235.063	-0.07
235.28	-0.13
235.498	-0.01
235.715	-0.24
235.932	0.15
236.149	-0.14
236.367	-0.24
236.584	-0
236.801	-0.12
237.018	0.06
237.236	-0.09
237.453	-0.27
237.67	0.18
237.887	-0.04
238.104	-0.01
238.321	-0.17
238.538	-0.15
238.755	0.09
238.973	-0.25
239.19	-0.09
239.407	0.05
239.624	0.08
239.841	-0.19
240.058	-0.1
240.275	0.12
240.492	-0.06
240.709	-0.11
240.925	-0.15
241.142	0.02
241.359	-0.11
241.576	-0.17
241.793	-0.12
242.01	0.03
242.227	0.07
242.444	0.05
242.66	-0.03
242.877	-0.04
243.094	-0.11
243.311	-0.04
243.527	-0.02
243.744	-0.01
243.961	0.06
244.178	-0.05
244.394	-0.1
244.611	0.15
244.828	0.11
245.044	-0.18
245.261	-0.14
245.477	0.01
245.694	0.02
245.911	-0.11
246.127	-0.02
246.344	0.12
246.56	0.05
246.777	-0.08
246.993	-0.11
247.21	-0
247.426	0.02
247.643	-0.04
247.859	-0.12
248.076	-0.12
248.292	0.18
248.508	-0.05
248.725	0.05
248.941	-0.01
249.157	0.09
249.374	-0.09
249.59	-0.03
249.806	-0.03
250.023	0.13
250.239	-0.11
250.455	-0.19
250.671	0.01
250.888	-0.04
251.104	-0.05
251.32	-0.13
251.536	-0.04
251.752	-0.08
251.969	-0.01
252.185	-0.04
252.401	0.05
252.617	-0
252.833	-0.07
253.049	-0.03
253.265	-0.01
253.481	0.02
253.697	-0.06
253.913	-0.14
254.129	-0.03
254.345	-0.04
254.561	-0.05
254.777	-0.09
254.993	0.04
255.209	0.01
255.425	0.02
255.641	-0.07
255.857	0.1
256.073	0.04
256.288	-0.19
256.504	-0.16
256.72	0.01
256.936	0.12
257.152	-0.05
257.367	-0.11
257.583	-0.01
257.799	0.02
258.015	0.02
258.23	-0.1
258.446	0.08
258.662	-0.06
258.877	-0.15
259.093	-0.11
259.309	-0.03
259.524	-0.04
259.74	-0.2
259.955	-0.17
260.171	-0.04
260.387	-0.05
260.602	0.05
260.818	-0.07
261.033	-0.1
261.249	-0.07
261.464	-0.06
261.68	-0.17
261.895	-0.05
262.11	0.03
262.326	-0.1
262.541	-0.17
262.757	0
262.972	-0.01
263.187	-0.03
263.403	-0.04
263.618	0.03
263.833	-0.03
264.049	-0.07
264.264	-0.06
264.479	-0.02
264.694	0.13
264.91	-0.11
265.125	-0.05
265.34	0.06
265.555	0.07
265.77	0.03
265.986	-0.1
266.201	0.07
266.416	0.09
266.631	-0.06
266.846	-0.07
267.061	-0
267.276	0.06
267.491	-0.17
267.706	0.03
267.921	-0.01
268.136	0.01
268.351	-0.03
268.566	-0.14
268.781	0.05
268.996	-0.01
269.211	-0.02
269.426	-0.06
269.641	-0.03
269.856	0.01
270.071	-0.13
270.285	-0.07
270.5	0.01
270.715	0.06
270.93	-0.06
271.145	0.04
271.359	0.08
271.574	-0.1
271.789	-0.01
272.004	-0.12
272.218	-0.06
272.433	0.04
272.648	-0.08
272.862	0.03
273.077	-0.1
273.292	-0.02
273.506	-0.09
273.721	-0.1
273.936	0.06
274.15	0.06
274.365	-0.04
274.579	0.03
274.794	0.03
275.008	0.03
275.223	-0.15
275.437	-0.05
275.652	0.01
275.866	0.05
276.081	-0.07
276.295	0.03
276.509	0.01
276.724	-0.01
276.938	-0.04
277.153	-0.04
277.367	0.04
277.581	-0.1
277.796	-0.05
278.01	-0.03
278.224	0.07
278.438	0.1
278.653	-0.06
278.867	-0.08
279.081	0.05
279.295	-0.06
279.51	0.02
279.724	-0.11
279.938	0.03
280.152	0.01
280.366	-0.12
280.58	-0.05
280.794	0.06
281.008	-0.01
281.222	-0
281.437	0.08
281.651	0.03
281.865	0.1
282.079	-0.05
282.293	-0.15
282.507	-0.06
282.721	-0.04
282.935	0
283.148	-0.14
283.362	-0.05
283.576	-0.05
283.79	-0.05
284.004	-0.06
284.218	0.05
284.432	-0.03
284.646	-0.03
284.859	-0.07
285.073	-0.02
285.287	-0.02
285.501	0.04
285.714	-0.05
285.928	-0.01
286.142	-0.01
286.356	-0.02
286.569	-0.08
286.783	0.07
286.997	-0.03
287.21	-0.01
287.424	-0.03
287.637	0
287.851	-0.03
288.065	-0.02
288.278	-0.06
288.492	0
288.705	0
288.919	-0
289.132	-0.06
289.346	0.03
289.559	-0.07
289.773	-0.12
289.986	-0.05
290.2	-0.05
290.413	0.07
290.626	-0.07
290.84	-0.06
291.053	-0.04
291.267	0.04
291.48	0.01
291.693	-0.01
291.906	-0.05
292.12	-0.05
292.333	-0.08
292.546	-0.09
292.76	0.11
292.973	0.01
293.186	0.01
293.399	-0.1
293.612	0.1
293.826	-0.01
294.039	-0.04
294.252	-0.04
294.465	-0.01
294.678	0.02
294.891	-0.01
295.104	-0.07
295.317	-0.06
295.53	0.04
295.743	-0.03
295.956	-0.02
296.169	0.04
296.382	0.07
296.595	0.02
296.808	-0.08
297.021	0
297.234	0.03
297.447	-0.06
297.66	0.03
297.873	0.02
298.086	0
298.299	-0.01
298.511	-0.05
298.724	-0.05
298.937	-0.05
299.15	-0.06
299.363	-0.06
299.575	0.02
299.788	0.02
300.001	-0.04
300.213	-0.09
300.426	-0.05
300.639	-0.08
300.852	-0.03
301.064	0.03
301.277	0.03
301.489	0.05
301.702	0.03
301.915	0.01
302.127	0.01
302.34	-0.03
302.552	0.02
302.765	-0.06
302.977	0.03
303.19	-0.01
303.402	-0.02
303.615	-0.06
303.827	-0.05
304.04	-0.03
304.252	0.01
304.464	-0.03
304.677	0.1
304.889	0.01
305.102	-0.04
305.314	-0.03
305.526	0.05
305.739	-0.02
305.951	-0.02
306.163	-0.03
306.375	0.08
306.588	-0.05
306.8	-0.02
307.012	-0.05
307.224	0.03
307.436	0.1
307.649	-0.1
307.861	0.02
308.073	0.03
308.285	-0
308.497	-0.07
308.709	-0.04
308.921	0.02
309.133	0.03
309.346	-0.02
309.558	0
309.77	0.05
309.982	0.04
310.194	0.02
310.406	-0.05
310.617	0.07
310.829	0.01
311.041	-0.01
311.253	-0.03
311.465	-0.03
311.677	-0.03
311.889	-0.01
312.101	-0.04
312.313	0.05
312.524	0.08
312.736	-0.05
312.948	-0.04
313.16	0.08
313.372	0.06
313.583	-0.01
313.795	-0.04
314.007	-0.08
314.218	0.05
314.43	-0.05
314.642	-0.08
314.853	-0.08
315.065	0.04
315.277	-0.01
315.488	0.01
315.7	0.02
315.912	0.03
316.123	-0.04
316.335	-0.03
316.546	0.11
316.758	0.01
316.969	-0.04
317.181	-0.02
317.392	-0.03
317.604	0.07
317.815	-0.06
318.026	-0.04
318.238	-0.03
318.449	-0.01
318.661	-0.11
318.872	-0.08
319.083	-0.02
319.295	0
319.506	-0.03
319.717	0.02
319.929	0.05
320.14	0
320.351	-0.02
320.562	-0.04
320.774	-0.03
320.985	-0
321.196	-0.08
321.407	-0.06
321.618	0.06
321.829	-0.02
322.041	0.01
322.252	-0.02
322.463	0.02
322.674	0
322.885	-0.06
323.096	-0.05
323.307	-0.03
323.518	-0.03
323.729	-0.02
323.94	-0.02
324.151	-0.04
324.362	-0.02
324.573	-0.04
324.784	-0.08
324.995	0.03
325.206	0.01
325.417	-0.01
325.628	-0.06
325.838	0.01
326.049	-0.03
326.26	0.04
326.471	-0.05
326.682	0.02
326.892	-0.05
327.103	-0.06
327.314	-0.08
327.525	0.01
327.735	-0.03
327.946	-0.05
328.157	-0.08
328.368	0.03
328.578	-0.04
328.789	0.01
328.999	-0.01
329.21	-0.01
329.421	0.06
329.631	-0.06
329.842	-0.06
330.052	-0.01
330.263	0.04
330.473	0.03
330.684	-0.02
330.894	-0.01
331.105	0
331.315	-0.04
331.526	-0.02
331.736	0.03
331.947	0.01
332.157	0.03
332.367	-0.06
332.578	-0.02
332.788	0.04
332.999	0.02
333.209	-0.03
333.419	-0.05
333.629	0.04
333.84	-0.01
334.05	-0.03
334.26	0.06
334.47	-0.01
334.681	0.03
334.891	-0.04
335.101	0.01
335.311	0.1
335.521	-0.03
335.732	-0.08
335.942	0.06
336.152	0
336.362	-0.01
336.572	-0.02
336.782	0.05
336.992	-0.02
337.202	-0.03
337.412	-0.03
337.622	-0.02
337.832	0.01
338.042	0.01
338.252	-0.03
338.462	-0.04
338.672	0.01
338.882	-0.06
339.092	0.02
339.302	0.05
339.511	0.02
339.721	-0.02
339.931	-0.07
340.141	0.04
340.351	0.05
340.561	-0.02
340.77	-0.05
340.98	-0.02
341.19	0.01
341.4	-0.05
341.609	-0.07
341.819	-0.04
342.029	-0.05
342.238	-0
342.448	-0.04
342.658	0.05
342.867	-0.04
343.077	-0.04
343.286	-0.01
343.496	-0.03
343.706	0.03
343.915	-0.04
344.125	-0.03
344.334	-0.02
344.544	-0.06
344.753	-0.04
344.963	-0.07
345.172	-0.02
345.381	-0.05
345.591	-0.07
345.8	0.01
346.01	0.05
346.219	0.04
346.428	-0.13
346.638	-0.03
346.847	-0.01
347.056	0.04
347.266	-0.02
347.475	-0.02
347.684	0.01
347.893	-0
348.103	0.01
348.312	0.02
348.521	0.01
348.73	-0.04
348.94	-0.01
349.149	-0.05
349.358	0
349.567	-0.04
349.776	-0.06
349.985	-0.02
350.194	0.02
350.403	0.04
350.612	-0.12
350.821	-0.06
351.03	0.03
351.239	-0.04
351.448	0
351.657	-0.07
351.866	0.08
352.075	0.01
352.284	-0.05
352.493	-0.07
352.702	0.05
352.911	0.07
353.12	-0.02
353.329	-0.04
353.538	-0.01
353.746	0
353.955	-0.04
354.164	-0.03
354.373	-0.02
354.582	0.07
354.79	0.02
354.999	0.02
355.208	0
355.416	0.06
355.625	-0.08
355.834	-0
356.042	0.03
356.251	-0.03
356.46	-0.09
356.668	0.02
356.877	0.12
357.085	-0.01
357.294	-0.02
357.503	-0
357.711	-0
357.92	0.13
358.128	-0.02
358.337	-0.04
358.545	-0.01
358.754	-0.03
358.962	0.01
359.17	-0.05
359.379	0.01
359.587	-0.02
359.796	-0.02
360.004	0.02
360.212	0.02
360.421	0.05
360.629	-0.04
360.837	-0.02
361.046	0.03
361.254	0.09
361.462	0
361.67	-0.06
361.879	0.01
362.087	0.08
362.295	-0.02
362.503	-0.03
362.711	-0.05
362.92	-0.02
363.128	-0.01
363.336	-0.05
363.544	-0.02
363.752	-0.01
363.96	-0.05
364.168	-0.03
364.376	-0.01
364.584	0.01
364.792	0.02
365	0.03
365.208	0.02
365.416	-0.01
365.624	0
365.832	-0.02
366.04	0.04
366.248	-0.02
366.456	-0
366.664	0.02
366.872	-0.02
367.079	-0.01
367.287	-0.02
367.495	0.01
367.703	-0.04
367.911	-0.01
368.118	-0.02
368.326	-0.04
368.534	-0.03
368.742	0.06
368.949	-0.05
369.157	-0.03
369.365	0.06
369.572	-0.02
369.78	-0.06
369.988	-0
370.195	-0
370.403	0.01
370.61	-0.04
370.818	-0.01
371.026	0.07
371.233	-0.05
371.441	0.04
371.648	-0.04
371.856	-0.01
372.063	0.02
372.271	-0.03
372.478	-0.04
372.685	-0.02
372.893	0.06
373.1	-0.02
373.308	-0.06
373.515	0.08
373.722	-0
373.93	-0.03
374.137	0
374.344	0.07
374.552	0.02
374.759	-0.02
374.966	0.03
375.173	0.01
375.381	0.04
375.588	-0.03
375.795	-0.06
376.002	-0.02
376.209	-0.06
376.417	-0.01
376.624	-0.04
376.831	0.03
377.038	0.01
377.245	-0.09
377.452	-0.04
377.659	-0.07
377.866	0
378.073	-0.02
378.28	-0.05
378.487	0.01
378.694	0.01
378.901	-0.03
379.108	-0.01
379.315	0.03
379.522	0.09
379.729	0.01
379.936	-0.03
380.143	-0.02
380.35	-0.01
380.557	-0.03
380.763	0.01
380.97	-0.03
381.177	0.04
381.384	0.03
381.591	-0.07
381.797	-0.02
382.004	0
382.211	0
382.418	-0.01
382.624	0.01
382.831	0.02
383.038	-0.01
383.244	0.01
383.451	-0.01
383.658	0.03
383.864	-0.06
384.071	-0.06
384.277	0.07
384.484	-0.07
384.69	0.01
384.897	-0.02
385.103	-0.01
385.31	-0.04
385.516	-0.07
385.723	-0.07
385.929	-0
386.136	-0.07
386.342	0.02
386.549	-0
386.755	0.03
386.961	0.04
387.168	-0.01
387.374	-0.01
387.58	0
387.787	0.02
387.993	-0.05
388.199	-0.03
388.406	-0.03
388.612	-0.04
388.818	-0.06
389.024	-0.06
389.231	-0.01
389.437	0.03
389.643	0
389.849	-0.01
390.055	0.02
390.261	0.03
390.467	0
390.674	-0.04
390.88	-0.04
391.086	0.03
391.292	-0.06
391.498	0.01
391.704	0.02
391.91	-0.04
392.116	-0.06
392.322	-0.1
392.528	-0.03
392.734	-0.07
392.94	-0.04
393.146	-0.04
393.352	-0.02
393.557	-0.02
393.763	-0.06
393.969	0
394.175	-0
394.381	-0.01
394.587	-0.04
394.792	-0.02
394.998	-0
395.204	0.04
395.41	-0.08
395.615	0.01
395.821	0.04
396.027	0.01
396.233	-0.05
396.438	0
396.644	0.07
396.85	-0
397.055	-0.02
397.261	-0.02
397.466	0.08
397.672	-0
397.878	-0.01
398.083	0.03
398.289	-0
398.494	0.02
398.7	-0
398.905	-0.1
399.111	0.07
399.316	-0.06
399.522	0.01
399.727	-0.03
399.932	0
400.138	-0.02
400.343	0.01
400.549	-0.04
400.754	-0.01
400.959	0.07
401.165	-0.08
401.37	0
401.575	0.07
401.78	0.01
401.986	-0.07
402.191	-0.01
402.396	-0.05
402.601	0
402.807	0.02
403.012	-0.01
403.217	0.02
403.422	-0.05
403.627	-0.03
403.832	-0.04
404.037	-0.01
404.243	-0
404.448	-0.1
404.653	-0.04
404.858	0.01
405.063	0
405.268	-0.06
405.473	-0.07
405.678	-0.02
405.883	0.07
406.088	0.01
406.293	-0.05
406.498	-0.04
406.703	-0.02
406.907	-0
407.112	-0.07
407.317	-0.02
407.522	0.06
407.727	-0.05
407.932	-0.03
408.136	0.03
408.341	-0.01
408.546	0.01
408.751	0.01
408.956	-0.04
409.16	0.05
409.365	-0.01
409.57	-0.03
409.774	0.04
409.979	-0.01
410.184	-0.04
410.388	-0.09
410.593	0.07
410.798	-0.02
411.002	-0.05
411.207	0.03
411.411	-0.01
411.616	-0.03
411.82	-0.06
412.025	0.02
412.229	-0.06
412.434	0.04
412.638	-0.01
412.843	-0.04
413.047	0.04
413.252	-0.05
413.456	-0.05
413.66	0.03
413.865	-0.08
414.069	0.07
414.273	-0.11
414.478	-0.07
414.682	-0.04
414.886	-0.09
415.091	-0.09
415.295	-0.12
415.499	0.03
415.703	-0.03
415.908	-0.03
416.112	-0.12
416.316	0.04
416.52	-0.04
416.724	-0.08
416.929	-0.05
417.133	0.02
417.337	-0.01
417.541	-0.07
417.745	0.01
417.949	-0.01
418.153	0.01
418.357	-0.03
418.561	0.05
418.765	-0.02
418.969	0.08
419.173	0.02
419.377	-0.05
419.581	0.07
419.785	-0
419.989	-0.08
420.193	-0.04
420.397	-0.03
420.601	0.01
420.804	0
421.008	0.03
421.212	0.03
421.416	0.08
421.62	-0.07
421.823	-0.03
422.027	0.05
422.231	0.01
422.435	-0.08
422.638	-0.06
422.842	-0.02
423.046	-0.05
423.249	-0
423.453	-0.01
423.657	0.05
423.86	-0.02
424.064	-0.02
424.268	0.07
424.471	-0.01
424.675	0.03
424.878	0.05
425.082	-0.04
425.285	0.01
425.489	-0
425.692	-0.04
425.896	-0.04
426.099	0.04
426.303	-0.01
426.506	-0.08
426.71	0
426.913	0.03
427.116	0.09
427.32	-0.03
427.523	-0
427.726	0.08
427.93	0.01
428.133	-0.04
428.336	-0.07
428.54	-0.06
428.743	-0.01
428.946	0.02
429.149	-0.05
429.353	0.02
429.556	-0.04
429.759	-0.02
429.962	-0.08
430.165	-0.07
430.368	-0.04
430.571	-0.09
430.775	-0
430.978	-0.04
431.181	-0.01
431.384	0.01
431.587	-0.02
431.79	-0.02
431.993	-0.11
432.196	-0.07
432.399	-0.01
432.602	0.03
432.805	-0.04
433.008	-0.03
433.211	-0.04
433.414	0
433.616	0.04
433.819	-0.05
434.022	-0.15
434.225	0.04
434.428	-0.02
434.631	0.11
434.833	-0.01
435.036	-0.03
435.239	0.01
435.442	0.02
435.645	-0.04
435.847	-0.03
436.05	-0.01
436.253	0.01
436.455	-0.04
436.658	-0.04
436.861	0.05
437.063	-0.07
437.266	0
437.468	-0.05
437.671	0.15
437.874	-0.01
438.076	-0.09
438.279	-0.1
438.481	-0.03
438.684	-0.08
438.886	0.02
439.089	-0.11
439.291	0.01
439.494	-0.03
439.696	-0.09
439.899	-0.04
440.101	-0.03
440.303	-0.08
440.506	0.04
440.708	-0.06
440.91	0.02
441.113	-0.1
441.315	0.02
441.517	-0.06
441.72	0.02
441.922	-0.05
442.124	-0.06
442.326	0
442.529	0.08
442.731	-0.05
442.933	0.07
443.135	-0.01
443.337	-0.03
443.539	-0.04
443.742	-0.02
443.944	-0.01
444.146	-0.04
444.348	-0.06
444.55	-0.07
444.752	-0.05
444.954	-0.03
445.156	-0.03
445.358	-0.06
445.56	0.03
445.762	-0.04
445.964	-0.05
446.166	-0.03
446.368	-0.02
446.57	0.03
446.772	-0.04
446.974	-0.11
447.175	0.04
447.377	-0.06
447.579	-0.02
447.781	-0.09
447.983	0.03
448.184	-0.01
448.386	-0.04
448.588	-0.07
448.79	-0.05
448.991	-0.05
449.193	-0.05
449.395	-0.01
449.597	0.02
449.798	0.02
450	0.02
450.202	0.01
450.403	-0.04
450.605	0
450.806	0.01
451.008	-0.13
451.21	-0.03
451.411	-0.07
451.613	-0.02
451.814	-0.04
452.016	0
452.217	0.01
452.419	0.04
452.62	-0.02
452.821	0.02
453.023	0.02
453.224	0.06
453.426	-0.01
453.627	0.01
453.828	0.01
454.03	-0.02
454.231	-0.01
454.432	-0.06
454.634	0.09
454.835	-0.08
455.036	-0.08
455.238	-0.02
455.439	0.06
455.64	-0.12
455.841	-0.05
456.042	-0.04
456.244	-0.01
456.445	-0.07
456.646	-0.09
456.847	-0.05
457.048	0.01
457.249	0.02
457.45	0.21
457.651	-0.09
457.852	0.04
458.054	0.02
458.255	-0.07
458.456	-0.02
458.657	-0.01
458.858	-0.09
459.058	-0.01
459.259	-0.01
459.46	0.01
459.661	-0.02
459.862	0.12
460.063	-0.04
460.264	0.02
460.465	-0.07
460.666	0.09
460.866	-0.04
461.067	-0.01
461.268	-0.03
461.469	-0.06
461.67	-0.04
461.87	-0.02
462.071	-0.02
462.272	-0.05
462.473	0.02
462.673	0.02
462.874	-0.07
463.075	-0.03
463.275	-0.06
463.476	-0.04
463.676	-0.02
463.877	-0.01
464.078	-0.03
464.278	0.05
464.479	-0.02
464.679	-0.02
464.88	-0.01
465.08	0.07
465.281	-0.09
465.481	-0.03
465.682	0.01
465.882	0.02
466.083	-0.02
466.283	-0.02
466.483	-0.04
466.684	-0.05
466.884	-0.04
467.085	-0.06
467.285	0.05
467.485	-0.08
467.686	-0.03
467.886	-0.05
468.086	-0.04
468.286	-0.03
468.487	0
468.687	-0.06
468.887	-0.04
469.087	0.03
469.287	-0
469.488	-0.07
469.688	0.02
469.888	0.01
470.088	-0.01
470.288	0.03
470.488	0.02
470.688	-0.06
470.888	-0.02
471.088	-0.03
471.288	0.06
471.488	0.02
471.688	0.02
471.888	-0.05
472.088	0.06
472.288	0.02
472.488	-0.06
472.688	-0.06
472.888	0.01
473.088	-0.02
473.288	-0.01
473.488	-0
473.688	0.04
473.887	-0
474.087	-0.03
474.287	-0
474.487	-0.04
474.687	0.02
474.886	-0.05
475.086	-0.05
475.286	-0.03
475.486	-0.03
475.685	0.02
475.885	-0.02
476.085	-0.06
476.284	-0
476.484	-0.03
476.684	0.02
476.883	0.09
477.083	0
477.282	-0.01
477.482	0.08
477.681	0.03
477.881	0.01
478.08	-0.05
478.28	-0.06
478.479	0.03
478.679	0.07
478.878	-0.03
479.078	-0.05
479.277	-0.01
479.477	-0.02
479.676	0.01
479.875	-0
480.075	-0.07
480.274	0.02
480.473	-0
480.673	-0.04
480.872	0
481.071	0
481.271	-0.01
481.47	-0.02
481.669	-0.01
481.868	-0.05
482.067	-0.07
482.267	-0.05
482.466	-0.06
482.665	-0.05
482.864	-0.03
483.063	-0.04
483.262	0.02
483.461	0.04
483.661	0.01
483.86	-0.01
484.059	-0
484.258	-0.03
484.457	-0.01
484.656	0
484.855	0.03
485.054	-0.06
485.253	-0.05
485.452	-0.03
485.651	-0.01
485.849	-0.02
486.048	-0.03
486.247	-0.03
486.446	-0.01
486.645	-0.06
486.844	-0.05
487.043	-0.01
487.241	0.05
487.44	-0.02
487.639	-0.01
487.838	0
488.037	0.01
488.235	0.06
488.434	-0.01
488.633	-0.04
488.831	0.01
489.03	0.02
489.229	-0.01
489.427	-0.01
489.626	0.04
489.825	0.04
490.023	-0.02
490.222	-0.05
490.42	0.01
490.619	-0
490.817	0.01
491.016	-0.02
491.214	0
491.413	-0.03
491.611	-0.01
491.81	-0.01
492.008	0.04
492.207	-0
492.405	0.01
492.604	-0.06
492.802	-0.02
493	-0.01
493.199	-0.01
493.397	-0
493.595	-0.02
493.794	-0.02
493.992	0.01
494.19	-0.01
494.388	-0
494.587	-0.02
494.785	0.02
494.983	-0.06
495.181	-0.02
495.379	-0.01
495.578	-0.02
495.776	0
495.974	0.02
496.172	-0
496.37	-0.01
496.568	-0.03
496.766	-0.02
496.964	0.01
497.162	-0
497.36	-0.03
497.558	-0
497.756	0.02
497.954	-0.03
498.152	-0.04
498.35	-0.01
498.548	-0.01
498.746	-0.01
498.944	-0.05
499.142	-0.02
499.34	-0.03
499.538	0.01
499.736	-0.04
499.933	0.04
500.131	0.03
500.329	-0.02
500.527	0.01
500.725	0.03
500.922	0.01
501.12	0
501.318	-0.01
501.516	-0.03
501.713	0.02
501.911	-0.01
502.109	-0.03
502.306	-0.01
502.504	-0.01
502.701	-0.03
502.899	-0.01
503.097	0.03
503.294	0.01
503.492	-0.04
503.689	-0.01
503.887	0.01
504.084	0.03
504.282	-0.02
504.479	-0.05
504.677	0.01
504.874	-0.03
505.072	-0
505.269	-0.01
505.466	0.02
505.664	0.02
505.861	-0.04
506.059	-0.03
506.256	0.01
506.453	-0.01
506.651	0.04
506.848	-0
507.045	0.01
507.242	-0.01
507.44	-0.01
507.637	-0.02
507.834	-0.02
508.031	0
508.229	-0.02
508.426	-0.01
508.623	0.01
508.82	-0.03
509.017	-0.04
509.214	-0.04
509.411	-0.01
509.608	-0.03
509.805	-0.01
510.003	-0.04
510.2	-0.04
510.397	-0
510.594	-0.02
510.791	-0.06
510.988	-0.02
511.184	0
511.381	-0.01
511.578	-0.03
511.775	0.03
511.972	-0.01
512.169	0
512.366	-0.02
512.563	-0
512.76	-0.02
512.956	0.02
513.153	-0.02
513.35	-0
513.547	-0.04
513.744	-0.02
513.94	-0.04
514.137	0.02
514.334	0.01
514.53	-0.01
514.727	0
514.924	0.04
515.12	-0.02
515.317	-0.03
515.514	-0.02
515.71	-0.04
515.907	-0.02
516.103	-0.01
516.3	0
516.497	0.02
516.693	0.03
516.89	-0.02
517.086	-0.04
517.283	-0.01
517.479	-0.01
517.676	-0
517.872	-0.02
518.068	-0.01
518.265	-0.01
518.461	-0.02
518.658	-0.04
518.854	0.02
519.05	-0.02
519.247	-0.02
519.443	0.01
519.639	0.01
519.836	0
520.032	0
520.228	0
520.424	0.04
520.621	0
520.817	-0.01
521.013	0.02
521.209	0
521.405	0.02
521.601	-0
521.798	-0.03
521.994	0.03
522.19	-0.02
522.386	-0.04
522.582	-0
522.778	-0.01
522.974	-0.01
523.17	0.01
523.366	0.02
523.562	0.02
523.758	0
523.954	-0.02
524.15	-0.01
524.346	0.03
524.542	-0.03
524.738	-0.03
524.934	0
525.129	-0.01
525.325	-0.01
525.521	-0
525.717	0.02
525.913	-0
526.109	-0.02
526.304	-0.02
526.5	0.01
526.696	0.01
526.892	-0.02
527.087	0
527.283	-0.04
527.479	0.01
527.674	-0
527.87	-0.02
528.066	-0.03
528.261	0.02
528.457	-0
528.653	-0.01
528.848	-0.01
529.044	-0
529.239	-0.03
529.435	0.03
529.63	-0.02
529.826	0.04
530.021	0.01
530.217	0.02
530.412	-0.01
530.608	-0.04
530.803	-0.02
530.999	0
531.194	-0.04
531.389	-0.01
531.585	-0.05
531.78	-0.02
531.975	0
532.171	0.03
532.366	-0.03
532.561	-0.01
532.757	-0.03
532.952	-0.03
533.147	0.02
533.342	-0.02
533.538	-0.05
533.733	0.02
533.928	-0.01
534.123	-0.02
534.318	-0.04
534.513	-0.02
534.709	-0
534.904	-0.03
535.099	-0
535.294	0.02
535.489	0
535.684	-0.01
535.879	-0.04
536.074	-0
536.269	-0.05
536.464	-0.01
536.659	-0
536.854	-0.01
537.049	-0
537.244	-0
537.439	-0.02
537.634	0.01
537.828	0.01
538.023	-0.02
538.218	-0.03
538.413	-0.02
538.608	-0.02
538.803	-0.01
538.997	-0.05
539.192	0.02
539.387	-0.01
539.582	0
539.776	0.02
539.971	-0.03
540.166	0.01
540.36	-0.03
540.555	-0.01
540.75	-0.02
540.944	0.01
541.139	-0.06
541.334	-0.04
541.528	0
541.723	-0.01
541.917	-0.02
542.112	-0.04
542.306	-0.01
542.501	-0.01
542.695	0
542.89	-0.03
543.084	-0.01
543.279	-0.01
543.473	-0.02
543.668	-0.01
543.862	-0.02
544.056	0.03
544.251	-0.02
544.445	-0
544.64	-0.02
544.834	-0.05
545.028	-0.01
545.222	-0.01
545.417	0.03
545.611	0.01
545.805	-0.02
546	-0.02
546.194	-0.02
546.388	-0.01
546.582	0
546.776	-0.01
546.97	-0.01
547.165	-0
547.359	0.01
547.553	-0.02
547.747	-0.02
547.941	-0.01
548.135	-0.03
548.329	0.01
548.523	0.02
548.717	-0.01
548.911	-0.02
549.105	-0.02
549.299	-0
549.493	-0
549.687	0
549.881	0.01
550.075	-0.01
550.269	-0.04
550.463	0.03
550.657	-0.03
550.85	-0.01
551.044	-0.05
551.238	-0.01
551.432	-0.03
551.626	-0.04
551.82	-0
552.013	-0.02
552.207	-0.01
552.401	0.03
552.594	0.01
552.788	-0.03
552.982	0
553.176	-0
553.369	-0.01
553.563	-0
553.756	-0.06
553.95	-0.03
554.144	-0.01
554.337	0.02
554.531	-0
554.724	-0.01
554.918	-0.02
555.111	0
555.305	-0.02
555.498	0.04
555.692	0.03
555.885	-0.01
556.079	0.02
556.272	-0.01
556.466	0.03
556.659	-0.02
556.852	-0
557.046	-0.03
557.239	0.01
557.432	-0.05
557.626	-0.03
557.819	-0.01
558.012	0
558.206	0
558.399	-0.01
558.592	0.01
558.785	-0.02
558.979	0.03
559.172	-0
559.365	0.01
559.558	0.02
559.751	-0.02
559.944	-0
560.138	-0.02
560.331	-0.01
560.524	-0.03
560.717	-0.01
560.91	-0.03
561.103	0.01
561.296	-0
561.489	-0.01
561.682	0.01
561.875	-0
562.068	0.02
562.261	-0.01
562.454	0.03
562.647	-0
562.84	0.02
563.032	-0.04
563.225	0
563.418	-0.02
563.611	-0.03
563.804	-0
563.997	-0.05
564.19	-0.06
564.382	-0
564.575	-0.03
564.768	-0.01
564.961	-0.03
565.153	-0.02
565.346	0.03
565.539	-0
565.731	0.04
565.924	0.01
566.117	-0.01
566.309	0.01
566.502	-0
566.695	-0.02
566.887	0.01
567.08	-0.03
567.272	-0.01
567.465	-0
567.657	0.01
567.85	0.02
568.042	0.01
568.235	0.02
568.427	-0
568.62	-0.01
568.812	-0.02
569.005	-0.01
569.197	-0.05
569.389	0.01
569.582	0.01
569.774	-0.01
569.966	-0.03
570.159	-0.06
570.351	0.02
570.543	-0.04
570.736	-0.02
570.928	-0.06
571.12	-0.02
571.312	-0.03
571.505	-0.06
571.697	-0
571.889	-0
572.081	-0.02
572.273	-0.02
572.465	0.02
572.658	0.01
572.85	0.01
573.042	-0.02
573.234	-0.03
573.426	0.03
573.618	-0.03
573.81	-0.01
574.002	0.04
574.194	0.02
574.386	-0.05
574.578	-0.08
574.77	-0.03
574.962	-0.02
575.154	-0.06
575.346	-0.03
575.538	0.01
575.729	-0.05
575.921	-0.04
576.113	-0.03
576.305	0.01
576.497	-0.03
576.689	-0.01
576.88	-0.03
577.072	0.02
577.264	-0.03
577.456	-0.03
577.647	-0.07
577.839	-0.01
578.031	0.03
578.223	-0.06
578.414	-0.05
578.606	-0.01
578.798	-0.01
578.989	-0.03
579.181	-0.05
579.372	-0
579.564	-0.02
579.755	-0.01
579.947	-0.01
580.139	0.02
580.33	-0.05
580.522	-0.03
580.713	-0.09
580.905	-0.03
581.096	-0.01
581.287	-0.01
581.479	-0.02
581.67	0.01
581.862	0
582.053	-0.05
582.244	-0.07
582.436	-0.02
582.627	-0.01
582.818	-0.02
583.01	-0.05
583.201	0.02
583.392	0.02
583.583	-0.01
583.775	-0.02
583.966	-0.03
584.157	-0.01
584.348	-0.04
584.54	-0.06
584.731	0.01
584.922	0
585.113	-0.04
585.304	0.01
585.495	0
585.686	-0.01
585.877	0
586.068	-0.03
586.259	0.02
586.45	-0
586.641	-0.04
586.832	-0.07
587.023	-0
587.214	-0.02
587.405	-0.01
587.596	-0.03
587.787	0.03
587.978	-0.01
588.169	-0.06
588.36	-0.04
588.551	0.02
588.742	-0.02
588.932	-0.01
589.123	-0.02
589.314	0.03
589.505	-0.01
589.696	0
589.886	-0.02
590.077	-0.04
590.268	0.02
590.458	-0.05
590.649	-0.05
590.84	0.04
591.03	-0.02
591.221	-0.06
591.412	-0.07
591.602	0.01
591.793	0.01
591.984	-0.04
592.174	-0.02
592.365	0.05
592.555	-0.04
592.746	-0.01
592.936	-0.02
593.127	0.01
593.317	0.02
593.508	-0.02
593.698	-0.05
593.889	-0.02
594.079	-0
594.269	-0.02
594.46	-0.02
594.65	-0.01
594.84	-0.03
595.031	-0.04
595.221	-0.03
595.411	-0.04
595.602	0.04
595.792	0
595.982	-0.05
596.172	0.06
596.363	-0.01
596.553	-0.01
596.743	-0.02
596.933	0
597.123	0.05
597.314	-0.06
597.504	-0.04
597.694	0.03
597.884	0.02
598.074	-0.03
598.264	-0.03
598.454	0
598.644	0
598.834	-0
599.024	-0.09
599.214	0.01
599.404	0.02
599.594	-0.05
599.784	-0.05
599.974	0.01
600.164	0.02
600.354	-0.03
600.544	-0.08
600.734	0
600.924	0.02
601.114	-0.01
601.303	-0.01
601.493	0.02
601.683	-0.04
601.873	-0
602.063	-0.06
602.252	0.04
602.442	-0.05
602.632	-0.05
602.821	-0.06
603.011	-0
603.201	-0.04
603.39	-0.04
603.58	-0.04
603.77	-0.01
603.959	0.02
604.149	-0.01
604.339	-0.01
604.528	0.03
604.718	0.01
604.907	-0.01
605.097	-0.01
605.286	-0.05
605.476	0.04
605.665	0.01
605.855	-0.05
606.044	0.03
606.234	-0.03
606.423	-0.05
606.612	-0.05
606.802	0.02
606.991	0.01
607.181	0
607.37	-0.07
607.559	-0.01
607.749	-0.04
607.938	-0.02
608.127	-0.06
608.316	-0.03
608.506	0.01
608.695	-0.04
608.884	-0.05
609.073	0.01
609.263	-0.01
609.452	0
609.641	-0
609.83	-0.03
610.019	-0.01
610.208	-0.06
610.397	-0.01
610.586	0.01
610.775	-0.03
610.965	-0.03
611.154	-0.07
611.343	0
611.532	0.03
611.721	-0.07
611.91	-0.04
612.099	0
612.287	-0
612.476	-0.1
612.665	-0
612.854	-0.06
613.043	0.02
613.232	-0.03
613.421	-0.04
613.61	-0.02
613.798	-0.03
613.987	0.01
614.176	-0.01
614.365	0.02
614.554	0.02
614.742	0.03
614.931	-0.04
615.12	0.04
615.309	-0.05
615.497	-0.01
615.686	-0.03
615.875	-0.03
616.063	0.01
616.252	-0.03
616.44	-0.02
616.629	0.01
616.818	0.03
617.006	-0.03
617.195	-0.03
617.383	0.02
617.572	0
617.76	-0.05
617.949	-0.04
618.137	0.01
618.326	-0.01
618.514	-0.03
618.703	-0.06
618.891	0.04
619.079	-0.06
619.268	-0.01
619.456	-0.05
619.644	0.04
619.833	-0.01
620.021	-0.06
620.209	-0.05
620.398	0.01
620.586	-0.01
620.774	0.02
620.962	-0.04
621.151	0.04
621.339	-0
621.527	-0.05
621.715	-0.08
621.903	-0.04
622.092	-0.03
622.28	0.01
622.468	-0.03
622.656	-0.05
622.844	0.02
623.032	-0.03
623.22	-0.05
623.408	0
623.596	0.02
623.784	0
623.972	-0.05
624.16	-0.01
624.348	0.06
624.536	-0.02
624.724	-0.06
624.912	0.02
625.1	0.02
625.288	-0.07
625.476	-0.04
625.664	-0.01
625.851	-0.05
626.039	-0
626.227	0.02
626.415	-0
626.603	-0.08
626.79	-0.03
626.978	0.02
627.166	0.02
627.354	-0.02
627.541	-0.04
627.729	-0.09
627.917	0.02
628.104	0.05
628.292	0.01
628.48	-0.03
628.667	-0.01
628.855	0.01
629.042	-0.02
629.23	-0.02
629.418	-0.05
629.605	-0.02
629.793	-0.05
629.98	-0.05
630.168	-0.02
630.355	-0
630.543	-0.01
630.73	-0.06
630.917	0.01
631.105	0.05
631.292	-0.05
631.48	-0.01
631.667	0.04
631.854	-0.01
632.042	-0.05
632.229	-0.07
632.416	0
632.604	-0.01
632.791	-0.06
632.978	0.01
633.165	0.01
633.353	0.04
633.54	-0
633.727	-0.1
633.914	-0.05
634.101	0.04
634.289	0.04
634.476	-0.02
634.663	-0.07
634.85	-0.02
635.037	-0.07
635.224	-0.08
635.411	0.01
635.598	0.03
635.785	-0.03
635.972	-0.04
636.159	0.02
636.346	-0.04
636.533	0
636.72	-0.03
636.907	0
637.094	0.02
637.281	-0.05
637.468	0.02
637.655	-0.03
637.842	-0.01
638.029	-0.06
638.215	0.01
638.402	-0.01
638.589	-0.05
638.776	-0.02
638.963	-0.05
639.149	0.02
639.336	0.04
639.523	-0.03
639.709	-0.03
639.896	-0.05
640.083	0.05
640.27	0.01
640.456	-0.02
640.643	0
640.829	-0.06
641.016	-0.05
641.203	-0.06
641.389	0.07
641.576	0.04
641.762	-0.03
641.949	-0.03
642.135	0.01
642.322	-0.03
642.508	-0.06
642.695	-0.05
642.881	-0.05
643.068	-0.03
643.254	0.01
643.441	-0.01
643.627	-0.03
643.813	-0.04
644	0.01
644.186	-0.06
644.372	-0
644.559	-0.01
644.745	-0.05
644.931	-0.05
645.118	0
645.304	-0.02
645.49	-0.06
645.676	-0.03
645.862	-0.02
646.049	0.03
646.235	-0.01
646.421	0.02
646.607	0.07
646.793	-0.01
646.979	-0.04
647.165	-0.02
647.352	-0.01
647.538	0.05
647.724	-0.02
647.91	-0.01
648.096	0.01
648.282	-0.01
648.468	-0.01
648.654	0
648.84	-0.01
649.026	-0.03
649.212	-0.02
649.397	-0.05
649.583	-0.06
649.769	0
649.955	-0.02
650.141	0.01
650.327	0.04
650.513	-0.03
650.698	-0.01
650.884	-0.09
651.07	0.01
651.256	0.01
651.442	-0.03
651.627	-0.02
651.813	-0.03
651.999	0.01
652.184	0.01
652.37	-0.02
652.556	-0.06
652.741	0.03
652.927	-0.07
653.113	-0.02
653.298	-0.01
653.484	-0.05
653.669	-0.11
653.855	-0.02
654.04	-0
654.226	-0.01
654.412	-0.04
654.597	-0.05
654.782	-0.02
654.968	0.05
655.153	-0.01
655.339	-0.04
655.524	-0.06
655.71	0
655.895	-0.03
656.08	-0.04
656.266	0.01
656.451	-0.02
656.636	-0.04
656.822	-0.01
657.007	-0.06
657.192	-0.02
657.378	-0.08
657.563	-0.01
657.748	-0.01
657.933	-0.01
658.118	-0.02
658.304	-0.05
658.489	0.03
658.674	-0.02
658.859	-0.06
659.044	0.02
659.229	0.02
659.414	-0.02
659.599	-0
659.785	-0.04
659.97	-0.05
660.155	0.01
660.34	-0.02
660.525	-0.02
660.71	-0.03
660.895	0.02
661.08	-0.03
661.264	-0.08
661.449	0.02
661.634	0.05
661.819	0.01
662.004	-0.01
662.189	-0.1
662.374	-0.05
662.559	-0.06
662.743	-0.07
662.928	-0
663.113	-0.07
663.298	-0.08
663.483	-0.05
663.667	0.02
663.852	-0.06
664.037	0.04
664.221	-0.04
664.406	-0
664.591	-0.01
664.775	-0.01
664.96	-0.03
665.145	0
665.329	0
665.514	-0.08
665.698	-0.02
665.883	-0.1
666.068	0.05
666.252	-0.04
666.437	-0.04
666.621	0.02
666.806	0.02
666.99	-0.02
667.174	-0.04
667.359	0.05
667.543	-0.04
667.728	-0.05
667.912	-0.07
668.096	-0.01
668.281	-0.01
668.465	0.01
668.649	-0.04
668.834	-0.06
669.018	-0.05
669.202	-0.02
669.387	-0.04
669.571	0.01
669.755	-0.06
669.939	0
670.124	-0.02
670.308	0.05
670.492	0.01
670.676	-0
670.86	-0
671.044	-0.07
671.228	0.04
671.413	-0.06
671.597	-0.09
671.781	-0.04
671.965	0.03
672.149	0
672.333	-0.03
672.517	-0.07
672.701	0.02
672.885	-0.06
673.069	-0.08
673.253	0.04
673.437	-0.02
673.621	-0.03
673.804	-0.02
673.988	-0.01
674.172	-0.03
674.356	-0.08
674.54	-0.07
674.724	0.07
674.908	-0.03
675.091	0.01
675.275	-0.01
675.459	-0.02
675.643	0.08
675.826	-0.04
676.01	-0.02
676.194	-0.02
676.377	0.04
676.561	0.02
676.745	-0
676.928	0
677.112	0.04
677.296	-0.04
677.479	-0.07
677.663	-0.06
677.846	0.03
678.03	-0.03
678.213	-0.03
678.397	0.05
678.58	-0.03
678.764	-0.01
678.947	-0.06
679.131	-0.06
679.314	0.06
679.498	-0.03
679.681	0.02
679.865	0.06
680.048	0.02
680.231	-0
680.415	-0.05
680.598	-0.06
680.781	-0.05
680.965	-0.05
681.148	-0
681.331	-0.05
681.514	0.01
681.698	-0.02
681.881	-0.04
682.064	-0.02
682.247	-0.04
682.43	-0.1
682.614	-0.01
682.797	0.03
682.98	0.04
683.163	-0.09
683.346	0.01
683.529	-0.04
683.712	-0.11
683.895	0.01
684.078	-0.04
684.261	-0.04
684.444	0.02
684.627	-0
684.81	-0.04
684.993	-0.01
685.176	0
685.359	-0.09
685.542	-0.04
685.725	0.02
685.908	-0.02
686.091	-0.08
686.274	0.04
686.457	-0.03
686.639	-0.05
686.822	0
687.005	-0.01
687.188	-0.02
687.371	0.07
687.553	-0.02
687.736	0
687.919	0.11
688.102	0.1
688.284	-0
688.467	-0.01
688.65	-0.09
688.832	-0.03
689.015	0.03
689.197	-0.05
689.38	0.1
689.563	0.1
689.745	-0.05
689.928	-0.08
690.11	-0.02
690.293	0
690.475	-0.08
690.658	-0.04
690.84	-0.06
691.023	-0.04
691.205	-0.05
691.388	0.01
691.57	0.05
691.752	0.06
691.935	-0.09
692.117	-0
692.3	0
692.482	-0.01
692.664	-0.02
692.847	-0.01
693.029	0.04
693.211	0.05
693.393	-0.04
693.576	-0.03
693.758	0.01
693.94	-0.07
694.122	-0.04
694.304	-0.03
694.487	-0.02
694.669	0.07
694.851	-0.06
695.033	-0.07
695.215	-0.06
695.397	-0.07
695.579	-0.03
695.761	-0.06
695.943	-0.12
696.125	0.09
696.308	-0
696.49	-0.09
696.671	0.14
696.853	-0.05
697.035	0.11
697.217	-0.06
697.399	0.03
697.581	-0.03
697.763	-0.01
697.945	-0.05
698.127	-0.07
698.309	-0.06
698.491	-0.05
698.672	-0.02
698.854	0.03
699.036	0.09
699.218	-0.03
699.399	0.01
699.581	0.01
699.763	0.03
699.945	-0.06
700.126	-0.07
700.308	-0.03
700.49	-0.04
700.671	-0.14
700.853	-0.06
701.035	-0.07
701.216	-0.08
701.398	-0.06
701.579	-0.04
701.761	0.01
701.943	-0.05
702.124	-0.1
702.306	-0.02
702.487	0.11
702.669	0.01
702.85	-0.03
703.031	-0.11
703.213	0.05
703.394	0.04
703.576	-0.05
703.757	0.12
703.938	0.02
704.12	0.1
704.301	-0.03
704.483	-0.15
704.664	0.01
704.845	0.05
705.026	-0.02
705.208	-0.01
705.389	-0
705.57	0
705.751	-0.04
705.933	0.03
706.114	-0
706.295	0.03
706.476	-0.1
706.657	0.05
706.838	-0.02
707.02	0.09
707.201	-0.07
707.382	-0.1
707.563	0
707.744	-0.05
707.925	-0.04
708.106	-0.1
708.287	-0.01
708.468	0.11
708.649	-0.04
708.83	-0.01
709.011	-0.06
709.192	0.08
709.373	-0.12
709.554	-0
709.734	0.01
709.915	0.02
710.096	-0.05
710.277	-0.17
710.458	-0.04
710.639	0.01
710.819	-0.21
711	-0.05
711.181	0.05
711.362	0.01
711.542	0
711.723	-0.06
711.904	0.07
712.085	-0.01
712.265	-0.04
712.446	-0.13
712.627	-0.09
712.807	-0.06
712.988	-0.03
713.168	-0.16
713.349	0.06
713.53	-0.12
713.71	-0.1
713.891	-0.11
714.071	-0.02
714.252	-0.13
714.432	-0.07
714.613	-0.07
714.793	-0.01
714.974	0.01
715.154	0.05
715.334	0.05
715.515	0.09
715.695	-0.05
715.876	0.03
716.056	-0.03
716.236	-0.09
716.417	-0.02
716.597	-0.07
716.777	0.09
716.957	-0.02
717.138	-0.04
717.318	-0.02
717.498	-0.09
717.678	0.03
717.859	0.04
718.039	-0.13
718.219	-0.04
718.399	0.05
718.579	-0.04
718.759	-0.12
718.939	-0.03
719.12	0.01
719.3	0.01
719.48	-0.18
719.66	-0.13
719.84	0.06
720.02	-0.04
720.2	-0.05
720.38	-0.01
720.56	0.13
720.74	-0.07
720.92	-0.06
721.1	0.02
721.279	0
721.459	0.02
721.639	-0.11
721.819	0.04
721.999	-0.07
722.179	0.07
722.359	-0.13
722.538	-0.09
722.718	0.02
722.898	-0.08
723.078	0
723.257	-0.03
723.437	-0.07
723.617	0.05
723.797	-0.07
723.976	0.01
724.156	0
724.336	0.05
724.515	0.18
724.695	-0.16
724.874	-0.02
725.054	-0.02
725.234	-0.1
725.413	0.05
725.593	-0.12
725.772	-0.01
725.952	-0.03
726.131	-0.06
726.311	-0.02
726.49	0
726.67	-0.14
726.849	-0.09
727.028	0.02
727.208	-0.06
727.387	-0.03
727.567	-0.17
727.746	-0.02
727.925	-0.08
728.105	-0.11
728.284	-0.06
728.463	-0.23
728.643	-0.02
728.822	-0.12
729.001	-0.12
729.18	0.02
729.359	0.06
729.539	-0.08
729.718	-0.06
729.897	0.09
730.076	-0
730.255	-0.11
730.434	-0.01
730.614	0.03
730.793	0.14
730.972	-0.05
731.151	-0.06
731.33	0.12
731.509	0
731.688	-0.02
731.867	-0.05
732.046	-0.15
732.225	0.13
732.404	-0.11
732.583	-0.13
732.762	-0.1
732.941	0.06
733.12	-0.01
733.298	0.01
733.477	0.06
733.656	-0.03
733.835	-0.07
734.014	0.06
734.193	-0.05
734.371	0
734.55	0.01
734.729	-0.17
734.908	-0.08
735.086	0.02
735.265	-0.04
735.444	-0.16
735.623	-0.16
735.801	-0.17
735.98	-0.1
736.159	-0.04
736.337	0.1
736.516	0.02
736.694	0.03
736.873	-0.08
737.052	0.11
737.23	0.09
737.409	-0.1
737.587	0.11
737.766	-0.16
737.944	-0.12
738.123	-0.07
738.301	0
738.479	-0.13
738.658	-0.01
738.836	-0.18
739.015	-0
739.193	0.02
739.371	-0.25
739.55	-0.11
739.728	-0.11
739.906	0.09
740.085	0.11
740.263	-0.04
740.441	-0.3
740.62	0.23
740.798	0.09
740.976	-0.14
741.154	-0.05
741.332	0.15
741.511	-0.07
741.689	0.02
741.867	0.06
742.045	-0.09
742.223	0.03
742.401	-0.19
742.579	-0.11
742.757	0.04
742.935	-0.12
743.114	-0.14
743.292	-0.04
743.47	-0.08
743.648	0.02
743.826	-0.06
744.004	-0
744.181	0.06
744.359	-0.08
744.537	0
744.715	-0.04
744.893	-0.01
745.071	0.03
745.249	-0.16
745.427	-0.07
745.605	0.05
745.782	-0.03
745.96	-0.01
746.138	0
746.316	0.21
746.493	-0.02
746.671	-0.07
746.849	0.11
747.027	0.27
747.204	-0.09
747.382	-0.12
747.56	-0.15
747.737	0.09
747.915	-0.04
748.093	0.01
748.27	-0.11
748.448	-0.07
748.625	-0.15
748.803	-0.06
748.98	-0.12
749.158	0.05
749.335	-0.01
749.513	-0
749.69	-0.01
749.868	-0.03
750.045	0
750.223	-0.16
750.4	-0.29
750.578	0.2
750.755	-0.15
750.932	-0.19
751.11	0.09
751.287	-0.12
751.464	-0.04
751.642	-0.1
751.819	-0.04
751.996	-0.02
752.173	-0.08
752.351	-0.13
752.528	0.01
752.705	-0.06
752.882	-0.09
753.06	-0.03
753.237	-0.02
753.414	0.09
753.591	0.17
753.768	0.01
753.945	-0.07
754.122	-0.09
754.299	0.01
754.476	-0.12
754.654	-0.03
754.831	0.07
755.008	0.07
755.185	-0.06
755.362	-0.04
755.539	-0.03
755.716	-0.16
755.892	-0.05
756.069	-0.09
756.246	-0.06
756.423	0.02
756.6	0.04
756.777	-0.01
756.954	-0.02
757.131	-0.05
757.307	-0.23
757.484	-0.12
757.661	0.07
757.838	0.02
758.015	-0.22
758.191	0.02
758.368	-0.05
758.545	0.16
758.721	0.1
758.898	-0.09
759.075	0.02
759.251	0.13
759.428	0.07
759.605	-0.2
759.781	-0.07
759.958	0.04
760.134	-0.01
760.311	-0.14
760.488	0.05
760.664	0.05
760.841	-0.09
761.017	-0.15
761.194	0.05
761.37	0.13
761.547	-0.08
761.723	-0.04
761.899	0.14
762.076	-0.06
762.252	-0.14
762.429	-0.15
762.605	0.12
762.781	-0.15
762.958	-0.07
763.134	0.02
763.31	-0.18
763.486	0.1
763.663	-0.25
763.839	0.06
764.015	-0.21
764.191	-0.1
764.368	-0.04
764.544	-0.03
764.72	0
764.896	-0.04
765.072	-0.08
765.248	-0.02
765.425	-0.23
765.601	0.09
765.777	-0
765.953	-0.25
766.129	-0.17
766.305	-0.06
766.481	0.04
766.657	-0.03
766.833	0.28
767.009	-0.17
767.185	-0.14
767.361	-0.14
767.537	-0.14
767.713	0.03
767.889	-0.08
768.065	-0.05
768.24	-0.2
768.416	0.02
768.592	-0.03
768.768	0.09
768.944	-0.08
769.12	-0.09
769.295	-0.07
769.471	-0.16
769.647	-0.23
769.823	0.03
769.998	-0.13
770.174	-0.18
770.35	0.07
770.525	0.3
770.701	0.02
770.877	-0.06
771.052	-0.14
771.228	0.11
771.403	0.1
771.579	0.1
771.755	0.19
771.93	-0.03
772.106	-0.17
772.281	-0.21
772.457	0.06
772.632	-0.03
772.808	-0.28
772.983	-0.16
773.159	-0.29
773.334	0.15
773.509	0.01
773.685	-0.15
773.86	0.33
774.036	0.15
774.211	0.04
774.386	-0.11
774.562	-0.09
774.737	0.03
774.912	-0.02
775.087	-0.05
775.263	-0.02
775.438	0.02
775.613	-0.15
775.788	-0.12
775.964	0.04
776.139	0.31
776.314	-0.18
776.489	-0.17
776.664	-0.04
776.839	-0.16
777.014	0.07
777.19	0.06
777.365	0.18
777.54	0.3
777.715	-0.06
777.89	-0.17
778.065	-0.07
778.24	-0.02
778.415	0.12
778.59	-0.22
778.765	-0.03
778.94	0.09
779.115	-0.12
779.289	-0.15
779.464	-0.08
779.639	0.06
779.814	-0.33
779.989	-0.12
780.164	0.07
780.339	0.01
780.513	-0.15
780.688	-0.09
780.863	-0.14
781.038	0.06
781.212	-0.24
781.387	0.01
781.562	0.33
781.737	0.01
781.911	0.1
782.086	-0.2
782.261	-0.07
782.435	0.31
782.61	-0.04
782.784	-0.16
782.959	0.18
783.134	-0.17
783.308	-0.15
783.483	-0.06
783.657	0.38
783.832	0.05
784.006	-0.37
784.181	0.19
784.355	0.03
784.53	-0.27
784.704	-0.2
784.878	0.22
785.053	0.16
785.227	0.13
785.402	0.18
785.576	-0.22
785.75	-0.05
785.925	-0.15
786.099	-0.06
786.273	-0.1
786.448	0.06
786.622	0.2
786.796	-0.32
786.97	-0.07
787.145	0.29
787.319	-0.48
787.493	-0.17
787.667	-0.44
787.841	-0.07
788.015	0.24
788.19	-0.24
788.364	-0.09
788.538	-0.01
788.712	0.03
788.886	-0.1
789.06	0.19
789.234	0.31
789.408	-0.28
789.582	-0.18
789.756	-0.29
789.93	-0.2
790.104	-0.04
790.278	-0.21
790.452	-0.24
790.626	0.21
790.8	-0.2
790.973	0.11
791.147	0.09
791.321	0.25
791.495	0.04
791.669	-0.06
791.843	0.1
792.016	0.06
792.19	0.39
792.364	-0.15
792.538	0.55
792.711	0.09
792.885	-0.04
793.059	-0.2
793.233	-0.64
793.406	-0.16
793.58	-0.17
793.754	-0.25
793.927	-0.11
794.101	0.22
794.274	0.07
794.448	0.48
794.622	-0.39
794.795	0.41
794.969	-0.28
795.142	0.38
795.316	-0.11
795.489	-0.21
795.663	0.37
795.836	-0.24
796.009	-0.27
796.183	0.42
796.356	0.11
796.53	-0.21
796.703	-0.19
796.876	0.59
797.05	-0.24
797.223	-0.08
797.396	0.02
797.57	-0.1
797.743	0.16
797.916	0.04
798.09	-0.33
798.263	0.18
798.436	0.03
798.609	-0.31
798.782	-0.23
798.956	0
799.129	-0.03
799.302	-0.2
799.475	-0.14
799.648	-0.09
799.821	-0.26
799.994	0.14
800.167	-0.48
800.34	-0.12
800.514	0.08
800.687	-0.08
800.86	-0.24
801.033	0.17
801.206	0.07
801.379	-0.31
801.551	0.08
801.724	0.05
801.897	0.1
802.07	-0.39
802.243	-0.7
802.416	-0.23
802.589	-0.25
802.762	0.07
802.935	-0.26
803.107	-0.21
803.28	0.44
803.453	0.24
803.626	-0.33
803.798	-0.14
803.971	-0.04
804.144	-0.05
804.317	-0.12
804.489	0.15
804.662	-0.11
804.835	0.01
805.007	-0.29
805.18	0.46
805.353	-0.18
805.525	-0.17
805.698	-0.13
805.87	0.29
806.043	0.28
806.215	-0.23
806.388	-0.42
806.56	0.01
806.733	0.23
806.905	0.05
807.078	-0.14
807.25	-0.35
807.423	0.07
807.595	-0.11
807.768	0.06
807.94	-0.08
808.112	0.2
808.285	-0.06
808.457	-0.5
808.629	0.05
808.802	-0.14
808.974	-0.34
809.146	-0.43
809.318	-0.19
809.491	0.01
809.663	-0.01
809.835	-0.29
810.007	0.07
810.18	-0.12
810.352	-0.29
810.524	-0.16
810.696	0.01
810.868	0.39
811.04	-0.25
811.212	-0.22
811.384	0.1
811.556	-0.06
811.728	-0.13
811.901	0.84
812.073	-0.04
812.245	0.26
812.417	0.23
812.589	-0.66
812.76	0.04
812.932	0.15
813.104	0.32
813.276	-0.19
813.448	0.09
813.62	-0.27
813.792	0.26
813.964	-0.02
814.136	0.26
814.307	-0.21
814.479	-0.21
814.651	-0.35
814.823	0.61
814.995	-0.28
815.166	0.11
815.338	-0.81
815.51	-0.83
815.681	0.41
815.853	-0.62
816.025	0.07
816.196	0.45
816.368	0.65
816.54	-0.62
816.711	-0.11
816.883	-0.05
817.054	0.64
817.226	-1.23
817.398	-0.04
817.569	-0.2
817.741	-0.26
817.912	-0.28
818.084	-0.16
818.255	0.47
818.426	-0.59
818.598	-0.26
818.769	-0.51
818.941	0.62
819.112	0.21
819.283	0.28
819.455	-0.62
819.626	-0.01
819.798	0.17
819.969	0.45
820.14	-0.34
820.311	-0.19
820.483	-0.34
820.654	0.06
820.825	-0.35
820.996	-0.33
821.168	-0.33
821.339	-0.16
821.51	-0.6
821.681	-0.15
821.852	0.01
822.023	-0.63
822.195	-0.6
822.366	0.63
822.537	0.01
822.708	0.01
822.879	-0.06
823.05	0.55
823.221	0.05
823.392	0.02
823.563	0.4
823.734	-0.53
823.905	-0.24
824.076	-0.12
824.247	-0.44
824.418	-0.95
824.589	0.71
824.759	0.13
824.93	-0.18
825.101	-0.7
825.272	0.44
825.443	0.69
825.614	0.4
825.784	-1.28
825.955	1.11
826.126	0.15
826.297	-0.26
826.467	0.89
826.638	0.57
826.809	-1.31
826.98	-0.16
827.15	0.07
827.321	-0.05
827.492	0.23
827.662	0.1
827.833	1.04
828.003	0.01
828.174	-0.51
828.345	-0.81
828.515	0.47
828.686	0.18
828.856	-0.21
829.027	0.24
829.197	0.42
829.368	0.28
829.538	-0.41
829.709	0.07
829.879	0.18
830.049	0.41
830.22	-0.66
830.39	-0.14
830.56	0.59
830.731	-0.19
830.901	-1.03
831.072	-0.16
831.242	0.16
831.412	0.06
831.582	-0.16
831.753	-0.8
831.923	-0.36
832.093	-0.07
832.263	-0.3
832.434	-1.13
832.604	-0.08
832.774	0.61
832.944	-0.41
833.114	-0.63
833.284	-0.12
833.454	-0.98
833.624	-0.31
833.795	-0.77
833.965	0.88
834.135	1.12
834.305	-1.22
834.475	-1.13
834.645	-0.43
834.815	0.07
834.985	-0.8
835.155	-0.59
835.325	0.74
835.494	0.65
835.664	-0.48
835.834	-0.56
836.004	-0.59
836.174	0.44
836.344	0.01
836.514	-0.93
836.684	-0.44
836.853	-0.04
837.023	0.17
837.193	-0.74
837.363	1.07
837.532	0.89
837.702	-0.81
837.872	-0.89
838.041	0.85
838.211	0.98
838.381	-1.08
838.55	-0.33
838.72	2.04
838.89	0.74
839.059	-0.35
839.229	-0.58
839.398	1.83
839.568	-0.34
839.738	-0.17
839.907	0.36
840.077	0.54
840.246	-0.97
840.416	-0.66
840.585	-1.32
840.755	1.33
840.924	0.75
841.093	-0.66
841.263	-0.56
841.432	0.58
841.602	-0.22
841.771	-1
841.94	-0.73
842.11	1.87
842.279	1.46
842.448	-0.61
842.617	-1.09
842.787	1.02
842.956	-0.97
843.125	-0.06
843.294	-1.02
843.464	0.47
843.633	0.25
843.802	-1.34
843.971	-0.63
844.14	1.02
844.309	-0.19
844.479	-1.24
844.648	-1.73
844.817	-0.76
844.986	-0.05
845.155	-0.99
845.324	-1.24
845.493	-0.13
845.662	-1.1
845.831	0.63
846	0.6
846.169	0.2
846.338	-0.04
846.507	-0.11
846.676	0.51
846.844	0.26
847.013	1.16
847.182	0.14
847.351	-0.47
847.52	-0.4
847.689	0.53
847.858	-0.54
848.026	-0.82
848.195	0.23
848.364	-0.97
848.533	-0.6
848.701	-0.79
848.87	0.77
849.039	0.82
849.207	-0.21
849.376	0.35
849.545	1.28
849.713	-0.42
849.882	-1.38
850.051	-0.15
850.219	-0.94
850.388	0.22
850.556	-1.49
850.725	-0.77
850.893	0.69
851.062	-0.68
851.23	0.14
851.399	-1.04
851.567	-1.51
851.736	-1.29
851.904	-1.32
852.073	0.09
852.241	0.49
852.41	-0.61
852.578	-0.39
852.746	-0.87
852.915	0.09
853.083	-0.56
853.251	-1.82
853.42	-0.8
853.588	-0.47
853.756	0.63
853.924	-0.64
854.093	-1.4
854.261	-0.42
854.429	-1.34
854.597	0.08
854.765	-1.79
854.934	0.41
855.102	0.62
855.27	-0.94
855.438	1
855.606	0.58
855.774	1.54
855.942	-0.95
856.11	-1.93
856.278	0.15
856.446	1.02
856.614	-0.5
856.782	-1.32
856.95	0.15
857.118	0.34
857.286	0.5
857.454	-1.85
857.622	0.91
857.79	1.01
857.958	-1.52
858.126	-1.99
858.294	-2.35
858.462	0.35
858.629	-0.67
858.797	-0.67
858.965	0.07
859.133	0.39
859.301	-0.45
859.468	0.77
859.636	-0.72
859.804	1.67
859.971	1.36
860.139	-1.37
860.307	0.89
860.474	0.11
860.642	0.22
860.81	-1.24
860.977	-0.67
861.145	-0.1
861.313	-0.35
861.48	0.03
861.648	0.69
861.815	-0.54
861.983	-1.52
862.15	-1.19
862.318	0.13
862.485	0.66
862.653	-0.54
862.82	-0.63
862.988	3.52
863.155	0.46
863.322	-1.21
863.49	-1.61
863.657	-0.43
863.824	1.1
863.992	0.88
864.159	-0.52
864.326	1.83
864.494	-1.89
864.661	1.74
864.828	-0.21
864.996	1.01
865.163	1.65
865.33	-1.13
865.497	-3.49
865.664	-1.28
865.832	-2.88
865.999	-0.44
866.166	-2.54
866.333	-1.03
866.5	0.68
866.667	-0.34
866.834	-0.48
867.001	0.88
867.168	-1.98
867.335	-0.19
867.502	-2.29
867.669	0.62
867.836	1.88
868.003	-0.13
868.17	1.99
868.337	-1.39
868.504	2.62
868.671	-1.7
868.838	-0.76
869.005	0.8
869.172	0.17
869.339	-1.02
869.505	-0.75
869.672	-1.09
869.839	1.61
870.006	-1.31
870.173	-1.01
870.339	0.76
870.506	2.97
870.673	-2.29
870.84	-0.68
871.006	-1.27
871.173	-1.7
871.34	-0.61
871.506	-1.59
871.673	0.86
871.839	-1.65
872.006	-0.34
872.173	-0.52
872.339	-0.91
872.506	0.8
872.672	-0.25
872.839	-2.3
873.005	0.13
873.172	2.59
873.338	0.79
873.505	-1.14
873.671	-1.55
873.838	-0.34
874.004	-2.46
874.171	-0.55
874.337	-1.4
874.503	0.21
874.67	-0.15
874.836	-1.74
875.002	1.76
875.169	1.11
875.335	-0.92
875.501	-0.31
875.668	0.76
875.834	-0.35
876	-0.34
876.166	-0.07
876.332	1.98
876.499	2.38
876.665	-1.21
876.831	0.06
876.997	3.37
877.163	1.42
877.329	-2.05
877.495	0.55
877.662	-0.29
877.828	1.48
877.994	-2.08
878.16	-3.03
878.326	-1.96
878.492	0.11
878.658	0.24
878.824	1.82
878.99	1.54
879.156	0.8
879.322	2.13
879.487	-0.15
879.653	1.35
879.819	-1.19
879.985	-1.84
880.151	-2.01
880.317	-0.15
880.483	0.52
880.648	0.73
880.814	-2.29
880.98	-0.82
881.146	-2.87
881.312	-1.54
881.477	-0.11
881.643	-0.98
881.809	1.15
881.974	0.42
882.14	-2.25
882.306	-1.09
882.471	2.58
882.637	-1.35
882.803	0.39
882.968	2.41
883.134	3.44
883.299	-1.2
883.465	-2.33
883.63	0.86
883.796	1.55
883.961	0.17
884.127	-0.33
884.292	-6.23
884.458	-2.88
884.623	-2.87
