Data from Apollo_Calib_20240827__AbsoluteIrradiance__289__03-58-00-905.txt Node

Date: Wed Aug 28 03:58:00 BST 2024
User: biology
Spectrometer: FLMT08252
Trigger mode: 0
Integration Time (sec): 5.000000E-1
Scans to average: 5
Electric dark correction enabled: true
Nonlinearity correction enabled: false
Boxcar width: 0
XAxis mode: Wavelengths
Number of Pixels in Spectrum: 3648
>>>>>Begin Spectral Data<<<<<
179.588	-0
179.809	-0
180.03	-0
180.251	-0
180.473	-0
180.694	0
180.915	0
181.136	-0
181.357	0
181.578	-0
181.799	-0
182.02	-0
182.241	-0
182.462	-0
182.683	0
182.904	-0
183.125	-0
183.346	0
183.567	0
183.788	0
184.009	-0
184.23	0
184.451	0
184.672	0
184.892	-0
185.113	0
185.334	0
185.555	-0
185.776	0
185.996	0
186.217	0
186.438	0
186.659	-0
186.879	0
187.1	0
187.321	-0
187.541	-0
187.762	0
187.983	0
188.203	0
188.424	0
188.644	-0
188.865	0
189.086	-0
189.306	0
189.527	0
189.747	0
189.968	-0
190.188	0
190.409	0
190.629	0
190.849	-0
191.07	0
191.29	0
191.511	0
191.731	-0
191.951	-0
192.172	0
192.392	0
192.612	0
192.833	0
193.053	0
193.273	0
193.493	-0
193.714	0
193.934	0
194.154	0
194.374	0
194.594	0
194.815	0
195.035	0
195.255	0
195.475	-0
195.695	0
195.915	0
196.135	0
196.355	0
196.575	0
196.795	0
197.015	-0
197.235	-0
197.455	0
197.675	0
197.895	0
198.115	-0
198.335	0
198.555	0
198.775	0
198.995	0
199.214	0
199.434	0
199.654	-0
199.874	0
200.094	1.85
200.313	0.37
200.533	-0.23
200.753	-0.4
200.973	1.47
201.192	0.41
201.412	-0.6
201.632	0.33
201.851	1.25
202.071	-0.28
202.291	0.62
202.51	-0.55
202.73	0.9
202.95	0.3
203.169	-0.66
203.389	0.51
203.608	0.73
203.828	-0.06
204.047	0.01
204.267	0.26
204.486	0.52
204.706	0.78
204.925	0.27
205.145	-0.03
205.364	0.68
205.583	0.83
205.803	-0.15
206.022	-0.21
206.242	0.36
206.461	0.48
206.68	-0.04
206.9	0.1
207.119	0.87
207.338	0.97
207.557	-0.22
207.777	0.14
207.996	0.12
208.215	0.52
208.434	0.14
208.654	-0.17
208.873	0.41
209.092	1.05
209.311	-0.08
209.53	0.07
209.749	0.28
209.968	0.04
210.187	0.1
210.407	-0.14
210.626	-0.06
210.845	0.52
211.064	0.25
211.283	-0.06
211.502	0.65
211.721	0.26
211.94	0.16
212.159	0.19
212.377	0.75
212.596	0.56
212.815	0.22
213.034	0.13
213.253	0.33
213.472	0.31
213.691	-0.08
213.91	0.02
214.128	0.01
214.347	0.65
214.566	-0.24
214.785	-0.12
215.003	0.53
215.222	0.25
215.441	0.19
215.66	-0.07
215.878	0.29
216.097	0.38
216.316	-0.17
216.534	0.07
216.753	0.23
216.972	0.02
217.19	0.06
217.409	0.01
217.627	-0.02
217.846	0.03
218.064	0.21
218.283	0.17
218.501	0.56
218.72	0.45
218.938	-0.09
219.157	0.13
219.375	0.54
219.594	0.36
219.812	0.04
220.031	0
220.249	0.64
220.467	0.44
220.686	0.09
220.904	-0.08
221.122	0.1
221.341	0.4
221.559	0.27
221.777	0
221.995	0.2
222.214	0.37
222.432	-0.03
222.65	0.12
222.868	0.16
223.086	0.37
223.305	0.31
223.523	0.17
223.741	0.51
223.959	0.19
224.177	-0.19
224.395	0.02
224.613	0.07
224.831	0.28
225.049	0.03
225.267	0.08
225.485	0.3
225.703	0.09
225.921	0.15
226.139	0.04
226.357	0.31
226.575	0.2
226.793	-0.12
227.011	0.62
227.229	0.28
227.447	0.25
227.665	-0.03
227.883	-0.17
228.1	0.2
228.318	0.15
228.536	-0.11
228.754	-0.07
228.972	0.11
229.189	0.29
229.407	0.09
229.625	0.05
229.843	0.32
230.06	0.28
230.278	0.01
230.496	0.07
230.713	0.16
230.931	0.26
231.149	0.05
231.366	-0.07
231.584	0.09
231.801	0.47
232.019	0.08
232.236	-0.15
232.454	-0.08
232.671	0.19
232.889	0.11
233.106	0.05
233.324	0.11
233.541	0.03
233.759	0.15
233.976	0
234.194	0.12
234.411	0.13
234.628	0.07
234.846	0.01
235.063	0.05
235.28	-0.02
235.498	0.09
235.715	-0.08
235.932	0.21
236.149	0.15
236.367	-0.03
236.584	0.09
236.801	0.05
237.018	0.15
237.236	0.11
237.453	-0.03
237.67	0.22
237.887	0.12
238.104	-0.01
238.321	0.06
238.538	-0.01
238.755	0.22
238.973	-0.1
239.19	0.2
239.407	0.22
239.624	0.15
239.841	-0.06
240.058	0.06
240.275	0.12
240.492	0.03
240.709	0.09
240.925	-0.03
241.142	0.17
241.359	-0.02
241.576	0.06
241.793	0.02
242.01	0.11
242.227	0.16
242.444	0.08
242.66	0.3
242.877	0.04
243.094	-0.01
243.311	0.09
243.527	0.02
243.744	0.13
243.961	0.19
244.178	-0.01
244.394	0.02
244.611	0.25
244.828	0.26
245.044	-0.07
245.261	0.06
245.477	0.06
245.694	0.04
245.911	-0.01
246.127	0.11
246.344	0.28
246.56	0.18
246.777	0.06
246.993	0.08
247.21	0.23
247.426	0.17
247.643	0.07
247.859	0.02
248.076	0.08
248.292	0.29
248.508	-0.02
248.725	0.03
248.941	0.16
249.157	0.18
249.374	0.02
249.59	0.07
249.806	0.18
250.023	0.09
250.239	-0.01
250.455	0.03
250.671	-0.01
250.888	0.08
251.104	0.17
251.32	-0.02
251.536	0.08
251.752	0.06
251.969	0.06
252.185	-0.03
252.401	0.27
252.617	0.1
252.833	0.02
253.049	0.09
253.265	0.12
253.481	0.12
253.697	0.05
253.913	-0.02
254.129	0.15
254.345	0.17
254.561	0.01
254.777	0.04
254.993	0.17
255.209	0.17
255.425	0.07
255.641	0.03
255.857	0.14
256.073	0.08
256.288	-0.03
256.504	0.05
256.72	0.1
256.936	0.27
257.152	0.04
257.367	-0.02
257.583	0.09
257.799	0.13
258.015	0
258.23	-0.02
258.446	0.21
258.662	0.04
258.877	-0.02
259.093	-0.05
259.309	0.09
259.524	0.04
259.74	0.01
259.955	-0.03
260.171	-0.02
260.387	0.08
260.602	0.11
260.818	0.13
261.033	0.02
261.249	-0.03
261.464	0.01
261.68	-0.04
261.895	0.09
262.11	0.15
262.326	0.04
262.541	-0.04
262.757	0.11
262.972	0.11
263.187	0.09
263.403	0.06
263.618	0.11
263.833	0.08
264.049	0.07
264.264	0.1
264.479	0.12
264.694	0.14
264.91	-0.07
265.125	0.06
265.34	0.16
265.555	0.19
265.77	0.1
265.986	-0.03
266.201	0.13
266.416	0.17
266.631	0.04
266.846	0.07
267.061	0.1
267.276	0.13
267.491	-0.09
267.706	0.11
267.921	0.11
268.136	0.17
268.351	0.06
268.566	-0.06
268.781	0.13
268.996	0.09
269.211	0.06
269.426	0.01
269.641	-0.03
269.856	0.14
270.071	0.02
270.285	-0.1
270.5	0.13
270.715	0.17
270.93	0
271.145	0.13
271.359	0.13
271.574	0.03
271.789	0.04
272.004	-0.02
272.218	0.03
272.433	0.15
272.648	0.03
272.862	0.15
273.077	0.06
273.292	0.13
273.506	0
273.721	0.04
273.936	0.09
274.15	0.13
274.365	0.07
274.579	0.13
274.794	0.05
275.008	0.13
275.223	-0.03
275.437	0.08
275.652	0.09
275.866	0.08
276.081	0.07
276.295	0.13
276.509	0.05
276.724	0.08
276.938	0.05
277.153	0.1
277.367	0.09
277.581	0.04
277.796	-0.01
278.01	0.02
278.224	0.1
278.438	0.21
278.653	0.02
278.867	0.02
279.081	-0.12
279.295	0.03
279.51	0.16
279.724	-0.09
279.938	0.11
280.152	0.08
280.366	-0.02
280.58	0.06
280.794	0.12
281.008	0.14
281.222	0.1
281.437	0.19
281.651	0.09
281.865	0.11
282.079	0
282.293	-0.02
282.507	-0.09
282.721	0.01
282.935	0.11
283.148	-0.06
283.362	0.02
283.576	-0.01
283.79	0.04
284.004	0.07
284.218	0.17
284.432	0.02
284.646	0.05
284.859	-0.01
285.073	0.02
285.287	0.11
285.501	0.09
285.714	0.11
285.928	0.1
286.142	0.11
286.356	-0
286.569	0.05
286.783	0.1
286.997	0.06
287.21	0.07
287.424	0.12
287.637	0.06
287.851	0.04
288.065	0.06
288.278	0.02
288.492	0.06
288.705	0.02
288.919	0.09
289.132	-0.03
289.346	0.13
289.559	-0.02
289.773	-0.01
289.986	0.06
290.2	0.06
290.413	0.06
290.626	0.06
290.84	0.06
291.053	0.04
291.267	0.11
291.48	0.09
291.693	0.01
291.906	0.05
292.12	0.04
292.333	-0.01
292.546	0.01
292.76	0.17
292.973	0.05
293.186	0.13
293.399	-0.01
293.612	0.12
293.826	0.03
294.039	0.03
294.252	-0
294.465	0.1
294.678	0.09
294.891	0.05
295.104	0.02
295.317	0.07
295.53	0.11
295.743	0.06
295.956	0.07
296.169	0.11
296.382	0.11
296.595	0.07
296.808	0.04
297.021	0.11
297.234	0.11
297.447	0.06
297.66	0.08
297.873	0.14
298.086	0.08
298.299	0.05
298.511	0.01
298.724	0.11
298.937	0.05
299.15	0.02
299.363	0.02
299.575	0.09
299.788	0.11
300.001	0.01
300.213	-0
300.426	0.05
300.639	0.01
300.852	0.05
301.064	0.11
301.277	0.12
301.489	0.13
301.702	0.08
301.915	0.02
302.127	0.11
302.34	0.09
302.552	0.06
302.765	0.03
302.977	0.08
303.19	0.03
303.402	0.02
303.615	0.05
303.827	0.02
304.04	0.03
304.252	0.11
304.464	0.07
304.677	0.15
304.889	0.1
305.102	0.03
305.314	0.06
305.526	0.08
305.739	0.07
305.951	0.01
306.163	0.05
306.375	0.11
306.588	0.05
306.8	0.05
307.012	-0.01
307.224	0.06
307.436	0.11
307.649	-0.02
307.861	0.05
308.073	0.09
308.285	0.05
308.497	0.03
308.709	0.01
308.921	0.11
309.133	0.12
309.346	0.03
309.558	0.05
309.77	0.08
309.982	0.1
310.194	0.11
310.406	0.02
310.617	0.11
310.829	0.05
311.041	0.1
311.253	0.01
311.465	0.03
311.677	0.04
311.889	0.04
312.101	0.05
312.313	0.11
312.524	0.14
312.736	-0.06
312.948	0.02
313.16	0.13
313.372	0.12
313.583	0.04
313.795	0.06
314.007	0.05
314.218	0.08
314.43	0.03
314.642	0.02
314.853	0.01
315.065	0.13
315.277	0.04
315.488	0.08
315.7	0.1
315.912	0.11
316.123	0.04
316.335	0.04
316.546	0.2
316.758	0.07
316.969	0.03
317.181	0.06
317.392	0.06
317.604	0.12
317.815	0.01
318.026	0.04
318.238	0.05
318.449	0.07
318.661	-0.03
318.872	0.02
319.083	0.06
319.295	0.11
319.506	0.05
319.717	0.1
319.929	0.11
320.14	0.05
320.351	0.1
320.562	-0.01
320.774	0.08
320.985	0.07
321.196	0.02
321.407	-0.01
321.618	0.11
321.829	0.09
322.041	0.1
322.252	0.03
322.463	0.08
322.674	0.11
322.885	0.02
323.096	0.06
323.307	0.06
323.518	0.09
323.729	0.03
323.94	0.04
324.151	0.07
324.362	0.04
324.573	0.1
324.784	0.02
324.995	0.11
325.206	0.06
325.417	0.05
325.628	0.02
325.838	0.06
326.049	0.11
326.26	0.1
326.471	0.05
326.682	0.09
326.892	0.06
327.103	-0
327.314	0.01
327.525	0.14
327.735	0.11
327.946	0.03
328.157	0
328.368	0.12
328.578	0.03
328.789	0.08
328.999	0.08
329.21	0.03
329.421	0.11
329.631	0.01
329.842	0.04
330.052	0.12
330.263	0.08
330.473	0.08
330.684	0.06
330.894	0.09
331.105	0.11
331.315	0.05
331.526	-0.01
331.736	0.16
331.947	0.11
332.157	0.09
332.367	0.02
332.578	0.1
332.788	0.12
332.999	0.08
333.209	0.04
333.419	0.03
333.629	0.13
333.84	0.1
334.05	0.07
334.26	0.13
334.47	0.1
334.681	0.13
334.891	0.04
335.101	0.1
335.311	0.15
335.521	0.05
335.732	0.04
335.942	0.1
336.152	0.12
336.362	0.08
336.572	0.08
336.782	0.12
336.992	0.05
337.202	0.05
337.412	0.04
337.622	0.13
337.832	0.04
338.042	0.08
338.252	0.03
338.462	0.05
338.672	0.06
338.882	0.02
339.092	0.07
339.302	0.13
339.511	0.11
339.721	0.03
339.931	0.02
340.141	0.13
340.351	0.14
340.561	0.1
340.77	0.1
340.98	0.09
341.19	0.13
341.4	0.06
341.609	0.06
341.819	0.06
342.029	0.01
342.238	0.08
342.448	0.05
342.658	0.1
342.867	0.11
343.077	0.07
343.286	0.09
343.496	0.07
343.706	0.13
343.915	0
344.125	0.09
344.334	0.08
344.544	-0.01
344.753	0.07
344.963	0.03
345.172	0.06
345.381	0
345.591	0.02
345.8	0.06
346.01	0.13
346.219	0.13
346.428	-0.08
346.638	0.07
346.847	0.07
347.056	0.12
347.266	0.05
347.475	0.09
347.684	0.1
347.893	0.07
348.103	0.08
348.312	0.07
348.521	0.05
348.73	0.07
348.94	0.05
349.149	0.07
349.358	0.06
349.567	0.03
349.776	0
349.985	0.03
350.194	0.13
350.403	0.12
350.612	-0.01
350.821	0.04
351.03	0.06
351.239	0.03
351.448	0.06
351.657	0.06
351.866	0.11
352.075	0.08
352.284	0.1
352.493	0.02
352.702	0.13
352.911	0.09
353.12	0.04
353.329	0.05
353.538	0.08
353.746	0.05
353.955	0.03
354.164	0.08
354.373	0.07
354.582	0.12
354.79	0.06
354.999	0.11
355.208	0.04
355.416	0.14
355.625	0.03
355.834	0.03
356.042	0.08
356.251	0.06
356.46	0.01
356.668	0.12
356.877	0.17
357.085	0.15
357.294	-0.01
357.503	0.09
357.711	0.06
357.92	0.19
358.128	0.08
358.337	0.05
358.545	0.08
358.754	0.02
358.962	0.11
359.17	0.05
359.379	0.06
359.587	0.11
359.796	0.09
360.004	0.09
360.212	0.09
360.421	0.14
360.629	0.05
360.837	0.06
361.046	0.15
361.254	0.12
361.462	0.04
361.67	0.06
361.879	0.08
362.087	0.14
362.295	0.08
362.503	0.07
362.711	0.05
362.92	0.07
363.128	0.04
363.336	0.04
363.544	0.03
363.752	0.07
363.96	0.06
364.168	0.01
364.376	0.07
364.584	0.1
364.792	0.1
365	0.1
365.208	0.09
365.416	0.06
365.624	0.14
365.832	0.05
366.04	0.16
366.248	0.05
366.456	0.07
366.664	0.09
366.872	0.12
367.079	0.09
367.287	0.07
367.495	0.07
367.703	0.05
367.911	0.04
368.118	0.08
368.326	0.07
368.534	0.03
368.742	0.16
368.949	0.01
369.157	0.01
369.365	0.09
369.572	0.09
369.78	0.03
369.988	0.14
370.195	0.11
370.403	0.14
370.61	0
370.818	0.07
371.026	0.14
371.233	0.08
371.441	0.02
371.648	0.08
371.856	0.07
372.063	0.05
372.271	0.04
372.478	0.07
372.685	0.06
372.893	0.12
373.1	0.06
373.308	0.12
373.515	0.15
373.722	0.11
373.93	0.08
374.137	0.11
374.344	0.11
374.552	0.16
374.759	0.12
374.966	0.05
375.173	0.07
375.381	0.11
375.588	0.09
375.795	0.01
376.002	0.08
376.209	0.09
376.417	0.06
376.624	0.13
376.831	0.1
377.038	0.09
377.245	0.02
377.452	0.08
377.659	0.1
377.866	0.1
378.073	0.07
378.28	0.1
378.487	0.14
378.694	0.09
378.901	0.09
379.108	0.04
379.315	0.14
379.522	0.16
379.729	0.1
379.936	0.07
380.143	0.13
380.35	0.11
380.557	0.09
380.763	0.13
380.97	0.1
381.177	0.13
381.384	0.13
381.591	0.1
381.797	0.13
382.004	0.14
382.211	0.17
382.418	0.1
382.624	0.12
382.831	0.11
383.038	0.1
383.244	0.11
383.451	0.12
383.658	0.18
383.864	0.11
384.071	0.12
384.277	0.19
384.484	0.09
384.69	0.2
384.897	0.06
385.103	0.13
385.31	0.06
385.516	0.08
385.723	0.06
385.929	0.16
386.136	0.12
386.342	0.11
386.549	0.05
386.755	0.2
386.961	0.11
387.168	0.1
387.374	0.15
387.58	0.16
387.787	0.12
387.993	0.17
388.199	0.14
388.406	0.12
388.612	0.13
388.818	0.12
389.024	0.08
389.231	0.19
389.437	0.24
389.643	0.21
389.849	0.13
390.055	0.16
390.261	0.22
390.467	0.21
390.674	0.16
390.88	0.17
391.086	0.18
391.292	0.1
391.498	0.24
391.704	0.23
391.91	0.2
392.116	0.21
392.322	0.11
392.528	0.24
392.734	0.19
392.94	0.19
393.146	0.17
393.352	0.25
393.557	0.25
393.763	0.26
393.969	0.31
394.175	0.21
394.381	0.26
394.587	0.2
394.792	0.24
394.998	0.3
395.204	0.37
395.41	0.25
395.615	0.3
395.821	0.32
396.027	0.34
396.233	0.33
396.438	0.37
396.644	0.43
396.85	0.38
397.055	0.35
397.261	0.39
397.466	0.51
397.672	0.47
397.878	0.5
398.083	0.48
398.289	0.45
398.494	0.55
398.7	0.51
398.905	0.48
399.111	0.63
399.316	0.51
399.522	0.62
399.727	0.57
399.932	0.6
400.138	0.59
400.343	0.71
400.549	0.71
400.754	0.74
400.959	0.8
401.165	0.8
401.37	0.84
401.575	1.01
401.78	0.87
401.986	0.96
402.191	0.98
402.396	1.05
402.601	1.13
402.807	1.17
403.012	1.14
403.217	1.31
403.422	1.33
403.627	1.37
403.832	1.4
404.037	1.56
404.243	1.62
404.448	1.65
404.653	1.69
404.858	1.79
405.063	1.75
405.268	1.85
405.473	1.93
405.678	1.99
405.883	2.28
406.088	2.26
406.293	2.22
406.498	2.4
406.703	2.48
406.907	2.62
407.112	2.69
407.317	2.92
407.522	3.13
407.727	3.2
407.932	3.35
408.136	3.55
408.341	3.56
408.546	3.73
408.751	3.93
408.956	4.05
409.16	4.21
409.365	4.34
409.57	4.41
409.774	4.7
409.979	4.91
410.184	4.99
410.388	5.11
410.593	5.49
410.798	5.68
411.002	5.94
411.207	6.09
411.411	6.36
411.616	6.5
411.82	6.79
412.025	7.01
412.229	7.31
412.434	7.51
412.638	7.77
412.843	8.08
413.047	8.34
413.252	8.46
413.456	9.06
413.66	9.29
413.865	9.44
414.069	9.62
414.273	10.07
414.478	10.18
414.682	10.62
414.886	10.92
415.091	11.05
415.295	11.55
415.499	11.91
415.703	12.01
415.908	12.68
416.112	12.82
416.316	13.3
416.52	13.73
416.724	13.83
416.929	14.22
417.133	15.05
417.337	14.93
417.541	15.42
417.745	15.77
417.949	16.08
418.153	16.74
418.357	17.14
418.561	17.66
418.765	17.58
418.969	17.93
419.173	18.96
419.377	18.9
419.581	19.7
419.785	20.08
419.989	20.13
420.193	21.03
420.397	21.05
420.601	21.49
420.804	21.91
421.008	21.73
421.212	22.36
421.416	21.91
421.62	21.96
421.823	21.95
422.027	22.02
422.231	21.8
422.435	21.63
422.638	21.33
422.842	21.75
423.046	21.92
423.249	22.12
423.453	21.52
423.657	21.92
423.86	22.06
424.064	22.01
424.268	22.02
424.471	21.74
424.675	21.74
424.878	21.59
425.082	21.74
425.285	22.1
425.489	21.28
425.692	21.13
425.896	20.67
426.099	20.72
426.303	20.56
426.506	20.62
426.71	20.5
426.913	20.38
427.116	20.28
427.32	19.51
427.523	19.07
427.726	19.13
427.93	18.89
428.133	19.06
428.336	18.85
428.54	18.53
428.743	18.2
428.946	18.11
429.149	17.41
429.353	16.78
429.556	16.26
429.759	15.89
429.962	15.57
430.165	15.33
430.368	13.97
430.571	13.58
430.775	13.1
430.978	12.66
431.181	12.37
431.384	11.81
431.587	11.64
431.79	11.7
431.993	11.13
432.196	11.16
432.399	11.16
432.602	10.89
432.805	10.62
433.008	10.77
433.211	10.38
433.414	10.31
433.616	9.94
433.819	9.55
434.022	9.32
434.225	9.2
434.428	8.91
434.631	8.96
434.833	8.51
435.036	8.36
435.239	8.2
435.442	8.04
435.645	7.86
435.847	7.49
436.05	7.65
436.253	7.51
436.455	7.26
436.658	6.96
436.861	6.83
437.063	6.7
437.266	6.42
437.468	6.43
437.671	6.45
437.874	6.22
438.076	5.92
438.279	5.86
438.481	5.66
438.684	5.9
438.886	5.5
439.089	5.42
439.291	5.29
439.494	5.24
439.696	5.07
439.899	5.14
440.101	5.16
440.303	4.91
440.506	4.94
440.708	4.81
440.91	4.72
441.113	4.43
441.315	4.4
441.517	4.24
441.72	4.33
441.922	3.94
442.124	3.82
442.326	3.75
442.529	3.86
442.731	3.68
442.933	3.63
443.135	3.44
443.337	3.23
443.539	3.29
443.742	3.14
443.944	3.18
444.146	2.96
444.348	2.85
444.55	2.68
444.752	2.73
444.954	2.62
445.156	2.52
445.358	2.52
445.56	2.54
445.762	2.49
445.964	2.4
446.166	2.26
446.368	2.24
446.57	2.2
446.772	2.09
446.974	2.04
447.175	2
447.377	1.91
447.579	1.99
447.781	1.83
447.983	1.87
448.184	1.76
448.386	1.85
448.588	1.61
448.79	1.65
448.991	1.62
449.193	1.63
449.395	1.48
449.597	1.57
449.798	1.48
450	1.47
450.202	1.39
450.403	1.39
450.605	1.43
450.806	1.39
451.008	1.23
451.21	1.27
451.411	1.22
451.613	1.16
451.814	1.17
452.016	1.25
452.217	1.11
452.419	1.16
452.62	1.11
452.821	1.09
453.023	1.11
453.224	1
453.426	0.99
453.627	0.99
453.828	0.99
454.03	0.99
454.231	1
454.432	0.93
454.634	1
454.835	0.85
455.036	0.86
455.238	0.91
455.439	0.91
455.64	0.78
455.841	0.73
456.042	0.97
456.244	0.82
456.445	0.7
456.646	0.7
456.847	0.72
457.048	0.8
457.249	0.76
457.45	1.06
457.651	0.66
457.852	0.71
458.054	0.68
458.255	0.63
458.456	0.65
458.657	0.67
458.858	0.56
459.058	0.59
459.259	0.67
459.46	0.57
459.661	0.55
459.862	0.67
460.063	0.56
460.264	0.6
460.465	0.45
460.666	0.65
460.866	0.5
461.067	0.48
461.268	0.46
461.469	0.47
461.67	0.47
461.87	0.41
462.071	0.47
462.272	0.42
462.473	0.45
462.673	0.49
462.874	0.4
463.075	0.48
463.275	0.4
463.476	0.48
463.676	0.48
463.877	0.45
464.078	0.42
464.278	0.47
464.479	0.41
464.679	0.39
464.88	0.42
465.08	0.45
465.281	0.35
465.481	0.38
465.682	0.36
465.882	0.37
466.083	0.35
466.283	0.36
466.483	0.34
466.684	0.28
466.884	0.25
467.085	0.27
467.285	0.42
467.485	0.25
467.686	0.33
467.886	0.28
468.086	0.3
468.286	0.28
468.487	0.35
468.687	0.22
468.887	0.26
469.087	0.32
469.287	0.26
469.488	0.23
469.688	0.27
469.888	0.29
470.088	0.3
470.288	0.29
470.488	0.31
470.688	0.19
470.888	0.21
471.088	0.2
471.288	0.3
471.488	0.26
471.688	0.27
471.888	0.2
472.088	0.3
472.288	0.25
472.488	0.21
472.688	0.17
472.888	0.25
473.088	0.24
473.288	0.21
473.488	0.2
473.688	0.26
473.887	0.24
474.087	0.14
474.287	0.21
474.487	0.2
474.687	0.2
474.886	0.17
475.086	0.19
475.286	0.2
475.486	0.21
475.685	0.17
475.885	0.17
476.085	0.18
476.284	0.23
476.484	0.17
476.684	0.2
476.883	0.23
477.083	0.18
477.282	0.13
477.482	0.23
477.681	0.24
477.881	0.18
478.08	0.14
478.28	0.11
478.479	0.18
478.679	0.22
478.878	0.1
479.078	0.1
479.277	0.11
479.477	0.12
479.676	0.18
479.875	0.14
480.075	0.07
480.274	0.16
480.473	0.15
480.673	0.11
480.872	0.16
481.071	0.14
481.271	0.16
481.47	0.1
481.669	0.12
481.868	0.1
482.067	0.08
482.267	0.08
482.466	0.11
482.665	0.07
482.864	0.08
483.063	0.09
483.262	0.15
483.461	0.17
483.661	0.14
483.86	0.11
484.059	0.12
484.258	0.11
484.457	0.08
484.656	0.08
484.855	0.16
485.054	0.05
485.253	0.07
485.452	0.02
485.651	0.11
485.849	0.07
486.048	0.11
486.247	0.07
486.446	0.1
486.645	0.04
486.844	0.07
487.043	0.1
487.241	0.11
487.44	0.06
487.639	0.08
487.838	0.11
488.037	0.1
488.235	0.13
488.434	0.07
488.633	0.06
488.831	0.11
489.03	0.12
489.229	0.09
489.427	0.08
489.626	0.13
489.825	0.14
490.023	0.06
490.222	0.06
490.42	0.09
490.619	0.12
490.817	0.09
491.016	0.06
491.214	0.15
491.413	0.09
491.611	0.06
491.81	0.06
492.008	0.1
492.207	0.1
492.405	0.08
492.604	0.06
492.802	0.06
493	0.09
493.199	0.05
493.397	0.08
493.595	0.09
493.794	0.06
493.992	0.12
494.19	0.08
494.388	0.11
494.587	0.07
494.785	0.08
494.983	0.02
495.181	0.07
495.379	0.09
495.578	0.06
495.776	0.08
495.974	0.09
496.172	0.07
496.37	0.08
496.568	0.02
496.766	0.07
496.964	0.1
497.162	0.05
497.36	0.06
497.558	0.08
497.756	0.09
497.954	0.05
498.152	0.04
498.35	0.08
498.548	0.06
498.746	0.06
498.944	0.06
499.142	0.05
499.34	0.02
499.538	0.07
499.736	0.03
499.933	0.11
500.131	0.08
500.329	0.04
500.527	0.09
500.725	0.08
500.922	0.07
501.12	0.05
501.318	0.04
501.516	0.06
501.713	0.08
501.911	0.05
502.109	0.02
502.306	0.07
502.504	0.04
502.701	0.04
502.899	0.04
503.097	0.11
503.294	0.06
503.492	0.06
503.689	0.06
503.887	0.06
504.084	0.1
504.282	0.08
504.479	0.02
504.677	0.06
504.874	0.05
505.072	0.06
505.269	0.05
505.466	0.07
505.664	0.07
505.861	0
506.059	0.04
506.256	0.07
506.453	0.04
506.651	0.08
506.848	0.06
507.045	0.06
507.242	0.07
507.44	0.05
507.637	0.04
507.834	0.05
508.031	0.06
508.229	0.02
508.426	0.05
508.623	0.06
508.82	0.03
509.017	0.04
509.214	0.05
509.411	0.06
509.608	0.02
509.805	0.06
510.003	0.04
510.2	0.04
510.397	0.07
510.594	0.03
510.791	0.03
510.988	0.06
511.184	0.09
511.381	0.05
511.578	0
511.775	0.07
511.972	0.02
512.169	0.03
512.366	0.03
512.563	0.03
512.76	0.03
512.956	0.06
513.153	0.03
513.35	0.05
513.547	0.04
513.744	0.02
513.94	0.01
514.137	0.06
514.334	0.04
514.53	0.05
514.727	0.06
514.924	0.09
515.12	0.03
515.317	0.01
515.514	0.05
515.71	0
515.907	0.04
516.103	0.04
516.3	0.06
516.497	0.07
516.693	0.07
516.89	0.04
517.086	0.02
517.283	0.09
517.479	0.05
517.676	0.02
517.872	0.03
518.068	0.03
518.265	0.02
518.461	0.03
518.658	0
518.854	0.04
519.05	0.03
519.247	0.04
519.443	0.05
519.639	0.05
519.836	0.06
520.032	0.02
520.228	0.03
520.424	0.09
520.621	0.03
520.817	0.03
521.013	0.07
521.209	0.05
521.405	0.1
521.601	0.05
521.798	0.05
521.994	0.08
522.19	0.02
522.386	-0
522.582	0.03
522.778	0.05
522.974	0
523.17	0.04
523.366	0.04
523.562	0.07
523.758	0.03
523.954	0.01
524.15	0.03
524.346	0.07
524.542	0.03
524.738	0.02
524.934	0.04
525.129	0.05
525.325	0.05
525.521	0.04
525.717	0.06
525.913	0.03
526.109	0.04
526.304	0.04
526.5	0.04
526.696	0.07
526.892	0.05
527.087	0.04
527.283	0.01
527.479	0.06
527.674	0.01
527.87	0.03
528.066	0.03
528.261	0.06
528.457	0.06
528.653	0.03
528.848	0
529.044	0.03
529.239	0.03
529.435	0.05
529.63	0.05
529.826	0.08
530.021	0.06
530.217	0.04
530.412	-0
530.608	0.01
530.803	0.03
530.999	0.04
531.194	-0.02
531.389	0.05
531.585	-0.01
531.78	0.04
531.975	0.01
532.171	0.07
532.366	0.03
532.561	0.04
532.757	0.01
532.952	0.02
533.147	0.05
533.342	0.02
533.538	0.01
533.733	0.05
533.928	0.05
534.123	0.01
534.318	0
534.513	0.03
534.709	0.03
534.904	0.02
535.099	0.02
535.294	0.02
535.489	0.03
535.684	0.03
535.879	0.02
536.074	0.04
536.269	0
536.464	0.03
536.659	0.02
536.854	0.02
537.049	0.03
537.244	0.04
537.439	0.01
537.634	0.04
537.828	0.04
538.023	0.02
538.218	0
538.413	0.03
538.608	-0.01
538.803	0.05
538.997	0.01
539.192	0.04
539.387	0.04
539.582	0.03
539.776	0.03
539.971	0.02
540.166	0.02
540.36	-0.02
540.555	0.03
540.75	0.02
540.944	0.02
541.139	-0.02
541.334	0.02
541.528	0.04
541.723	0.05
541.917	0.01
542.112	-0
542.306	0.02
542.501	0.04
542.695	0.03
542.89	0.01
543.084	0.02
543.279	0.01
543.473	0.01
543.668	0.02
543.862	0.01
544.056	0.06
544.251	0.03
544.445	0.03
544.64	0.01
544.834	0
545.028	0.02
545.222	0.03
545.417	0.06
545.611	0.05
545.805	0.04
546	0.01
546.194	0.02
546.388	0.01
546.582	0.05
546.776	0.03
546.97	0.04
547.165	0.05
547.359	0.06
547.553	0
547.747	0.04
547.941	0.02
548.135	0.03
548.329	0.05
548.523	0.04
548.717	0.01
548.911	-0
549.105	0.03
549.299	0.03
549.493	0.05
549.687	0.03
549.881	0.04
550.075	0.02
550.269	-0.02
550.463	0.06
550.657	0.01
550.85	0.03
551.044	-0.01
551.238	0.05
551.432	0.02
551.626	-0
551.82	0.03
552.013	0
552.207	0.01
552.401	0.04
552.594	0.05
552.788	0.02
552.982	0.02
553.176	-0.01
553.369	0.05
553.563	0.01
553.756	-0.01
553.95	-0.01
554.144	-0
554.337	0.05
554.531	0.04
554.724	0.04
554.918	0.01
555.111	0.05
555.305	-0
555.498	0.09
555.692	0.07
555.885	0.02
556.079	0.03
556.272	0.01
556.466	0.06
556.659	0.03
556.852	0.02
557.046	0.01
557.239	0.05
557.432	-0
557.626	-0.01
557.819	0.03
558.012	0.05
558.206	0.02
558.399	0.01
558.592	0.05
558.785	0.02
558.979	0.07
559.172	0.01
559.365	0.05
559.558	0.04
559.751	0.03
559.944	0.03
560.138	-0.02
560.331	0.01
560.524	0.01
560.717	0.02
560.91	0.02
561.103	0.01
561.296	0.01
561.489	0.03
561.682	0.03
561.875	0.07
562.068	0.04
562.261	0.04
562.454	0.07
562.647	0.04
562.84	0.06
563.032	-0.01
563.225	0.02
563.418	0.02
563.611	0.01
563.804	0
563.997	0
564.19	-0
564.382	0.06
564.575	0.02
564.768	0.02
564.961	0.01
565.153	0.01
565.346	0.03
565.539	0.03
565.731	0.05
565.924	0.05
566.117	0.04
566.309	0.03
566.502	0.01
566.695	0.02
566.887	0.03
567.08	-0.01
567.272	0.01
567.465	-0
567.657	0.03
567.85	0.03
568.042	0.05
568.235	0.06
568.427	0.04
568.62	0.04
568.812	0.03
569.005	0.02
569.197	-0.01
569.389	0.03
569.582	0.04
569.774	0.03
569.966	-0.03
570.159	0.01
570.351	0.04
570.543	-0.01
570.736	0.01
570.928	0
571.12	0.04
571.312	0
571.505	-0.01
571.697	0.04
571.889	0
572.081	0.02
572.273	0.01
572.465	0.05
572.658	-0.01
572.85	0.03
573.042	0.01
573.234	0
573.426	0.05
573.618	-0.02
573.81	0.01
574.002	0.05
574.194	0.05
574.386	-0.02
574.578	-0.07
574.77	-0.01
574.962	0.02
575.154	-0.03
575.346	-0.01
575.538	0.03
575.729	0.01
575.921	0.02
576.113	-0
576.305	0.05
576.497	0
576.689	0.01
576.88	0
577.072	0.04
577.264	0.01
577.456	0.01
577.647	-0.04
577.839	0.03
578.031	0.07
578.223	-0.03
578.414	-0.02
578.606	0.04
578.798	0.01
578.989	-0.01
579.181	0.03
579.372	0.03
579.564	0.02
579.755	0.03
579.947	0.01
580.139	0.04
580.33	-0.05
580.522	-0.02
580.713	-0.05
580.905	-0.01
581.096	0.02
581.287	0
581.479	0.03
581.67	0.04
581.862	0.03
582.053	-0.03
582.244	-0.05
582.436	0.01
582.627	0
582.818	-0.02
583.01	-0.01
583.201	0.02
583.392	0.06
583.583	0.01
583.775	-0.01
583.966	0.01
584.157	0.02
584.348	-0.03
584.54	-0.02
584.731	0.02
584.922	-0
585.113	-0.01
585.304	0.03
585.495	0.03
585.686	0.03
585.877	0.04
586.068	-0.01
586.259	0.05
586.45	0.04
586.641	-0.01
586.832	-0.06
587.023	0.04
587.214	-0.01
587.405	0.02
587.596	-0.01
587.787	0.05
587.978	0.03
588.169	-0.03
588.36	-0.01
588.551	0.03
588.742	-0.03
588.932	0.04
589.123	-0
589.314	0.04
589.505	0.03
589.696	0.03
589.886	-0.02
590.077	-0.02
590.268	0.02
590.458	-0.01
590.649	-0.04
590.84	0.04
591.03	-0.01
591.221	-0.02
591.412	-0.01
591.602	0.05
591.793	0.04
591.984	-0.03
592.174	0.01
592.365	0.05
592.555	-0.01
592.746	0.01
592.936	0.03
593.127	0.01
593.317	0.05
593.508	-0.01
593.698	0.01
593.889	0.01
594.079	0.03
594.269	-0
594.46	0.01
594.65	0.01
594.84	-0
595.031	-0.01
595.221	-0
595.411	-0.03
595.602	0.05
595.792	-0.01
595.982	-0.01
596.172	0.07
596.363	0.02
596.553	0.02
596.743	0
596.933	0.02
597.123	0.06
597.314	0
597.504	0
597.694	0.04
597.884	0.04
598.074	0
598.264	-0.01
598.454	0.03
598.644	0.04
598.834	0.02
599.024	-0.06
599.214	-0
599.404	0.02
599.594	0.01
599.784	-0.01
599.974	0.05
600.164	0.03
600.354	-0.02
600.544	-0.03
600.734	0
600.924	0.04
601.114	0.01
601.303	0.02
601.493	0.02
601.683	0.02
601.873	0.03
602.063	-0.04
602.252	0.04
602.442	-0.06
602.632	-0.02
602.821	-0.03
603.011	0.05
603.201	-0
603.39	-0.02
603.58	-0.03
603.77	0.02
603.959	0.04
604.149	0.01
604.339	-0.03
604.528	0.04
604.718	0.03
604.907	0.01
605.097	-0.02
605.286	-0.03
605.476	0.03
605.665	0.04
605.855	0.01
606.044	0.03
606.234	0.02
606.423	0.01
606.612	-0.02
606.802	0.02
606.991	0.03
607.181	0.02
607.37	-0.03
607.559	0.02
607.749	-0.02
607.938	0.02
608.127	0
608.316	0
608.506	0.02
608.695	-0
608.884	0.01
609.073	0.02
609.263	0.03
609.452	0.05
609.641	0.03
609.83	-0.05
610.019	0.02
610.208	-0.02
610.397	0.01
610.586	0.02
610.775	0
610.965	-0
611.154	-0.01
611.343	0.04
611.532	0.01
611.721	-0.03
611.91	-0.03
612.099	0.05
612.287	0.02
612.476	-0.02
612.665	0.02
612.854	-0
613.043	0.04
613.232	-0.03
613.421	-0.05
613.61	0.01
613.798	-0.02
613.987	0.04
614.176	0.01
614.365	0.02
614.554	0.03
614.742	0.04
614.931	-0
615.12	0.05
615.309	0.02
615.497	0.03
615.686	-0.04
615.875	-0.01
616.063	0.03
616.252	-0.03
616.44	0
616.629	-0
616.818	0.06
617.006	0.01
617.195	-0.01
617.383	0.04
617.572	0
617.76	-0.01
617.949	-0.01
618.137	0.01
618.326	0.04
618.514	0.01
618.703	0.02
618.891	0.04
619.079	-0.02
619.268	0.02
619.456	-0.02
619.644	0.04
619.833	0.02
620.021	0.01
620.209	-0.04
620.398	0.01
620.586	0.01
620.774	0.01
620.962	-0.02
621.151	0.09
621.339	-0.01
621.527	-0.01
621.715	-0.05
621.903	0.01
622.092	-0.01
622.28	0.01
622.468	0.02
622.656	-0.05
622.844	0.02
623.032	-0.01
623.22	-0.04
623.408	0.02
623.596	0.03
623.784	0.05
623.972	-0.01
624.16	-0.01
624.348	0.07
624.536	-0.02
624.724	-0
624.912	0.08
625.1	0.02
625.288	-0.03
625.476	-0.04
625.664	0.04
625.851	-0.04
626.039	-0.02
626.227	0.03
626.415	0.01
626.603	-0.04
626.79	0.04
626.978	-0.02
627.166	0.05
627.354	-0.01
627.541	-0.02
627.729	-0.08
627.917	0.02
628.104	0.07
628.292	0.01
628.48	0.03
628.667	0.03
628.855	0.03
629.042	0.01
629.23	0.01
629.418	-0
629.605	0.01
629.793	-0.07
629.98	0
630.168	-0.02
630.355	0.02
630.543	0.02
630.73	-0.01
630.917	0.03
631.105	0.06
631.292	-0.01
631.48	0
631.667	0.1
631.854	0.03
632.042	0.02
632.229	0
632.416	0.01
632.604	-0.01
632.791	-0.03
632.978	0.07
633.165	0.03
633.353	0.02
633.54	0.02
633.727	-0.08
633.914	-0.01
634.101	-0.08
634.289	0.02
634.476	-0.05
634.663	-0.03
634.85	0.04
635.037	-0.05
635.224	-0.05
635.411	0.04
635.598	0.05
635.785	-0.01
635.972	0
636.159	0.01
636.346	-0.01
636.533	-0
636.72	-0.02
636.907	0.01
637.094	0.08
637.281	-0.02
637.468	0.03
637.655	-0.02
637.842	0
638.029	-0.01
638.215	0.03
638.402	0
638.589	-0.03
638.776	-0.02
638.963	-0.01
639.149	0.05
639.336	0.09
639.523	0.01
639.709	0.03
639.896	-0.03
640.083	0.08
640.27	0.03
640.456	-0.02
640.643	0.05
640.829	-0.02
641.016	0.01
641.203	-0.03
641.389	0.01
641.576	0.03
641.762	0.01
641.949	-0.02
642.135	0.03
642.322	-0.01
642.508	-0.01
642.695	0.02
642.881	0.02
643.068	-0
643.254	-0.02
643.441	0.06
643.627	0.01
643.813	-0.01
644	0.01
644.186	-0.01
644.372	0.01
644.559	0.02
644.745	-0.03
644.931	-0.03
645.118	-0.02
645.304	0.02
645.49	-0
645.676	0.01
645.862	0.01
646.049	0.05
646.235	0.01
646.421	0.1
646.607	0.09
646.793	-0.01
646.979	-0.03
647.165	0.03
647.352	0.02
647.538	0.06
647.724	-0.03
647.91	0.01
648.096	0.07
648.282	0.06
648.468	-0
648.654	0
648.84	-0.01
649.026	-0.01
649.212	-0.01
649.397	-0.04
649.583	-0.01
649.769	0.04
649.955	-0.01
650.141	0.01
650.327	0.03
650.513	-0.03
650.698	0.02
650.884	-0.09
651.07	0
651.256	0.03
651.442	0
651.627	0.03
651.813	0.03
651.999	0.03
652.184	0.06
652.37	-0.01
652.556	-0.03
652.741	0.07
652.927	-0.02
653.113	-0
653.298	0.01
653.484	0.02
653.669	-0.05
653.855	-0
654.04	0.01
654.226	0.05
654.412	0.01
654.597	-0.02
654.782	0.06
654.968	0.04
655.153	0.03
655.339	-0.02
655.524	-0.05
655.71	0.02
655.895	-0.02
656.08	-0
656.266	0.04
656.451	0.01
656.636	-0.02
656.822	0.01
657.007	0.01
657.192	-0.03
657.378	-0.08
657.563	0.02
657.748	0.01
657.933	0.03
658.118	-0.04
658.304	-0.02
658.489	0.04
658.674	0.04
658.859	-0.04
659.044	0.01
659.229	0.03
659.414	-0.01
659.599	-0.03
659.785	-0.04
659.97	-0.02
660.155	0.02
660.34	-0.02
660.525	-0.05
660.71	-0.02
660.895	0.01
661.08	-0.01
661.264	-0.05
661.449	0.09
661.634	0.05
661.819	0.03
662.004	0.05
662.189	-0.07
662.374	-0.05
662.559	-0.04
662.743	-0.07
662.928	0.02
663.113	0.03
663.298	-0.04
663.483	-0.02
663.667	0.01
663.852	-0.03
664.037	0.06
664.221	-0.02
664.406	0.02
664.591	0.01
664.775	0.02
664.96	0.01
665.145	0.03
665.329	0.05
665.514	-0.03
665.698	-0.03
665.883	-0.09
666.068	0.04
666.252	0.01
666.437	-0.08
666.621	0.01
666.806	0.04
666.99	-0.01
667.174	-0.04
667.359	0.05
667.543	0.01
667.728	0
667.912	-0.01
668.096	0.05
668.281	-0.02
668.465	-0.01
668.649	0.03
668.834	-0
669.018	0
669.202	-0.04
669.387	-0.06
669.571	0.05
669.755	-0.04
669.939	-0.01
670.124	-0.01
670.308	0.08
670.492	0.03
670.676	-0
670.86	-0.02
671.044	-0.05
671.228	0.02
671.413	0.01
671.597	0.02
671.781	-0.06
671.965	0.08
672.149	-0.02
672.333	-0
672.517	-0.03
672.701	0.02
672.885	-0.02
673.069	-0.08
673.253	0.02
673.437	-0.02
673.621	-0.08
673.804	-0.01
673.988	0
674.172	-0.01
674.356	-0.05
674.54	-0.04
674.724	0.11
674.908	-0.03
675.091	0.03
675.275	0
675.459	0.03
675.643	0.03
675.826	0.02
676.01	0
676.194	0.02
676.377	0.06
676.561	0.02
676.745	0.02
676.928	0.01
677.112	0.06
677.296	-0.01
677.479	-0.02
677.663	-0.01
677.846	-0.01
678.03	0
678.213	0.01
678.397	0.05
678.58	-0.01
678.764	-0.01
678.947	-0.02
679.131	-0.03
679.314	0.05
679.498	-0.01
679.681	-0.01
679.865	0.06
680.048	-0.04
680.231	-0
680.415	-0
680.598	-0.02
680.781	-0.01
680.965	-0.03
681.148	-0.01
681.331	0.02
681.514	0.03
681.698	-0.02
681.881	-0.03
682.064	0.01
682.247	0.07
682.43	-0.06
682.614	0
682.797	0.04
682.98	0.04
683.163	-0.05
683.346	0
683.529	-0.06
683.712	0
683.895	0.05
684.078	-0.07
684.261	-0.01
684.444	0.05
684.627	-0.01
684.81	-0.02
684.993	-0.01
685.176	0.04
685.359	-0.03
685.542	-0.04
685.725	0.12
685.908	0.01
686.091	-0.02
686.274	0.06
686.457	0.05
686.639	-0.01
686.822	-0.01
687.005	-0.03
687.188	0.06
687.371	0.09
687.553	0.08
687.736	0.05
687.919	0.04
688.102	0.07
688.284	-0.02
688.467	0.02
688.65	-0.01
688.832	-0
689.015	-0.01
689.197	-0.07
689.38	0.15
689.563	0.14
689.745	-0.02
689.928	-0.07
690.11	0.05
690.293	0.01
690.475	-0.07
690.658	0.04
690.84	0
691.023	-0
691.205	-0.05
691.388	-0.03
691.57	0.07
691.752	0.05
691.935	-0.06
692.117	-0.03
692.3	0.01
692.482	-0.03
692.664	-0.01
692.847	0.01
693.029	0.09
693.211	0.09
693.393	-0.03
693.576	-0.04
693.758	-0.03
693.94	-0.02
694.122	-0.01
694.304	-0.01
694.487	-0.01
694.669	0.04
694.851	-0.06
695.033	-0
695.215	-0.07
695.397	-0.03
695.579	0.02
695.761	-0.06
695.943	-0.03
696.125	0.04
696.308	0.05
696.49	-0.1
696.671	0.15
696.853	-0.02
697.035	0.12
697.217	-0
697.399	0.05
697.581	-0.04
697.763	0.03
697.945	-0.03
698.127	0.01
698.309	0.07
698.491	0.02
698.672	-0
698.854	0.08
699.036	0.11
699.218	-0.05
699.399	0.06
699.581	0.05
699.763	0.04
699.945	-0.05
700.126	-0.05
700.308	0.02
700.49	-0.02
700.671	-0.1
700.853	-0.05
701.035	-0.02
701.216	0.01
701.398	-0.05
701.579	-0.05
701.761	0.06
701.943	-0.01
702.124	0.01
702.306	-0.04
702.487	0.15
702.669	0
702.85	-0.07
703.031	-0.06
703.213	0.12
703.394	0.11
703.576	-0.05
703.757	0.09
703.938	0.02
704.12	0.25
704.301	0.03
704.483	-0.03
704.664	0.05
704.845	0.03
705.026	0.04
705.208	-0
705.389	0.05
705.57	0.03
705.751	-0.03
705.933	-0.01
706.114	0.11
706.295	0.04
706.476	-0.09
706.657	0.09
706.838	0.02
707.02	0.04
707.201	-0.03
707.382	-0.06
707.563	0.05
707.744	-0.05
707.925	-0.03
708.106	-0.06
708.287	0.06
708.468	0.08
708.649	0
708.83	0.05
709.011	-0.09
709.192	0.04
709.373	-0.06
709.554	-0.03
709.734	0.01
709.915	0.03
710.096	0.01
710.277	-0.12
710.458	0.01
710.639	0.01
710.819	-0.12
711	-0.04
711.181	0.09
711.362	-0.01
711.542	0.01
711.723	0
711.904	0.11
712.085	0.02
712.265	0.09
712.446	-0.07
712.627	-0
712.807	0
712.988	-0
713.168	-0.06
713.349	0.06
713.53	-0.13
713.71	-0.07
713.891	-0.1
714.071	-0.01
714.252	-0.06
714.432	-0.04
714.613	-0.1
714.793	0.01
714.974	0.07
715.154	0.15
715.334	0.03
715.515	0.14
715.695	-0.01
715.876	0.02
716.056	0
716.236	-0.05
716.417	-0
716.597	-0.03
716.777	0.16
716.957	0.04
717.138	0.04
717.318	-0.01
717.498	-0.1
717.678	0
717.859	0.02
718.039	-0.11
718.219	0.1
718.399	0.06
718.579	0.01
718.759	-0.06
718.939	0.04
719.12	0.03
719.3	0.02
719.48	-0.13
719.66	-0.12
719.84	0.08
720.02	0.03
720.2	-0
720.38	-0.05
720.56	0.13
720.74	0.03
720.92	0.03
721.1	0.05
721.279	0.1
721.459	0.05
721.639	-0.11
721.819	-0.02
721.999	-0.07
722.179	0.05
722.359	-0.06
722.538	0.02
722.718	-0.03
722.898	-0
723.078	-0.05
723.257	-0.07
723.437	0
723.617	0.05
723.797	-0.06
723.976	-0.02
724.156	0.05
724.336	0.12
724.515	0.07
724.695	-0.07
724.874	-0.03
725.054	0.04
725.234	-0.04
725.413	0.01
725.593	-0.08
725.772	-0.08
725.952	-0.09
726.131	0.01
726.311	-0
726.49	-0.03
726.67	-0.04
726.849	-0.07
727.028	0.02
727.208	-0
727.387	-0.01
727.567	-0.07
727.746	-0.01
727.925	-0.1
728.105	-0.1
728.284	0.01
728.463	-0.04
728.643	0.06
728.822	-0.08
729.001	-0.07
729.18	0.02
729.359	0.02
729.539	0
729.718	0.02
729.897	0.04
730.076	-0.04
730.255	-0.12
730.434	-0
730.614	0
730.793	0.11
730.972	0.03
731.151	-0.04
731.33	0.09
731.509	0.03
731.688	-0
731.867	0.03
732.046	-0.12
732.225	0.18
732.404	-0.07
732.583	-0.11
732.762	0.01
732.941	0.09
733.12	0.04
733.298	-0.03
733.477	0.17
733.656	-0.07
733.835	-0.16
734.014	0.11
734.193	-0.03
734.371	0.07
734.55	0.03
734.729	-0.17
734.908	-0.02
735.086	0.12
735.265	-0.01
735.444	-0.18
735.623	-0.12
735.801	-0.07
735.98	0
736.159	-0.04
736.337	0.14
736.516	0.06
736.694	-0.05
736.873	-0.08
737.052	0.11
737.23	0.2
737.409	-0.1
737.587	0.26
737.766	-0.13
737.944	-0.04
738.123	0.03
738.301	0.02
738.479	-0.02
738.658	0
738.836	-0.18
739.015	0.05
739.193	0.14
739.371	-0.12
739.55	0.04
739.728	-0.17
739.906	0.2
740.085	0.1
740.263	-0
740.441	-0.13
740.62	0.21
740.798	0.11
740.976	-0.12
741.154	-0.12
741.332	0.21
741.511	-0.05
741.689	0.01
741.867	-0.01
742.045	0.02
742.223	0.01
742.401	-0.1
742.579	-0.11
742.757	-0.01
742.935	-0.1
743.114	0.09
743.292	-0.01
743.47	0.06
743.648	0
743.826	-0.26
744.004	0.11
744.181	0.1
744.359	-0.14
744.537	-0.02
744.715	-0
744.893	-0.08
745.071	0.01
745.249	-0.05
745.427	-0.07
745.605	0.04
745.782	0.01
745.96	-0.04
746.138	0.12
746.316	0.13
746.493	-0.01
746.671	-0.03
746.849	-0.02
747.027	0.15
747.204	-0.1
747.382	0.12
747.56	-0.14
747.737	-0.11
747.915	-0.13
748.093	-0.01
748.27	-0.13
748.448	-0.07
748.625	-0.21
748.803	-0.03
748.98	0.06
749.158	0.1
749.335	-0.06
749.513	-0.05
749.69	-0.01
749.868	0.01
750.045	0
750.223	-0.07
750.4	-0.24
750.578	0.3
750.755	0.04
750.932	-0.11
751.11	0.11
751.287	-0.08
751.464	0.09
751.642	-0.09
751.819	-0.03
751.996	0.1
752.173	-0.04
752.351	-0.14
752.528	0.01
752.705	-0.08
752.882	-0.08
753.06	0.06
753.237	0.07
753.414	0.14
753.591	0.24
753.768	-0.02
753.945	-0.1
754.122	-0.1
754.299	0.03
754.476	-0.06
754.654	-0
754.831	0.13
755.008	-0.06
755.185	-0.09
755.362	-0.09
755.539	-0.02
755.716	-0.11
755.892	-0.06
756.069	-0.03
756.246	-0.04
756.423	-0.1
756.6	0.14
756.777	-0.04
756.954	0.24
757.131	-0.05
757.307	-0.11
757.484	-0.19
757.661	0.08
757.838	0.07
758.015	-0.14
758.191	0.1
758.368	-0.02
758.545	0.17
758.721	0.15
758.898	-0.2
759.075	0.11
759.251	0.03
759.428	-0.03
759.605	-0.13
759.781	-0.09
759.958	0.05
760.134	0.01
760.311	0.03
760.488	0.19
760.664	0.18
760.841	-0.04
761.017	-0.04
761.194	0.16
761.37	0.12
761.547	0.01
761.723	-0.04
761.899	0.06
762.076	-0.1
762.252	0.01
762.429	-0.07
762.605	0.09
762.781	-0.05
762.958	0.13
763.134	-0.05
763.31	-0.17
763.486	0.18
763.663	-0.07
763.839	0.04
764.015	-0.22
764.191	-0.05
764.368	-0.14
764.544	-0.08
764.72	0.07
764.896	-0
765.072	-0
765.248	0.02
765.425	0.03
765.601	0.03
765.777	0.05
765.953	-0.18
766.129	-0.12
766.305	-0
766.481	0.05
766.657	0.01
766.833	0.24
767.009	-0.04
767.185	-0.11
767.361	-0.14
767.537	-0.12
767.713	0.15
767.889	-0.16
768.065	-0.12
768.24	0.15
768.416	0.17
768.592	-0.09
768.768	-0.01
768.944	0.18
769.12	-0.16
769.295	-0.17
769.471	-0.11
769.647	0.02
769.823	0.06
769.998	-0.14
770.174	-0.1
770.35	0.35
770.525	0.32
770.701	0.09
770.877	-0.11
771.052	-0.1
771.228	0.17
771.403	0.04
771.579	-0.01
771.755	0.22
771.93	-0.1
772.106	-0.12
772.281	-0.31
772.457	0.09
772.632	0.07
772.808	-0.15
772.983	0.01
773.159	-0.29
773.334	0.25
773.509	-0
773.685	-0.08
773.86	0.27
774.036	0.17
774.211	-0.05
774.386	-0.09
774.562	0.12
774.737	-0.09
774.912	-0.1
775.087	0.07
775.263	-0.13
775.438	0.1
775.613	-0.06
775.788	0.08
775.964	0.11
776.139	0.29
776.314	-0.25
776.489	0.05
776.664	0.01
776.839	-0.13
777.014	0.21
777.19	0.08
777.365	0.22
777.54	0.23
777.715	0
777.89	0.07
778.065	-0.18
778.24	0.01
778.415	0.13
778.59	-0.14
778.765	-0.15
778.94	0.02
779.115	-0.14
779.289	0.01
779.464	0
779.639	-0.1
779.814	-0.11
779.989	-0.18
780.164	0.27
780.339	0.09
780.513	-0.11
780.688	-0.23
780.863	0.06
781.038	0.13
781.212	-0.18
781.387	-0.03
781.562	0.26
781.737	-0.1
781.911	0.16
782.086	-0.09
782.261	-0.13
782.435	0.28
782.61	-0.08
782.784	-0.02
782.959	0.28
783.134	-0.25
783.308	-0.24
783.483	-0.08
783.657	0.4
783.832	0.26
784.006	-0.29
784.181	-0.02
784.355	0.11
784.53	-0.2
784.704	-0.18
784.878	0.17
785.053	-0.06
785.227	0.21
785.402	0.33
785.576	-0.18
785.75	0.03
785.925	-0.18
786.099	0.12
786.273	0.1
786.448	0.02
786.622	0.23
786.796	-0.03
786.97	-0.04
787.145	0.57
787.319	-0.27
787.493	-0.22
787.667	-0.23
787.841	0.01
788.015	0.3
788.19	-0.19
788.364	-0.14
788.538	0.15
788.712	0.33
788.886	0.04
789.06	0.07
789.234	0.24
789.408	-0.39
789.582	0.06
789.756	-0.04
789.93	-0.18
790.104	-0.15
790.278	-0.13
790.452	-0.04
790.626	0.04
790.8	-0.3
790.973	0.04
791.147	0.25
791.321	0.21
791.495	-0.01
791.669	0.21
791.843	0.28
792.016	-0.11
792.19	0.38
792.364	-0.19
792.538	0.38
792.711	0.08
792.885	-0.05
793.059	-0.3
793.233	-0.55
793.406	0.26
793.58	0.05
793.754	0.11
793.927	-0.16
794.101	0.31
794.274	-0.11
794.448	0.21
794.622	-0.18
794.795	0.38
794.969	-0.13
795.142	0.34
795.316	-0.04
795.489	-0.11
795.663	0.29
795.836	-0.07
796.009	-0.37
796.183	0.29
796.356	0.07
796.53	-0.24
796.703	0
796.876	0.66
797.05	-0.08
797.223	0.03
797.396	0.1
797.57	-0.05
797.743	0.43
797.916	0.08
798.09	0.03
798.263	0.12
798.436	0.07
798.609	-0.25
798.782	-0.24
798.956	0.16
799.129	-0.08
799.302	-0.06
799.475	-0.29
799.648	-0.13
799.821	-0.15
799.994	0.09
800.167	-0.41
800.34	-0.1
800.514	-0.13
800.687	-0.36
800.86	-0.38
801.033	-0.12
801.206	0.12
801.379	-0.28
801.551	0.35
801.724	0.14
801.897	0.36
802.07	0.06
802.243	-0.78
802.416	-0.03
802.589	-0.04
802.762	-0.04
802.935	-0.18
803.107	0.26
803.28	0.01
803.453	0.26
803.626	-0.06
803.798	-0.28
803.971	0.05
804.144	0.1
804.317	0.09
804.489	0.17
804.662	-0.01
804.835	0.13
805.007	-0.25
805.18	0.41
805.353	0.17
805.525	-0.27
805.698	-0.26
805.87	0.49
806.043	0.17
806.215	-0.42
806.388	-0.3
806.56	0.28
806.733	0.12
806.905	0.22
807.078	-0.32
807.25	-0.3
807.423	0.06
807.595	0
807.768	-0.2
807.94	0.38
808.112	0.18
808.285	0.04
808.457	-0.4
808.629	-0.22
808.802	0.34
808.974	0.09
809.146	-0.11
809.318	-0.5
809.491	0.02
809.663	0.39
809.835	-0.27
810.007	0.25
810.18	0.26
810.352	-0.39
810.524	-0.25
810.696	0.39
810.868	0.46
811.04	-0.6
811.212	-0.06
811.384	0.69
811.556	0.01
811.728	0.11
811.901	0.36
812.073	-0.08
812.245	-0.02
812.417	-0.12
812.589	-0.35
812.76	0.34
812.932	0.4
813.104	0.5
813.276	0.22
813.448	0.28
813.62	0.07
813.792	0.16
813.964	0.42
814.136	0.23
814.307	0.01
814.479	-0.34
814.651	-0.11
814.823	0.99
814.995	-0.46
815.166	0.13
815.338	-0.46
815.51	-0.42
815.681	0.71
815.853	-0.15
816.025	0.11
816.196	0.27
816.368	0.43
816.54	-0.2
816.711	-0.05
816.883	0.27
817.054	1.18
817.226	-0.45
817.398	0.19
817.569	-0.37
817.741	-0.2
817.912	-0.29
818.084	-0.17
818.255	-0.04
818.426	-0.14
818.598	-0.09
818.769	-0.64
818.941	0.25
819.112	0.58
819.283	0.18
819.455	-0.18
819.626	-0.17
819.798	0.28
819.969	0.21
820.14	0.25
820.311	-0.17
820.483	-0.05
820.654	-0.13
820.825	-0.02
820.996	0.12
821.168	-0.47
821.339	0.13
821.51	-0.16
821.681	-0.23
821.852	0.38
822.023	-0.33
822.195	-0.19
822.366	0.61
822.537	0.06
822.708	0.06
822.879	-0.36
823.05	0.71
823.221	-0.48
823.392	0.04
823.563	0.06
823.734	0.19
823.905	-0.28
824.076	-0.05
824.247	-0.88
824.418	-0.42
824.589	0.27
824.759	0.19
824.93	0.14
825.101	-0.86
825.272	0.89
825.443	0.24
825.614	0.02
825.784	-0.27
825.955	1.1
826.126	0.77
826.297	-0.33
826.467	0.25
826.638	0.9
826.809	-1.02
826.98	0.07
827.15	0.08
827.321	-0.46
827.492	0.98
827.662	0.25
827.833	1.07
828.003	0.16
828.174	-0.5
828.345	-0.58
828.515	0.5
828.686	-0.61
828.856	-0.37
829.027	-0.36
829.197	0.49
829.368	0.27
829.538	-0.09
829.709	-0.52
829.879	0.22
830.049	-0.04
830.22	-0.08
830.39	-0.02
830.56	0.24
830.731	0.11
830.901	-0.71
831.072	0.29
831.242	0.26
831.412	-0.09
831.582	0.07
831.753	-0.81
831.923	0.23
832.093	-0.03
832.263	-0.37
832.434	-0.99
832.604	-0.22
832.774	-0.09
832.944	-0.45
833.114	-0.39
833.284	-0.13
833.454	-0.43
833.624	-0.56
833.795	-0.48
833.965	0.73
834.135	0.78
834.305	-1.29
834.475	-0.74
834.645	-0.18
834.815	-1.09
834.985	-0.58
835.155	-0.1
835.325	0
835.494	0.48
835.664	0.28
835.834	-0.66
836.004	-0.41
836.174	0
836.344	-0.33
836.514	-1.25
836.684	-0.89
836.853	-0.29
837.023	-0.38
837.193	-0.47
837.363	1.24
837.532	0.19
837.702	-0.56
837.872	-0.83
838.041	0.63
838.211	1.2
838.381	-0.74
838.55	0.91
838.72	2.54
838.89	1.2
839.059	0.09
839.229	-0.13
839.398	0.89
839.568	0.09
839.738	-0.13
839.907	0.66
840.077	0.14
840.246	-0.66
840.416	-1.23
840.585	-0.74
840.755	1.33
840.924	0.25
841.093	-0.38
841.263	-0.03
841.432	0.68
841.602	-0.58
841.771	-1.29
841.94	-0.05
842.11	1.51
842.279	1.32
842.448	-0.88
842.617	-0.72
842.787	0.8
842.956	-0.26
843.125	0.06
843.294	0.28
843.464	0.69
843.633	0
843.802	-0.74
843.971	-0.42
844.14	0.41
844.309	0.54
844.479	-0.71
844.648	-0.87
844.817	-0.06
844.986	0.63
845.155	-0.56
845.324	-0.33
845.493	-0.37
845.662	-0.57
845.831	0.7
846	0.2
846.169	0.14
846.338	1.12
846.507	0.89
846.676	0.05
846.844	0.35
847.013	1.2
847.182	0.55
847.351	-0.58
847.52	-0.04
847.689	0.48
847.858	-0.33
848.026	-1.24
848.195	-0.46
848.364	-0.41
848.533	-0.97
848.701	-0.32
848.87	0.19
849.039	0.82
849.207	0.17
849.376	0.86
849.545	1.65
849.713	-1.02
849.882	-0.55
850.051	-0.37
850.219	0.1
850.388	0.19
850.556	-1.42
850.725	-0.27
850.893	0.57
851.062	0.05
851.23	-0.08
851.399	-2.15
851.567	0.69
851.736	-0.7
851.904	-0.59
852.073	-0.14
852.241	0.2
852.41	-0.14
852.578	-0.19
852.746	-1.09
852.915	-0.23
853.083	-0.22
853.251	-0.65
853.42	-1.1
853.588	-0.07
853.756	1.19
853.924	0.68
854.093	-0.34
854.261	-0.62
854.429	-1.21
854.597	-0.35
854.765	-0.73
854.934	1.02
855.102	1.81
855.27	-0.82
855.438	-0.34
855.606	2.28
855.774	1.83
855.942	-1.45
856.11	-1.17
856.278	0.28
856.446	1.35
856.614	0.91
856.782	-0.58
856.95	0.06
857.118	1.29
857.286	0.59
857.454	-0.74
857.622	1.57
857.79	-1
857.958	-0.78
858.126	0.25
858.294	-1.7
858.462	-0.43
858.629	-0.07
858.797	-1.4
858.965	0.41
859.133	-0.41
859.301	-0.86
859.468	0.58
859.636	0.08
859.804	1.59
859.971	0.85
860.139	-1.21
860.307	0.76
860.474	0.38
860.642	-0.84
860.81	-0.12
860.977	-0.63
861.145	0.87
861.313	-0.03
861.48	-1.22
861.648	0.08
861.815	-0.42
861.983	-1.73
862.15	0.39
862.318	0.12
862.485	1.42
862.653	-1.91
862.82	-2.03
862.988	2.7
863.155	0.62
863.322	-1.66
863.49	-0.88
863.657	-1.24
863.824	2.52
863.992	1.91
864.159	-0.49
864.326	2.3
864.494	-0.75
864.661	1.68
864.828	-1.8
864.996	1.94
865.163	2.09
865.33	-1.03
865.497	-1.94
865.664	-2.15
865.832	-1.89
865.999	-0.73
866.166	-0.84
866.333	-1.08
866.5	0.06
866.667	-0.16
866.834	0.02
867.001	1.39
867.168	-2.45
867.335	-0.26
867.502	-1.54
867.669	0.51
867.836	2.79
868.003	-0.59
868.17	1.76
868.337	-1.55
868.504	2.88
868.671	-0.78
868.838	-0.36
869.005	0.1
869.172	1.08
869.339	0.84
869.505	-0.7
869.672	-0.48
869.839	1.23
870.006	-0.8
870.173	-2.09
870.339	-1.87
870.506	2.04
870.673	-2.14
870.84	0.43
871.006	0.01
871.173	-0.73
871.34	0.01
871.506	-2.06
871.673	-0.01
871.839	-0.3
872.006	-0.83
872.173	-0.72
872.339	1.41
872.506	1.84
872.672	-0.96
872.839	-2.32
873.005	0.51
873.172	3.67
873.338	2.29
873.505	-1.34
873.671	-0.89
873.838	1.04
874.004	-2.95
874.171	-0.63
874.337	0.9
874.503	2.02
874.67	0.28
874.836	-1.74
875.002	1.49
875.169	1.05
875.335	-0.48
875.501	-1.05
875.668	1.57
875.834	0.43
876	0.2
876.166	0.35
876.332	0.45
876.499	3.8
876.665	-1.77
876.831	0.17
876.997	1.87
877.163	0.98
877.329	-0.1
877.495	0.57
877.662	0.46
877.828	0.39
877.994	0.01
878.16	-3.21
878.326	-0.7
878.492	0.04
878.658	-0.03
878.824	0.36
878.99	2.72
879.156	-2.36
879.322	2.21
879.487	0.81
879.653	-0.33
879.819	0.25
879.985	-1
880.151	0.94
880.317	-0.74
880.483	0.29
880.648	-0.01
880.814	-3.54
880.98	1.92
881.146	-4.46
881.312	-0.39
881.477	0.12
881.643	-0.14
881.809	2.94
881.974	1.25
882.14	-3.17
882.306	-0.54
882.471	2.3
882.637	0.85
882.803	1.35
882.968	2.4
883.134	2.66
883.299	0.83
883.465	-0.96
883.63	-0.18
883.796	0.99
883.961	0.8
884.127	0.79
884.292	-4.23
884.458	-1.82
884.623	-1.82
