Data from Apollo_Calib_20240827__AbsoluteIrradiance__498__07-27-01-227.txt Node

Date: Wed Aug 28 07:27:01 BST 2024
User: biology
Spectrometer: FLMT08252
Trigger mode: 0
Integration Time (sec): 5.000000E-1
Scans to average: 5
Electric dark correction enabled: true
Nonlinearity correction enabled: false
Boxcar width: 0
XAxis mode: Wavelengths
Number of Pixels in Spectrum: 3648
>>>>>Begin Spectral Data<<<<<
179.588	-0
179.809	-0
180.03	-0
180.251	-0
180.473	-0
180.694	0
180.915	0
181.136	-0
181.357	0
181.578	0
181.799	-0
182.02	-0
182.241	0
182.462	-0
182.683	0
182.904	-0
183.125	-0
183.346	-0
183.567	0
183.788	-0
184.009	-0
184.23	0
184.451	0
184.672	-0
184.892	-0
185.113	0
185.334	0
185.555	-0
185.776	-0
185.996	0
186.217	0
186.438	0
186.659	-0
186.879	-0
187.1	-0
187.321	-0
187.541	-0
187.762	-0
187.983	0
188.203	0
188.424	0
188.644	-0
188.865	0
189.086	0
189.306	-0
189.527	-0
189.747	0
189.968	-0
190.188	0
190.409	-0
190.629	0
190.849	-0
191.07	-0
191.29	0
191.511	0
191.731	-0
191.951	-0
192.172	0
192.392	0
192.612	-0
192.833	0
193.053	0
193.273	0
193.493	-0
193.714	-0
193.934	0
194.154	0
194.374	-0
194.594	0
194.815	0
195.035	0
195.255	-0
195.475	-0
195.695	0
195.915	0
196.135	-0
196.355	0
196.575	0
196.795	0
197.015	-0
197.235	-0
197.455	-0
197.675	0
197.895	-0
198.115	-0
198.335	0
198.555	-0
198.775	0
198.995	0
199.214	0
199.434	0
199.654	-0
199.874	0
200.094	-1.33
200.313	0.12
200.533	-0.39
200.753	-0.61
200.973	0.89
201.192	0.58
201.412	-1.07
201.632	-0.55
201.851	1.21
202.071	-0.02
202.291	-0.41
202.51	-0.5
202.73	0.7
202.95	0.14
203.169	-0.16
203.389	-0.28
203.608	0.07
203.828	-0.46
204.047	-0.4
204.267	0.44
204.486	-0.01
204.706	0.15
204.925	-0.32
205.145	0.09
205.364	0.35
205.583	0.68
205.803	-0.19
206.022	-0.07
206.242	0.17
206.461	0.36
206.68	-0.06
206.9	-0.07
207.119	0.18
207.338	0.35
207.557	0.07
207.777	0.02
207.996	-0.03
208.215	0.67
208.434	-0.26
208.654	-0.19
208.873	0.05
209.092	0.49
209.311	-0.2
209.53	0.15
209.749	-0.1
209.968	-0.29
210.187	0.06
210.407	-0.19
210.626	0.14
210.845	0.12
211.064	0.11
211.283	0.02
211.502	0.26
211.721	0.03
211.94	0.3
212.159	0.13
212.377	0.32
212.596	0.43
212.815	-0.09
213.034	0.44
213.253	-0.06
213.472	-0.02
213.691	0
213.91	-0.06
214.128	-0.08
214.347	0.39
214.566	-0.19
214.785	-0.21
215.003	0.16
215.222	0.08
215.441	0
215.66	-0.45
215.878	-0.07
216.097	0.29
216.316	-0.19
216.534	-0.04
216.753	-0.05
216.972	0
217.19	0.09
217.409	-0.14
217.627	-0.17
217.846	-0.08
218.064	0.01
218.283	-0.02
218.501	0.39
218.72	0.15
218.938	-0.32
219.157	-0.05
219.375	0.22
219.594	0.23
219.812	-0.09
220.031	-0.07
220.249	0.41
220.467	0.18
220.686	-0.12
220.904	-0.23
221.122	-0.05
221.341	0.33
221.559	0.15
221.777	-0.11
221.995	0.02
222.214	0.26
222.432	-0.14
222.65	0.07
222.868	-0.05
223.086	0.16
223.305	0.08
223.523	-0.05
223.741	0.28
223.959	-0.18
224.177	-0.19
224.395	-0.19
224.613	0.08
224.831	0.19
225.049	-0.21
225.267	-0.07
225.485	0.11
225.703	-0.1
225.921	-0.03
226.139	-0.1
226.357	0.16
226.575	0.04
226.793	-0
227.011	0.49
227.229	0.04
227.447	0.07
227.665	-0.12
227.883	-0.2
228.1	-0.09
228.318	0.03
228.536	-0.22
228.754	-0.06
228.972	0.02
229.189	0.11
229.407	-0.02
229.625	-0.08
229.843	0.11
230.06	0.16
230.278	-0.07
230.496	0.1
230.713	0.06
230.931	0.17
231.149	-0.08
231.366	-0.14
231.584	-0
231.801	0.37
232.019	-0.04
232.236	-0.1
232.454	-0.11
232.671	0.04
232.889	-0.06
233.106	-0.02
233.324	0.05
233.541	0.08
233.759	0.09
233.976	-0.06
234.194	0.1
234.411	-0.03
234.628	-0.14
234.846	-0.01
235.063	-0.04
235.28	-0.06
235.498	0.03
235.715	-0.09
235.932	0.06
236.149	0.01
236.367	-0.07
236.584	0.14
236.801	-0.09
237.018	0.07
237.236	0.05
237.453	-0.15
237.67	0.17
237.887	0.07
238.104	-0.04
238.321	-0.12
238.538	-0.04
238.755	0.18
238.973	-0.19
239.19	-0.01
239.407	0.02
239.624	-0.02
239.841	-0.08
240.058	-0.05
240.275	0.04
240.492	0.06
240.709	0.1
240.925	0.02
241.142	0.02
241.359	-0.11
241.576	-0.04
241.793	-0.02
242.01	0.04
242.227	0.03
242.444	0.04
242.66	0.12
242.877	0.12
243.094	-0.01
243.311	0.04
243.527	-0
243.744	0.03
243.961	0.03
244.178	-0.06
244.394	0.05
244.611	0.14
244.828	0.1
245.044	-0.11
245.261	0
245.477	-0.01
245.694	0.11
245.911	-0.11
246.127	0.01
246.344	0.14
246.56	0.01
246.777	0.06
246.993	-0.02
247.21	0.03
247.426	0.09
247.643	-0.03
247.859	-0.11
248.076	-0.1
248.292	0.15
248.508	-0.03
248.725	0.11
248.941	0.08
249.157	0.12
249.374	-0.04
249.59	-0.02
249.806	0.01
250.023	0.05
250.239	-0.04
250.455	-0.03
250.671	-0.03
250.888	0.03
251.104	0.1
251.32	-0.08
251.536	-0
251.752	-0.02
251.969	0.04
252.185	0.01
252.401	0.21
252.617	0.11
252.833	-0.02
253.049	0.03
253.265	-0.01
253.481	0.05
253.697	-0.03
253.913	-0.07
254.129	0.02
254.345	-0.02
254.561	-0.02
254.777	-0.01
254.993	-0.02
255.209	0.08
255.425	0.02
255.641	-0.06
255.857	0.04
256.073	0.01
256.288	-0.03
256.504	-0.04
256.72	-0.01
256.936	0.12
257.152	0.01
257.367	-0.04
257.583	0.02
257.799	0.01
258.015	0
258.23	0.02
258.446	0.06
258.662	0.07
258.877	-0.04
259.093	-0.08
259.309	-0
259.524	0.03
259.74	-0.07
259.955	-0.11
260.171	0.05
260.387	0.1
260.602	0.13
260.818	0.08
261.033	-0.02
261.249	-0.01
261.464	-0.01
261.68	-0.01
261.895	0.03
262.11	0.08
262.326	0.02
262.541	-0.09
262.757	0.03
262.972	0
263.187	-0.01
263.403	0.01
263.618	0.02
263.833	0.04
264.049	-0.06
264.264	0.04
264.479	0.09
264.694	0.14
264.91	-0.03
265.125	-0
265.34	0.07
265.555	0.12
265.77	0.09
265.986	-0.06
266.201	0.07
266.416	0.05
266.631	-0
266.846	0.02
267.061	0.01
267.276	0.02
267.491	-0.12
267.706	0.09
267.921	0.04
268.136	0.03
268.351	-0
268.566	-0.1
268.781	0.11
268.996	0.01
269.211	0.03
269.426	-0.06
269.641	-0
269.856	0.06
270.071	-0.05
270.285	-0.06
270.5	0.06
270.715	0.09
270.93	-0.03
271.145	0.03
271.359	0.04
271.574	-0.08
271.789	0.02
272.004	-0.03
272.218	0
272.433	0.06
272.648	0.03
272.862	0.03
273.077	0
273.292	0.03
273.506	-0.07
273.721	-0.03
273.936	0.08
274.15	0.05
274.365	-0.07
274.579	0.05
274.794	0.03
275.008	0.11
275.223	-0.08
275.437	0.02
275.652	0.02
275.866	0.01
276.081	-0.01
276.295	0.06
276.509	0.03
276.724	0.02
276.938	0.05
277.153	0.07
277.367	0.01
277.581	-0.04
277.796	-0.05
278.01	-0.05
278.224	0.08
278.438	0.14
278.653	-0.07
278.867	-0.06
279.081	-0.14
279.295	0
279.51	0.09
279.724	-0.08
279.938	0.02
280.152	0.04
280.366	-0.04
280.58	0.02
280.794	0.07
281.008	0.02
281.222	0.01
281.437	0.09
281.651	0.01
281.865	0.06
282.079	-0.02
282.293	-0.09
282.507	0.02
282.721	0.02
282.935	0.04
283.148	-0.09
283.362	-0.03
283.576	-0.02
283.79	0
284.004	0
284.218	0.06
284.432	-0.03
284.646	-0
284.859	-0.04
285.073	0.01
285.287	-0
285.501	0.01
285.714	-0.02
285.928	-0.01
286.142	-0.03
286.356	-0.01
286.569	0.02
286.783	0.09
286.997	0.05
287.21	-0.02
287.424	0.01
287.637	0.01
287.851	-0.03
288.065	0.08
288.278	0.02
288.492	0.03
288.705	-0.02
288.919	0
289.132	-0.03
289.346	0.07
289.559	-0.1
289.773	-0.06
289.986	0.02
290.2	0.04
290.413	0.06
290.626	-0.06
290.84	0.06
291.053	-0.02
291.267	0.1
291.48	0.01
291.693	0.01
291.906	-0.03
292.12	0.01
292.333	-0.06
292.546	-0.02
292.76	0.1
292.973	0.06
293.186	0.03
293.399	-0.02
293.612	0.06
293.826	-0.01
294.039	0.01
294.252	-0.01
294.465	-0.02
294.678	0.05
294.891	0.04
295.104	0.01
295.317	-0.03
295.53	0.04
295.743	-0.05
295.956	0.05
296.169	0.06
296.382	0.06
296.595	0.03
296.808	-0
297.021	0.09
297.234	0.03
297.447	0.01
297.66	-0.02
297.873	0.08
298.086	0.04
298.299	0.01
298.511	-0.03
298.724	-0.04
298.937	0.01
299.15	0
299.363	-0.02
299.575	0.03
299.788	0.05
300.001	0.04
300.213	-0.05
300.426	0.01
300.639	-0.05
300.852	0.01
301.064	0.05
301.277	0.06
301.489	0.06
301.702	0.05
301.915	0.06
302.127	0.01
302.34	0.02
302.552	0.01
302.765	0.01
302.977	0.07
303.19	-0.01
303.402	0
303.615	-0.01
303.827	0.01
304.04	0
304.252	0.05
304.464	-0.01
304.677	0.12
304.889	0.04
305.102	-0
305.314	0.01
305.526	0.06
305.739	0.03
305.951	0.01
306.163	-0.02
306.375	0.09
306.588	-0.02
306.8	-0.04
307.012	-0.01
307.224	-0.02
307.436	0.14
307.649	-0.06
307.861	0.03
308.073	0.04
308.285	0
308.497	-0.04
308.709	-0.03
308.921	0.01
309.133	0.06
309.346	-0.03
309.558	0.02
309.77	0.06
309.982	0.08
310.194	0.04
310.406	0.03
310.617	0.07
310.829	0.04
311.041	0.04
311.253	-0.01
311.465	-0.01
311.677	-0
311.889	0.01
312.101	0.01
312.313	0.08
312.524	0.04
312.736	-0.04
312.948	-0.01
313.16	0.04
313.372	0.04
313.583	0.03
313.795	0.03
314.007	-0.03
314.218	0.05
314.43	0.03
314.642	-0.05
314.853	-0.02
315.065	0.03
315.277	-0.02
315.488	0.03
315.7	0.09
315.912	0
316.123	0
316.335	-0.03
316.546	0.1
316.758	-0
316.969	0
317.181	0
317.392	0.02
317.604	0.07
317.815	-0.07
318.026	-0.05
318.238	0.01
318.449	0.06
318.661	-0.03
318.872	-0.03
319.083	-0.08
319.295	0.03
319.506	-0.04
319.717	-0.02
319.929	0.06
320.14	-0.01
320.351	0.03
320.562	-0.04
320.774	-0.01
320.985	-0.01
321.196	-0.02
321.407	-0.03
321.618	0.05
321.829	0.03
322.041	0.05
322.252	0.02
322.463	0.03
322.674	0.01
322.885	-0.04
323.096	-0.01
323.307	-0.05
323.518	0
323.729	-0.02
323.94	-0.02
324.151	-0.01
324.362	0.01
324.573	0
324.784	-0.02
324.995	0.08
325.206	0.06
325.417	-0.02
325.628	-0.01
325.838	0.03
326.049	-0.01
326.26	0.05
326.471	-0.01
326.682	0.03
326.892	0.03
327.103	-0.04
327.314	-0.04
327.525	0.06
327.735	-0
327.946	0.03
328.157	-0.02
328.368	-0
328.578	-0
328.789	0.03
328.999	-0.04
329.21	-0.01
329.421	0.01
329.631	-0.04
329.842	-0.05
330.052	0.07
330.263	0.08
330.473	0.03
330.684	0.01
330.894	-0.03
331.105	0.03
331.315	0.05
331.526	-0.04
331.736	0.03
331.947	0.04
332.157	0.02
332.367	-0.03
332.578	0.05
332.788	0.07
332.999	0.02
333.209	-0
333.419	-0.03
333.629	0.01
333.84	0.04
334.05	0
334.26	0.03
334.47	0.07
334.681	0.06
334.891	-0.05
335.101	0.03
335.311	0.06
335.521	0
335.732	-0.05
335.942	0.07
336.152	0.06
336.362	0.03
336.572	0.08
336.782	0.06
336.992	-0.02
337.202	-0
337.412	-0.04
337.622	0.03
337.832	-0
338.042	0.06
338.252	0.01
338.462	0.03
338.672	-0
338.882	-0
339.092	0.03
339.302	0.05
339.511	0.01
339.721	-0.03
339.931	-0.02
340.141	0.04
340.351	0.07
340.561	0.04
340.77	0
340.98	0.02
341.19	0.01
341.4	-0.02
341.609	-0
341.819	-0.02
342.029	-0.01
342.238	0.01
342.448	0.02
342.658	0.04
342.867	0.02
343.077	0.02
343.286	-0.01
343.496	0.01
343.706	0.05
343.915	-0.03
344.125	-0.01
344.334	0.04
344.544	-0.07
344.753	-0.02
344.963	-0.04
345.172	-0.05
345.381	-0.03
345.591	0.01
345.8	0.05
346.01	0.02
346.219	0.09
346.428	-0.14
346.638	0.01
346.847	0
347.056	0.05
347.266	-0.03
347.475	0
347.684	0.05
347.893	0.05
348.103	0.03
348.312	-0.02
348.521	-0.01
348.73	0.02
348.94	-0
349.149	-0.02
349.358	-0.07
349.567	-0
349.776	-0.03
349.985	-0.04
350.194	0.03
350.403	0.02
350.612	-0.06
350.821	0
351.03	0.03
351.239	-0.02
351.448	-0.05
351.657	-0.02
351.866	0.07
352.075	0.06
352.284	0.08
352.493	-0.09
352.702	0.06
352.911	-0.01
353.12	0.03
353.329	-0.02
353.538	0.05
353.746	-0.01
353.955	-0.01
354.164	0.01
354.373	0.04
354.582	0.04
354.79	0.03
354.999	0.01
355.208	-0.01
355.416	0.08
355.625	-0.04
355.834	-0.04
356.042	0.04
356.251	-0
356.46	-0.03
356.668	0.05
356.877	0.06
357.085	0.04
357.294	-0.06
357.503	0.01
357.711	-0.02
357.92	0.13
358.128	0.01
358.337	-0.02
358.545	0.05
358.754	0.01
358.962	0.03
359.17	-0.02
359.379	0.04
359.587	0.04
359.796	-0
360.004	0.05
360.212	0.02
360.421	0.02
360.629	-0.02
360.837	0.03
361.046	0.08
361.254	0.1
361.462	0.03
361.67	-0.02
361.879	0
362.087	0.09
362.295	-0
362.503	-0.02
362.711	0
362.92	-0.01
363.128	-0.01
363.336	-0.04
363.544	-0.02
363.752	-0.02
363.96	0.02
364.168	-0.01
364.376	-0.02
364.584	-0
364.792	0.03
365	0.05
365.208	0.03
365.416	0.03
365.624	0.05
365.832	-0.02
366.04	0.05
366.248	0.03
366.456	0.03
366.664	0.01
366.872	0.03
367.079	-0.04
367.287	-0
367.495	0.04
367.703	0.03
367.911	-0.01
368.118	-0.02
368.326	-0.02
368.534	-0.04
368.742	0.07
368.949	-0.02
369.157	-0.02
369.365	0.03
369.572	-0.01
369.78	-0.03
369.988	0.07
370.195	0.03
370.403	0.03
370.61	-0
370.818	0.01
371.026	0.04
371.233	-0.03
371.441	0
371.648	0
371.856	0.01
372.063	0.02
372.271	-0.02
372.478	-0.01
372.685	0
372.893	0.03
373.1	0.02
373.308	-0.02
373.515	0.08
373.722	0.01
373.93	0.02
374.137	0.06
374.344	0.09
374.552	0.05
374.759	0.04
374.966	0.03
375.173	-0.02
375.381	0.06
375.588	-0.04
375.795	-0.06
376.002	-0.01
376.209	-0.01
376.417	-0.02
376.624	-0
376.831	0.03
377.038	0.02
377.245	-0.06
377.452	-0.01
377.659	0.03
377.866	-0.02
378.073	0.01
378.28	-0
378.487	0.03
378.694	0.03
378.901	-0.03
379.108	0.02
379.315	0.03
379.522	0.08
379.729	0.02
379.936	0.04
380.143	-0.02
380.35	0.03
380.557	0.02
380.763	0.01
380.97	-0.01
381.177	0.06
381.384	0.04
381.591	0.04
381.797	0.03
382.004	-0.02
382.211	0
382.418	0.01
382.624	0.04
382.831	0.03
383.038	-0.01
383.244	0
383.451	0.02
383.658	0.01
383.864	-0.03
384.071	0
384.277	0.01
384.484	-0.04
384.69	0.04
384.897	-0
385.103	0.02
385.31	-0
385.516	-0.02
385.723	-0.03
385.929	0.01
386.136	-0.03
386.342	0.04
386.549	-0.03
386.755	0.06
386.961	0.01
387.168	0.03
387.374	0.02
387.58	0.02
387.787	-0.02
387.993	0.02
388.199	0.05
388.406	-0.02
388.612	-0.01
388.818	-0.01
389.024	-0.01
389.231	0.01
389.437	0.07
389.643	0.04
389.849	-0.01
390.055	0.02
390.261	-0
390.467	0.03
390.674	-0
390.88	-0.02
391.086	0.01
391.292	-0.04
391.498	0.04
391.704	0.01
391.91	-0
392.116	-0.01
392.322	-0.05
392.528	-0
392.734	-0.02
392.94	0.02
393.146	-0.01
393.352	-0.01
393.557	0.01
393.763	0.01
393.969	0.05
394.175	-0
394.381	0.02
394.587	-0.02
394.792	-0.03
394.998	0.07
395.204	0.06
395.41	0.02
395.615	0.05
395.821	-0
396.027	0.08
396.233	-0.01
396.438	-0.01
396.644	0.05
396.85	0.01
397.055	-0.01
397.261	0.03
397.466	-0
397.672	0.02
397.878	0.02
398.083	0.04
398.289	0.05
398.494	0.06
398.7	0.01
398.905	-0.03
399.111	0.06
399.316	-0.01
399.522	0.03
399.727	-0
399.932	-0.01
400.138	0.04
400.343	0.06
400.549	0
400.754	0.03
400.959	0.03
401.165	0.01
401.37	0.04
401.575	0.07
401.78	0.03
401.986	-0.01
402.191	-0.02
402.396	-0
402.601	0.07
402.807	0
403.012	0.03
403.217	0.05
403.422	-0.05
403.627	-0.01
403.832	-0.03
404.037	0.02
404.243	0.06
404.448	-0
404.653	0
404.858	0
405.063	0.05
405.268	0.01
405.473	-0.03
405.678	0.01
405.883	0.13
406.088	0.05
406.293	-0.08
406.498	-0.04
406.703	0.04
406.907	0.01
407.112	-0.06
407.317	0.04
407.522	0.07
407.727	0
407.932	0.01
408.136	0.08
408.341	-0.01
408.546	0.05
408.751	-0.05
408.956	-0.02
409.16	0.02
409.365	-0.02
409.57	-0.03
409.774	0.03
409.979	0.01
410.184	0.02
410.388	-0.04
410.593	0.05
410.798	0.01
411.002	0.03
411.207	0.04
411.411	-0.01
411.616	-0.01
411.82	-0.03
412.025	0.04
412.229	-0.02
412.434	0.06
412.638	-0.01
412.843	-0.05
413.047	0
413.252	-0.03
413.456	-0.04
413.66	0.01
413.865	-0.01
414.069	0.09
414.273	-0.03
414.478	0
414.682	-0.01
414.886	-0.01
415.091	-0.03
415.295	-0.11
415.499	0.04
415.703	-0.02
415.908	0.03
416.112	-0.13
416.316	0.01
416.52	-0.01
416.724	-0.05
416.929	-0.01
417.133	0.05
417.337	-0
417.541	-0.02
417.745	0
417.949	0.04
418.153	0.02
418.357	-0.07
418.561	0.06
418.765	0.04
418.969	0.12
419.173	0.06
419.377	-0.01
419.581	0.06
419.785	-0.03
419.989	-0.06
420.193	-0.03
420.397	0
420.601	0.03
420.804	0.04
421.008	-0.01
421.212	-0.01
421.416	0.02
421.62	-0.02
421.823	0.04
422.027	0.11
422.231	0.04
422.435	-0.02
422.638	0.02
422.842	-0.02
423.046	-0
423.249	0.03
423.453	0.06
423.657	0.02
423.86	-0.02
424.064	0.05
424.268	0.08
424.471	-0
424.675	0.09
424.878	0.07
425.082	0.03
425.285	0.03
425.489	-0
425.692	0.03
425.896	-0.04
426.099	-0.01
426.303	-0.03
426.506	-0.02
426.71	0.02
426.913	0.07
427.116	0.05
427.32	0.04
427.523	-0.01
427.726	0.05
427.93	-0.08
428.133	-0.02
428.336	-0.05
428.54	-0.04
428.743	0.04
428.946	0.04
429.149	-0.03
429.353	0.01
429.556	0.02
429.759	0.02
429.962	-0.04
430.165	-0
430.368	0.01
430.571	-0.01
430.775	0.04
430.978	0.03
431.181	0.03
431.384	0
431.587	0.01
431.79	0
431.993	0.02
432.196	0.01
432.399	0.01
432.602	0.04
432.805	-0.02
433.008	-0.07
433.211	-0.07
433.414	0.02
433.616	0.04
433.819	0.04
434.022	-0.06
434.225	0.06
434.428	0.04
434.631	0.08
434.833	-0.01
435.036	-0.01
435.239	0.07
435.442	-0
435.645	-0.01
435.847	-0.01
436.05	0.07
436.253	0.02
436.455	-0.03
436.658	0.02
436.861	0.12
437.063	-0.01
437.266	-0.02
437.468	0.03
437.671	0.09
437.874	0.04
438.076	-0.07
438.279	-0.12
438.481	0.03
438.684	-0.02
438.886	0.04
439.089	-0.07
439.291	0.01
439.494	0.04
439.696	-0.05
439.899	-0.03
440.101	0
440.303	-0.06
440.506	0.07
440.708	0
440.91	0.04
441.113	-0
441.315	0
441.517	-0.08
441.72	0.03
441.922	0
442.124	-0.09
442.326	-0.03
442.529	0.1
442.731	-0.03
442.933	0.07
443.135	0.02
443.337	-0.03
443.539	0
443.742	0.01
443.944	0.04
444.146	-0.01
444.348	-0.06
444.55	-0.06
444.752	0.05
444.954	-0.04
445.156	0.02
445.358	-0.03
445.56	0.03
445.762	0
445.964	0.01
446.166	-0.03
446.368	-0.01
446.57	0.04
446.772	0.02
446.974	-0
447.175	0.07
447.377	-0.05
447.579	-0.03
447.781	-0.07
447.983	0.07
448.184	0.02
448.386	0.02
448.588	-0.07
448.79	0.03
448.991	0.02
449.193	-0
449.395	-0
449.597	0.02
449.798	0.01
450	0.02
450.202	-0
450.403	0
450.605	-0
450.806	0.01
451.008	-0.07
451.21	-0.01
451.411	-0.03
451.613	0
451.814	-0.01
452.016	0.03
452.217	0.01
452.419	0.04
452.62	0.03
452.821	0.02
453.023	0.08
453.224	0.07
453.426	0.01
453.627	0.01
453.828	0.07
454.03	0.02
454.231	-0.02
454.432	-0.03
454.634	0.11
454.835	-0.03
455.036	-0.03
455.238	0.04
455.439	0.09
455.64	-0.06
455.841	-0.05
456.042	0.09
456.244	0.03
456.445	-0.02
456.646	-0.06
456.847	-0.02
457.048	0.03
457.249	0.03
457.45	0.2
457.651	-0.04
457.852	0.05
458.054	0.03
458.255	0.03
458.456	0.06
458.657	-0.02
458.858	-0.03
459.058	-0.01
459.259	0
459.46	0.01
459.661	-0.01
459.862	0.1
460.063	-0.04
460.264	0.03
460.465	-0.04
460.666	0.06
460.866	-0.03
461.067	-0.01
461.268	0
461.469	-0.03
461.67	0
461.87	0.02
462.071	-0.03
462.272	-0.02
462.473	-0
462.673	0.06
462.874	-0.05
463.075	0.02
463.275	-0.08
463.476	0.03
463.676	0.01
463.877	-0.02
464.078	-0.03
464.278	0.02
464.479	-0.06
464.679	0.03
464.88	0.02
465.08	0.03
465.281	-0.03
465.481	-0.05
465.682	0.03
465.882	0.05
466.083	0.01
466.283	-0.01
466.483	0.02
466.684	-0.05
466.884	-0.02
467.085	-0.02
467.285	0.03
467.485	-0.07
467.686	-0
467.886	-0.01
468.086	-0
468.286	0.01
468.487	0.01
468.687	-0.04
468.887	0.01
469.087	0.07
469.287	0.02
469.488	-0.02
469.688	0.02
469.888	0.1
470.088	0.05
470.288	0.07
470.488	0.03
470.688	-0.02
470.888	-0.05
471.088	-0.03
471.288	0.05
471.488	0.02
471.688	0.02
471.888	-0.07
472.088	0.04
472.288	0.03
472.488	-0.03
472.688	-0.03
472.888	-0.03
473.088	0
473.288	0.03
473.488	0.04
473.688	0.09
473.887	0.03
474.087	-0.02
474.287	0.03
474.487	-0.01
474.687	0.04
474.886	0.01
475.086	-0
475.286	0.03
475.486	0.01
475.685	-0
475.885	0
476.085	-0.01
476.284	0.01
476.484	0
476.684	0.01
476.883	0.06
477.083	0.02
477.282	-0.01
477.482	0.07
477.681	0.05
477.881	0.02
478.08	-0.04
478.28	-0.03
478.479	0.04
478.679	0.08
478.878	-0.01
479.078	-0.03
479.277	-0.02
479.477	-0.02
479.676	0.07
479.875	0.01
480.075	-0.04
480.274	0.01
480.473	0.05
480.673	-0.02
480.872	0.02
481.071	0
481.271	0.04
481.47	-0.01
481.669	0.01
481.868	-0
482.067	-0.04
482.267	-0.03
482.466	-0.02
482.665	-0.02
482.864	-0.02
483.063	-0.04
483.262	0.05
483.461	0.04
483.661	0.03
483.86	-0
484.059	0.02
484.258	0
484.457	0.01
484.656	0.02
484.855	0.03
485.054	-0.06
485.253	-0.03
485.452	-0.03
485.651	0.01
485.849	0
486.048	-0.02
486.247	-0.03
486.446	0.01
486.645	-0.03
486.844	-0.01
487.043	-0
487.241	0.03
487.44	-0.03
487.639	-0.01
487.838	0.04
488.037	0.02
488.235	0.07
488.434	0.02
488.633	-0.02
488.831	0.03
489.03	0.03
489.229	0.01
489.427	0
489.626	0.03
489.825	0.05
490.023	0.02
490.222	0
490.42	0
490.619	0.04
490.817	0.02
491.016	-0
491.214	0.04
491.413	-0.01
491.611	-0
491.81	0.01
492.008	0.04
492.207	0.02
492.405	-0.01
492.604	-0.04
492.802	-0.01
493	0.01
493.199	-0.03
493.397	-0.02
493.595	0.01
493.794	-0.02
493.992	0.04
494.19	-0.01
494.388	0.01
494.587	-0.02
494.785	0
494.983	-0.02
495.181	0.01
495.379	-0.01
495.578	-0.01
495.776	0.01
495.974	0.01
496.172	0
496.37	-0.01
496.568	-0.03
496.766	-0
496.964	0.03
497.162	-0.01
497.36	-0.02
497.558	0.02
497.756	0.01
497.954	0.01
498.152	-0.01
498.35	0.01
498.548	0
498.746	0.01
498.944	-0.02
499.142	-0.01
499.34	-0.04
499.538	0.01
499.736	-0.01
499.933	0.04
500.131	0.03
500.329	0.01
500.527	0.03
500.725	0.03
500.922	0.02
501.12	0.02
501.318	0.01
501.516	-0.02
501.713	0.04
501.911	0
502.109	0
502.306	0.02
502.504	-0
502.701	-0.01
502.899	-0.01
503.097	0.05
503.294	0.01
503.492	-0.02
503.689	0
503.887	-0.01
504.084	0.05
504.282	0.01
504.479	-0.03
504.677	0.01
504.874	-0.02
505.072	0
505.269	0.02
505.466	0.01
505.664	0.02
505.861	-0.02
506.059	-0.03
506.256	0.02
506.453	0.01
506.651	0.03
506.848	0.03
507.045	0.02
507.242	-0
507.44	0
507.637	0.01
507.834	-0
508.031	0.04
508.229	-0.01
508.426	0.03
508.623	-0
508.82	-0
509.017	-0.02
509.214	-0.01
509.411	0
509.608	-0.01
509.805	-0
510.003	-0.01
510.2	0.01
510.397	0.04
510.594	-0.05
510.791	0.01
510.988	-0
511.184	0.03
511.381	0.01
511.578	-0.02
511.775	0.05
511.972	-0.02
512.169	-0
512.366	0
512.563	0.03
512.76	-0.02
512.956	0
513.153	-0.02
513.35	-0
513.547	0
513.744	-0.03
513.94	-0.02
514.137	0.01
514.334	0
514.53	-0.01
514.727	0.01
514.924	0.06
515.12	-0.01
515.317	-0.02
515.514	-0.02
515.71	-0.03
515.907	0
516.103	-0.01
516.3	0.01
516.497	0.03
516.693	0.05
516.89	0.01
517.086	-0.01
517.283	0.07
517.479	0.02
517.676	0.01
517.872	0.01
518.068	-0.01
518.265	-0.01
518.461	-0.02
518.658	-0
518.854	-0
519.05	0
519.247	-0.02
519.443	0.01
519.639	0.01
519.836	0.02
520.032	0.01
520.228	0.01
520.424	0.05
520.621	0.02
520.817	-0.01
521.013	0.03
521.209	0.02
521.405	0.05
521.601	0
521.798	-0
521.994	0.03
522.19	-0
522.386	-0.02
522.582	-0
522.778	-0
522.974	-0
523.17	0.01
523.366	0.01
523.562	0.02
523.758	0.01
523.954	-0.03
524.15	0.01
524.346	0.02
524.542	-0.01
524.738	0
524.934	0.01
525.129	0.02
525.325	0.01
525.521	-0
525.717	0.01
525.913	0.01
526.109	0.01
526.304	0.01
526.5	0.01
526.696	0.03
526.892	-0
527.087	0.02
527.283	-0.01
527.479	0.03
527.674	-0.01
527.87	0.01
528.066	-0.01
528.261	0.03
528.457	0
528.653	-0.01
528.848	-0.01
529.044	0
529.239	-0
529.435	0.02
529.63	0.02
529.826	0.05
530.021	0.02
530.217	0.02
530.412	-0
530.608	-0
530.803	-0.01
530.999	0.01
531.194	-0.04
531.389	0.02
531.585	-0.03
531.78	-0.03
531.975	-0
532.171	0.04
532.366	0.01
532.561	-0
532.757	-0.02
532.952	0.01
533.147	0.01
533.342	-0
533.538	-0.03
533.733	0.03
533.928	0.01
534.123	-0.01
534.318	-0.04
534.513	-0.01
534.709	0.02
534.904	-0.02
535.099	-0.01
535.294	-0.01
535.489	0.01
535.684	-0.01
535.879	-0.01
536.074	0.03
536.269	-0.02
536.464	0.01
536.659	-0.01
536.854	-0.02
537.049	-0.01
537.244	0.01
537.439	0
537.634	0.03
537.828	0.02
538.023	-0
538.218	-0.02
538.413	0.02
538.608	-0.02
538.803	0.01
538.997	-0.03
539.192	0.03
539.387	0.03
539.582	0.02
539.776	0
539.971	-0.01
540.166	-0
540.36	-0.03
540.555	-0
540.75	-0
540.944	-0.02
541.139	-0.02
541.334	0.01
541.528	0
541.723	0.02
541.917	0
542.112	-0.02
542.306	0.01
542.501	-0.01
542.695	0.01
542.89	0
543.084	0.01
543.279	-0.01
543.473	-0.01
543.668	-0
543.862	0.01
544.056	0.01
544.251	0.01
544.445	0.01
544.64	0.02
544.834	-0.02
545.028	0
545.222	0
545.417	0.02
545.611	0
545.805	0.02
546	-0
546.194	-0.01
546.388	-0.02
546.582	0.02
546.776	0.02
546.97	-0
547.165	0.01
547.359	0.01
547.553	-0
547.747	0
547.941	-0.01
548.135	0.01
548.329	0.02
548.523	0.02
548.717	-0
548.911	0.01
549.105	0.01
549.299	0.01
549.493	0.04
549.687	0.01
549.881	0.01
550.075	-0
550.269	-0.02
550.463	0.04
550.657	-0.01
550.85	-0
551.044	-0.01
551.238	0.01
551.432	-0.01
551.626	-0.02
551.82	0.01
552.013	-0.01
552.207	0.01
552.401	0.04
552.594	-0.01
552.788	0.01
552.982	-0.01
553.176	-0.01
553.369	0.01
553.563	0.01
553.756	-0.02
553.95	-0.03
554.144	-0
554.337	0.02
554.531	-0
554.724	0.02
554.918	-0.02
555.111	0.03
555.305	0.02
555.498	0.05
555.692	0.02
555.885	-0
556.079	-0
556.272	-0.01
556.466	0.03
556.659	0.02
556.852	-0.01
557.046	0.01
557.239	0.02
557.432	-0.01
557.626	-0.02
557.819	0.04
558.012	0.03
558.206	0.03
558.399	0.01
558.592	0.03
558.785	0.02
558.979	0.04
559.172	0.02
559.365	0.03
559.558	0.03
559.751	-0.01
559.944	0.02
560.138	-0.02
560.331	0.02
560.524	0
560.717	0
560.91	0.02
561.103	-0.01
561.296	0.02
561.489	0.02
561.682	0.02
561.875	0.05
562.068	0.03
562.261	0.03
562.454	0.06
562.647	-0
562.84	0.03
563.032	0.01
563.225	0.01
563.418	0
563.611	-0.01
563.804	-0.01
563.997	-0.01
564.19	-0.01
564.382	-0.04
564.575	0.01
564.768	0.04
564.961	0.03
565.153	-0.01
565.346	0.03
565.539	0.03
565.731	0.04
565.924	0.04
566.117	0.03
566.309	0.01
566.502	0.02
566.695	-0.01
566.887	0.03
567.08	0
567.272	-0
567.465	-0.01
567.657	0.03
567.85	0.01
568.042	0.04
568.235	0.06
568.427	0.02
568.62	0.03
568.812	0.04
569.005	-0
569.197	-0.02
569.389	0.03
569.582	0.05
569.774	0.03
569.966	0
570.159	-0.03
570.351	0.03
570.543	0.01
570.736	-0
570.928	-0.02
571.12	0.06
571.312	0.01
571.505	0
571.697	0.07
571.889	-0
572.081	0.02
572.273	0.01
572.465	0.05
572.658	0.02
572.85	0.04
573.042	0.02
573.234	0.02
573.426	0.06
573.618	0
573.81	0.04
574.002	0.07
574.194	0.08
574.386	-0.02
574.578	-0.01
574.77	-0.01
574.962	0.04
575.154	0.01
575.346	0.04
575.538	0.06
575.729	-0.01
575.921	0.02
576.113	0.02
576.305	0.05
576.497	0.05
576.689	0.04
576.88	0.03
577.072	0.05
577.264	0.04
577.456	0.03
577.647	-0.01
577.839	0.07
578.031	0.08
578.223	0.02
578.414	0.01
578.606	0.05
578.798	0.05
578.989	0.03
579.181	0.04
579.372	0.06
579.564	0.05
579.755	0.08
579.947	0.08
580.139	0.07
580.33	0.02
580.522	0.04
580.713	-0.01
580.905	0.04
581.096	0.07
581.287	0.08
581.479	0.07
581.67	0.08
581.862	0.08
582.053	0.08
582.244	0.04
582.436	0.06
582.627	0.08
582.818	0.05
583.01	0.04
583.201	0.1
583.392	0.09
583.583	0.1
583.775	0.07
583.966	0.07
584.157	0.08
584.348	0.09
584.54	0.08
584.731	0.12
584.922	0.07
585.113	0.07
585.304	0.14
585.495	0.15
585.686	0.12
585.877	0.14
586.068	0.13
586.259	0.1
586.45	0.12
586.641	0.09
586.832	0.09
587.023	0.13
587.214	0.14
587.405	0.12
587.596	0.1
587.787	0.18
587.978	0.17
588.169	0.13
588.36	0.13
588.551	0.15
588.742	0.14
588.932	0.16
589.123	0.19
589.314	0.18
589.505	0.19
589.696	0.17
589.886	0.15
590.077	0.15
590.268	0.19
590.458	0.14
590.649	0.14
590.84	0.23
591.03	0.19
591.221	0.19
591.412	0.2
591.602	0.27
591.793	0.26
591.984	0.19
592.174	0.23
592.365	0.3
592.555	0.23
592.746	0.26
592.936	0.31
593.127	0.29
593.317	0.31
593.508	0.26
593.698	0.27
593.889	0.29
594.079	0.27
594.269	0.25
594.46	0.31
594.65	0.33
594.84	0.29
595.031	0.3
595.221	0.32
595.411	0.28
595.602	0.38
595.792	0.35
595.982	0.36
596.172	0.42
596.363	0.36
596.553	0.39
596.743	0.41
596.933	0.38
597.123	0.43
597.314	0.41
597.504	0.39
597.694	0.43
597.884	0.43
598.074	0.43
598.264	0.42
598.454	0.47
598.644	0.47
598.834	0.52
599.024	0.4
599.214	0.49
599.404	0.54
599.594	0.53
599.784	0.5
599.974	0.6
600.164	0.55
600.354	0.54
600.544	0.51
600.734	0.6
600.924	0.62
601.114	0.57
601.303	0.6
601.493	0.63
601.683	0.62
601.873	0.66
602.063	0.59
602.252	0.69
602.442	0.63
602.632	0.67
602.821	0.66
603.011	0.74
603.201	0.75
603.39	0.73
603.58	0.71
603.77	0.83
603.959	0.8
604.149	0.79
604.339	0.78
604.528	0.9
604.718	0.85
604.907	0.84
605.097	0.83
605.286	0.86
605.476	0.92
605.665	0.96
605.855	0.92
606.044	1
606.234	0.99
606.423	1.01
606.612	0.99
606.802	1.05
606.991	1.07
607.181	1.06
607.37	1.07
607.559	1.11
607.749	1.09
607.938	1.13
608.127	1.14
608.316	1.16
608.506	1.19
608.695	1.25
608.884	1.28
609.073	1.29
609.263	1.34
609.452	1.34
609.641	1.32
609.83	1.32
610.019	1.41
610.208	1.38
610.397	1.45
610.586	1.5
610.775	1.5
610.965	1.56
611.154	1.5
611.343	1.6
611.532	1.62
611.721	1.7
611.91	1.7
612.099	1.74
612.287	1.73
612.476	1.76
612.665	1.91
612.854	1.84
613.043	1.94
613.232	1.97
613.421	1.97
613.61	2.06
613.798	2.05
613.987	2.13
614.176	2.16
614.365	2.19
614.554	2.27
614.742	2.34
614.931	2.28
615.12	2.38
615.309	2.42
615.497	2.46
615.686	2.44
615.875	2.57
616.063	2.6
616.252	2.62
616.44	2.7
616.629	2.78
616.818	2.8
617.006	2.82
617.195	2.89
617.383	2.98
617.572	2.95
617.76	3.06
617.949	3.14
618.137	3.16
618.326	3.24
618.514	3.16
618.703	3.24
618.891	3.44
619.079	3.4
619.268	3.53
619.456	3.42
619.644	3.62
619.833	3.57
620.021	3.6
620.209	3.65
620.398	3.75
620.586	3.74
620.774	3.9
620.962	3.89
621.151	4
621.339	3.98
621.527	4.05
621.715	4.05
621.903	4.17
622.092	4.12
622.28	4.27
622.468	4.18
622.656	4.35
622.844	4.25
623.032	4.35
623.22	4.33
623.408	4.47
623.596	4.47
623.784	4.57
623.972	4.43
624.16	4.54
624.348	4.63
624.536	4.59
624.724	4.48
624.912	4.63
625.1	4.62
625.288	4.65
625.476	4.56
625.664	4.63
625.851	4.58
626.039	4.65
626.227	4.58
626.415	4.53
626.603	4.46
626.79	4.5
626.978	4.48
627.166	4.49
627.354	4.27
627.541	4.31
627.729	4.14
627.917	4.3
628.104	4.17
628.292	4.04
628.48	4.07
628.667	3.98
628.855	3.97
629.042	3.86
629.23	3.74
629.418	3.62
629.605	3.64
629.793	3.49
629.98	3.44
630.168	3.33
630.355	3.23
630.543	3.2
630.73	3.07
630.917	2.97
631.105	3.01
631.292	2.84
631.48	2.75
631.667	2.72
631.854	2.54
632.042	2.53
632.229	2.37
632.416	2.4
632.604	2.26
632.791	2.14
632.978	2.17
633.165	2.02
633.353	1.96
633.54	1.93
633.727	1.78
633.914	1.75
634.101	1.72
634.289	1.66
634.476	1.51
634.663	1.55
634.85	1.48
635.037	1.38
635.224	1.3
635.411	1.36
635.598	1.3
635.785	1.21
635.972	1.18
636.159	1.15
636.346	1.05
636.533	1.03
636.72	0.99
636.907	0.97
637.094	0.95
637.281	0.88
637.468	0.87
637.655	0.86
637.842	0.85
638.029	0.79
638.215	0.81
638.402	0.75
638.589	0.73
638.776	0.68
638.963	0.66
639.149	0.69
639.336	0.72
639.523	0.59
639.709	0.59
639.896	0.6
640.083	0.58
640.27	0.54
640.456	0.45
640.643	0.5
640.829	0.41
641.016	0.46
641.203	0.4
641.389	0.48
641.576	0.41
641.762	0.4
641.949	0.37
642.135	0.4
642.322	0.4
642.508	0.29
642.695	0.34
642.881	0.28
643.068	0.29
643.254	0.31
643.441	0.34
643.627	0.29
643.813	0.27
644	0.31
644.186	0.24
644.372	0.2
644.559	0.29
644.745	0.24
644.931	0.23
645.118	0.23
645.304	0.22
645.49	0.19
645.676	0.19
645.862	0.21
646.049	0.25
646.235	0.19
646.421	0.26
646.607	0.23
646.793	0.16
646.979	0.13
647.165	0.17
647.352	0.14
647.538	0.19
647.724	0.14
647.91	0.18
648.096	0.15
648.282	0.17
648.468	0.13
648.654	0.12
648.84	0.12
649.026	0.15
649.212	0.13
649.397	0.1
649.583	0.1
649.769	0.12
649.955	0.1
650.141	0.1
650.327	0.14
650.513	0.09
650.698	0.1
650.884	0.05
651.07	0.11
651.256	0.13
651.442	0.06
651.627	0.1
651.813	0.1
651.999	0.05
652.184	0.09
652.37	0.07
652.556	0.06
652.741	0.1
652.927	0
653.113	0.05
653.298	0.06
653.484	0.06
653.669	-0
653.855	0.05
654.04	0.05
654.226	0.09
654.412	0.04
654.597	0.05
654.782	0.06
654.968	0.08
655.153	0.07
655.339	0.04
655.524	0.01
655.71	0.07
655.895	0.02
656.08	0.03
656.266	0.09
656.451	0.04
656.636	-0.01
656.822	0.07
657.007	0
657.192	0.03
657.378	-0.01
657.563	0.05
657.748	0.05
657.933	0.05
658.118	0.04
658.304	0.05
658.489	0.06
658.674	0.02
658.859	-0.01
659.044	0.06
659.229	0.04
659.414	0.02
659.599	0.05
659.785	-0.05
659.97	0.04
660.155	0.03
660.34	0.03
660.525	0.03
660.71	0
660.895	0.06
661.08	0.01
661.264	0.02
661.449	0.07
661.634	0.07
661.819	0.08
662.004	0.05
662.189	-0.07
662.374	-0.03
662.559	-0.03
662.743	-0.03
662.928	0.03
663.113	0
663.298	-0.04
663.483	-0
663.667	0.03
663.852	-0.01
664.037	0.06
664.221	0.01
664.406	0.04
664.591	0.08
664.775	0.01
664.96	0.03
665.145	0.04
665.329	0.03
665.514	-0.01
665.698	0.02
665.883	-0.05
666.068	0.08
666.252	0.03
666.437	-0
666.621	-0
666.806	0.06
666.99	0.01
667.174	-0.04
667.359	0.06
667.543	0.01
667.728	-0.03
667.912	-0.03
668.096	0.03
668.281	-0.02
668.465	0
668.649	0.05
668.834	-0.01
669.018	-0.01
669.202	-0.01
669.387	-0.02
669.571	0.04
669.755	-0.03
669.939	-0.02
670.124	0.03
670.308	0.05
670.492	0.05
670.676	0
670.86	0.02
671.044	-0.04
671.228	0.02
671.413	-0.02
671.597	-0.02
671.781	-0.01
671.965	0.03
672.149	-0.02
672.333	-0
672.517	-0.03
672.701	0.05
672.885	0.02
673.069	-0.05
673.253	0.03
673.437	0.01
673.621	-0.01
673.804	-0.02
673.988	0.01
674.172	0.02
674.356	-0.03
674.54	0.01
674.724	0.1
674.908	0.01
675.091	0.03
675.275	-0.01
675.459	0.05
675.643	0.09
675.826	0.01
676.01	-0
676.194	0.03
676.377	0.03
676.561	0.03
676.745	0.01
676.928	0.03
677.112	0.08
677.296	-0.02
677.479	-0.01
677.663	-0.02
677.846	0.02
678.03	-0.03
678.213	-0.05
678.397	0.04
678.58	0
678.764	-0.02
678.947	-0.02
679.131	0.01
679.314	0.06
679.498	0.02
679.681	0.05
679.865	0.06
680.048	0.03
680.231	-0.01
680.415	-0.04
680.598	-0.04
680.781	0.01
680.965	0
681.148	0.01
681.331	-0.04
681.514	0.05
681.698	-0.01
681.881	0.01
682.064	0
682.247	-0.01
682.43	-0.07
682.614	0.04
682.797	0.04
682.98	0.04
683.163	-0.02
683.346	0.06
683.529	-0
683.712	-0.01
683.895	0.05
684.078	-0.03
684.261	-0.02
684.444	0.04
684.627	0.02
684.81	-0.01
684.993	-0.02
685.176	-0.01
685.359	-0.01
685.542	-0.04
685.725	0.04
685.908	0.01
686.091	-0.04
686.274	0.04
686.457	0.02
686.639	-0.02
686.822	0.05
687.005	0.01
687.188	0.06
687.371	0.09
687.553	-0.02
687.736	0.07
687.919	0.08
688.102	0.07
688.284	-0.02
688.467	0.01
688.65	0
688.832	-0.02
689.015	0.01
689.197	-0.03
689.38	0.13
689.563	0.08
689.745	-0.01
689.928	-0.05
690.11	-0.01
690.293	0.02
690.475	-0.04
690.658	0.04
690.84	-0.03
691.023	0.04
691.205	0.03
691.388	-0.01
691.57	0.07
691.752	0.02
691.935	-0.03
692.117	-0
692.3	0.03
692.482	-0.03
692.664	0
692.847	0.06
693.029	0.08
693.211	0.05
693.393	-0.03
693.576	-0.04
693.758	0.03
693.94	-0.01
694.122	0.02
694.304	-0.01
694.487	-0.04
694.669	0.08
694.851	-0.06
695.033	0.03
695.215	-0.01
695.397	-0.03
695.579	0.02
695.761	0.04
695.943	-0.03
696.125	0.08
696.308	0.01
696.49	-0.07
696.671	0.1
696.853	-0
697.035	0.15
697.217	0.01
697.399	0.01
697.581	-0.01
697.763	0.01
697.945	-0
698.127	-0.02
698.309	0.02
698.491	0.04
698.672	0.08
698.854	0.04
699.036	0.07
699.218	-0.03
699.399	0.06
699.581	-0.02
699.763	0.01
699.945	-0.09
700.126	-0.07
700.308	0.06
700.49	0.01
700.671	-0.05
700.853	-0.02
701.035	0.04
701.216	0
701.398	-0.09
701.579	-0.01
701.761	0
701.943	-0.01
702.124	0.04
702.306	0.01
702.487	0.11
702.669	0.04
702.85	0.01
703.031	-0.09
703.213	0.11
703.394	0.02
703.576	-0.04
703.757	0.03
703.938	0.06
704.12	0.15
704.301	0.08
704.483	-0.03
704.664	0.03
704.845	0.09
705.026	0.03
705.208	0.01
705.389	0.02
705.57	0.06
705.751	-0.03
705.933	0.01
706.114	0.06
706.295	0
706.476	-0.06
706.657	0.11
706.838	0.06
707.02	0.1
707.201	0.02
707.382	-0.01
707.563	0.01
707.744	0
707.925	-0.06
708.106	-0.05
708.287	0.04
708.468	0.06
708.649	0.03
708.83	-0.01
709.011	-0.04
709.192	0.01
709.373	-0.07
709.554	0.03
709.734	0.01
709.915	-0.02
710.096	-0.03
710.277	-0.13
710.458	0.05
710.639	0.03
710.819	-0.07
711	-0.01
711.181	0.1
711.362	0.05
711.542	0.07
711.723	0.02
711.904	0.04
712.085	0.02
712.265	0.04
712.446	-0.07
712.627	0.02
712.807	0.02
712.988	-0.02
713.168	-0.13
713.349	0.06
713.53	-0.11
713.71	-0.03
713.891	-0.03
714.071	-0.03
714.252	-0.01
714.432	-0.03
714.613	-0.07
714.793	-0.03
714.974	0.07
715.154	0.13
715.334	0.03
715.515	0.07
715.695	0.02
715.876	0.01
716.056	0.03
716.236	-0.05
716.417	0.01
716.597	-0.09
716.777	0.13
716.957	0.04
717.138	-0.04
717.318	0.04
717.498	-0.09
717.678	0.05
717.859	0
718.039	-0.06
718.219	-0.05
718.399	0.08
718.579	-0.1
718.759	0.01
718.939	-0.03
719.12	-0.02
719.3	0.01
719.48	-0.07
719.66	-0.06
719.84	0.02
720.02	0.02
720.2	-0.06
720.38	-0.03
720.56	0.09
720.74	-0.07
720.92	0.01
721.1	0.12
721.279	0.09
721.459	-0.01
721.639	-0.05
721.819	0.04
721.999	-0.02
722.179	-0.02
722.359	-0.09
722.538	-0.04
722.718	0.05
722.898	0.02
723.078	-0.02
723.257	0.02
723.437	-0.01
723.617	-0.01
723.797	-0.05
723.976	0.03
724.156	0
724.336	0.06
724.515	0.1
724.695	-0.09
724.874	0.04
725.054	0.12
725.234	-0.05
725.413	0.12
725.593	0.04
725.772	-0.03
725.952	-0.06
726.131	0.05
726.311	-0.01
726.49	0.05
726.67	-0.07
726.849	-0.02
727.028	0.04
727.208	0.02
727.387	0.01
727.567	0.02
727.746	-0.01
727.925	-0.02
728.105	-0.08
728.284	-0.08
728.463	-0.1
728.643	0.07
728.822	-0.07
729.001	0.03
729.18	-0
729.359	-0.01
729.539	-0.01
729.718	0.08
729.897	0.02
730.076	0.03
730.255	-0.11
730.434	-0.04
730.614	-0.01
730.793	0.03
730.972	-0.09
731.151	0.04
731.33	0.07
731.509	0.12
731.688	0.02
731.867	0.04
732.046	-0.17
732.225	0.16
732.404	-0.07
732.583	-0.1
732.762	0.06
732.941	0.05
733.12	0
733.298	0.03
733.477	0.11
733.656	-0.01
733.835	-0.03
734.014	0.09
734.193	0.1
734.371	0.1
734.55	-0.04
734.729	-0.17
734.908	0.03
735.086	0.05
735.265	0.14
735.444	-0.12
735.623	-0.04
735.801	-0.09
735.98	-0.07
736.159	-0.01
736.337	0.02
736.516	0.03
736.694	0.01
736.873	-0.05
737.052	0.07
737.23	0.14
737.409	-0.1
737.587	0.12
737.766	-0.06
737.944	-0.03
738.123	0.05
738.301	0.04
738.479	0.03
738.658	0.12
738.836	-0.12
739.015	-0.02
739.193	0.15
739.371	-0.02
739.55	-0.08
739.728	-0.09
739.906	0.15
740.085	0.22
740.263	-0.05
740.441	-0.13
740.62	0.22
740.798	0.1
740.976	-0.09
741.154	-0.1
741.332	0.19
741.511	-0
741.689	0
741.867	0.01
742.045	-0.06
742.223	0.01
742.401	-0.17
742.579	-0.01
742.757	0.15
742.935	-0.17
743.114	-0.04
743.292	-0.07
743.47	0.04
743.648	0.02
743.826	0.1
744.004	0.03
744.181	0.07
744.359	-0.05
744.537	-0.01
744.715	-0.1
744.893	0.02
745.071	0.07
745.249	0.01
745.427	-0.09
745.605	0.11
745.782	0
745.96	0.12
746.138	-0.01
746.316	0.1
746.493	-0.08
746.671	-0.14
746.849	-0.04
747.027	0.02
747.204	-0.05
747.382	0.08
747.56	-0.12
747.737	-0.07
747.915	-0
748.093	-0.02
748.27	-0.04
748.448	-0.07
748.625	-0.02
748.803	-0.04
748.98	-0.09
749.158	0.02
749.335	0.09
749.513	-0.07
749.69	0.01
749.868	-0.03
750.045	0.14
750.223	-0.11
750.4	-0.17
750.578	0.26
750.755	-0.05
750.932	-0.12
751.11	0.16
751.287	-0.17
751.464	0.06
751.642	-0.12
751.819	0.09
751.996	0.03
752.173	-0.09
752.351	-0.13
752.528	0
752.705	0.02
752.882	-0.1
753.06	0.02
753.237	0.04
753.414	0.22
753.591	0.13
753.768	0.04
753.945	0.02
754.122	-0.06
754.299	0.14
754.476	-0.08
754.654	0.04
754.831	0.02
755.008	-0.09
755.185	-0.03
755.362	-0.04
755.539	0.15
755.716	-0.12
755.892	-0.01
756.069	0.01
756.246	-0.1
756.423	-0.01
756.6	0.24
756.777	-0.08
756.954	0.17
757.131	-0.05
757.307	-0.1
757.484	-0.2
757.661	0.03
757.838	-0.03
758.015	-0.04
758.191	0.07
758.368	0.06
758.545	0.1
758.721	0.07
758.898	0.01
759.075	0.17
759.251	0.14
759.428	0.11
759.605	-0.12
759.781	-0.01
759.958	0.04
760.134	-0.04
760.311	-0.12
760.488	0.05
760.664	0.16
760.841	0.09
761.017	-0.15
761.194	0.06
761.37	0.08
761.547	-0.03
761.723	0.03
761.899	0.08
762.076	-0.05
762.252	-0.06
762.429	-0.12
762.605	0.03
762.781	-0.04
762.958	0.12
763.134	-0.05
763.31	-0.04
763.486	0.1
763.663	-0.19
763.839	0.05
764.015	-0.2
764.191	-0.05
764.368	-0.08
764.544	-0.04
764.72	-0.04
764.896	0.07
765.072	0.13
765.248	-0.04
765.425	-0.02
765.601	-0
765.777	-0.01
765.953	-0.26
766.129	-0.09
766.305	0.01
766.481	0.09
766.657	0.02
766.833	0.23
767.009	-0.07
767.185	-0.06
767.361	-0.01
767.537	-0.14
767.713	0.04
767.889	-0.11
768.065	-0.04
768.24	-0.16
768.416	0.04
768.592	0
768.768	-0
768.944	0.1
769.12	-0.09
769.295	-0.08
769.471	0.07
769.647	-0.02
769.823	0.27
769.998	0.04
770.174	-0.09
770.35	0.26
770.525	0.25
770.701	0.03
770.877	0.12
771.052	-0.16
771.228	0.04
771.403	-0.02
771.579	0.11
771.755	0.25
771.93	0.11
772.106	-0.14
772.281	-0.23
772.457	-0.02
772.632	0.14
772.808	-0.03
772.983	-0.07
773.159	-0.17
773.334	0.07
773.509	0.05
773.685	-0.01
773.86	0.35
774.036	0.09
774.211	-0.02
774.386	-0.1
774.562	0.03
774.737	0.07
774.912	-0.08
775.087	0.09
775.263	-0.07
775.438	-0.01
775.613	0.04
775.788	-0.02
775.964	0.13
776.139	0.41
776.314	-0.12
776.489	0.12
776.664	0.17
776.839	-0.16
777.014	0.07
777.19	0.09
777.365	0.13
777.54	0.32
777.715	0.06
777.89	0.1
778.065	-0.19
778.24	0.01
778.415	0.25
778.59	-0.02
778.765	-0.04
778.94	0.02
779.115	0.02
779.289	0.01
779.464	0.01
779.639	0.05
779.814	-0.18
779.989	-0.08
780.164	0.17
780.339	0.09
780.513	-0.21
780.688	-0.17
780.863	0.02
781.038	0.14
781.212	-0.12
781.387	0
781.562	0.29
781.737	-0.08
781.911	0.08
782.086	-0.13
782.261	0.01
782.435	0.25
782.61	-0.18
782.784	-0.17
782.959	0.44
783.134	-0.04
783.308	-0.13
783.483	0.1
783.657	0.36
783.832	0.15
784.006	-0.2
784.181	-0
784.355	0.08
784.53	-0.22
784.704	-0.05
784.878	0.17
785.053	0.1
785.227	0.23
785.402	0.47
785.576	-0.25
785.75	-0.09
785.925	0.17
786.099	-0.07
786.273	0.1
786.448	0.16
786.622	0.13
786.796	0.01
786.97	-0.03
787.145	0.56
787.319	-0.4
787.493	-0.05
787.667	-0.11
787.841	0.01
788.015	0.1
788.19	-0.17
788.364	-0.14
788.538	-0.07
788.712	0.33
788.886	-0.2
789.06	0.17
789.234	0.22
789.408	-0.24
789.582	-0.01
789.756	-0.03
789.93	-0.01
790.104	0
790.278	-0.26
790.452	-0.22
790.626	0.24
790.8	-0.15
790.973	0.21
791.147	0.28
791.321	0.26
791.495	0.25
791.669	0.27
791.843	0.26
792.016	-0.05
792.19	0.6
792.364	-0.14
792.538	0.41
792.711	0.24
792.885	-0.02
793.059	-0.25
793.233	-0.42
793.406	0.38
793.58	-0.01
793.754	0.17
793.927	0.06
794.101	0.48
794.274	0.02
794.448	0.28
794.622	-0.1
794.795	0.31
794.969	0.09
795.142	0.32
795.316	-0.07
795.489	0.01
795.663	0.3
795.836	0.19
796.009	0.02
796.183	0.22
796.356	0.16
796.53	0.13
796.703	-0.22
796.876	0.57
797.05	0.01
797.223	-0.1
797.396	0.28
797.57	0.23
797.743	0.63
797.916	0.02
798.09	-0.03
798.263	0.29
798.436	-0.11
798.609	0.02
798.782	0.01
798.956	0.02
799.129	0.04
799.302	-0.13
799.475	-0.15
799.648	-0.37
799.821	-0.06
799.994	0.02
800.167	-0.26
800.34	-0.05
800.514	0.1
800.687	0.04
800.86	-0.01
801.033	-0.18
801.206	-0.08
801.379	-0.11
801.551	0.4
801.724	0.02
801.897	0.14
802.07	-0.28
802.243	-0.36
802.416	-0.19
802.589	-0.02
802.762	0.33
802.935	0.01
803.107	0.08
803.28	0.33
803.453	0.15
803.626	-0.22
803.798	0.05
803.971	-0.16
804.144	0.15
804.317	0.29
804.489	0.18
804.662	0.07
804.835	0.3
805.007	-0.32
805.18	0.39
805.353	0
805.525	-0.22
805.698	-0.18
805.87	0.38
806.043	0.27
806.215	-0.38
806.388	-0.05
806.56	0.09
806.733	0.44
806.905	0.07
807.078	-0.22
807.25	-0.38
807.423	0.25
807.595	0.21
807.768	-0.09
807.94	0.43
808.112	-0.01
808.285	-0.04
808.457	0
808.629	-0.18
808.802	0.11
808.974	0.22
809.146	0.27
809.318	-0.09
809.491	0.26
809.663	0.32
809.835	0.19
810.007	0.03
810.18	0.08
810.352	-0.54
810.524	0.05
810.696	0.08
810.868	0.41
811.04	-0.2
811.212	0.2
811.384	0.61
811.556	0.29
811.728	-0.05
811.901	0.66
812.073	0.21
812.245	0.28
812.417	0.03
812.589	-0.3
812.76	-0.01
812.932	0.65
813.104	0.31
813.276	0.01
813.448	0.05
813.62	0.06
813.792	0.1
813.964	0.09
814.136	0.23
814.307	0.06
814.479	-0.28
814.651	0.22
814.823	0.42
814.995	0.1
815.166	-0.02
815.338	-0.1
815.51	-0.55
815.681	0.54
815.853	0.27
816.025	-0.15
816.196	0.5
816.368	0.37
816.54	-0.37
816.711	-0.19
816.883	0.15
817.054	1.1
817.226	-0.48
817.398	0.48
817.569	-0.25
817.741	0.29
817.912	0.21
818.084	0.1
818.255	0.25
818.426	0.41
818.598	0.32
818.769	0.19
818.941	0.04
819.112	0.6
819.283	-0.13
819.455	-0.3
819.626	0.12
819.798	0.08
819.969	0.03
820.14	-0.2
820.311	-0.04
820.483	0.32
820.654	0.04
820.825	0.08
820.996	-0.01
821.168	-0.45
821.339	-0.02
821.51	0.04
821.681	0
821.852	0.31
822.023	-0.13
822.195	-0.4
822.366	-0.03
822.537	0.04
822.708	0.27
822.879	-0.37
823.05	0.49
823.221	-0.15
823.392	0.15
823.563	0.11
823.734	0.02
823.905	-0.16
824.076	-0.2
824.247	-0.53
824.418	-0.37
824.589	0.27
824.759	-0.3
824.93	-0.31
825.101	-0.06
825.272	0.98
825.443	0.35
825.614	0.47
825.784	-1.04
825.955	0.98
826.126	1.12
826.297	0.01
826.467	0.61
826.638	0.38
826.809	-0.76
826.98	0.07
827.15	0.17
827.321	-0.3
827.492	0.16
827.662	0.09
827.833	1.26
828.003	0.36
828.174	-0.73
828.345	-0.5
828.515	0.41
828.686	-0.05
828.856	-0.28
829.027	-0.3
829.197	-0.09
829.368	0.51
829.538	0.03
829.709	-0.33
829.879	0.53
830.049	0.36
830.22	-0.07
830.39	-0.07
830.56	0.4
830.731	0.29
830.901	-0.25
831.072	0.07
831.242	0.03
831.412	-0.15
831.582	-0.11
831.753	-0.54
831.923	0.45
832.093	0.1
832.263	-0.33
832.434	-0.62
832.604	-0.38
832.774	0.37
832.944	0.07
833.114	0.12
833.284	0.86
833.454	-0.14
833.624	-0.44
833.795	-0.33
833.965	0.35
834.135	0.94
834.305	-0.77
834.475	-0.58
834.645	-0.03
834.815	-0.46
834.985	-0.17
835.155	-0.12
835.325	0.77
835.494	0.04
835.664	-0.27
835.834	-0.67
836.004	0.13
836.174	0.08
836.344	0.84
836.514	-1.09
836.684	0.23
836.853	-0.15
837.023	-0.05
837.193	-0.25
837.363	0.81
837.532	0.23
837.702	0.19
837.872	-0.59
838.041	-0.3
838.211	1.32
838.381	-0.42
838.55	-0.11
838.72	1.84
838.89	1.89
839.059	0.14
839.229	-0.37
839.398	1.78
839.568	0.09
839.738	0.05
839.907	1.18
840.077	0.12
840.246	-0.81
840.416	-0.41
840.585	-0.43
840.755	0.86
840.924	0.71
841.093	-0.14
841.263	0.38
841.432	0.81
841.602	-0.06
841.771	-0.02
841.94	-0.17
842.11	1.75
842.279	0.7
842.448	-0.67
842.617	-0.57
842.787	1.3
842.956	-0.63
843.125	-0.75
843.294	0.18
843.464	-0.01
843.633	-0.15
843.802	-0.4
843.971	0.26
844.14	1.04
844.309	0.42
844.479	-0.55
844.648	-0.57
844.817	0.02
844.986	-0.08
845.155	-0.36
845.324	0.2
845.493	0.02
845.662	-0.79
845.831	0.08
846	0.45
846.169	-0.44
846.338	0.83
846.507	0.4
846.676	0.09
846.844	-0.22
847.013	1.36
847.182	0.19
847.351	-0.01
847.52	0.16
847.689	0.76
847.858	0.43
848.026	-0.05
848.195	0.06
848.364	-0.74
848.533	-0.8
848.701	-0.43
848.87	0.89
849.039	0.97
849.207	0.39
849.376	0.43
849.545	1.02
849.713	0.39
849.882	-0.43
850.051	-0.04
850.219	0.47
850.388	0.07
850.556	-0.54
850.725	-0.4
850.893	0.13
851.062	0.5
851.23	0.2
851.399	-1.43
851.567	0.03
851.736	-0.69
851.904	-1.85
852.073	-0.34
852.241	1.27
852.41	0.44
852.578	0.02
852.746	-0.64
852.915	0.95
853.083	-0.38
853.251	-0.43
853.42	-0.24
853.588	1.29
853.756	0.79
853.924	0.3
854.093	0.16
854.261	-0.84
854.429	-1.36
854.597	0.51
854.765	-1.22
854.934	0.7
855.102	0.75
855.27	0.14
855.438	1.23
855.606	1.07
855.774	1.07
855.942	-0.92
856.11	-0.88
856.278	-0.46
856.446	1.84
856.614	-0.39
856.782	-0.29
856.95	1.15
857.118	0.05
857.286	1.23
857.454	-0.91
857.622	1.6
857.79	0.29
857.958	-0.76
858.126	0.18
858.294	-2.18
858.462	-0.62
858.629	-0.77
858.797	-0.78
858.965	1.36
859.133	-0.23
859.301	-0.37
859.468	0.18
859.636	0.35
859.804	0.79
859.971	1.19
860.139	0.2
860.307	2.15
860.474	-0.81
860.642	-1.31
860.81	-0.59
860.977	-0.64
861.145	0.62
861.313	-0.71
861.48	-0.38
861.648	2.1
861.815	0.22
861.983	-0.34
862.15	1.18
862.318	0.31
862.485	0.72
862.653	0.04
862.82	-0.79
862.988	1.23
863.155	-0.02
863.322	-0.88
863.49	-0.94
863.657	-1.3
863.824	2.53
863.992	0.72
864.159	0.32
864.326	1.44
864.494	-1.72
864.661	1.95
864.828	-1.3
864.996	0.82
865.163	1.33
865.33	-1.1
865.497	-1.84
865.664	-1.04
865.832	-0.17
865.999	0.62
866.166	0.17
866.333	0
866.5	-0.88
866.667	0.27
866.834	0.36
867.001	2.17
867.168	-1.89
867.335	1.86
867.502	-1.28
867.669	-0.25
867.836	1.78
868.003	0.43
868.17	0.6
868.337	-0.19
868.504	3
868.671	-1.03
868.838	-0.3
869.005	0.33
869.172	0.13
869.339	-0.25
869.505	-0.2
869.672	-1.17
869.839	2.32
870.006	-0.17
870.173	-1.54
870.339	1.11
870.506	3.08
870.673	-1.69
870.84	3.98
871.006	1.65
871.173	1.36
871.34	0.63
871.506	0.07
871.673	1.09
871.839	-2.51
872.006	-0.13
872.173	0.32
872.339	0.28
872.506	1.89
872.672	-0.78
872.839	-0.28
873.005	0.42
873.172	2.25
873.338	1.69
873.505	-0.8
873.671	-0.85
873.838	1.95
874.004	-0.78
874.171	-0.53
874.337	2.26
874.503	1.05
874.67	-0.86
874.836	-0.05
875.002	-0.2
875.169	0.65
875.335	0.96
875.501	-0.59
875.668	-0.47
875.834	-0.37
876	0.29
876.166	1.24
876.332	0.31
876.499	3.16
876.665	-0.07
876.831	2.62
876.997	3.1
877.163	-0.29
877.329	-0.78
877.495	0.39
877.662	1.78
877.828	1.27
877.994	0.23
878.16	-2.14
878.326	-1.25
878.492	0.15
878.658	0.45
878.824	0.38
878.99	0.69
879.156	-0.42
879.322	2.3
879.487	0.47
879.653	0.25
879.819	1.22
879.985	-0.39
880.151	2.54
880.317	1.69
880.483	-0.61
880.648	1.26
880.814	-2.78
880.98	0.89
881.146	-2.12
881.312	0.04
881.477	0.77
881.643	0.91
881.809	2.6
881.974	1.85
882.14	-0.73
882.306	0.4
882.471	3.79
882.637	-1.31
882.803	1.09
882.968	3.26
883.134	3.95
883.299	0.43
883.465	0.14
883.63	1.89
883.796	1.72
883.961	0.46
884.127	1.25
884.292	-1.74
884.458	-2.17
884.623	-2.17
