Data from Apollo_Calib_20240827__AbsoluteIrradiance__482__07-11-01-262.txt Node

Date: Wed Aug 28 07:11:01 BST 2024
User: biology
Spectrometer: FLMT08252
Trigger mode: 0
Integration Time (sec): 5.000000E-1
Scans to average: 5
Electric dark correction enabled: true
Nonlinearity correction enabled: false
Boxcar width: 0
XAxis mode: Wavelengths
Number of Pixels in Spectrum: 3648
>>>>>Begin Spectral Data<<<<<
179.588	-0
179.809	-0
180.03	-0
180.251	-0
180.473	-0
180.694	0
180.915	0
181.136	-0
181.357	0
181.578	0
181.799	-0
182.02	-0
182.241	-0
182.462	-0
182.683	0
182.904	-0
183.125	0
183.346	0
183.567	0
183.788	-0
184.009	-0
184.23	-0
184.451	0
184.672	-0
184.892	-0
185.113	0
185.334	0
185.555	-0
185.776	0
185.996	0
186.217	0
186.438	-0
186.659	-0
186.879	0
187.1	-0
187.321	-0
187.541	-0
187.762	0
187.983	0
188.203	-0
188.424	0
188.644	0
188.865	0
189.086	-0
189.306	-0
189.527	-0
189.747	0
189.968	-0
190.188	0
190.409	0
190.629	0
190.849	-0
191.07	-0
191.29	0
191.511	-0
191.731	-0
191.951	-0
192.172	-0
192.392	-0
192.612	0
192.833	-0
193.053	0
193.273	0
193.493	-0
193.714	-0
193.934	0
194.154	0
194.374	0
194.594	0
194.815	0
195.035	0
195.255	0
195.475	-0
195.695	0
195.915	0
196.135	-0
196.355	0
196.575	0
196.795	0
197.015	-0
197.235	-0
197.455	-0
197.675	0
197.895	-0
198.115	-0
198.335	0
198.555	-0
198.775	0
198.995	0
199.214	0
199.434	0
199.654	-0
199.874	-0
200.094	-1.35
200.313	0.17
200.533	-0.26
200.753	-0.74
200.973	0.99
201.192	0.53
201.412	-1.03
201.632	-0.17
201.851	0.83
202.071	0.11
202.291	-0.48
202.51	-0.6
202.73	0.4
202.95	-0.07
203.169	-0.6
203.389	0.33
203.608	0.34
203.828	-0.41
204.047	-0.41
204.267	0.3
204.486	0.28
204.706	0.08
204.925	-0.12
205.145	-0.18
205.364	-0.07
205.583	0.71
205.803	-0.31
206.022	-0.27
206.242	-0.19
206.461	0.17
206.68	-0.45
206.9	0.14
207.119	0.25
207.338	0.16
207.557	-0.07
207.777	-0.2
207.996	-0.32
208.215	0.32
208.434	0.02
208.654	-0.63
208.873	0.12
209.092	0.41
209.311	-0.09
209.53	-0.18
209.749	-0.19
209.968	-0.15
210.187	-0.2
210.407	-0.56
210.626	-0.02
210.845	0.34
211.064	0.06
211.283	-0.07
211.502	0.2
211.721	0.14
211.94	-0.07
212.159	0.09
212.377	0.04
212.596	0.15
212.815	0.08
213.034	0.29
213.253	-0.07
213.472	0.06
213.691	-0
213.91	-0.34
214.128	-0.19
214.347	0.43
214.566	-0.45
214.785	-0.31
215.003	0.2
215.222	0.15
215.441	-0.02
215.66	-0.2
215.878	0.09
216.097	0.34
216.316	-0.13
216.534	-0.11
216.753	0.14
216.972	0.01
217.19	0.13
217.409	-0.23
217.627	-0.15
217.846	-0.18
218.064	-0.04
218.283	-0.16
218.501	0.29
218.72	0.09
218.938	-0.16
219.157	-0.16
219.375	0.14
219.594	0.03
219.812	-0.09
220.031	-0.06
220.249	0.19
220.467	0.2
220.686	-0.08
220.904	-0.24
221.122	-0.12
221.341	0.21
221.559	-0.04
221.777	-0.08
221.995	0.17
222.214	0.13
222.432	-0.03
222.65	0.29
222.868	0.08
223.086	0.13
223.305	0.14
223.523	-0.16
223.741	0.2
223.959	-0.15
224.177	-0.28
224.395	-0.04
224.613	0.05
224.831	0.06
225.049	-0.07
225.267	0.03
225.485	0.02
225.703	-0.01
225.921	0.08
226.139	0.01
226.357	0.09
226.575	0.12
226.793	-0.11
227.011	0.57
227.229	0.04
227.447	0.12
227.665	-0.2
227.883	-0.28
228.1	-0.01
228.318	0.11
228.536	-0.17
228.754	-0.16
228.972	0.13
229.189	0.15
229.407	0.01
229.625	-0.16
229.843	0.21
230.06	0.16
230.278	-0.02
230.496	-0
230.713	0.15
230.931	0.08
231.149	-0.05
231.366	-0.18
231.584	0.01
231.801	0.37
232.019	-0.09
232.236	-0.18
232.454	-0.1
232.671	0.09
232.889	-0.01
233.106	-0.21
233.324	-0.14
233.541	0.06
233.759	-0.13
233.976	-0.09
234.194	0.07
234.411	0.03
234.628	-0.08
234.846	-0.03
235.063	-0.05
235.28	0.02
235.498	-0.05
235.715	0.01
235.932	0.08
236.149	-0.12
236.367	-0.09
236.584	-0.08
236.801	0.05
237.018	0.02
237.236	0.05
237.453	-0.15
237.67	0.14
237.887	-0.05
238.104	-0.09
238.321	-0.07
238.538	-0.12
238.755	0.12
238.973	-0.1
239.19	0.02
239.407	0.08
239.624	0.07
239.841	-0.22
240.058	-0.04
240.275	0.06
240.492	0.02
240.709	-0.04
240.925	-0.05
241.142	0.01
241.359	-0.12
241.576	-0.06
241.793	0.04
242.01	0.05
242.227	0.02
242.444	0.02
242.66	0.03
242.877	0.05
243.094	-0.02
243.311	0.1
243.527	-0.14
243.744	-0.01
243.961	0.09
244.178	-0.09
244.394	0.02
244.611	0.23
244.828	0.11
245.044	-0.08
245.261	-0.08
245.477	0.01
245.694	-0.01
245.911	-0.04
246.127	0
246.344	0.15
246.56	0.04
246.777	0
246.993	0.02
247.21	-0.01
247.426	0.14
247.643	-0.01
247.859	-0.06
248.076	-0.05
248.292	0.22
248.508	0.02
248.725	0
248.941	0.07
249.157	0.06
249.374	-0.05
249.59	0.08
249.806	0.01
250.023	0.05
250.239	-0.04
250.455	-0.03
250.671	-0
250.888	0.08
251.104	0.03
251.32	-0.02
251.536	0
251.752	-0.03
251.969	0.03
252.185	0.01
252.401	0.17
252.617	0.12
252.833	-0.03
253.049	0.08
253.265	0.02
253.481	0.03
253.697	0
253.913	0
254.129	-0.03
254.345	0
254.561	-0.01
254.777	0.03
254.993	0.03
255.209	-0.01
255.425	-0.05
255.641	-0.04
255.857	0.06
256.073	0.05
256.288	-0.05
256.504	-0.04
256.72	0.05
256.936	0.11
257.152	-0.01
257.367	-0.08
257.583	0.03
257.799	0.04
258.015	0.01
258.23	-0.07
258.446	0.18
258.662	-0.07
258.877	-0.01
259.093	-0.07
259.309	0.07
259.524	-0.03
259.74	-0.01
259.955	-0.08
260.171	0.07
260.387	-0
260.602	0.05
260.818	0.1
261.033	-0.06
261.249	-0.08
261.464	-0.06
261.68	-0.05
261.895	0.03
262.11	-0.01
262.326	0.04
262.541	-0.1
262.757	0.06
262.972	0.02
263.187	0.03
263.403	0.01
263.618	0.04
263.833	0.03
264.049	-0.03
264.264	-0
264.479	0.04
264.694	0.1
264.91	-0.05
265.125	-0.05
265.34	0.06
265.555	0.22
265.77	0.04
265.986	-0.05
266.201	0.03
266.416	0.09
266.631	-0.04
266.846	0
267.061	-0.03
267.276	0.05
267.491	-0.14
267.706	0.02
267.921	0.04
268.136	-0.02
268.351	0.03
268.566	-0.08
268.781	0.11
268.996	0.07
269.211	0.02
269.426	-0.14
269.641	-0.03
269.856	0.03
270.071	-0.05
270.285	-0.1
270.5	0
270.715	0.09
270.93	0.03
271.145	0.08
271.359	0.09
271.574	-0.04
271.789	-0.05
272.004	-0.03
272.218	-0.03
272.433	0.05
272.648	-0.05
272.862	0.07
273.077	-0.02
273.292	0
273.506	-0.01
273.721	-0.04
273.936	0.01
274.15	-0
274.365	0.02
274.579	0.1
274.794	-0
275.008	0.09
275.223	-0.05
275.437	-0.02
275.652	0.02
275.866	0.03
276.081	0.01
276.295	0.07
276.509	-0.04
276.724	-0.03
276.938	-0.02
277.153	-0.02
277.367	0.08
277.581	-0.05
277.796	-0.05
278.01	-0.02
278.224	0.05
278.438	0.14
278.653	-0.05
278.867	-0.05
279.081	-0.22
279.295	-0.02
279.51	0.03
279.724	-0.11
279.938	0.09
280.152	-0
280.366	0.02
280.58	0.08
280.794	0.07
281.008	0.03
281.222	-0.01
281.437	0.13
281.651	0.05
281.865	0.11
282.079	-0.07
282.293	-0.07
282.507	-0.05
282.721	-0.07
282.935	-0.01
283.148	-0.07
283.362	0.01
283.576	-0.03
283.79	0.02
284.004	-0
284.218	0.08
284.432	-0.02
284.646	-0.01
284.859	-0
285.073	-0.02
285.287	0
285.501	0.01
285.714	-0.03
285.928	0.01
286.142	-0.01
286.356	-0.01
286.569	-0.01
286.783	0.08
286.997	0.01
287.21	0.06
287.424	0.03
287.637	-0.01
287.851	0.01
288.065	0.05
288.278	-0.02
288.492	-0
288.705	-0.04
288.919	0.06
289.132	-0
289.346	0.04
289.559	-0.06
289.773	-0.06
289.986	0.01
290.2	-0.01
290.413	0.05
290.626	-0.03
290.84	-0.01
291.053	-0
291.267	0.1
291.48	-0.01
291.693	-0.02
291.906	-0.04
292.12	-0.04
292.333	0
292.546	-0.02
292.76	0.02
292.973	0.01
293.186	0.06
293.399	-0.03
293.612	0.07
293.826	0.02
294.039	-0.04
294.252	-0.01
294.465	0.05
294.678	0.07
294.891	0.03
295.104	-0.03
295.317	0.02
295.53	-0
295.743	0.03
295.956	-0.02
296.169	0.03
296.382	0.05
296.595	0.01
296.808	-0.05
297.021	0.1
297.234	0.05
297.447	0.03
297.66	0.01
297.873	0.06
298.086	0.06
298.299	-0.06
298.511	-0.02
298.724	-0.03
298.937	-0.03
299.15	0.02
299.363	0.03
299.575	0.02
299.788	0.03
300.001	-0.02
300.213	-0.02
300.426	0.01
300.639	0.01
300.852	-0.06
301.064	0.03
301.277	0.03
301.489	0.05
301.702	0.05
301.915	-0.01
302.127	-0.02
302.34	0.02
302.552	0.05
302.765	-0.04
302.977	0.06
303.19	-0.01
303.402	-0.01
303.615	-0
303.827	0
304.04	0
304.252	0.02
304.464	-0.01
304.677	0.13
304.889	0.06
305.102	-0.02
305.314	-0.07
305.526	0.02
305.739	0.05
305.951	-0.03
306.163	0.01
306.375	0.11
306.588	-0.07
306.8	-0.01
307.012	-0.06
307.224	0.05
307.436	0.11
307.649	-0.02
307.861	0.03
308.073	0.04
308.285	-0.01
308.497	-0.04
308.709	-0.03
308.921	0.03
309.133	0.03
309.346	-0
309.558	0.02
309.77	0.05
309.982	0.09
310.194	0.03
310.406	-0.03
310.617	0.04
310.829	0.04
311.041	0.05
311.253	-0.01
311.465	0.03
311.677	0.02
311.889	0.02
312.101	-0.03
312.313	0.03
312.524	0.04
312.736	-0.03
312.948	-0.01
313.16	0.11
313.372	0.06
313.583	0.02
313.795	-0.02
314.007	0.02
314.218	0.04
314.43	0.01
314.642	-0.03
314.853	-0.03
315.065	0.04
315.277	0.03
315.488	0.03
315.7	0.03
315.912	-0.02
316.123	-0.04
316.335	0.01
316.546	0.11
316.758	0.03
316.969	-0.03
317.181	0.03
317.392	0.02
317.604	0.06
317.815	-0.04
318.026	-0
318.238	-0.05
318.449	0
318.661	-0.06
318.872	-0.06
319.083	-0.06
319.295	0.02
319.506	-0.03
319.717	0
319.929	0.05
320.14	0.05
320.351	0.01
320.562	-0.04
320.774	0.01
320.985	0.01
321.196	-0.05
321.407	-0.05
321.618	0.04
321.829	0.03
322.041	0.02
322.252	-0.01
322.463	0.05
322.674	0.08
322.885	-0.07
323.096	-0
323.307	0.03
323.518	0.04
323.729	0.02
323.94	-0.01
324.151	-0.02
324.362	-0.01
324.573	0.01
324.784	0.01
324.995	0.05
325.206	0.03
325.417	-0.02
325.628	-0.02
325.838	-0.01
326.049	0.02
326.26	0.03
326.471	-0.02
326.682	0.03
326.892	-0
327.103	-0.07
327.314	-0.06
327.525	0.05
327.735	-0.02
327.946	0.02
328.157	-0.04
328.368	0.01
328.578	0
328.789	0.01
328.999	-0.01
329.21	-0.01
329.421	0.03
329.631	-0.01
329.842	-0
330.052	0.03
330.263	0.06
330.473	0.05
330.684	0.02
330.894	-0
331.105	0.03
331.315	0
331.526	-0.07
331.736	0.06
331.947	0.06
332.157	-0.01
332.367	-0.03
332.578	0.02
332.788	0.07
332.999	0.02
333.209	-0.02
333.419	-0.05
333.629	0.06
333.84	0.03
334.05	0.01
334.26	0.05
334.47	0.03
334.681	0.06
334.891	-0.04
335.101	0.02
335.311	0.08
335.521	0.02
335.732	-0.03
335.942	0.04
336.152	0.03
336.362	0.01
336.572	-0.01
336.782	0.01
336.992	0.03
337.202	-0.06
337.412	-0
337.622	0.01
337.832	-0.03
338.042	0.02
338.252	0
338.462	-0.01
338.672	0.03
338.882	0.01
339.092	0.02
339.302	0.05
339.511	0.02
339.721	-0.01
339.931	-0.03
340.141	0.08
340.351	0.07
340.561	0.05
340.77	-0
340.98	-0.02
341.19	0.04
341.4	-0.01
341.609	-0.01
341.819	-0
342.029	-0.04
342.238	0.02
342.448	-0.02
342.658	0.03
342.867	0.05
343.077	0.04
343.286	0.05
343.496	0.02
343.706	0.05
343.915	-0.04
344.125	-0.03
344.334	0.02
344.544	-0.07
344.753	-0.01
344.963	-0
345.172	-0.01
345.381	-0.01
345.591	-0.06
345.8	0.04
346.01	0.08
346.219	0.02
346.428	-0.14
346.638	-0.01
346.847	0.01
347.056	0.05
347.266	-0.05
347.475	0.01
347.684	0.03
347.893	0.06
348.103	0.02
348.312	0.01
348.521	-0
348.73	0
348.94	-0.03
349.149	-0.02
349.358	-0.01
349.567	0
349.776	-0.04
349.985	-0.01
350.194	0.07
350.403	0.06
350.612	-0.04
350.821	0.01
351.03	0.04
351.239	-0.05
351.448	0.02
351.657	-0.01
351.866	0.08
352.075	0.02
352.284	0.07
352.493	-0.05
352.702	0.07
352.911	0
353.12	0.04
353.329	-0.02
353.538	0.03
353.746	0.02
353.955	-0.01
354.164	0
354.373	0.01
354.582	-0
354.79	0.01
354.999	0.03
355.208	-0
355.416	0.03
355.625	-0.02
355.834	-0.02
356.042	-0.02
356.251	-0.02
356.46	-0.03
356.668	0.02
356.877	0.08
357.085	0.05
357.294	-0.07
357.503	0.02
357.711	-0.05
357.92	0.11
358.128	-0.01
358.337	-0.02
358.545	-0.01
358.754	-0.01
358.962	0.01
359.17	-0.04
359.379	0.05
359.587	0.01
359.796	-0
360.004	0.08
360.212	0.02
360.421	0.05
360.629	-0.01
360.837	0.02
361.046	0.06
361.254	0.09
361.462	-0.01
361.67	0.01
361.879	0.01
362.087	0.09
362.295	0.02
362.503	0.03
362.711	-0.03
362.92	-0.04
363.128	-0.01
363.336	-0.01
363.544	-0.04
363.752	-0
363.96	-0.06
364.168	-0.04
364.376	-0
364.584	0.02
364.792	0.08
365	0.05
365.208	0.04
365.416	0.04
365.624	0.02
365.832	-0.02
366.04	0.05
366.248	0.02
366.456	0.01
366.664	0.02
366.872	0.01
367.079	0
367.287	0.01
367.495	0.05
367.703	0
367.911	-0.01
368.118	0.02
368.326	-0.03
368.534	-0.01
368.742	0.07
368.949	-0.03
369.157	-0.05
369.365	0.02
369.572	0
369.78	-0.01
369.988	0.03
370.195	0.05
370.403	0.04
370.61	-0.03
370.818	0.03
371.026	0.06
371.233	-0.02
371.441	0.04
371.648	-0.02
371.856	0
372.063	-0.02
372.271	-0.03
372.478	-0.01
372.685	-0.03
372.893	0.05
373.1	-0.06
373.308	-0.01
373.515	0.05
373.722	0.02
373.93	-0.01
374.137	0.03
374.344	0.08
374.552	0.07
374.759	0.03
374.966	0.04
375.173	0
375.381	0.06
375.588	0.02
375.795	-0.05
376.002	0
376.209	-0.06
376.417	0.02
376.624	0.07
376.831	0.05
377.038	0
377.245	-0.06
377.452	-0.01
377.659	-0.01
377.866	-0.02
378.073	0.03
378.28	-0.02
378.487	0.06
378.694	0.03
378.901	0.01
379.108	0.03
379.315	0.05
379.522	0.09
379.729	0.02
379.936	0
380.143	0.04
380.35	0.06
380.557	0.01
380.763	0.05
380.97	0.04
381.177	0.03
381.384	0.06
381.591	0.02
381.797	0.02
382.004	0.01
382.211	0.03
382.418	0.02
382.624	0.03
382.831	0.03
383.038	-0.04
383.244	-0
383.451	-0.02
383.658	0.01
383.864	0
384.071	-0.01
384.277	0.09
384.484	-0.04
384.69	0.03
384.897	-0.05
385.103	-0.04
385.31	-0.05
385.516	-0.01
385.723	-0.02
385.929	-0.04
386.136	0.02
386.342	0.01
386.549	-0.01
386.755	0.05
386.961	0.02
387.168	-0.01
387.374	0.03
387.58	0.03
387.787	0.02
387.993	0.03
388.199	-0.01
388.406	0
388.612	-0.03
388.818	0.01
389.024	-0.04
389.231	0.06
389.437	0.06
389.643	0.04
389.849	0
390.055	0
390.261	0.02
390.467	0.06
390.674	-0.03
390.88	0.01
391.086	0.02
391.292	-0.04
391.498	0
391.704	0.01
391.91	0.03
392.116	0.01
392.322	-0.09
392.528	0.02
392.734	-0.03
392.94	0
393.146	0
393.352	0.01
393.557	-0.01
393.763	-0.02
393.969	0.01
394.175	-0.02
394.381	0.04
394.587	-0.02
394.792	-0.01
394.998	0.03
395.204	0.03
395.41	-0.06
395.615	0.08
395.821	-0.02
396.027	0.01
396.233	-0.05
396.438	0.01
396.644	0.06
396.85	-0.02
397.055	0.01
397.261	0.03
397.466	-0.03
397.672	-0.01
397.878	0.07
398.083	0.02
398.289	-0.05
398.494	0.07
398.7	0.03
398.905	-0.05
399.111	0.09
399.316	-0.03
399.522	0.02
399.727	0.01
399.932	-0.07
400.138	-0.01
400.343	0.03
400.549	0.05
400.754	0.01
400.959	0.02
401.165	0.02
401.37	0.02
401.575	0.1
401.78	0.01
401.986	-0.02
402.191	0
402.396	-0.04
402.601	0.02
402.807	-0
403.012	0.03
403.217	0.02
403.422	0.04
403.627	0.01
403.832	-0.02
404.037	0
404.243	0.04
404.448	-0.02
404.653	0
404.858	0.03
405.063	0.05
405.268	-0.01
405.473	-0.04
405.678	-0.03
405.883	0.15
406.088	0.04
406.293	-0.07
406.498	-0.01
406.703	0.03
406.907	0.01
407.112	-0.08
407.317	0.02
407.522	-0.02
407.727	-0.04
407.932	0.05
408.136	0.06
408.341	-0.01
408.546	-0.01
408.751	0.04
408.956	-0.02
409.16	0.05
409.365	0
409.57	-0.02
409.774	-0.01
409.979	0.01
410.184	0.01
410.388	-0.05
410.593	0.04
410.798	-0.02
411.002	-0.04
411.207	0.04
411.411	0.01
411.616	-0.03
411.82	-0.01
412.025	0.05
412.229	-0.03
412.434	0.07
412.638	0.06
412.843	-0.01
413.047	0
413.252	-0.04
413.456	-0.01
413.66	0.04
413.865	-0.06
414.069	0.09
414.273	-0.01
414.478	-0.02
414.682	-0.03
414.886	-0.03
415.091	-0.01
415.295	-0.05
415.499	0.04
415.703	-0.01
415.908	0.01
416.112	-0.03
416.316	0
416.52	0.01
416.724	-0.03
416.929	-0.04
417.133	0.13
417.337	-0.06
417.541	-0.08
417.745	-0.05
417.949	-0.01
418.153	-0.04
418.357	-0.09
418.561	0.07
418.765	0
418.969	0.13
419.173	0.04
419.377	-0.04
419.581	0.08
419.785	-0.04
419.989	-0.04
420.193	-0.02
420.397	0.01
420.601	0.06
420.804	0.05
421.008	-0.03
421.212	-0
421.416	0.04
421.62	-0.05
421.823	-0.02
422.027	0.11
422.231	0.02
422.435	-0.04
422.638	0.02
422.842	0.03
423.046	0.01
423.249	0.03
423.453	0.01
423.657	0.04
423.86	0.02
424.064	-0.01
424.268	0.03
424.471	-0.05
424.675	0.08
424.878	0.05
425.082	0.02
425.285	0.07
425.489	-0
425.692	0.04
425.896	-0.05
426.099	0.05
426.303	-0.06
426.506	-0.07
426.71	-0.01
426.913	0.07
427.116	0.11
427.32	0
427.523	0.01
427.726	0.03
427.93	-0.06
428.133	-0
428.336	-0.04
428.54	-0.04
428.743	-0.01
428.946	0.03
429.149	-0.04
429.353	0.01
429.556	0.04
429.759	0.01
429.962	-0.06
430.165	0.03
430.368	-0.06
430.571	0.02
430.775	0.03
430.978	-0.02
431.181	0.05
431.384	0
431.587	-0.01
431.79	-0
431.993	0.05
432.196	-0.06
432.399	-0.01
432.602	0.04
432.805	-0.01
433.008	-0.01
433.211	-0.09
433.414	0.02
433.616	0.01
433.819	-0.03
434.022	-0.1
434.225	0.09
434.428	0.01
434.631	0.09
434.833	0.02
435.036	-0
435.239	0.03
435.442	0.01
435.645	-0
435.847	0.02
436.05	0.06
436.253	0.03
436.455	-0.04
436.658	0.03
436.861	0.08
437.063	-0.01
437.266	-0.01
437.468	-0
437.671	0.07
437.874	-0.05
438.076	-0.07
438.279	-0.07
438.481	0.01
438.684	-0.06
438.886	0.04
439.089	-0.05
439.291	0
439.494	-0
439.696	-0.05
439.899	0.02
440.101	0.01
440.303	-0.06
440.506	0.07
440.708	0.02
440.91	0.01
441.113	-0.02
441.315	0.02
441.517	-0.05
441.72	0.01
441.922	-0.04
442.124	-0.06
442.326	0.03
442.529	0.04
442.731	0.01
442.933	0.06
443.135	-0.01
443.337	-0.03
443.539	-0.06
443.742	-0.03
443.944	-0.01
444.146	-0.05
444.348	-0.04
444.55	-0.02
444.752	0.01
444.954	-0.07
445.156	0.03
445.358	-0.05
445.56	0.04
445.762	0
445.964	-0.03
446.166	-0.04
446.368	-0.03
446.57	0
446.772	-0.01
446.974	-0.01
447.175	0.01
447.377	-0.03
447.579	-0.07
447.781	-0.05
447.983	0.1
448.184	-0.02
448.386	-0.02
448.588	-0.07
448.79	0.04
448.991	0.02
449.193	-0.04
449.395	-0.02
449.597	0.02
449.798	-0
450	0.07
450.202	0.04
450.403	0.01
450.605	0.02
450.806	0
451.008	-0.08
451.21	0.01
451.411	0.02
451.613	-0.03
451.814	0.02
452.016	0.03
452.217	0.05
452.419	0.03
452.62	-0.07
452.821	0.04
453.023	0.05
453.224	0.03
453.426	-0
453.627	-0.02
453.828	0.03
454.03	0.03
454.231	0.04
454.432	-0.01
454.634	0.1
454.835	-0.05
455.036	-0.05
455.238	0.08
455.439	0.07
455.64	-0.05
455.841	-0.01
456.042	0.07
456.244	0.03
456.445	-0.02
456.646	-0.07
456.847	-0.02
457.048	0.02
457.249	0.06
457.45	0.14
457.651	-0.03
457.852	0.03
458.054	0.06
458.255	-0.07
458.456	0.03
458.657	-0
458.858	-0.08
459.058	-0.01
459.259	0.07
459.46	-0.02
459.661	-0.05
459.862	0.09
460.063	0
460.264	0.07
460.465	-0.02
460.666	0.11
460.866	-0.03
461.067	-0.05
461.268	0.01
461.469	0.02
461.67	0
461.87	-0.02
462.071	-0.01
462.272	-0.05
462.473	0.01
462.673	0.04
462.874	-0.04
463.075	0.02
463.275	-0.05
463.476	0.02
463.676	0.04
463.877	0
464.078	-0.03
464.278	0.04
464.479	-0.05
464.679	0.01
464.88	-0.05
465.08	0.05
465.281	-0.03
465.481	0
465.682	-0.02
465.882	0.04
466.083	0.02
466.283	0.02
466.483	0.01
466.684	0
466.884	-0.02
467.085	0
467.285	0.08
467.485	-0.01
467.686	-0.03
467.886	-0.02
468.086	0.01
468.286	0.01
468.487	-0.02
468.687	-0.07
468.887	-0.03
469.087	0.03
469.287	-0.01
469.488	-0.08
469.688	0.04
469.888	0.01
470.088	0.04
470.288	0.05
470.488	0.02
470.688	-0.06
470.888	-0.01
471.088	-0.05
471.288	0.03
471.488	0.04
471.688	0.03
471.888	-0.01
472.088	0.04
472.288	0.02
472.488	-0.03
472.688	0.01
472.888	-0.02
473.088	0.02
473.288	0
473.488	0
473.688	0.06
473.887	-0.01
474.087	0
474.287	0.02
474.487	-0.04
474.687	0.02
474.886	-0
475.086	-0.01
475.286	-0.03
475.486	0.01
475.685	-0.01
475.885	0.01
476.085	-0.02
476.284	0
476.484	0.02
476.684	0.04
476.883	0.03
477.083	0.01
477.282	-0.01
477.482	0.04
477.681	0.02
477.881	0.03
478.08	-0.04
478.28	-0.02
478.479	0
478.679	0.07
478.878	0.01
479.078	-0.03
479.277	-0.01
479.477	-0.04
479.676	0.05
479.875	0.01
480.075	-0.05
480.274	0.04
480.473	0.04
480.673	-0.03
480.872	-0
481.071	0.01
481.271	0.01
481.47	-0.01
481.669	0.01
481.868	0.01
482.067	-0.02
482.267	-0.01
482.466	-0.02
482.665	0
482.864	-0.04
483.063	-0.02
483.262	0
483.461	0.07
483.661	0.08
483.86	0
484.059	0.01
484.258	0.01
484.457	0
484.656	-0.01
484.855	0.04
485.054	-0.04
485.253	-0.02
485.452	-0.03
485.651	-0.01
485.849	0.01
486.048	-0.04
486.247	-0.02
486.446	0
486.645	-0.03
486.844	0.01
487.043	0
487.241	0.02
487.44	-0.04
487.639	-0.01
487.838	0.02
488.037	0.02
488.235	0.04
488.434	-0
488.633	-0.02
488.831	0
489.03	0.05
489.229	0.02
489.427	-0.01
489.626	0.05
489.825	0.07
490.023	-0
490.222	0.01
490.42	0.01
490.619	0.03
490.817	0
491.016	0
491.214	0.04
491.413	0
491.611	-0.02
491.81	0.02
492.008	0.02
492.207	0.01
492.405	0.02
492.604	-0.05
492.802	0.01
493	0.01
493.199	-0.01
493.397	-0.02
493.595	-0
493.794	-0.02
493.992	0.05
494.19	0.02
494.388	0.01
494.587	-0.02
494.785	0
494.983	-0.03
495.181	0.02
495.379	-0
495.578	-0.01
495.776	0.01
495.974	0.02
496.172	-0.01
496.37	-0.01
496.568	-0.04
496.766	-0.01
496.964	0.01
497.162	0.01
497.36	-0.01
497.558	0.02
497.756	0.03
497.954	0.02
498.152	-0.02
498.35	0.01
498.548	-0.01
498.746	0
498.944	-0.02
499.142	-0.02
499.34	-0.03
499.538	-0.02
499.736	-0.02
499.933	0.02
500.131	0.02
500.329	0
500.527	0.03
500.725	0.03
500.922	0.03
501.12	0.02
501.318	-0
501.516	-0.01
501.713	0
501.911	0
502.109	-0.05
502.306	0
502.504	-0.01
502.701	-0.01
502.899	-0.02
503.097	0.05
503.294	-0
503.492	0
503.689	0.01
503.887	-0.01
504.084	0.04
504.282	-0.02
504.479	-0.04
504.677	-0
504.874	-0
505.072	-0.01
505.269	0.02
505.466	0.01
505.664	-0.01
505.861	-0.03
506.059	-0.05
506.256	0.01
506.453	-0.01
506.651	0.04
506.848	0.01
507.045	0.03
507.242	0.02
507.44	-0.02
507.637	-0.01
507.834	-0
508.031	0.01
508.229	-0.03
508.426	0.01
508.623	0
508.82	0.01
509.017	-0.01
509.214	0
509.411	-0.02
509.608	-0.03
509.805	-0.01
510.003	0.01
510.2	-0.02
510.397	0.02
510.594	-0.02
510.791	-0.02
510.988	-0.01
511.184	0.04
511.381	0
511.578	-0.02
511.775	0.02
511.972	0
512.169	-0.01
512.366	0
512.563	0.01
512.76	-0.03
512.956	-0
513.153	-0
513.35	0.01
513.547	-0.01
513.744	-0.01
513.94	-0.01
514.137	0.01
514.334	-0.01
514.53	-0
514.727	0.01
514.924	0.04
515.12	-0.01
515.317	-0.01
515.514	0
515.71	-0.03
515.907	0.01
516.103	0
516.3	0
516.497	0.03
516.693	0.03
516.89	-0.02
517.086	-0.01
517.283	0.05
517.479	-0.02
517.676	-0.01
517.872	0
518.068	-0.02
518.265	-0.01
518.461	-0.02
518.658	-0.01
518.854	0.03
519.05	-0
519.247	-0
519.443	-0.01
519.639	0.03
519.836	-0.01
520.032	0
520.228	0.02
520.424	0.04
520.621	0.02
520.817	-0.01
521.013	0
521.209	0
521.405	0.04
521.601	0
521.798	0
521.994	0.04
522.19	-0.03
522.386	-0.01
522.582	0.03
522.778	0.01
522.974	-0.02
523.17	-0.01
523.366	-0.03
523.562	0.05
523.758	0.01
523.954	-0.01
524.15	-0
524.346	0
524.542	-0.01
524.738	-0.01
524.934	0.01
525.129	0.01
525.325	0.01
525.521	0.01
525.717	0.01
525.913	0.02
526.109	-0.01
526.304	0.01
526.5	0.01
526.696	0.03
526.892	0.01
527.087	0.01
527.283	-0
527.479	0.02
527.674	-0
527.87	-0
528.066	-0.01
528.261	0.01
528.457	0.01
528.653	-0.01
528.848	-0
529.044	0.02
529.239	0.01
529.435	0.01
529.63	0.02
529.826	0.03
530.021	0.01
530.217	0.03
530.412	-0.01
530.608	-0
530.803	-0
530.999	-0
531.194	-0.04
531.389	-0.01
531.585	-0.04
531.78	0.02
531.975	-0.01
532.171	0.03
532.366	-0.01
532.561	-0
532.757	-0.01
532.952	0.01
533.147	0.02
533.342	0
533.538	0
533.733	0.02
533.928	-0.01
534.123	-0
534.318	-0.03
534.513	-0
534.709	0.01
534.904	0
535.099	-0.01
535.294	0
535.489	0.01
535.684	-0.01
535.879	-0.04
536.074	-0.02
536.269	-0.02
536.464	-0.02
536.659	-0.03
536.854	0
537.049	-0
537.244	0.01
537.439	-0.01
537.634	0.02
537.828	0.01
538.023	-0
538.218	-0.03
538.413	0.01
538.608	-0.03
538.803	0.02
538.997	-0.04
539.192	0.01
539.387	0
539.582	0.03
539.776	0.01
539.971	-0.01
540.166	-0.01
540.36	-0.02
540.555	0.01
540.75	-0.02
540.944	0.01
541.139	-0.04
541.334	0
541.528	0.01
541.723	-0.01
541.917	0.01
542.112	-0.02
542.306	0.01
542.501	-0.01
542.695	-0.01
542.89	-0.02
543.084	0.01
543.279	-0.01
543.473	0.02
543.668	-0.01
543.862	0.01
544.056	0.03
544.251	0.01
544.445	-0.01
544.64	0.02
544.834	-0.03
545.028	0.01
545.222	0
545.417	0.02
545.611	0.03
545.805	0
546	-0
546.194	0
546.388	-0.01
546.582	0.01
546.776	0
546.97	0.01
547.165	0.02
547.359	0.03
547.553	-0.01
547.747	0.01
547.941	0.01
548.135	-0.01
548.329	0.02
548.523	0.01
548.717	0
548.911	-0
549.105	-0
549.299	-0.01
549.493	0.03
549.687	0
549.881	0.01
550.075	0
550.269	-0.03
550.463	0
550.657	-0.01
550.85	-0.01
551.044	-0
551.238	0.01
551.432	-0.01
551.626	-0.02
551.82	0.02
552.013	-0.01
552.207	0.01
552.401	0.01
552.594	0.02
552.788	0.01
552.982	0.03
553.176	-0.03
553.369	0.02
553.563	-0
553.756	-0.02
553.95	-0.01
554.144	-0
554.337	0.04
554.531	0.02
554.724	0.01
554.918	-0.01
555.111	0.01
555.305	0.02
555.498	0.05
555.692	0.02
555.885	0
556.079	0.01
556.272	0
556.466	0.04
556.659	-0
556.852	-0.02
557.046	-0.01
557.239	0.02
557.432	-0.02
557.626	-0
557.819	0.01
558.012	0.01
558.206	0.03
558.399	0.01
558.592	0.03
558.785	-0.05
558.979	0.01
559.172	0.01
559.365	0.02
559.558	0.03
559.751	0
559.944	0.02
560.138	-0
560.331	0.02
560.524	-0.02
560.717	0.01
560.91	0
561.103	0.01
561.296	0.03
561.489	0.03
561.682	0.02
561.875	0.03
562.068	0.03
562.261	0.02
562.454	0.06
562.647	0.02
562.84	0.02
563.032	0
563.225	-0
563.418	-0
563.611	-0.01
563.804	0.01
563.997	-0.02
564.19	-0.02
564.382	-0
564.575	0.01
564.768	0.01
564.961	0.02
565.153	-0.01
565.346	0.01
565.539	0.02
565.731	0.02
565.924	0.03
566.117	0.03
566.309	0
566.502	-0.02
566.695	0.02
566.887	0.03
567.08	-0.03
567.272	-0
567.465	-0
567.657	-0.01
567.85	0.03
568.042	0.02
568.235	0.05
568.427	0.01
568.62	0.02
568.812	0.03
569.005	0.03
569.197	-0.02
569.389	0.01
569.582	0.01
569.774	0.03
569.966	-0.03
570.159	-0.04
570.351	0.03
570.543	-0
570.736	0.02
570.928	-0.02
571.12	0.03
571.312	0
571.505	-0.02
571.697	0.05
571.889	-0.01
572.081	-0.01
572.273	-0.01
572.465	0.04
572.658	0
572.85	0.02
573.042	0.01
573.234	-0
573.426	0.07
573.618	0
573.81	-0
574.002	0.05
574.194	0.05
574.386	-0.03
574.578	-0.07
574.77	0.02
574.962	0
575.154	-0.02
575.346	0.01
575.538	0.04
575.729	0.01
575.921	0.02
576.113	0.01
576.305	0.03
576.497	0.01
576.689	0.03
576.88	0.03
577.072	0.06
577.264	0.01
577.456	0.03
577.647	-0.02
577.839	0.03
578.031	0.04
578.223	-0.01
578.414	0.02
578.606	0.04
578.798	0.04
578.989	0.01
579.181	0.04
579.372	0.04
579.564	0.01
579.755	0.06
579.947	0.03
580.139	0.06
580.33	-0.01
580.522	0.02
580.713	-0.03
580.905	0.05
581.096	0.06
581.287	0.05
581.479	0.05
581.67	0.07
581.862	0.04
582.053	0.03
582.244	-0.01
582.436	0.03
582.627	0.05
582.818	0.03
583.01	0.02
583.201	0.08
583.392	0.09
583.583	0.05
583.775	0.04
583.966	0.03
584.157	0.06
584.348	0.04
584.54	0.02
584.731	0.06
584.922	0.06
585.113	0.04
585.304	0.07
585.495	0.06
585.686	0.07
585.877	0.11
586.068	0.08
586.259	0.09
586.45	0.08
586.641	0.06
586.832	0.06
587.023	0.1
587.214	0.07
587.405	0.08
587.596	0.05
587.787	0.12
587.978	0.12
588.169	0.05
588.36	0.09
588.551	0.11
588.742	0.1
588.932	0.11
589.123	0.09
589.314	0.12
589.505	0.12
589.696	0.11
589.886	0.09
590.077	0.06
590.268	0.14
590.458	0.08
590.649	0.07
590.84	0.15
591.03	0.12
591.221	0.11
591.412	0.11
591.602	0.16
591.793	0.16
591.984	0.13
592.174	0.14
592.365	0.22
592.555	0.15
592.746	0.17
592.936	0.16
593.127	0.19
593.317	0.18
593.508	0.17
593.698	0.15
593.889	0.18
594.079	0.15
594.269	0.16
594.46	0.18
594.65	0.2
594.84	0.19
595.031	0.15
595.221	0.2
595.411	0.16
595.602	0.24
595.792	0.21
595.982	0.21
596.172	0.28
596.363	0.23
596.553	0.24
596.743	0.24
596.933	0.25
597.123	0.28
597.314	0.23
597.504	0.22
597.694	0.31
597.884	0.25
598.074	0.27
598.264	0.27
598.454	0.28
598.644	0.3
598.834	0.28
599.024	0.24
599.214	0.28
599.404	0.35
599.594	0.3
599.784	0.29
599.974	0.39
600.164	0.37
600.354	0.31
600.544	0.32
600.734	0.34
600.924	0.4
601.114	0.37
601.303	0.34
601.493	0.39
601.683	0.37
601.873	0.43
602.063	0.36
602.252	0.46
602.442	0.38
602.632	0.45
602.821	0.41
603.011	0.45
603.201	0.46
603.39	0.46
603.58	0.48
603.77	0.54
603.959	0.55
604.149	0.55
604.339	0.51
604.528	0.57
604.718	0.58
604.907	0.53
605.097	0.55
605.286	0.55
605.476	0.58
605.665	0.61
605.855	0.59
606.044	0.64
606.234	0.66
606.423	0.63
606.612	0.64
606.802	0.66
606.991	0.7
607.181	0.74
607.37	0.7
607.559	0.7
607.749	0.7
607.938	0.73
608.127	0.8
608.316	0.8
608.506	0.8
608.695	0.85
608.884	0.79
609.073	0.86
609.263	0.92
609.452	0.93
609.641	0.95
609.83	0.91
610.019	0.92
610.208	0.92
610.397	1
610.586	1.04
610.775	1.02
610.965	1.06
611.154	1.05
611.343	1.09
611.532	1.14
611.721	1.18
611.91	1.17
612.099	1.24
612.287	1.22
612.476	1.24
612.665	1.36
612.854	1.32
613.043	1.4
613.232	1.38
613.421	1.37
613.61	1.44
613.798	1.44
613.987	1.58
614.176	1.56
614.365	1.57
614.554	1.63
614.742	1.68
614.931	1.63
615.12	1.74
615.309	1.78
615.497	1.81
615.686	1.77
615.875	1.89
616.063	1.86
616.252	1.89
616.44	2.01
616.629	2.03
616.818	2.02
617.006	2.03
617.195	2.13
617.383	2.18
617.572	2.17
617.76	2.22
617.949	2.26
618.137	2.37
618.326	2.36
618.514	2.27
618.703	2.38
618.891	2.53
619.079	2.4
619.268	2.56
619.456	2.47
619.644	2.61
619.833	2.58
620.021	2.59
620.209	2.63
620.398	2.73
620.586	2.71
620.774	2.88
620.962	2.81
621.151	2.91
621.339	2.81
621.527	2.83
621.715	2.9
621.903	2.96
622.092	2.96
622.28	3.01
622.468	2.91
622.656	2.99
622.844	2.97
623.032	3
623.22	3.03
623.408	3.12
623.596	3.02
623.784	3.17
623.972	2.97
624.16	3.06
624.348	3.06
624.536	3.07
624.724	2.99
624.912	3
625.1	3.02
625.288	2.96
625.476	2.87
625.664	2.96
625.851	2.83
626.039	2.85
626.227	2.78
626.415	2.73
626.603	2.63
626.79	2.63
626.978	2.53
627.166	2.52
627.354	2.44
627.541	2.39
627.729	2.19
627.917	2.31
628.104	2.24
628.292	2.15
628.48	2.11
628.667	2.05
628.855	2.03
629.042	1.97
629.23	1.87
629.418	1.79
629.605	1.73
629.793	1.62
629.98	1.58
630.168	1.48
630.355	1.46
630.543	1.44
630.73	1.34
630.917	1.35
631.105	1.33
631.292	1.22
631.48	1.16
631.667	1.19
631.854	1.11
632.042	1.03
632.229	0.96
632.416	1
632.604	0.93
632.791	0.85
632.978	0.91
633.165	0.85
633.353	0.85
633.54	0.78
633.727	0.66
633.914	0.7
634.101	0.61
634.289	0.68
634.476	0.61
634.663	0.59
634.85	0.61
635.037	0.53
635.224	0.5
635.411	0.58
635.598	0.54
635.785	0.47
635.972	0.48
636.159	0.48
636.346	0.39
636.533	0.41
636.72	0.39
636.907	0.37
637.094	0.41
637.281	0.37
637.468	0.37
637.655	0.34
637.842	0.33
638.029	0.28
638.215	0.32
638.402	0.31
638.589	0.26
638.776	0.25
638.963	0.23
639.149	0.28
639.336	0.28
639.523	0.21
639.709	0.24
639.896	0.21
640.083	0.28
640.27	0.23
640.456	0.19
640.643	0.2
640.829	0.17
641.016	0.2
641.203	0.16
641.389	0.2
641.576	0.18
641.762	0.18
641.949	0.11
642.135	0.19
642.322	0.17
642.508	0.07
642.695	0.13
642.881	0.13
643.068	0.12
643.254	0.14
643.441	0.13
643.627	0.1
643.813	0.06
644	0.14
644.186	0.05
644.372	0.12
644.559	0.13
644.745	0.09
644.931	0.07
645.118	0.08
645.304	0.11
645.49	0.04
645.676	0.05
645.862	0.07
646.049	0.1
646.235	0.04
646.421	0.12
646.607	0.11
646.793	0.05
646.979	0.01
647.165	0.1
647.352	0.07
647.538	0.08
647.724	0.09
647.91	0.09
648.096	0.1
648.282	0.07
648.468	0.06
648.654	0.04
648.84	0.05
649.026	0.06
649.212	0.06
649.397	0.02
649.583	0.03
649.769	0.09
649.955	0.05
650.141	0.08
650.327	0.07
650.513	0.02
650.698	0.1
650.884	-0.03
651.07	0.02
651.256	0.06
651.442	0.04
651.627	0.03
651.813	0.04
651.999	0.01
652.184	0.08
652.37	0.03
652.556	0.03
652.741	0.06
652.927	-0.04
653.113	0.02
653.298	0.05
653.484	-0.01
653.669	-0
653.855	0.04
654.04	0.03
654.226	0.02
654.412	0.03
654.597	-0.04
654.782	0.01
654.968	0.07
655.153	0.04
655.339	0
655.524	-0.04
655.71	0.04
655.895	-0.01
656.08	-0.01
656.266	0.05
656.451	0.06
656.636	-0.03
656.822	0.03
657.007	-0.03
657.192	-0.01
657.378	-0.02
657.563	0.05
657.748	0.06
657.933	0.04
658.118	0.02
658.304	-0.02
658.489	0.05
658.674	0.04
658.859	-0.03
659.044	0.02
659.229	0.03
659.414	-0
659.599	0.01
659.785	-0.03
659.97	-0.05
660.155	0.03
660.34	0
660.525	-0
660.71	-0.02
660.895	0.02
661.08	-0.01
661.264	-0.03
661.449	0.09
661.634	0.04
661.819	0.01
662.004	0.02
662.189	-0.06
662.374	-0.01
662.559	-0.03
662.743	-0.07
662.928	0.01
663.113	-0.01
663.298	-0.01
663.483	-0.03
663.667	0.03
663.852	-0.01
664.037	0.08
664.221	-0.02
664.406	0.06
664.591	0.05
664.775	0.02
664.96	0.03
665.145	0.04
665.329	0.02
665.514	0.01
665.698	0
665.883	-0.05
666.068	0.09
666.252	-0.03
666.437	-0.03
666.621	0.01
666.806	0.04
666.99	0
667.174	-0.03
667.359	0.08
667.543	-0.05
667.728	0.01
667.912	-0.03
668.096	0.03
668.281	-0.04
668.465	-0.02
668.649	0.02
668.834	-0.01
669.018	0.01
669.202	-0.02
669.387	-0.03
669.571	0.05
669.755	-0.04
669.939	-0
670.124	0.01
670.308	0.08
670.492	0.04
670.676	-0.01
670.86	-0.02
671.044	-0.03
671.228	0.07
671.413	-0.04
671.597	-0.01
671.781	-0.04
671.965	0.01
672.149	-0
672.333	0.01
672.517	-0.04
672.701	0.02
672.885	-0.05
673.069	-0.03
673.253	0.05
673.437	0.02
673.621	-0.03
673.804	-0.03
673.988	0.01
674.172	0
674.356	-0.03
674.54	-0.02
674.724	0.11
674.908	0.01
675.091	0.03
675.275	-0.02
675.459	0.03
675.643	-0.02
675.826	-0.03
676.01	0.01
676.194	0.03
676.377	0.07
676.561	0.09
676.745	-0
676.928	0.05
677.112	0.08
677.296	-0.04
677.479	0
677.663	-0.04
677.846	0.02
678.03	-0.03
678.213	-0.03
678.397	0.02
678.58	0
678.764	0.01
678.947	-0.05
679.131	-0.03
679.314	0.03
679.498	-0.01
679.681	0.02
679.865	0.07
680.048	-0.01
680.231	0.01
680.415	-0.02
680.598	-0
680.781	-0.04
680.965	-0.05
681.148	0
681.331	-0
681.514	0.03
681.698	0
681.881	0.01
682.064	-0.01
682.247	0.02
682.43	-0.09
682.614	0
682.797	0.03
682.98	0.02
683.163	-0.03
683.346	0.02
683.529	-0.01
683.712	-0.02
683.895	0.05
684.078	-0.04
684.261	-0.01
684.444	0.03
684.627	0.02
684.81	-0.01
684.993	-0.06
685.176	0.02
685.359	-0.02
685.542	-0.04
685.725	0.09
685.908	0.03
686.091	0.03
686.274	0.05
686.457	0.06
686.639	0.01
686.822	0.08
687.005	0.04
687.188	0.04
687.371	0.09
687.553	0.01
687.736	-0.02
687.919	0.08
688.102	0.07
688.284	0.02
688.467	0.02
688.65	0
688.832	-0
689.015	-0.03
689.197	-0.06
689.38	0.1
689.563	0.08
689.745	-0.03
689.928	-0.09
690.11	0.04
690.293	0.05
690.475	-0.06
690.658	0.06
690.84	-0.02
691.023	0.01
691.205	-0.04
691.388	-0
691.57	-0.01
691.752	0.03
691.935	-0.12
692.117	-0.05
692.3	0.02
692.482	-0.02
692.664	-0.03
692.847	0.03
693.029	0.05
693.211	0.05
693.393	-0.01
693.576	-0.04
693.758	0
693.94	-0.01
694.122	-0.04
694.304	0
694.487	-0.03
694.669	0.04
694.851	0.01
695.033	-0.04
695.215	-0.04
695.397	-0.08
695.579	0.01
695.761	-0.05
695.943	-0.09
696.125	0.05
696.308	-0.02
696.49	-0.13
696.671	0.08
696.853	-0.04
697.035	0.14
697.217	-0.02
697.399	0.05
697.581	-0.04
697.763	-0.03
697.945	-0.07
698.127	-0.01
698.309	0.09
698.491	0.02
698.672	0.02
698.854	0.06
699.036	0.08
699.218	-0
699.399	0.03
699.581	0.07
699.763	0
699.945	-0.02
700.126	-0.02
700.308	0.04
700.49	-0
700.671	-0.03
700.853	-0.04
701.035	-0.06
701.216	-0.04
701.398	-0.02
701.579	-0.02
701.761	0.09
701.943	-0.07
702.124	-0.05
702.306	-0
702.487	0.09
702.669	0.01
702.85	-0.01
703.031	-0.1
703.213	0.1
703.394	0.11
703.576	-0.02
703.757	0.03
703.938	0.04
704.12	0.1
704.301	0.05
704.483	-0.01
704.664	0.06
704.845	0.08
705.026	0.02
705.208	0.06
705.389	0.02
705.57	0.01
705.751	0.02
705.933	0
706.114	0.03
706.295	0.01
706.476	-0
706.657	-0.01
706.838	0.06
707.02	0.06
707.201	-0.07
707.382	-0.08
707.563	-0
707.744	-0.05
707.925	-0.06
708.106	-0.06
708.287	0.05
708.468	0.05
708.649	0.03
708.83	0.04
709.011	-0.03
709.192	0.08
709.373	0.01
709.554	0.05
709.734	0.08
709.915	-0
710.096	0.05
710.277	-0.06
710.458	0.01
710.639	0.01
710.819	-0.06
711	0.01
711.181	0.11
711.362	0.01
711.542	-0.05
711.723	0.01
711.904	0.05
712.085	-0.01
712.265	0.01
712.446	-0.02
712.627	0.01
712.807	0.05
712.988	-0.01
713.168	-0.11
713.349	0.05
713.53	-0.06
713.71	-0.12
713.891	-0.1
714.071	0.01
714.252	-0.05
714.432	-0.06
714.613	-0.11
714.793	0.01
714.974	0.05
715.154	0.07
715.334	0.03
715.515	0.08
715.695	-0.02
715.876	0.04
716.056	-0.06
716.236	-0.02
716.417	-0.03
716.597	-0.04
716.777	0.15
716.957	-0.01
717.138	0.04
717.318	0.04
717.498	-0.05
717.678	0.01
717.859	0.04
718.039	-0.1
718.219	0.04
718.399	0.07
718.579	-0.07
718.759	-0.04
718.939	0.02
719.12	-0
719.3	-0.03
719.48	-0.05
719.66	-0.19
719.84	0.06
720.02	0.01
720.2	-0.02
720.38	-0
720.56	0.09
720.74	-0.02
720.92	0.02
721.1	0.09
721.279	0.09
721.459	-0.02
721.639	-0.1
721.819	0.09
721.999	0.02
722.179	0.08
722.359	0.02
722.538	0.01
722.718	0
722.898	0.04
723.078	-0.06
723.257	0.02
723.437	0
723.617	0.03
723.797	-0.09
723.976	0
724.156	0.06
724.336	0.05
724.515	0.1
724.695	-0.14
724.874	0.06
725.054	-0.04
725.234	-0.1
725.413	0.02
725.593	-0
725.772	0
725.952	0
726.131	-0.01
726.311	0.07
726.49	-0.09
726.67	-0.12
726.849	-0.08
727.028	0.01
727.208	0.03
727.387	0.02
727.567	-0.05
727.746	-0.06
727.925	-0.06
728.105	-0.08
728.284	-0.01
728.463	0.02
728.643	0.02
728.822	-0.12
729.001	-0.02
729.18	-0
729.359	0.08
729.539	0.01
729.718	0.06
729.897	0.03
730.076	-0.03
730.255	-0.1
730.434	0
730.614	-0.01
730.793	0.08
730.972	-0.02
731.151	0.04
731.33	0.16
731.509	0.09
731.688	0.02
731.867	0.02
732.046	-0.13
732.225	0.14
732.404	-0.15
732.583	-0.13
732.762	0.01
732.941	0.08
733.12	0.05
733.298	-0.06
733.477	0.09
733.656	-0.01
733.835	-0.03
734.014	0.15
734.193	-0.02
734.371	0.07
734.55	0.05
734.729	-0.14
734.908	0.05
735.086	0.06
735.265	0.08
735.444	-0.08
735.623	-0.09
735.801	-0.12
735.98	0.01
736.159	-0.08
736.337	0.07
736.516	-0.05
736.694	-0.04
736.873	-0.1
737.052	0.12
737.23	0.11
737.409	-0.01
737.587	0.14
737.766	-0.14
737.944	-0.04
738.123	0.08
738.301	0
738.479	-0.13
738.658	-0
738.836	-0.22
739.015	0.04
739.193	0.15
739.371	-0.14
739.55	0.1
739.728	-0.13
739.906	0.02
740.085	0.13
740.263	-0.04
740.441	-0.11
740.62	0.13
740.798	0.04
740.976	-0.06
741.154	-0.04
741.332	0.17
741.511	-0
741.689	0.04
741.867	0.06
742.045	0.06
742.223	-0.03
742.401	-0.1
742.579	-0.09
742.757	0.01
742.935	-0.1
743.114	-0.07
743.292	-0.01
743.47	-0.01
743.648	0.01
743.826	0.1
744.004	0.07
744.181	0.05
744.359	-0.05
744.537	-0.01
744.715	-0.13
744.893	-0.01
745.071	0.11
745.249	0
745.427	-0.11
745.605	0
745.782	0.04
745.96	0.09
746.138	-0.09
746.316	0.15
746.493	-0.04
746.671	0
746.849	0
747.027	0.12
747.204	-0.05
747.382	0.1
747.56	-0.11
747.737	0.05
747.915	-0.04
748.093	0.08
748.27	-0.01
748.448	-0.05
748.625	-0.11
748.803	-0.06
748.98	-0.06
749.158	0.05
749.335	0.09
749.513	0.01
749.69	-0.04
749.868	-0.03
750.045	0.06
750.223	-0.06
750.4	-0.21
750.578	0.17
750.755	0.06
750.932	-0.04
751.11	0.07
751.287	-0.19
751.464	0.12
751.642	-0.1
751.819	-0.03
751.996	-0.03
752.173	-0.01
752.351	-0.17
752.528	0.03
752.705	0.01
752.882	-0
753.06	0.04
753.237	0.11
753.414	0.11
753.591	0.11
753.768	-0.01
753.945	-0.06
754.122	-0.07
754.299	0.12
754.476	-0.12
754.654	-0.04
754.831	-0.05
755.008	0.02
755.185	-0.2
755.362	-0.04
755.539	0.03
755.716	-0.13
755.892	-0
756.069	-0.14
756.246	-0.01
756.423	-0.03
756.6	0.17
756.777	0.05
756.954	0.07
757.131	0.04
757.307	-0.11
757.484	-0.1
757.661	-0.02
757.838	-0.05
758.015	-0.12
758.191	0.12
758.368	0.14
758.545	0.26
758.721	0.09
758.898	-0.08
759.075	0.01
759.251	0.18
759.428	0.04
759.605	-0.08
759.781	-0.06
759.958	0.07
760.134	0.08
760.311	-0
760.488	0.09
760.664	0.11
760.841	0.06
761.017	-0.09
761.194	-0.01
761.37	0.12
761.547	-0.03
761.723	-0.07
761.899	0.14
762.076	0.08
762.252	-0.15
762.429	-0.12
762.605	0.09
762.781	-0.04
762.958	0.07
763.134	-0.05
763.31	-0.01
763.486	0.14
763.663	-0.03
763.839	0.07
764.015	-0.16
764.191	-0.1
764.368	0
764.544	0.02
764.72	-0.01
764.896	0.09
765.072	0.08
765.248	0.05
765.425	-0.06
765.601	0.01
765.777	0.13
765.953	-0.13
766.129	-0.1
766.305	-0.05
766.481	0.17
766.657	-0.03
766.833	0.32
767.009	-0.1
767.185	-0.05
767.361	-0.08
767.537	-0.05
767.713	0.05
767.889	-0.06
768.065	0.03
768.24	0.14
768.416	0.11
768.592	0.01
768.768	-0.02
768.944	-0
769.12	-0.05
769.295	-0.02
769.471	-0.06
769.647	0.01
769.823	0.08
769.998	-0.06
770.174	-0.13
770.35	0.16
770.525	0.25
770.701	0.08
770.877	-0.04
771.052	-0.03
771.228	0.09
771.403	0.09
771.579	0.04
771.755	0.2
771.93	-0.11
772.106	-0.1
772.281	-0.23
772.457	0.03
772.632	0.11
772.808	-0.13
772.983	0.02
773.159	-0.22
773.334	0.25
773.509	-0.02
773.685	-0.08
773.86	0.42
774.036	0.24
774.211	0.06
774.386	0.08
774.562	-0.08
774.737	0.18
774.912	-0.05
775.087	0.21
775.263	0.09
775.438	0.02
775.613	-0.16
775.788	-0.05
775.964	0.18
776.139	0.38
776.314	-0.18
776.489	0.06
776.664	0.13
776.839	-0.13
777.014	0.16
777.19	0.18
777.365	0.07
777.54	0.27
777.715	0.03
777.89	0.03
778.065	-0.21
778.24	0.02
778.415	0.22
778.59	-0.13
778.765	-0.09
778.94	-0
779.115	0.06
779.289	-0.02
779.464	0.02
779.639	-0.01
779.814	-0.11
779.989	-0.14
780.164	0.34
780.339	0.1
780.513	-0.1
780.688	0
780.863	0.12
781.038	0.1
781.212	-0.07
781.387	-0.15
781.562	0.2
781.737	-0.01
781.911	0.1
782.086	-0.16
782.261	0.02
782.435	0.35
782.61	0
782.784	0.02
782.959	0.16
783.134	-0.04
783.308	-0.28
783.483	-0.06
783.657	0.43
783.832	0.07
784.006	-0.16
784.181	0.06
784.355	0.19
784.53	-0.26
784.704	-0.22
784.878	0.28
785.053	0.12
785.227	0.24
785.402	0.45
785.576	-0.21
785.75	-0.13
785.925	-0.04
786.099	0.07
786.273	0.19
786.448	0.09
786.622	0.05
786.796	0.11
786.97	-0.17
787.145	0.41
787.319	-0.32
787.493	-0.22
787.667	-0.31
787.841	0.01
788.015	0.11
788.19	-0.05
788.364	0.04
788.538	0.08
788.712	0.16
788.886	-0.15
789.06	0.24
789.234	0.08
789.408	-0.23
789.582	-0.09
789.756	0.15
789.93	-0.01
790.104	-0.11
790.278	-0.13
790.452	-0.16
790.626	0.33
790.8	-0.13
790.973	0.09
791.147	0.12
791.321	0.3
791.495	0.24
791.669	0.2
791.843	0.33
792.016	0.16
792.19	0.4
792.364	-0.31
792.538	0.4
792.711	0.42
792.885	-0.09
793.059	-0.15
793.233	-0.55
793.406	0.19
793.58	-0.18
793.754	0.06
793.927	0.14
794.101	0.15
794.274	0.08
794.448	0.31
794.622	-0.06
794.795	0.24
794.969	-0.24
795.142	0
795.316	-0.32
795.489	-0.04
795.663	0.33
795.836	0.06
796.009	-0.2
796.183	0.3
796.356	0.08
796.53	0.22
796.703	-0
796.876	0.61
797.05	-0
797.223	-0.06
797.396	0.07
797.57	0.12
797.743	0.27
797.916	0.15
798.09	0.04
798.263	0.21
798.436	0.06
798.609	0.01
798.782	0.08
798.956	-0.03
799.129	-0.01
799.302	-0.05
799.475	-0.31
799.648	-0.24
799.821	-0.28
799.994	0.1
800.167	-0.51
800.34	-0.03
800.514	-0.03
800.687	-0.1
800.86	0.01
801.033	-0.05
801.206	0.11
801.379	-0.27
801.551	0.24
801.724	0.13
801.897	0.35
802.07	0.08
802.243	-0.32
802.416	-0.1
802.589	-0.09
802.762	-0.06
802.935	0.19
803.107	0.16
803.28	0.2
803.453	0.1
803.626	0.1
803.798	0.43
803.971	-0.24
804.144	0.15
804.317	0.55
804.489	0.22
804.662	-0.28
804.835	0.18
805.007	-0.24
805.18	0.45
805.353	0.22
805.525	-0.21
805.698	-0.15
805.87	-0.09
806.043	0.3
806.215	-0.14
806.388	0.03
806.56	0.29
806.733	0.33
806.905	-0.06
807.078	-0.08
807.25	-0.26
807.423	0.15
807.595	0.32
807.768	0.11
807.94	0.35
808.112	0.01
808.285	0.25
808.457	0.09
808.629	0.13
808.802	0.26
808.974	0.22
809.146	-0.22
809.318	-0.3
809.491	0.08
809.663	0.48
809.835	-0.12
810.007	0.26
810.18	0.16
810.352	-0.21
810.524	-0.22
810.696	0.05
810.868	0.2
811.04	-0.02
811.212	-0.24
811.384	0.19
811.556	-0.01
811.728	-0.16
811.901	0.62
812.073	0.21
812.245	0.3
812.417	0.51
812.589	-0.43
812.76	0.19
812.932	0.19
813.104	0.06
813.276	-0.35
813.448	0.53
813.62	-0.13
813.792	-0.09
813.964	0.33
814.136	0.29
814.307	0.14
814.479	0.17
814.651	-0.2
814.823	0.51
814.995	-0.13
815.166	0.09
815.338	-0.65
815.51	-0.13
815.681	0.76
815.853	0.07
816.025	0.11
816.196	0.65
816.368	0.41
816.54	-0.59
816.711	-0.32
816.883	0.13
817.054	1.03
817.226	-0.56
817.398	0.12
817.569	0
817.741	0.31
817.912	-0.07
818.084	-0.14
818.255	0.21
818.426	-0.25
818.598	-0.17
818.769	-0.15
818.941	-0.09
819.112	0.26
819.283	0.38
819.455	-0.15
819.626	0.13
819.798	0.33
819.969	0
820.14	-0.13
820.311	-0
820.483	-0.15
820.654	0.25
820.825	-0.3
820.996	0
821.168	-0.3
821.339	-0.17
821.51	-0.23
821.681	-0.19
821.852	0.13
822.023	-0.04
822.195	-0.9
822.366	0.3
822.537	0.11
822.708	0.44
822.879	0.06
823.05	0.21
823.221	0.02
823.392	0.35
823.563	0.07
823.734	0.07
823.905	-0.25
824.076	-0.03
824.247	-0.39
824.418	-0.31
824.589	0.4
824.759	0.09
824.93	0.03
825.101	-0.75
825.272	0.86
825.443	0.61
825.614	0.43
825.784	-1.27
825.955	0.66
826.126	0.5
826.297	-0.07
826.467	0.74
826.638	0.41
826.809	-0.71
826.98	0.22
827.15	-0.12
827.321	0.14
827.492	0.81
827.662	0.02
827.833	0.94
828.003	0.39
828.174	-0.62
828.345	-0.23
828.515	0.75
828.686	-0.05
828.856	0.26
829.027	-0.07
829.197	0.45
829.368	0.21
829.538	-0.06
829.709	-0.22
829.879	-0.01
830.049	0.39
830.22	-0.23
830.39	-0.28
830.56	0.71
830.731	-0.04
830.901	-0.03
831.072	-0.15
831.242	0.3
831.412	-0.07
831.582	0.24
831.753	-0.29
831.923	0.46
832.093	-0.53
832.263	0.26
832.434	-0.24
832.604	-0.3
832.774	0.3
832.944	0.31
833.114	-0.2
833.284	0.11
833.454	-0.32
833.624	-0.15
833.795	0.29
833.965	0.79
834.135	0.25
834.305	-0.76
834.475	-0.69
834.645	-0.2
834.815	-0.24
834.985	0.07
835.155	-0.36
835.325	1.02
835.494	-0.02
835.664	-0.25
835.834	-0.51
836.004	0.85
836.174	-0.22
836.344	0.13
836.514	-0.97
836.684	-0.16
836.853	0.42
837.023	0.06
837.193	-0.24
837.363	0.3
837.532	1.32
837.702	0.08
837.872	-0.15
838.041	0.83
838.211	1.28
838.381	-0.71
838.55	0.54
838.72	2.35
838.89	1.29
839.059	0.11
839.229	-0.42
839.398	1.02
839.568	-0.35
839.738	0.19
839.907	0.48
840.077	0.48
840.246	-0.67
840.416	-0.26
840.585	-0.8
840.755	0.7
840.924	0.47
841.093	-0.77
841.263	0.29
841.432	0.24
841.602	-0.75
841.771	-0.97
841.94	0.63
842.11	1.53
842.279	1.31
842.448	-0.52
842.617	-0.75
842.787	0.66
842.956	-0.26
843.125	-0.36
843.294	0.46
843.464	0.39
843.633	-0.61
843.802	-1
843.971	0.17
844.14	0.69
844.309	0.5
844.479	-0.4
844.648	-0.92
844.817	-0.39
844.986	0.31
845.155	0.09
845.324	0.28
845.493	0.24
845.662	-0.76
845.831	0.77
846	-0.12
846.169	-0.61
846.338	1.07
846.507	-0.11
846.676	-0.01
846.844	-0.44
847.013	0.55
847.182	-0.19
847.351	-0.21
847.52	0.05
847.689	0.31
847.858	0.14
848.026	-0.15
848.195	0.13
848.364	-0.02
848.533	-0.8
848.701	-0.02
848.87	-0.01
849.039	1.33
849.207	1.03
849.376	0.67
849.545	0.59
849.713	-0.96
849.882	0.4
850.051	0.67
850.219	0.21
850.388	1.23
850.556	-0.84
850.725	0.74
850.893	0.94
851.062	-0.12
851.23	0.36
851.399	-0.89
851.567	-0.53
851.736	0.04
851.904	-0.48
852.073	0.47
852.241	0.78
852.41	-0.5
852.578	-1.78
852.746	-0.48
852.915	0.6
853.083	-0.16
853.251	-0.07
853.42	-0.29
853.588	-0.41
853.756	1
853.924	0.24
854.093	0.04
854.261	-0.23
854.429	-1.3
854.597	0.24
854.765	-1.6
854.934	0.11
855.102	0.91
855.27	0.8
855.438	0.74
855.606	0.58
855.774	1.77
855.942	0.43
856.11	-1.53
856.278	0.93
856.446	-0.17
856.614	-0.56
856.782	-0.98
856.95	0.42
857.118	0.76
857.286	0.06
857.454	-1.5
857.622	1.31
857.79	1.66
857.958	-0.52
858.126	-0.23
858.294	-2.2
858.462	-0.22
858.629	-0.61
858.797	-0.36
858.965	-0.22
859.133	0.58
859.301	0.14
859.468	-0.46
859.636	0.52
859.804	1.78
859.971	1.15
860.139	-0.07
860.307	1.22
860.474	-0.05
860.642	-0.67
860.81	0.78
860.977	0.68
861.145	-0.04
861.313	0.14
861.48	0.39
861.648	0.08
861.815	-0.26
861.983	-1.43
862.15	-1.07
862.318	0.64
862.485	2.92
862.653	-0.04
862.82	0.2
862.988	1.38
863.155	1.38
863.322	-1.22
863.49	-1.49
863.657	-0.56
863.824	1.9
863.992	0.14
864.159	0.39
864.326	2.1
864.494	-0.3
864.661	2.82
864.828	-0.54
864.996	0.83
865.163	2.44
865.33	-0.59
865.497	-2.04
865.664	-0.13
865.832	-1.11
865.999	0.47
866.166	-1.73
866.333	0.45
866.5	-0.96
866.667	0.24
866.834	-0.07
867.001	1.03
867.168	-0.49
867.335	-1.29
867.502	-1.48
867.669	-0.19
867.836	2.58
868.003	-0.37
868.17	1.12
868.337	-0.97
868.504	2.86
868.671	-1.6
868.838	-0.67
869.005	-0.09
869.172	-1.32
869.339	0.3
869.505	-0.6
869.672	1.49
869.839	1.68
870.006	0.13
870.173	-2.1
870.339	0.41
870.506	3.95
870.673	0.76
870.84	0.25
871.006	-0.59
871.173	0.1
871.34	-1.2
871.506	-1.25
871.673	-1.04
871.839	-2.24
872.006	0.53
872.173	-0.92
872.339	-0.66
872.506	0.03
872.672	0.58
872.839	-1.2
873.005	0.93
873.172	3.15
873.338	2.07
873.505	0.96
873.671	-1.9
873.838	0.48
874.004	-2.38
874.171	-1.38
874.337	1.75
874.503	-0.39
874.67	0.38
874.836	-0.36
875.002	1.7
875.169	1.74
875.335	-0.26
875.501	-1.03
875.668	1.78
875.834	0.55
876	0.25
876.166	2.13
876.332	1.33
876.499	2.4
876.665	-0.52
876.831	1.26
876.997	2.58
877.163	2.02
877.329	0.2
877.495	1.41
877.662	2.57
877.828	1.19
877.994	-0.05
878.16	-1.66
878.326	-1
878.492	0.67
878.658	-1.04
878.824	-0.24
878.99	-0.61
879.156	-1.04
879.322	1.01
879.487	-0.99
879.653	-0.9
879.819	0.47
879.985	1.3
880.151	1.38
880.317	0.1
880.483	0.86
880.648	0.92
880.814	-3.88
880.98	0.58
881.146	-2.68
881.312	-2.68
881.477	0.13
881.643	0.81
881.809	2.88
881.974	1.88
882.14	-2.67
882.306	2.69
882.471	3.47
882.637	-0.26
882.803	2.08
882.968	2.62
883.134	2.38
883.299	0.84
883.465	2.06
883.63	2.43
883.796	1.47
883.961	0.89
884.127	2.33
884.292	-3.52
884.458	-2.18
884.623	-2.17
