Data from Apollo_Calib_20240827__AbsoluteIrradiance__209__02-38-00-588.txt Node

Date: Wed Aug 28 02:38:00 BST 2024
User: biology
Spectrometer: FLMT08252
Trigger mode: 0
Integration Time (sec): 5.000000E-1
Scans to average: 5
Electric dark correction enabled: true
Nonlinearity correction enabled: false
Boxcar width: 0
XAxis mode: Wavelengths
Number of Pixels in Spectrum: 3648
>>>>>Begin Spectral Data<<<<<
179.588	-0
179.809	-0
180.03	-0
180.251	-0
180.473	-0
180.694	0
180.915	0
181.136	-0
181.357	0
181.578	-0
181.799	-0
182.02	-0
182.241	-0
182.462	-0
182.683	0
182.904	-0
183.125	-0
183.346	0
183.567	0
183.788	0
184.009	-0
184.23	0
184.451	0
184.672	0
184.892	-0
185.113	0
185.334	0
185.555	-0
185.776	-0
185.996	0
186.217	0
186.438	0
186.659	-0
186.879	0
187.1	0
187.321	0
187.541	-0
187.762	0
187.983	0
188.203	0
188.424	0
188.644	0
188.865	0
189.086	0
189.306	0
189.527	0
189.747	0
189.968	-0
190.188	0
190.409	0
190.629	0
190.849	-0
191.07	-0
191.29	0
191.511	0
191.731	-0
191.951	-0
192.172	0
192.392	0
192.612	0
192.833	0
193.053	0
193.273	0
193.493	-0
193.714	0
193.934	0
194.154	0
194.374	0
194.594	0
194.815	0
195.035	0
195.255	0
195.475	-0
195.695	0
195.915	0
196.135	0
196.355	0
196.575	0
196.795	0
197.015	-0
197.235	-0
197.455	-0
197.675	0
197.895	-0
198.115	-0
198.335	0
198.555	0
198.775	0
198.995	0
199.214	0
199.434	0
199.654	-0
199.874	-0
200.094	1.38
200.313	0.12
200.533	-0.2
200.753	-0.57
200.973	1
201.192	0.82
201.412	-0.77
201.632	-0.04
201.851	1.37
202.071	-0.02
202.291	-0.23
202.51	-0.66
202.73	0.45
202.95	0.01
203.169	0.09
203.389	-0.03
203.608	0.33
203.828	-0.06
204.047	-0.24
204.267	0.77
204.486	0.3
204.706	0.47
204.925	0.1
205.145	-0.11
205.364	0.7
205.583	0.93
205.803	0.03
206.022	-0.22
206.242	0.2
206.461	0.32
206.68	-0.44
206.9	-0.01
207.119	1.06
207.338	1.06
207.557	0
207.777	0.11
207.996	0.09
208.215	0.77
208.434	-0.18
208.654	-0.35
208.873	0.44
209.092	0.55
209.311	-0.07
209.53	-0.07
209.749	-0.1
209.968	-0.31
210.187	0.14
210.407	-0.34
210.626	-0.06
210.845	0.46
211.064	0.13
211.283	0.06
211.502	0.52
211.721	0.03
211.94	-0
212.159	0.35
212.377	0.46
212.596	0.45
212.815	0.31
213.034	0.12
213.253	0.5
213.472	0.33
213.691	0.1
213.91	0.03
214.128	0.01
214.347	0.5
214.566	-0.3
214.785	-0.13
215.003	0.29
215.222	0.14
215.441	-0.02
215.66	-0.14
215.878	0.19
216.097	0.32
216.316	0.03
216.534	-0.01
216.753	0.22
216.972	0.08
217.19	0.03
217.409	-0.25
217.627	-0.28
217.846	0.14
218.064	0.04
218.283	0.04
218.501	0.53
218.72	0.53
218.938	-0.09
219.157	-0.09
219.375	0.24
219.594	-0.09
219.812	-0.1
220.031	-0.12
220.249	0.46
220.467	0.28
220.686	-0.04
220.904	-0.06
221.122	0.04
221.341	0.49
221.559	0.31
221.777	-0.02
221.995	0.17
222.214	0.14
222.432	0.02
222.65	0.26
222.868	-0.01
223.086	0.21
223.305	0.17
223.523	0.04
223.741	0.43
223.959	-0.01
224.177	-0.19
224.395	0.07
224.613	0.25
224.831	0.19
225.049	-0.11
225.267	0.04
225.485	0.22
225.703	0.11
225.921	0.06
226.139	0.01
226.357	0.15
226.575	0.19
226.793	0.04
227.011	0.51
227.229	0.05
227.447	0.19
227.665	0.1
227.883	-0.13
228.1	0.08
228.318	0.1
228.536	-0.12
228.754	-0.17
228.972	0.13
229.189	0.21
229.407	-0.12
229.625	0.06
229.843	0.22
230.06	0.2
230.278	-0.04
230.496	0.17
230.713	0.18
230.931	0.25
231.149	0.02
231.366	-0.21
231.584	0.09
231.801	0.43
232.019	-0.03
232.236	-0.16
232.454	-0.07
232.671	0.11
232.889	-0.01
233.106	-0.07
233.324	0.04
233.541	0.1
233.759	0.16
233.976	0.02
234.194	0.01
234.411	0.12
234.628	-0.05
234.846	-0.01
235.063	0.04
235.28	0.05
235.498	-0.02
235.715	-0.15
235.932	0.2
236.149	0.07
236.367	-0
236.584	0.09
236.801	0.09
237.018	0.03
237.236	0.06
237.453	-0.13
237.67	0.09
237.887	0.17
238.104	-0.05
238.321	-0.06
238.538	-0.04
238.755	0.16
238.973	-0.12
239.19	0.04
239.407	0.09
239.624	0.21
239.841	-0.04
240.058	0.01
240.275	0.17
240.492	0.07
240.709	0.05
240.925	0.03
241.142	0.02
241.359	-0.04
241.576	-0.02
241.793	0
242.01	0.08
242.227	0.24
242.444	0.04
242.66	0.15
242.877	0.07
243.094	-0.08
243.311	0.1
243.527	-0.07
243.744	0.17
243.961	0.14
244.178	-0.05
244.394	0.01
244.611	0.2
244.828	0.25
245.044	-0.08
245.261	0.07
245.477	0.05
245.694	0.15
245.911	-0.08
246.127	0.1
246.344	0.19
246.56	0.16
246.777	0.04
246.993	-0.02
247.21	0.11
247.426	0.19
247.643	0.03
247.859	-0.08
248.076	0.04
248.292	0.29
248.508	-0.03
248.725	0.08
248.941	0.1
249.157	0.18
249.374	0
249.59	0.05
249.806	0.05
250.023	0.23
250.239	0.02
250.455	-0.02
250.671	0.06
250.888	0.13
251.104	0.1
251.32	-0.03
251.536	0.06
251.752	0.1
251.969	0.1
252.185	0.09
252.401	0.18
252.617	0.12
252.833	0.06
253.049	0.09
253.265	0.09
253.481	0.07
253.697	0.03
253.913	-0.05
254.129	0.07
254.345	0.04
254.561	0.08
254.777	0.01
254.993	0.14
255.209	0.05
255.425	-0.01
255.641	0.03
255.857	0.12
256.073	0.06
256.288	-0.07
256.504	-0.01
256.72	0.1
256.936	0.17
257.152	0.03
257.367	0.01
257.583	0.03
257.799	0.16
258.015	-0.08
258.23	0.01
258.446	0.22
258.662	0.04
258.877	-0.05
259.093	-0.01
259.309	0.02
259.524	0.08
259.74	-0.02
259.955	-0.1
260.171	0.09
260.387	0.07
260.602	0.18
260.818	0.05
261.033	-0.01
261.249	-0.03
261.464	0.06
261.68	-0
261.895	0.09
262.11	0.16
262.326	-0.02
262.541	-0.04
262.757	0.17
262.972	0.11
263.187	-0.01
263.403	0.1
263.618	0.16
263.833	0.07
264.049	-0.1
264.264	0.07
264.479	0.09
264.694	0.16
264.91	-0.06
265.125	-0.03
265.34	0.19
265.555	0.2
265.77	0.1
265.986	0.04
266.201	0.11
266.416	0.13
266.631	-0.01
266.846	-0.04
267.061	0.09
267.276	0.11
267.491	-0.06
267.706	0.12
267.921	0.12
268.136	0.08
268.351	0.04
268.566	-0.03
268.781	0.12
268.996	0.12
269.211	0.08
269.426	-0.01
269.641	0.1
269.856	0.09
270.071	-0.03
270.285	-0.02
270.5	0.1
270.715	0.08
270.93	0.03
271.145	0.08
271.359	0.14
271.574	0.03
271.789	0.03
272.004	0.01
272.218	0.04
272.433	0.09
272.648	0.01
272.862	0.06
273.077	0.1
273.292	0.08
273.506	0.01
273.721	0.04
273.936	0.07
274.15	0.09
274.365	0.06
274.579	0.08
274.794	0.15
275.008	0.09
275.223	-0
275.437	0.03
275.652	0.19
275.866	0.08
276.081	0.02
276.295	0.08
276.509	0.03
276.724	0.07
276.938	0.03
277.153	0.05
277.367	0.09
277.581	-0.02
277.796	0.03
278.01	-0.03
278.224	0.11
278.438	0.22
278.653	-0.02
278.867	0.05
279.081	-0.15
279.295	0.03
279.51	0.04
279.724	-0.04
279.938	0.14
280.152	0.1
280.366	-0.08
280.58	0.02
280.794	0.12
281.008	0.06
281.222	0.12
281.437	0.16
281.651	0.09
281.865	0.15
282.079	0.02
282.293	-0.08
282.507	0.01
282.721	0.09
282.935	0.05
283.148	-0.05
283.362	0.03
283.576	0.04
283.79	0.04
284.004	0
284.218	0.12
284.432	0
284.646	-0
284.859	0.02
285.073	0.03
285.287	0.07
285.501	0.05
285.714	0.05
285.928	0.04
286.142	0.05
286.356	0.05
286.569	-0.02
286.783	0.07
286.997	0.1
287.21	0.07
287.424	0.07
287.637	0.04
287.851	-0.01
288.065	0.09
288.278	0.03
288.492	0.07
288.705	-0.01
288.919	0.06
289.132	-0.01
289.346	0.13
289.559	0.01
289.773	-0.03
289.986	0.05
290.2	0.02
290.413	0.09
290.626	-0.02
290.84	0.01
291.053	0.03
291.267	0.14
291.48	0.07
291.693	0.04
291.906	-0.01
292.12	0.06
292.333	-0.02
292.546	0.01
292.76	0.11
292.973	0.06
293.186	0.1
293.399	0.02
293.612	0.12
293.826	0.07
294.039	0.06
294.252	0.01
294.465	0.11
294.678	0.06
294.891	0.08
295.104	-0.01
295.317	0.04
295.53	0.06
295.743	0
295.956	0.07
296.169	0.13
296.382	0.09
296.595	0.05
296.808	0.01
297.021	0.07
297.234	0.09
297.447	0.03
297.66	0.07
297.873	0.11
298.086	0.1
298.299	-0.01
298.511	0.01
298.724	0.03
298.937	0.03
299.15	0.03
299.363	0.02
299.575	0.08
299.788	0.09
300.001	0.04
300.213	-0.04
300.426	0.02
300.639	0.02
300.852	0
301.064	0.07
301.277	0.13
301.489	0.1
301.702	0.09
301.915	0.08
302.127	0.04
302.34	0.05
302.552	0.09
302.765	0.02
302.977	0.1
303.19	-0.01
303.402	-0
303.615	0.05
303.827	-0
304.04	0.03
304.252	0.07
304.464	0.01
304.677	0.15
304.889	0.05
305.102	0.03
305.314	0.02
305.526	0.15
305.739	0.05
305.951	0.05
306.163	0.02
306.375	0.14
306.588	0.02
306.8	0.05
307.012	-0.06
307.224	0.11
307.436	0.11
307.649	-0.04
307.861	0.05
308.073	0.07
308.285	0.01
308.497	0.04
308.709	0.03
308.921	0.03
309.133	0.09
309.346	0.02
309.558	0.04
309.77	0.08
309.982	0.14
310.194	0.1
310.406	-0.01
310.617	0.09
310.829	0.09
311.041	0.05
311.253	-0
311.465	0.09
311.677	0.02
311.889	0.07
312.101	0.02
312.313	0.08
312.524	0.11
312.736	0
312.948	0.03
313.16	0.08
313.372	0.12
313.583	0.07
313.795	0.03
314.007	0.06
314.218	0.08
314.43	0.07
314.642	0.04
314.853	0.03
315.065	0.08
315.277	0.05
315.488	0.09
315.7	0.08
315.912	0.06
316.123	0.05
316.335	0.05
316.546	0.15
316.758	0.09
316.969	0.04
317.181	0.09
317.392	0.07
317.604	0.13
317.815	0
318.026	-0
318.238	0.05
318.449	0.08
318.661	-0.02
318.872	-0.02
319.083	0.01
319.295	0.07
319.506	0
319.717	0.07
319.929	0.08
320.14	0.05
320.351	0.06
320.562	0.03
320.774	0.07
320.985	0.09
321.196	-0.01
321.407	0
321.618	0.08
321.829	0.04
322.041	0.08
322.252	0.05
322.463	0.1
322.674	0.11
322.885	0
323.096	0.04
323.307	0.04
323.518	0.05
323.729	0.05
323.94	0.07
324.151	0.02
324.362	0.06
324.573	0.06
324.784	-0.01
324.995	0.14
325.206	0.05
325.417	0.04
325.628	0.05
325.838	0.04
326.049	0.1
326.26	0.1
326.471	0.03
326.682	0.09
326.892	0.01
327.103	0
327.314	0.04
327.525	0.09
327.735	0.08
327.946	0.03
328.157	0.02
328.368	0.12
328.578	0.06
328.789	0.09
328.999	0.06
329.21	0.07
329.421	0.08
329.631	0.03
329.842	-0
330.052	0.08
330.263	0.07
330.473	0.08
330.684	0.07
330.894	0.07
331.105	0.07
331.315	0.04
331.526	-0.01
331.736	0.16
331.947	0.08
332.157	0.08
332.367	0
332.578	0.1
332.788	0.12
332.999	0.12
333.209	0.07
333.419	0.04
333.629	0.09
333.84	0.08
334.05	0.06
334.26	0.1
334.47	0.04
334.681	0.09
334.891	0.01
335.101	0.09
335.311	0.14
335.521	0.06
335.732	0.03
335.942	0.1
336.152	0.09
336.362	0.06
336.572	0.09
336.782	0.1
336.992	0.02
337.202	0.05
337.412	0.08
337.622	0.06
337.832	0.04
338.042	0.09
338.252	-0.01
338.462	0.01
338.672	0.02
338.882	0.03
339.092	0.06
339.302	0.11
339.511	0.11
339.721	0.03
339.931	0.02
340.141	0.11
340.351	0.09
340.561	0.08
340.77	0.08
340.98	0.1
341.19	0.1
341.4	0.05
341.609	0.02
341.819	0.05
342.029	0.04
342.238	0.07
342.448	0.03
342.658	0.05
342.867	0.07
343.077	0.05
343.286	0.08
343.496	0.06
343.706	0.14
343.915	-0.03
344.125	0.08
344.334	0.08
344.544	-0.02
344.753	0.05
344.963	0.04
345.172	0.03
345.381	0.03
345.591	0.04
345.8	0.04
346.01	0.09
346.219	0.14
346.428	-0.12
346.638	0.07
346.847	0.05
347.056	0.14
347.266	0.05
347.475	0.09
347.684	0.11
347.893	0.06
348.103	0.07
348.312	0.06
348.521	0.05
348.73	0.09
348.94	0.06
349.149	0.08
349.358	0.09
349.567	0.02
349.776	-0.01
349.985	0.01
350.194	0.09
350.403	0.12
350.612	-0.04
350.821	0.05
351.03	0.09
351.239	0.02
351.448	0.06
351.657	-0.01
351.866	0.19
352.075	0.08
352.284	0.05
352.493	0.01
352.702	0.13
352.911	0.11
353.12	0.05
353.329	0.08
353.538	0.09
353.746	0.1
353.955	0.01
354.164	0.08
354.373	0.04
354.582	0.11
354.79	0.07
354.999	0.1
355.208	0.05
355.416	0.13
355.625	0.04
355.834	0.07
356.042	0.12
356.251	0.03
356.46	0
356.668	0.1
356.877	0.16
357.085	0.1
357.294	-0.02
357.503	0.07
357.711	0.04
357.92	0.2
358.128	0.07
358.337	0.06
358.545	0.09
358.754	0.02
358.962	0.11
359.17	0.07
359.379	0.07
359.587	0.08
359.796	0.1
360.004	0.11
360.212	0.08
360.421	0.11
360.629	0.09
360.837	0.06
361.046	0.12
361.254	0.18
361.462	0.04
361.67	0.03
361.879	0.02
362.087	0.15
362.295	0.09
362.503	0.05
362.711	0.01
362.92	0.03
363.128	0.07
363.336	0.01
363.544	0.04
363.752	0.06
363.96	0.07
364.168	0.06
364.376	0.05
364.584	0.06
364.792	0.14
365	0.08
365.208	0.04
365.416	0.1
365.624	0.13
365.832	0.07
366.04	0.15
366.248	0.08
366.456	0.12
366.664	0.06
366.872	0.11
367.079	0.08
367.287	0.09
367.495	0.08
367.703	0.08
367.911	0.03
368.118	0.07
368.326	0.09
368.534	0.03
368.742	0.14
368.949	0.05
369.157	0.03
369.365	0.1
369.572	0.03
369.78	0.06
369.988	0.12
370.195	0.09
370.403	0.1
370.61	0.07
370.818	0.11
371.026	0.14
371.233	0.06
371.441	0.12
371.648	0.05
371.856	0.12
372.063	0.1
372.271	0.07
372.478	0.07
372.685	0.06
372.893	0.15
373.1	0.04
373.308	0.07
373.515	0.22
373.722	0.12
373.93	0.1
374.137	0.12
374.344	0.15
374.552	0.11
374.759	0.11
374.966	0.08
375.173	0.1
375.381	0.2
375.588	0.1
375.795	0.02
376.002	0.1
376.209	0.11
376.417	0.11
376.624	0.07
376.831	0.16
377.038	0.13
377.245	0.06
377.452	0.12
377.659	0.13
377.866	0.12
378.073	0.11
378.28	0.13
378.487	0.14
378.694	0.19
378.901	0.11
379.108	0.14
379.315	0.2
379.522	0.22
379.729	0.14
379.936	0.13
380.143	0.12
380.35	0.21
380.557	0.17
380.763	0.16
380.97	0.15
381.177	0.19
381.384	0.17
381.591	0.14
381.797	0.2
382.004	0.19
382.211	0.25
382.418	0.17
382.624	0.26
382.831	0.29
383.038	0.23
383.244	0.28
383.451	0.2
383.658	0.25
383.864	0.25
384.071	0.19
384.277	0.3
384.484	0.23
384.69	0.32
384.897	0.24
385.103	0.26
385.31	0.23
385.516	0.3
385.723	0.3
385.929	0.38
386.136	0.33
386.342	0.33
386.549	0.36
386.755	0.42
386.961	0.45
387.168	0.43
387.374	0.45
387.58	0.53
387.787	0.52
387.993	0.5
388.199	0.47
388.406	0.51
388.612	0.56
388.818	0.58
389.024	0.57
389.231	0.61
389.437	0.79
389.643	0.77
389.849	0.73
390.055	0.78
390.261	0.79
390.467	0.9
390.674	0.81
390.88	0.94
391.086	1.03
391.292	0.99
391.498	1.12
391.704	1.17
391.91	1.2
392.116	1.24
392.322	1.18
392.528	1.36
392.734	1.38
392.94	1.54
393.146	1.54
393.352	1.65
393.557	1.63
393.763	1.76
393.969	1.88
394.175	1.93
394.381	1.95
394.587	2.09
394.792	2.22
394.998	2.43
395.204	2.53
395.41	2.58
395.615	2.7
395.821	2.93
396.027	3.02
396.233	3.2
396.438	3.32
396.644	3.61
396.85	3.68
397.055	3.82
397.261	4.07
397.466	4.28
397.672	4.44
397.878	4.64
398.083	4.76
398.289	4.86
398.494	5.03
398.7	5.32
398.905	5.32
399.111	5.85
399.316	5.86
399.522	6.05
399.727	6.3
399.932	6.62
400.138	6.83
400.343	7.24
400.549	7.23
400.754	7.74
400.959	7.93
401.165	8.43
401.37	8.74
401.575	9.35
401.78	9.41
401.986	9.77
402.191	10.1
402.396	10.55
402.601	10.91
402.807	11.36
403.012	11.66
403.217	12.65
403.422	12.54
403.627	12.93
403.832	13.71
404.037	13.84
404.243	13.97
404.448	14.55
404.653	14.98
404.858	15.27
405.063	15.21
405.268	15.89
405.473	16.09
405.678	16.24
405.883	17.1
406.088	17.1
406.293	17.2
406.498	17.66
406.703	17.55
406.907	18.21
407.112	18.78
407.317	19.28
407.522	19.59
407.727	19.94
407.932	19.98
408.136	20.37
408.341	19.92
408.546	20.04
408.751	20.33
408.956	20.09
409.16	20.58
409.365	20.24
409.57	19.77
409.774	19.92
409.979	19.86
410.184	19.59
410.388	19.3
410.593	19.48
410.798	19.36
411.002	19.46
411.207	19.07
411.411	19.02
411.616	18.41
411.82	18.39
412.025	17.82
412.229	17.79
412.434	17.13
412.638	16.8
412.843	16.38
413.047	16.13
413.252	15.63
413.456	15.67
413.66	15.04
413.865	14.69
414.069	14.06
414.273	14.07
414.478	13.6
414.682	13.14
414.886	12.95
415.091	12.43
415.295	12.27
415.499	12.21
415.703	11.4
415.908	11.36
416.112	11
416.316	10.93
416.52	10.56
416.724	10.2
416.929	9.95
417.133	9.93
417.337	9.51
417.541	9.38
417.745	9.1
417.949	8.88
418.153	8.81
418.357	8.58
418.561	8.6
418.765	8.24
418.969	8.1
419.173	8.11
419.377	7.67
419.581	7.74
419.785	7.59
419.989	7.28
420.193	7.29
420.397	7.06
420.601	6.97
420.804	6.86
421.008	6.58
421.212	6.5
421.416	6.11
421.62	6.05
421.823	5.8
422.027	5.69
422.231	5.41
422.435	5.24
422.638	5.02
422.842	4.93
423.046	4.83
423.249	4.75
423.453	4.52
423.657	4.44
423.86	4.34
424.064	4.36
424.268	4.27
424.471	4.03
424.675	4.08
424.878	3.93
425.082	3.81
425.285	3.94
425.489	3.51
425.692	3.55
425.896	3.35
426.099	3.34
426.303	3.27
426.506	3.18
426.71	3.16
426.913	3.2
427.116	3.11
427.32	2.93
427.523	2.83
427.726	2.9
427.93	2.67
428.133	2.79
428.336	2.7
428.54	2.66
428.743	2.66
428.946	2.62
429.149	2.46
429.353	2.47
429.556	2.37
429.759	2.31
429.962	2.14
430.165	2.13
430.368	2
430.571	1.89
430.775	1.99
430.978	1.87
431.181	1.83
431.384	1.74
431.587	1.72
431.79	1.76
431.993	1.67
432.196	1.73
432.399	1.72
432.602	1.78
432.805	1.58
433.008	1.68
433.211	1.54
433.414	1.66
433.616	1.66
433.819	1.56
434.022	1.39
434.225	1.56
434.428	1.5
434.631	1.6
434.833	1.43
435.036	1.4
435.239	1.44
435.442	1.31
435.645	1.3
435.847	1.3
436.05	1.31
436.253	1.25
436.455	1.24
436.658	1.22
436.861	1.23
437.063	1.17
437.266	1.09
437.468	1.18
437.671	1.26
437.874	1.16
438.076	1.01
438.279	1.01
438.481	1.03
438.684	1.05
438.886	1.02
439.089	0.94
439.291	1.01
439.494	1.01
439.696	0.89
439.899	0.93
440.101	0.91
440.303	0.88
440.506	0.93
440.708	0.89
440.91	0.9
441.113	0.86
441.315	0.85
441.517	0.79
441.72	0.9
441.922	0.75
442.124	0.76
442.326	0.72
442.529	0.79
442.731	0.69
442.933	0.82
443.135	0.71
443.337	0.69
443.539	0.67
443.742	0.65
443.944	0.69
444.146	0.62
444.348	0.63
444.55	0.57
444.752	0.63
444.954	0.53
445.156	0.59
445.358	0.54
445.56	0.67
445.762	0.57
445.964	0.56
446.166	0.55
446.368	0.53
446.57	0.57
446.772	0.54
446.974	0.5
447.175	0.53
447.377	0.43
447.579	0.51
447.781	0.42
447.983	0.53
448.184	0.49
448.386	0.51
448.588	0.38
448.79	0.46
448.991	0.45
449.193	0.45
449.395	0.39
449.597	0.48
449.798	0.43
450	0.4
450.202	0.37
450.403	0.37
450.605	0.42
450.806	0.38
451.008	0.3
451.21	0.39
451.411	0.37
451.613	0.33
451.814	0.37
452.016	0.41
452.217	0.32
452.419	0.44
452.62	0.39
452.821	0.38
453.023	0.41
453.224	0.39
453.426	0.29
453.627	0.34
453.828	0.37
454.03	0.33
454.231	0.37
454.432	0.32
454.634	0.41
454.835	0.23
455.036	0.28
455.238	0.42
455.439	0.47
455.64	0.27
455.841	0.25
456.042	0.33
456.244	0.35
456.445	0.27
456.646	0.28
456.847	0.32
457.048	0.37
457.249	0.4
457.45	0.57
457.651	0.22
457.852	0.35
458.054	0.31
458.255	0.31
458.456	0.39
458.657	0.35
458.858	0.27
459.058	0.31
459.259	0.36
459.46	0.34
459.661	0.25
459.862	0.44
460.063	0.35
460.264	0.39
460.465	0.25
460.666	0.46
460.866	0.29
461.067	0.3
461.268	0.27
461.469	0.29
461.67	0.34
461.87	0.27
462.071	0.28
462.272	0.27
462.473	0.3
462.673	0.35
462.874	0.29
463.075	0.28
463.275	0.27
463.476	0.35
463.676	0.32
463.877	0.29
464.078	0.28
464.278	0.36
464.479	0.32
464.679	0.31
464.88	0.27
465.08	0.38
465.281	0.27
465.481	0.28
465.682	0.27
465.882	0.33
466.083	0.28
466.283	0.24
466.483	0.25
466.684	0.18
466.884	0.23
467.085	0.25
467.285	0.34
467.485	0.25
467.686	0.28
467.886	0.24
468.086	0.26
468.286	0.28
468.487	0.3
468.687	0.2
468.887	0.25
469.087	0.29
469.287	0.26
469.488	0.21
469.688	0.27
469.888	0.28
470.088	0.26
470.288	0.26
470.488	0.29
470.688	0.2
470.888	0.25
471.088	0.2
471.288	0.25
471.488	0.26
471.688	0.26
471.888	0.19
472.088	0.29
472.288	0.28
472.488	0.22
472.688	0.19
472.888	0.24
473.088	0.22
473.288	0.2
473.488	0.21
473.688	0.31
473.887	0.2
474.087	0.19
474.287	0.2
474.487	0.18
474.687	0.26
474.886	0.19
475.086	0.17
475.286	0.2
475.486	0.24
475.685	0.19
475.885	0.18
476.085	0.18
476.284	0.2
476.484	0.18
476.684	0.21
476.883	0.23
477.083	0.18
477.282	0.16
477.482	0.23
477.681	0.21
477.881	0.18
478.08	0.15
478.28	0.13
478.479	0.21
478.679	0.25
478.878	0.17
479.078	0.14
479.277	0.16
479.477	0.18
479.676	0.19
479.875	0.15
480.075	0.1
480.274	0.15
480.473	0.18
480.673	0.13
480.872	0.18
481.071	0.14
481.271	0.17
481.47	0.1
481.669	0.15
481.868	0.11
482.067	0.11
482.267	0.11
482.466	0.09
482.665	0.1
482.864	0.09
483.063	0.1
483.262	0.17
483.461	0.16
483.661	0.16
483.86	0.15
484.059	0.14
484.258	0.16
484.457	0.13
484.656	0.12
484.855	0.17
485.054	0.1
485.253	0.1
485.452	0.07
485.651	0.14
485.849	0.1
486.048	0.08
486.247	0.09
486.446	0.13
486.645	0.06
486.844	0.13
487.043	0.09
487.241	0.12
487.44	0.07
487.639	0.12
487.838	0.15
488.037	0.12
488.235	0.17
488.434	0.12
488.633	0.08
488.831	0.16
489.03	0.15
489.229	0.13
489.427	0.1
489.626	0.16
489.825	0.17
490.023	0.1
490.222	0.08
490.42	0.12
490.619	0.14
490.817	0.12
491.016	0.08
491.214	0.12
491.413	0.1
491.611	0.09
491.81	0.08
492.008	0.1
492.207	0.13
492.405	0.12
492.604	0.04
492.802	0.09
493	0.09
493.199	0.08
493.397	0.1
493.595	0.07
493.794	0.08
493.992	0.15
494.19	0.11
494.388	0.1
494.587	0.08
494.785	0.07
494.983	0.06
495.181	0.09
495.379	0.1
495.578	0.09
495.776	0.1
495.974	0.09
496.172	0.1
496.37	0.09
496.568	0.09
496.766	0.06
496.964	0.13
497.162	0.1
497.36	0.06
497.558	0.09
497.756	0.11
497.954	0.1
498.152	0.08
498.35	0.09
498.548	0.09
498.746	0.07
498.944	0.06
499.142	0.07
499.34	0.06
499.538	0.1
499.736	0.08
499.933	0.13
500.131	0.12
500.329	0.1
500.527	0.11
500.725	0.12
500.922	0.11
501.12	0.09
501.318	0.1
501.516	0.08
501.713	0.09
501.911	0.07
502.109	0.06
502.306	0.08
502.504	0.06
502.701	0.06
502.899	0.08
503.097	0.14
503.294	0.08
503.492	0.08
503.689	0.09
503.887	0.09
504.084	0.16
504.282	0.1
504.479	0.05
504.677	0.08
504.874	0.05
505.072	0.07
505.269	0.06
505.466	0.09
505.664	0.09
505.861	0.03
506.059	0.04
506.256	0.11
506.453	0.07
506.651	0.13
506.848	0.09
507.045	0.08
507.242	0.08
507.44	0.06
507.637	0.06
507.834	0.06
508.031	0.08
508.229	0.05
508.426	0.07
508.623	0.09
508.82	0.05
509.017	0.06
509.214	0.06
509.411	0.07
509.608	0.05
509.805	0.07
510.003	0.05
510.2	0.05
510.397	0.1
510.594	0.06
510.791	0.06
510.988	0.05
511.184	0.1
511.381	0.06
511.578	0.04
511.775	0.1
511.972	0.05
512.169	0.05
512.366	0.05
512.563	0.1
512.76	0.05
512.956	0.07
513.153	0.05
513.35	0.08
513.547	0.04
513.744	0.04
513.94	0.03
514.137	0.06
514.334	0.07
514.53	0.05
514.727	0.06
514.924	0.1
515.12	0.04
515.317	0.03
515.514	0.04
515.71	0.03
515.907	0.04
516.103	0.05
516.3	0.08
516.497	0.08
516.693	0.09
516.89	0.05
517.086	0.03
517.283	0.07
517.479	0.07
517.676	0.03
517.872	0.05
518.068	0.03
518.265	0.04
518.461	0.04
518.658	0.02
518.854	0.06
519.05	0.04
519.247	0.02
519.443	0.07
519.639	0.07
519.836	0.05
520.032	0.04
520.228	0.06
520.424	0.09
520.621	0.07
520.817	0.05
521.013	0.03
521.209	0.07
521.405	0.08
521.601	0.04
521.798	0.04
521.994	0.09
522.19	0.03
522.386	0.01
522.582	0.03
522.778	0.05
522.974	0.03
523.17	0.03
523.366	0.06
523.562	0.08
523.758	0.05
523.954	0.02
524.15	0.03
524.346	0.07
524.542	0.03
524.738	0.02
524.934	0.02
525.129	0.04
525.325	0.06
525.521	0.03
525.717	0.06
525.913	0.03
526.109	0.04
526.304	0.03
526.5	0.05
526.696	0.07
526.892	0.02
527.087	0.03
527.283	0.02
527.479	0.06
527.674	0.04
527.87	0.05
528.066	0.04
528.261	0.06
528.457	0.06
528.653	0.03
528.848	0.02
529.044	0.04
529.239	0.03
529.435	0.07
529.63	0.05
529.826	0.1
530.021	0.04
530.217	0.06
530.412	0.03
530.608	0.01
530.803	0.04
530.999	0.03
531.194	0
531.389	0.03
531.585	-0.01
531.78	0.04
531.975	0.04
532.171	0.07
532.366	0.04
532.561	0.03
532.757	0.02
532.952	0.02
533.147	0.05
533.342	0.05
533.538	0.02
533.733	0.06
533.928	0.04
534.123	0.04
534.318	0.01
534.513	0.03
534.709	0.04
534.904	0.04
535.099	0.01
535.294	0.05
535.489	0.04
535.684	0.02
535.879	0.01
536.074	0.06
536.269	0.01
536.464	0.04
536.659	0.02
536.854	0.03
537.049	0.04
537.244	0.04
537.439	0.01
537.634	0.06
537.828	0.04
538.023	0.04
538.218	-0
538.413	0.04
538.608	0
538.803	0.05
538.997	0
539.192	0.07
539.387	0.04
539.582	0.05
539.776	0.04
539.971	0.03
540.166	0.01
540.36	0.01
540.555	0.05
540.75	0.02
540.944	0.03
541.139	-0.01
541.334	0.03
541.528	0.06
541.723	0.06
541.917	0.02
542.112	-0.01
542.306	0.03
542.501	0.03
542.695	0.07
542.89	0.01
543.084	0.03
543.279	0.01
543.473	0.02
543.668	0.02
543.862	0.04
544.056	0.06
544.251	0.03
544.445	0.04
544.64	0.01
544.834	0.02
545.028	0.04
545.222	0.04
545.417	0.05
545.611	0.04
545.805	0.04
546	0.01
546.194	0.02
546.388	0.04
546.582	0.05
546.776	0.03
546.97	0.05
547.165	0.05
547.359	0.04
547.553	0.01
547.747	0.03
547.941	0.04
548.135	0.02
548.329	0.04
548.523	0.03
548.717	0.02
548.911	0.01
549.105	0.03
549.299	0.04
549.493	0.04
549.687	0.03
549.881	0.06
550.075	0.01
550.269	0.02
550.463	0.05
550.657	-0
550.85	0.02
551.044	0.01
551.238	0.06
551.432	0.02
551.626	-0.01
551.82	0.02
552.013	0.02
552.207	0.04
552.401	0.05
552.594	0.06
552.788	0.01
552.982	0.02
553.176	0.01
553.369	0.02
553.563	0.06
553.756	-0.01
553.95	0.01
554.144	0.02
554.337	0.06
554.531	0.04
554.724	0.05
554.918	0.02
555.111	0.04
555.305	0
555.498	0.07
555.692	0.05
555.885	0.03
556.079	0.05
556.272	-0.02
556.466	0.03
556.659	0.04
556.852	0.03
557.046	0.02
557.239	0.03
557.432	-0.01
557.626	0.02
557.819	0.03
558.012	0.05
558.206	0.05
558.399	0.03
558.592	0.04
558.785	0.03
558.979	0.04
559.172	0.05
559.365	0.02
559.558	0.02
559.751	0.03
559.944	-0
560.138	0.02
560.331	0.02
560.524	0.02
560.717	-0
560.91	0.01
561.103	0.06
561.296	0.04
561.489	0.04
561.682	0.01
561.875	0.07
562.068	0.06
562.261	0.04
562.454	0.07
562.647	0.05
562.84	0.03
563.032	0.03
563.225	0.05
563.418	-0.01
563.611	0.02
563.804	0.04
563.997	-0.01
564.19	-0.01
564.382	0.04
564.575	0.01
564.768	0.03
564.961	0.01
565.153	-0.01
565.346	0.04
565.539	0.06
565.731	0.03
565.924	0.04
566.117	0.05
566.309	0.02
566.502	0
566.695	0.03
566.887	0.05
567.08	0.01
567.272	0.03
567.465	-0.01
567.657	0.03
567.85	0.03
568.042	0.04
568.235	0.06
568.427	0.01
568.62	0.03
568.812	0.03
569.005	0.03
569.197	-0.01
569.389	0.04
569.582	0.04
569.774	0.05
569.966	-0.01
570.159	0
570.351	0.05
570.543	0
570.736	0.03
570.928	-0.01
571.12	0.03
571.312	0.01
571.505	-0.01
571.697	0.05
571.889	-0.01
572.081	0.01
572.273	-0
572.465	0.06
572.658	0.01
572.85	0.02
573.042	0.02
573.234	0.01
573.426	0.05
573.618	-0
573.81	0.04
574.002	0.03
574.194	0.06
574.386	-0.01
574.578	-0.04
574.77	-0.01
574.962	0.03
575.154	-0.02
575.346	0.01
575.538	0.02
575.729	-0.02
575.921	-0.01
576.113	-0.01
576.305	0.05
576.497	0.01
576.689	0.01
576.88	-0
577.072	0.04
577.264	0.02
577.456	-0
577.647	-0.04
577.839	-0
578.031	0.08
578.223	-0
578.414	-0.02
578.606	0.05
578.798	0.03
578.989	0
579.181	0.04
579.372	0
579.564	0.01
579.755	-0
579.947	0.03
580.139	0.05
580.33	-0.04
580.522	-0
580.713	-0.06
580.905	0
581.096	0.04
581.287	0.02
581.479	0
581.67	0.02
581.862	0
582.053	0.01
582.244	-0.03
582.436	0.01
582.627	0.02
582.818	0
583.01	-0.03
583.201	0.03
583.392	0.04
583.583	0.03
583.775	-0.01
583.966	-0.01
584.157	-0.01
584.348	-0.02
584.54	-0.04
584.731	0.02
584.922	0.01
585.113	-0.01
585.304	0.05
585.495	0.04
585.686	0.04
585.877	0.01
586.068	0.04
586.259	0.07
586.45	0.02
586.641	-0.01
586.832	-0.04
587.023	0.02
587.214	0.01
587.405	0.04
587.596	-0.02
587.787	0.06
587.978	0.03
588.169	-0.01
588.36	-0.01
588.551	0.02
588.742	-0
588.932	0.01
589.123	0.04
589.314	0.05
589.505	0.02
589.696	0.02
589.886	-0.01
590.077	-0.03
590.268	0.02
590.458	0
590.649	-0.05
590.84	0.04
591.03	0.01
591.221	-0.05
591.412	-0.04
591.602	0.04
591.793	0.04
591.984	-0.02
592.174	-0.02
592.365	0.08
592.555	-0.02
592.746	0.03
592.936	0.02
593.127	0.04
593.317	0.06
593.508	-0
593.698	-0
593.889	0.01
594.079	0.05
594.269	0.02
594.46	0
594.65	0.04
594.84	-0
595.031	-0.01
595.221	-0
595.411	-0.03
595.602	0.05
595.792	-0.01
595.982	0
596.172	0.06
596.363	0.03
596.553	0.02
596.743	0.03
596.933	-0.01
597.123	0.03
597.314	0.02
597.504	0.02
597.694	0.06
597.884	0.04
598.074	-0.01
598.264	-0.04
598.454	0.04
598.644	0.01
598.834	0.03
599.024	-0.07
599.214	0
599.404	0.05
599.594	-0
599.784	-0.01
599.974	0.04
600.164	0.07
600.354	-0.01
600.544	-0.03
600.734	0.02
600.924	0.02
601.114	-0.01
601.303	0
601.493	0.01
601.683	0.02
601.873	0.02
602.063	-0.05
602.252	0.07
602.442	-0.06
602.632	-0.03
602.821	-0.01
603.011	0.02
603.201	0.01
603.39	0
603.58	-0.01
603.77	0.02
603.959	0.04
604.149	0.02
604.339	0.02
604.528	0.02
604.718	0.02
604.907	0.01
605.097	0.03
605.286	-0.02
605.476	0.03
605.665	0.04
605.855	-0.01
606.044	0.09
606.234	0.03
606.423	0.02
606.612	-0.02
606.802	0.03
606.991	0.02
607.181	0
607.37	-0.02
607.559	0.01
607.749	-0.03
607.938	0.02
608.127	-0.02
608.316	-0.03
608.506	0.03
608.695	0.02
608.884	-0.05
609.073	0.01
609.263	0.02
609.452	0.05
609.641	0.03
609.83	-0.01
610.019	0.01
610.208	0.01
610.397	-0
610.586	0.05
610.775	-0.04
610.965	-0.01
611.154	-0.01
611.343	0.04
611.532	0.01
611.721	-0.03
611.91	0.01
612.099	0.02
612.287	-0.01
612.476	-0.04
612.665	0.02
612.854	-0.01
613.043	0.06
613.232	-0.01
613.421	-0.05
613.61	0.02
613.798	-0.01
613.987	0.02
614.176	0
614.365	0.06
614.554	0.03
614.742	0.02
614.931	0.01
615.12	0.05
615.309	0
615.497	-0
615.686	-0.01
615.875	0.01
616.063	0.05
616.252	0.01
616.44	0.01
616.629	0.02
616.818	0.07
617.006	0
617.195	-0.02
617.383	0.06
617.572	0.02
617.76	-0.01
617.949	-0.01
618.137	0.03
618.326	0.06
618.514	0.01
618.703	-0
618.891	0.06
619.079	-0.05
619.268	0.04
619.456	-0.02
619.644	0.05
619.833	-0.01
620.021	0.01
620.209	-0.04
620.398	0.02
620.586	0.01
620.774	0.04
620.962	-0.01
621.151	0.05
621.339	0.01
621.527	-0.04
621.715	-0.02
621.903	-0.03
622.092	-0.01
622.28	-0.04
622.468	0
622.656	0.01
622.844	0.06
623.032	-0.02
623.22	-0.05
623.408	0.06
623.596	0.01
623.784	0.02
623.972	-0.04
624.16	-0.03
624.348	0.08
624.536	-0.01
624.724	-0.03
624.912	0.04
625.1	0.05
625.288	-0
625.476	-0.01
625.664	0.05
625.851	0.01
626.039	0.04
626.227	0.02
626.415	0.02
626.603	-0.03
626.79	-0
626.978	0.04
627.166	0.04
627.354	0.03
627.541	-0.04
627.729	-0.04
627.917	0.04
628.104	0.06
628.292	0.01
628.48	0.01
628.667	0.05
628.855	0.03
629.042	0.05
629.23	-0.01
629.418	0.01
629.605	-0
629.793	0
629.98	-0.01
630.168	0.01
630.355	0.01
630.543	0.02
630.73	-0.02
630.917	0.03
631.105	0.07
631.292	0.03
631.48	0.01
631.667	0.09
631.854	0.04
632.042	0.01
632.229	-0.03
632.416	0.04
632.604	-0.02
632.791	-0.02
632.978	0.04
633.165	0.01
633.353	0.08
633.54	0.04
633.727	-0.06
633.914	-0.05
634.101	-0.07
634.289	0.05
634.476	-0.01
634.663	-0.02
634.85	0
635.037	-0.04
635.224	-0.05
635.411	0.05
635.598	0.05
635.785	-0.01
635.972	0
636.159	0.05
636.346	-0.01
636.533	0
636.72	-0.01
636.907	-0.01
637.094	0.03
637.281	-0.02
637.468	0.02
637.655	0.01
637.842	0.03
638.029	-0.04
638.215	0.03
638.402	-0.01
638.589	-0.03
638.776	-0.02
638.963	-0.03
639.149	0.01
639.336	0.1
639.523	-0.02
639.709	0.04
639.896	0
640.083	0.07
640.27	0.02
640.456	-0.02
640.643	0.02
640.829	-0.04
641.016	-0
641.203	-0.04
641.389	0.06
641.576	0.05
641.762	-0
641.949	-0.02
642.135	0.03
642.322	0.03
642.508	-0.06
642.695	-0.01
642.881	-0.01
643.068	-0.01
643.254	-0.02
643.441	0.04
643.627	-0.02
643.813	-0.01
644	0.06
644.186	-0.01
644.372	0.03
644.559	0.04
644.745	0.01
644.931	-0.03
645.118	0.02
645.304	-0.01
645.49	-0.01
645.676	-0.01
645.862	0
646.049	0.05
646.235	-0
646.421	0.04
646.607	0.1
646.793	-0.03
646.979	-0.05
647.165	0
647.352	0.03
647.538	0.04
647.724	0.02
647.91	0.02
648.096	0.06
648.282	0.03
648.468	-0.02
648.654	0.03
648.84	-0
649.026	0.03
649.212	0.01
649.397	-0.03
649.583	-0.03
649.769	0
649.955	0.01
650.141	0.04
650.327	0.07
650.513	0.01
650.698	0.02
650.884	-0.05
651.07	0.04
651.256	0.04
651.442	0
651.627	0.02
651.813	-0.01
651.999	-0
652.184	0.01
652.37	-0.01
652.556	0.01
652.741	0.07
652.927	-0.07
653.113	0.01
653.298	0
653.484	-0.01
653.669	-0.05
653.855	-0.03
654.04	0.01
654.226	0.03
654.412	-0.01
654.597	-0.02
654.782	0.03
654.968	0.03
655.153	0.02
655.339	-0.02
655.524	-0.04
655.71	0.02
655.895	-0.04
656.08	-0.04
656.266	0.07
656.451	0.04
656.636	-0
656.822	-0
657.007	-0.03
657.192	-0.01
657.378	-0.04
657.563	0.02
657.748	0.01
657.933	0.02
658.118	-0.02
658.304	-0.01
658.489	0.03
658.674	0.05
658.859	-0.05
659.044	0.02
659.229	0.03
659.414	-0.03
659.599	0.01
659.785	-0.04
659.97	-0.01
660.155	0.03
660.34	0.01
660.525	0.01
660.71	-0.01
660.895	0.05
661.08	-0.02
661.264	-0.03
661.449	0.07
661.634	0.08
661.819	0.04
662.004	0.01
662.189	-0.08
662.374	0.01
662.559	-0.04
662.743	-0.02
662.928	0.03
663.113	-0.06
663.298	-0.05
663.483	0
663.667	0
663.852	-0.05
664.037	0.03
664.221	-0.05
664.406	0.04
664.591	-0.02
664.775	0.02
664.96	-0.02
665.145	0.01
665.329	0.04
665.514	-0.04
665.698	-0.02
665.883	-0.06
666.068	0.08
666.252	-0.02
666.437	-0.06
666.621	0
666.806	0.05
666.99	-0.01
667.174	-0.07
667.359	0.08
667.543	-0.01
667.728	-0.02
667.912	-0.08
668.096	0.02
668.281	-0.02
668.465	-0.02
668.649	0.03
668.834	0.02
669.018	0.01
669.202	-0.04
669.387	-0.06
669.571	0.04
669.755	-0.02
669.939	-0
670.124	0.02
670.308	0.05
670.492	0.04
670.676	-0.01
670.86	-0.01
671.044	-0.02
671.228	0.04
671.413	-0.02
671.597	-0.02
671.781	-0.01
671.965	0.04
672.149	-0.02
672.333	-0
672.517	-0.06
672.701	0.01
672.885	0
673.069	-0.07
673.253	0.08
673.437	0.01
673.621	-0.04
673.804	0.01
673.988	-0.01
674.172	-0.01
674.356	-0.1
674.54	0
674.724	0.13
674.908	-0.02
675.091	0.05
675.275	-0
675.459	0.03
675.643	0.04
675.826	0
676.01	0.03
676.194	0.02
676.377	0.04
676.561	-0.02
676.745	-0.01
676.928	0.03
677.112	0
677.296	-0.05
677.479	-0.02
677.663	-0.04
677.846	0.04
678.03	-0.02
678.213	-0
678.397	0.02
678.58	-0.01
678.764	-0.03
678.947	-0.06
679.131	-0.04
679.314	-0.01
679.498	-0.02
679.681	-0.03
679.865	0.04
680.048	0
680.231	-0.01
680.415	-0.02
680.598	-0.01
680.781	-0.05
680.965	0
681.148	0
681.331	0.01
681.514	-0.01
681.698	-0.02
681.881	-0.01
682.064	0.01
682.247	0.01
682.43	-0.06
682.614	-0.01
682.797	0.07
682.98	-0
683.163	-0.05
683.346	0.01
683.529	0.01
683.712	-0.04
683.895	-0.01
684.078	-0.08
684.261	-0.03
684.444	-0.03
684.627	0.01
684.81	-0.01
684.993	0.03
685.176	0.04
685.359	-0.01
685.542	-0.05
685.725	0.06
685.908	-0.03
686.091	-0.01
686.274	0.05
686.457	0.03
686.639	0.01
686.822	-0
687.005	-0.01
687.188	0.05
687.371	0.05
687.553	-0.03
687.736	-0.02
687.919	0.1
688.102	0.08
688.284	-0.03
688.467	0
688.65	0.02
688.832	-0.05
689.015	-0.04
689.197	-0.07
689.38	0.11
689.563	0.13
689.745	-0.05
689.928	-0.08
690.11	0.03
690.293	0.02
690.475	-0.06
690.658	-0.02
690.84	-0.01
691.023	-0
691.205	-0.05
691.388	-0.02
691.57	0.05
691.752	0.05
691.935	-0.06
692.117	-0.06
692.3	0.01
692.482	0.05
692.664	-0
692.847	0.04
693.029	0.03
693.211	0.02
693.393	-0.05
693.576	-0.03
693.758	-0.03
693.94	-0.02
694.122	-0.02
694.304	-0.07
694.487	0.01
694.669	0.07
694.851	-0.02
695.033	-0.04
695.215	-0
695.397	-0.08
695.579	0.02
695.761	-0.05
695.943	-0.08
696.125	0.08
696.308	0.02
696.49	-0.09
696.671	0.15
696.853	-0.01
697.035	0.11
697.217	-0.03
697.399	0.04
697.581	0.03
697.763	-0
697.945	0.01
698.127	0
698.309	0.07
698.491	-0.01
698.672	0.05
698.854	0.04
699.036	0.07
699.218	-0
699.399	0.04
699.581	0.07
699.763	0.06
699.945	-0.04
700.126	-0.03
700.308	0.03
700.49	-0.02
700.671	-0.06
700.853	-0.01
701.035	0.05
701.216	-0.06
701.398	-0.02
701.579	0.05
701.761	0.07
701.943	-0.04
702.124	-0.08
702.306	-0
702.487	0.1
702.669	0.03
702.85	-0.02
703.031	-0.04
703.213	0.14
703.394	0.04
703.576	-0.02
703.757	0.08
703.938	0.02
704.12	0.16
704.301	-0.02
704.483	-0.02
704.664	0.04
704.845	0.08
705.026	0.03
705.208	-0.09
705.389	-0.02
705.57	0.02
705.751	-0.06
705.933	0.03
706.114	0.06
706.295	-0.02
706.476	-0.09
706.657	0.1
706.838	0.02
707.02	0.06
707.201	-0.04
707.382	-0.03
707.563	0.04
707.744	-0.06
707.925	-0.07
708.106	-0.06
708.287	0.07
708.468	0.12
708.649	0.02
708.83	0.02
709.011	-0.08
709.192	0.02
709.373	-0.06
709.554	0.01
709.734	0.03
709.915	0.08
710.096	0.03
710.277	-0.09
710.458	-0.02
710.639	0.08
710.819	-0.14
711	0.01
711.181	0.04
711.362	0.06
711.542	0.03
711.723	0.03
711.904	0.06
712.085	0.07
712.265	0.03
712.446	-0.07
712.627	-0.02
712.807	-0.04
712.988	-0.07
713.168	-0.07
713.349	0.03
713.53	-0.14
713.71	-0.06
713.891	-0.05
714.071	-0.04
714.252	-0.05
714.432	0.04
714.613	-0.08
714.793	-0.03
714.974	0.04
715.154	0.05
715.334	-0
715.515	0.07
715.695	-0.06
715.876	0.02
716.056	-0.07
716.236	-0.01
716.417	0
716.597	-0.07
716.777	0.22
716.957	-0.01
717.138	-0.02
717.318	0.03
717.498	-0.11
717.678	0.07
717.859	0.01
718.039	-0.07
718.219	0.05
718.399	0.06
718.579	-0.03
718.759	-0.06
718.939	0.06
719.12	-0.01
719.3	0.04
719.48	-0.1
719.66	-0.08
719.84	0.08
720.02	0.06
720.2	-0.02
720.38	0.02
720.56	0.1
720.74	-0.08
720.92	0.01
721.1	0.1
721.279	0.06
721.459	0.01
721.639	-0
721.819	0
721.999	0.01
722.179	0.02
722.359	-0.09
722.538	-0.03
722.718	0.01
722.898	-0.04
723.078	-0.05
723.257	-0.08
723.437	0.08
723.617	0.01
723.797	0.04
723.976	-0.04
724.156	0.04
724.336	0.15
724.515	0.15
724.695	-0.16
724.874	-0.09
725.054	0.07
725.234	-0.02
725.413	0.03
725.593	-0.08
725.772	0.02
725.952	-0
726.131	0
726.311	0
726.49	0.02
726.67	-0.06
726.849	-0.06
727.028	0.11
727.208	-0.02
727.387	-0.01
727.567	-0.07
727.746	0.01
727.925	-0.06
728.105	-0.05
728.284	-0.01
728.463	-0.1
728.643	0.07
728.822	-0.1
729.001	-0.07
729.18	-0.02
729.359	0.02
729.539	-0.05
729.718	0.04
729.897	-0.01
730.076	0.03
730.255	-0.03
730.434	0.03
730.614	0.1
730.793	0.07
730.972	-0.01
731.151	-0.04
731.33	0.05
731.509	0.04
731.688	-0.01
731.867	-0.02
732.046	-0.07
732.225	0.13
732.404	-0.14
732.583	-0.13
732.762	0.03
732.941	0.02
733.12	0.04
733.298	-0.08
733.477	0.14
733.656	0
733.835	-0.18
734.014	0.07
734.193	0
734.371	-0.02
734.55	0.03
734.729	-0.18
734.908	0.05
735.086	0.02
735.265	0.05
735.444	-0.12
735.623	-0.07
735.801	-0.11
735.98	0.07
736.159	-0.07
736.337	0.1
736.516	-0.03
736.694	0.02
736.873	-0.03
737.052	0.15
737.23	0.13
737.409	-0.14
737.587	0.2
737.766	-0.27
737.944	-0.11
738.123	0.06
738.301	0.09
738.479	-0.05
738.658	0.01
738.836	-0.22
739.015	0.02
739.193	0.15
739.371	-0.11
739.55	-0.04
739.728	-0.19
739.906	0.08
740.085	0.12
740.263	0.02
740.441	-0.22
740.62	0.23
740.798	0.01
740.976	-0.04
741.154	-0.14
741.332	0.08
741.511	-0.05
741.689	-0.05
741.867	0.1
742.045	0.03
742.223	-0.06
742.401	-0.12
742.579	-0.07
742.757	0.08
742.935	-0.17
743.114	-0.09
743.292	-0.02
743.47	-0
743.648	-0.03
743.826	-0.08
744.004	0.01
744.181	0.08
744.359	-0.04
744.537	0.08
744.715	-0.02
744.893	0.01
745.071	-0.07
745.249	-0.06
745.427	0.02
745.605	0.05
745.782	0.04
745.96	0
746.138	0.03
746.316	-0
746.493	-0.15
746.671	-0.08
746.849	-0.02
747.027	0.12
747.204	-0.21
747.382	-0.02
747.56	-0.14
747.737	0.05
747.915	-0.04
748.093	0.04
748.27	-0.01
748.448	-0.03
748.625	-0.18
748.803	-0.11
748.98	-0.02
749.158	0.14
749.335	0.06
749.513	0.07
749.69	-0.04
749.868	-0.05
750.045	0.05
750.223	-0.08
750.4	-0.25
750.578	0.2
750.755	0.04
750.932	-0.12
751.11	0.1
751.287	-0.23
751.464	0.04
751.642	-0.16
751.819	0.07
751.996	0.17
752.173	-0.09
752.351	-0.11
752.528	0.11
752.705	-0.04
752.882	-0.06
753.06	0
753.237	0.07
753.414	0.24
753.591	0.2
753.768	0.01
753.945	-0.14
754.122	-0.08
754.299	0.05
754.476	-0.13
754.654	0
754.831	0.05
755.008	0.12
755.185	-0.02
755.362	-0.07
755.539	-0.03
755.716	-0.02
755.892	-0.08
756.069	0.04
756.246	0.01
756.423	0.02
756.6	0.14
756.777	0.07
756.954	0.06
757.131	-0.16
757.307	-0.13
757.484	-0.12
757.661	-0.01
757.838	0.04
758.015	-0.14
758.191	0.05
758.368	0.01
758.545	0.19
758.721	0.14
758.898	-0.08
759.075	0.03
759.251	0.16
759.428	0.07
759.605	-0.14
759.781	0.09
759.958	0.06
760.134	-0.08
760.311	-0.08
760.488	0.14
760.664	0.07
760.841	0.15
761.017	-0.22
761.194	0
761.37	0.11
761.547	-0.05
761.723	0.06
761.899	0.01
762.076	0.01
762.252	-0.17
762.429	-0.13
762.605	0.02
762.781	-0.04
762.958	0.01
763.134	-0.03
763.31	-0.07
763.486	0.19
763.663	-0.25
763.839	-0.05
764.015	-0.23
764.191	-0.07
764.368	0.04
764.544	-0.1
764.72	-0.02
764.896	-0.02
765.072	-0.01
765.248	-0.11
765.425	0.08
765.601	0.02
765.777	0.13
765.953	-0.23
766.129	-0.04
766.305	-0.13
766.481	0.04
766.657	0.04
766.833	0.06
767.009	-0.03
767.185	-0.06
767.361	0.03
767.537	-0.16
767.713	0.1
767.889	-0.03
768.065	0.03
768.24	0.08
768.416	0.04
768.592	-0.16
768.768	-0.03
768.944	0.03
769.12	-0.09
769.295	-0.03
769.471	-0.07
769.647	-0.01
769.823	0.18
769.998	-0.12
770.174	-0.14
770.35	0.34
770.525	0.26
770.701	0.07
770.877	-0.03
771.052	-0.12
771.228	0.07
771.403	0.1
771.579	-0.01
771.755	0.31
771.93	-0.12
772.106	-0.11
772.281	-0.19
772.457	-0.03
772.632	0.13
772.808	-0.1
772.983	-0.06
773.159	-0.08
773.334	0.23
773.509	0
773.685	-0.21
773.86	0.43
774.036	0.33
774.211	0.03
774.386	-0.05
774.562	-0.01
774.737	0.07
774.912	-0.13
775.087	0.05
775.263	0.04
775.438	0.03
775.613	-0.09
775.788	-0.05
775.964	0.14
776.139	0.48
776.314	-0.17
776.489	0.03
776.664	0.01
776.839	-0.06
777.014	0.07
777.19	-0.01
777.365	0.13
777.54	0.28
777.715	-0.05
777.89	0.07
778.065	-0.2
778.24	-0.07
778.415	0.1
778.59	-0.12
778.765	-0.05
778.94	0.11
779.115	-0.06
779.289	-0.03
779.464	-0.06
779.639	-0.05
779.814	-0.24
779.989	-0.15
780.164	0.12
780.339	0.08
780.513	-0.24
780.688	-0.08
780.863	0.05
781.038	0.03
781.212	-0.19
781.387	0.02
781.562	0.36
781.737	-0.02
781.911	0.18
782.086	-0.09
782.261	0.02
782.435	0.31
782.61	-0.1
782.784	0.01
782.959	0.33
783.134	-0.24
783.308	-0.29
783.483	0.08
783.657	0.36
783.832	0.16
784.006	-0.21
784.181	-0.12
784.355	0.14
784.53	0.17
784.704	-0
784.878	0.34
785.053	0.21
785.227	0.26
785.402	0.52
785.576	-0.35
785.75	0.09
785.925	-0.02
786.099	-0.12
786.273	0.08
786.448	0.24
786.622	0.18
786.796	-0.03
786.97	-0.14
787.145	0.52
787.319	-0.05
787.493	-0.08
787.667	-0.4
787.841	-0.02
788.015	0.27
788.19	-0.05
788.364	-0.19
788.538	0.13
788.712	0.37
788.886	-0.08
789.06	0.24
789.234	0.17
789.408	-0.05
789.582	-0.16
789.756	0.18
789.93	-0.13
790.104	0.17
790.278	-0.15
790.452	-0.2
790.626	0.12
790.8	-0.21
790.973	0.13
791.147	0.16
791.321	0.25
791.495	0.12
791.669	0.12
791.843	0.08
792.016	0.09
792.19	0.59
792.364	-0.36
792.538	0.51
792.711	0.15
792.885	-0.09
793.059	-0.32
793.233	-0.6
793.406	0.12
793.58	-0.02
793.754	0
793.927	-0.27
794.101	0.35
794.274	0.33
794.448	0.08
794.622	-0.38
794.795	0.5
794.969	-0.25
795.142	0.2
795.316	-0.17
795.489	-0.08
795.663	0.34
795.836	-0.04
796.009	-0.29
796.183	0.42
796.356	0.07
796.53	0.14
796.703	0.16
796.876	0.61
797.05	-0.16
797.223	-0.02
797.396	0.03
797.57	0.05
797.743	0.45
797.916	-0.09
798.09	-0.15
798.263	0.18
798.436	0.01
798.609	0
798.782	-0.06
798.956	0.08
799.129	-0.17
799.302	-0.18
799.475	-0.06
799.648	-0.04
799.821	-0.13
799.994	-0.08
800.167	-0.58
800.34	0.07
800.514	0.09
800.687	-0.22
800.86	-0.11
801.033	-0.02
801.206	0.16
801.379	-0.19
801.551	0.22
801.724	-0.02
801.897	0.38
802.07	-0.12
802.243	-0.39
802.416	0.08
802.589	-0.16
802.762	0.36
802.935	-0.15
803.107	0.16
803.28	0.27
803.453	0.26
803.626	-0.14
803.798	0.12
803.971	-0.07
804.144	0.2
804.317	-0.09
804.489	0.15
804.662	-0.38
804.835	-0.03
805.007	-0.12
805.18	0.43
805.353	-0.12
805.525	-0.15
805.698	-0.36
805.87	0.3
806.043	0.2
806.215	-0.22
806.388	-0.09
806.56	0.19
806.733	0.47
806.905	-0.15
807.078	0.07
807.25	0.03
807.423	0.04
807.595	-0.07
807.768	0.2
807.94	0.29
808.112	-0.02
808.285	-0.3
808.457	-0.54
808.629	-0.05
808.802	-0.08
808.974	-0.06
809.146	0.07
809.318	-0.06
809.491	0.12
809.663	0.38
809.835	-0.04
810.007	-0.21
810.18	0.07
810.352	-0.59
810.524	-0.33
810.696	0.17
810.868	0.37
811.04	-0.41
811.212	-0.12
811.384	0.45
811.556	0.51
811.728	-0.2
811.901	0.72
812.073	0.03
812.245	0.38
812.417	-0.05
812.589	-0.35
812.76	-0.01
812.932	0.23
813.104	0.34
813.276	-0.13
813.448	0.48
813.62	-0.18
813.792	-0.01
813.964	-0.15
814.136	0.4
814.307	-0.17
814.479	-0.54
814.651	-0.11
814.823	0.95
814.995	-0.33
815.166	0.09
815.338	-0.23
815.51	-0.4
815.681	0.53
815.853	-0.05
816.025	-0.07
816.196	0.6
816.368	0.99
816.54	-0.89
816.711	-0.3
816.883	0.68
817.054	0.83
817.226	-0.7
817.398	0.32
817.569	-0.24
817.741	0.05
817.912	-0.09
818.084	-0.12
818.255	0.2
818.426	-0.26
818.598	-0.03
818.769	-0.68
818.941	0.18
819.112	0.66
819.283	-0
819.455	-0.3
819.626	0.14
819.798	0.38
819.969	0.12
820.14	-0.24
820.311	-0.18
820.483	0.21
820.654	0.31
820.825	0.13
820.996	-0.22
821.168	-0.18
821.339	0.11
821.51	-0.13
821.681	-0.17
821.852	0.36
822.023	-0.21
822.195	-0.14
822.366	0.8
822.537	0.31
822.708	-0.06
822.879	-0.36
823.05	0.88
823.221	-0.1
823.392	0.57
823.563	-0.29
823.734	-0.05
823.905	-0.51
824.076	-0.28
824.247	-0.37
824.418	-0.54
824.589	0.93
824.759	-0.24
824.93	0.1
825.101	-0.56
825.272	0.25
825.443	0.5
825.614	0.34
825.784	-0.29
825.955	1.28
826.126	0.46
826.297	-0.04
826.467	0.86
826.638	0.43
826.809	-0.62
826.98	0.23
827.15	0.14
827.321	0.01
827.492	0.56
827.662	-0.3
827.833	0.89
828.003	0.94
828.174	-0.61
828.345	-0.77
828.515	0.64
828.686	0.13
828.856	-0.19
829.027	0.17
829.197	-0.79
829.368	0.12
829.538	-0.28
829.709	0.04
829.879	0.69
830.049	0.43
830.22	0.28
830.39	-0.21
830.56	0.29
830.731	-0.83
830.901	-0.7
831.072	0.1
831.242	0.06
831.412	0.15
831.582	0.1
831.753	-0.58
831.923	0.55
832.093	0.13
832.263	-0.24
832.434	-0.89
832.604	-0.57
832.774	0.11
832.944	-0.13
833.114	-0.56
833.284	0.14
833.454	-0.46
833.624	-0.24
833.795	-0.49
833.965	0.39
834.135	0.79
834.305	-1.16
834.475	-0.99
834.645	0.04
834.815	0.16
834.985	-0.78
835.155	-0.22
835.325	-0.09
835.494	-0.45
835.664	-0.51
835.834	-0.51
836.004	-0.26
836.174	0.82
836.344	-0.31
836.514	-0.95
836.684	-0.46
836.853	0.21
837.023	0.1
837.193	-0.49
837.363	0.74
837.532	0.49
837.702	0.03
837.872	-0.98
838.041	0.32
838.211	1.84
838.381	-0.86
838.55	-0.52
838.72	2.05
838.89	1.7
839.059	-0.15
839.229	0.05
839.398	2.19
839.568	-0.25
839.738	0.03
839.907	0.54
840.077	-0.08
840.246	-0.63
840.416	-0.41
840.585	-0.73
840.755	1.12
840.924	0.72
841.093	-1.18
841.263	-0.74
841.432	0.29
841.602	-0.99
841.771	-0.51
841.94	-0.36
842.11	1.51
842.279	1.61
842.448	-0.7
842.617	-0.3
842.787	1.05
842.956	-0.66
843.125	0.41
843.294	0.2
843.464	0.59
843.633	-0.7
843.802	-0.9
843.971	-0.44
844.14	0.35
844.309	0.7
844.479	-0.83
844.648	-0.88
844.817	-0.36
844.986	0.2
845.155	-0.55
845.324	-0.89
845.493	-0.31
845.662	-0.16
845.831	-0.39
846	0.3
846.169	-0.72
846.338	1.8
846.507	-0.58
846.676	0.48
846.844	-0.52
847.013	0.47
847.182	0.14
847.351	-0.78
847.52	-0.43
847.689	0.53
847.858	0.27
848.026	0.45
848.195	-0.01
848.364	-0.74
848.533	-1.08
848.701	-0.25
848.87	0.1
849.039	0.85
849.207	0.51
849.376	1.02
849.545	1.44
849.713	-0.21
849.882	-0.98
850.051	-0.7
850.219	-0.18
850.388	0.71
850.556	-1.31
850.725	-0.53
850.893	0.11
851.062	-0.5
851.23	1.22
851.399	-1.07
851.567	-0.01
851.736	-1.09
851.904	-1.01
852.073	-0.01
852.241	0.3
852.41	0.07
852.578	-0.5
852.746	-1.18
852.915	1.22
853.083	0.03
853.251	-1.94
853.42	0.4
853.588	0.42
853.756	0.72
853.924	-0.29
854.093	-0.68
854.261	0.19
854.429	-0.9
854.597	1.27
854.765	-1.04
854.934	2.11
855.102	0.4
855.27	-0.32
855.438	0.11
855.606	0.62
855.774	0.93
855.942	-1.57
856.11	-2.52
856.278	0.27
856.446	1.68
856.614	-0.57
856.782	-1.67
856.95	1.26
857.118	0.57
857.286	0.88
857.454	-0.22
857.622	1.16
857.79	0.91
857.958	-1.11
858.126	-0.67
858.294	-2.64
858.462	-0.07
858.629	-1.21
858.797	-1.02
858.965	0.06
859.133	0.49
859.301	-0.44
859.468	0.32
859.636	-1.15
859.804	0.96
859.971	1.48
860.139	-0.63
860.307	1.68
860.474	0.66
860.642	-0.29
860.81	-0.62
860.977	0.92
861.145	0.72
861.313	-0.25
861.48	0.4
861.648	2.08
861.815	-1.34
861.983	-0.85
862.15	-0.28
862.318	0.08
862.485	1.34
862.653	-0.3
862.82	-2.7
862.988	1.53
863.155	0.43
863.322	-0.83
863.49	-0.76
863.657	-0.86
863.824	2.86
863.992	1.24
864.159	0.08
864.326	1.47
864.494	-0.87
864.661	3.24
864.828	-0.69
864.996	1.01
865.163	2.37
865.33	-0.31
865.497	-3.26
865.664	-1.08
865.832	-1.76
865.999	-0.93
866.166	-1.77
866.333	-1.56
866.5	-1.48
866.667	-0.39
866.834	-0.52
867.001	2.13
867.168	-3.11
867.335	0.34
867.502	-1.15
867.669	0.92
867.836	3.19
868.003	-0.21
868.17	1
868.337	-0.18
868.504	1.08
868.671	-0.38
868.838	-1.01
869.005	0.46
869.172	0
869.339	-0.55
869.505	-0.63
869.672	0.41
869.839	1.62
870.006	1.31
870.173	-2
870.339	1.48
870.506	2.05
870.673	-0.31
870.84	0.08
871.006	0.16
871.173	-0.84
871.34	0.34
871.506	-2.73
871.673	0.46
871.839	-1.48
872.006	-1.29
872.173	0.59
872.339	0.69
872.506	1.56
872.672	-0.16
872.839	-2.75
873.005	0.28
873.172	1.54
873.338	1.4
873.505	0.71
873.671	-0.35
873.838	1.58
874.004	-1.38
874.171	-1.28
874.337	0.81
874.503	1.08
874.67	-1.2
874.836	0.02
875.002	2.18
875.169	1.46
875.335	0.89
875.501	0.07
875.668	2.06
875.834	-0.25
876	1.12
876.166	1.88
876.332	1.11
876.499	5.29
876.665	0.53
876.831	0.99
876.997	2.25
877.163	0.28
877.329	0.13
877.495	1.01
877.662	2
877.828	1.1
877.994	0
878.16	-2.7
878.326	-1.24
878.492	2
878.658	0.5
878.824	0.6
878.99	1.15
879.156	-1.82
879.322	2.3
879.487	-0.39
879.653	0.84
879.819	-0.11
879.985	1.01
880.151	-0.45
880.317	-0.37
880.483	1.23
880.648	-0.07
880.814	-3.32
880.98	0.25
881.146	-3.41
881.312	-1.2
881.477	-0.43
881.643	-1.56
881.809	2.02
881.974	1.26
882.14	-2.52
882.306	-0.88
882.471	4.24
882.637	0.19
882.803	1.48
882.968	1.14
883.134	4.1
883.299	0.32
883.465	1.22
883.63	0.39
883.796	2.37
883.961	1.88
884.127	-0.07
884.292	-3.97
884.458	-2.1
884.623	-2.1
