Data from Apollo_Calib_20240827__AbsoluteIrradiance__692__10-41-02-384.txt Node

Date: Wed Aug 28 10:41:02 BST 2024
User: biology
Spectrometer: FLMT08252
Trigger mode: 0
Integration Time (sec): 5.000000E-1
Scans to average: 5
Electric dark correction enabled: true
Nonlinearity correction enabled: false
Boxcar width: 0
XAxis mode: Wavelengths
Number of Pixels in Spectrum: 3648
>>>>>Begin Spectral Data<<<<<
179.588	-0
179.809	-0
180.03	-0
180.251	-0
180.473	-0
180.694	0
180.915	0
181.136	-0
181.357	0
181.578	-0
181.799	-0
182.02	-0
182.241	-0
182.462	-0
182.683	0
182.904	-0
183.125	-0
183.346	-0
183.567	0
183.788	-0
184.009	-0
184.23	-0
184.451	0
184.672	-0
184.892	-0
185.113	0
185.334	-0
185.555	-0
185.776	-0
185.996	0
186.217	-0
186.438	-0
186.659	-0
186.879	-0
187.1	-0
187.321	-0
187.541	-0
187.762	-0
187.983	0
188.203	-0
188.424	-0
188.644	-0
188.865	-0
189.086	-0
189.306	-0
189.527	0
189.747	0
189.968	-0
190.188	0
190.409	-0
190.629	-0
190.849	-0
191.07	-0
191.29	0
191.511	0
191.731	-0
191.951	-0
192.172	-0
192.392	-0
192.612	-0
192.833	-0
193.053	0
193.273	0
193.493	0
193.714	-0
193.934	0
194.154	0
194.374	-0
194.594	0
194.815	-0
195.035	-0
195.255	-0
195.475	-0
195.695	0
195.915	0
196.135	-0
196.355	0
196.575	0
196.795	0
197.015	-0
197.235	-0
197.455	-0
197.675	-0
197.895	-0
198.115	-0
198.335	0
198.555	-0
198.775	0
198.995	0
199.214	0
199.434	-0
199.654	-0
199.874	-0
200.094	0.65
200.313	-0.69
200.533	-0.98
200.753	-0.91
200.973	1.17
201.192	0.39
201.412	-1.28
201.632	-0.85
201.851	1.1
202.071	-0.47
202.291	-0.53
202.51	-0.83
202.73	0.11
202.95	-0.35
203.169	-0.69
203.389	-0.17
203.608	-0.1
203.828	-0.96
204.047	-0.31
204.267	0.47
204.486	-0.04
204.706	-0.03
204.925	-0.45
205.145	-0.26
205.364	0.11
205.583	0.07
205.803	-0.43
206.022	-0.59
206.242	-0.06
206.461	-0.4
206.68	-0.35
206.9	0.03
207.119	0.27
207.338	0.44
207.557	-0.33
207.777	-0.13
207.996	-0.35
208.215	0.17
208.434	-0.52
208.654	-0.56
208.873	-0
209.092	0.28
209.311	-0.36
209.53	0
209.749	-0.34
209.968	-0.55
210.187	-0.38
210.407	-0.7
210.626	-0.49
210.845	0.22
211.064	-0.03
211.283	-0.2
211.502	0.04
211.721	-0.03
211.94	-0.26
212.159	-0.05
212.377	0.11
212.596	0
212.815	-0.01
213.034	-0.02
213.253	0.11
213.472	-0.02
213.691	-0.08
213.91	-0.27
214.128	-0.13
214.347	0.28
214.566	-0.38
214.785	-0.28
215.003	0.08
215.222	0.14
215.441	-0.29
215.66	-0.54
215.878	-0.11
216.097	0.13
216.316	-0.21
216.534	-0.16
216.753	-0.13
216.972	-0.19
217.19	-0.21
217.409	-0.22
217.627	-0.16
217.846	-0.18
218.064	-0.08
218.283	-0.29
218.501	0.14
218.72	0.08
218.938	-0.38
219.157	-0.2
219.375	0.02
219.594	-0.09
219.812	-0.23
220.031	-0.26
220.249	0.36
220.467	0.08
220.686	-0.09
220.904	-0.22
221.122	-0.29
221.341	0.25
221.559	0.14
221.777	-0.14
221.995	0.04
222.214	-0.09
222.432	-0.21
222.65	0.03
222.868	-0.05
223.086	0.06
223.305	-0.01
223.523	-0.11
223.741	0.23
223.959	-0.25
224.177	-0.41
224.395	0.03
224.613	-0.03
224.831	0.03
225.049	-0.2
225.267	-0.09
225.485	-0.08
225.703	0.02
225.921	-0.03
226.139	-0.15
226.357	-0.07
226.575	-0.02
226.793	-0.13
227.011	0.41
227.229	-0.11
227.447	0.11
227.665	-0.15
227.883	-0.41
228.1	-0.16
228.318	-0.08
228.536	-0.28
228.754	-0.18
228.972	-0.16
229.189	0.13
229.407	-0.15
229.625	-0.04
229.843	-0
230.06	0.03
230.278	-0.03
230.496	-0.03
230.713	-0.15
230.931	0.13
231.149	-0.12
231.366	-0.21
231.584	-0.12
231.801	0.15
232.019	-0.05
232.236	-0.21
232.454	-0.16
232.671	-0.1
232.889	-0.12
233.106	-0.24
233.324	-0.02
233.541	-0.04
233.759	-0.09
233.976	-0.24
234.194	0.02
234.411	-0.05
234.628	-0.08
234.846	-0.07
235.063	-0.09
235.28	-0.15
235.498	0.06
235.715	-0.17
235.932	0.09
236.149	0.04
236.367	-0.1
236.584	-0.1
236.801	-0.03
237.018	0.08
237.236	0.01
237.453	-0.17
237.67	0.07
237.887	-0.09
238.104	-0.07
238.321	-0.13
238.538	-0.1
238.755	-0.01
238.973	-0.19
239.19	-0.03
239.407	0.12
239.624	0
239.841	-0.09
240.058	-0.14
240.275	-0.1
240.492	-0.18
240.709	-0.07
240.925	-0.07
241.142	-0.07
241.359	-0.18
241.576	-0.11
241.793	-0.09
242.01	-0.05
242.227	0.1
242.444	0.07
242.66	0.05
242.877	-0.05
243.094	-0.01
243.311	-0.04
243.527	-0.04
243.744	-0.02
243.961	0.02
244.178	-0.11
244.394	-0.05
244.611	0.01
244.828	0.06
245.044	-0.18
245.261	-0.03
245.477	-0.03
245.694	0.11
245.911	-0.08
246.127	-0.03
246.344	0.12
246.56	0.04
246.777	-0.02
246.993	0.01
247.21	-0.02
247.426	0.07
247.643	-0.11
247.859	-0.14
248.076	-0.1
248.292	0.09
248.508	-0.12
248.725	-0.05
248.941	-0.01
249.157	0.1
249.374	-0.05
249.59	-0.08
249.806	-0.11
250.023	0.01
250.239	-0.05
250.455	-0.08
250.671	-0.02
250.888	0.02
251.104	-0.02
251.32	-0.16
251.536	-0.1
251.752	-0.01
251.969	-0.04
252.185	-0.02
252.401	0.14
252.617	0.01
252.833	-0.06
253.049	-0.01
253.265	-0.08
253.481	0.01
253.697	-0.03
253.913	-0.07
254.129	-0.05
254.345	-0.04
254.561	-0.01
254.777	-0.02
254.993	0.03
255.209	-0.08
255.425	-0.1
255.641	-0.13
255.857	0.06
256.073	-0.02
256.288	-0.16
256.504	-0.14
256.72	-0.05
256.936	0.04
257.152	-0.05
257.367	-0.08
257.583	-0.01
257.799	0.05
258.015	-0.09
258.23	-0.06
258.446	0.03
258.662	0.02
258.877	-0.07
259.093	-0.16
259.309	-0.01
259.524	-0.05
259.74	-0.11
259.955	-0.11
260.171	-0.02
260.387	-0.01
260.602	0.05
260.818	0
261.033	-0.1
261.249	-0.1
261.464	-0.07
261.68	-0.11
261.895	0.02
262.11	0.06
262.326	-0.07
262.541	-0.16
262.757	0.05
262.972	0.03
263.187	-0.01
263.403	-0.06
263.618	0.01
263.833	-0.04
264.049	-0.06
264.264	-0.04
264.479	0.03
264.694	0.11
264.91	-0.1
265.125	-0.02
265.34	0.01
265.555	0.12
265.77	0.02
265.986	-0.05
266.201	-0.03
266.416	0.04
266.631	-0.1
266.846	-0.03
267.061	0.02
267.276	-0.01
267.491	-0.19
267.706	0.02
267.921	-0.02
268.136	0.01
268.351	-0.01
268.566	-0.08
268.781	0.04
268.996	0.03
269.211	-0.03
269.426	-0.09
269.641	-0.05
269.856	0.07
270.071	-0.08
270.285	-0.1
270.5	0.08
270.715	0.04
270.93	-0.01
271.145	-0.02
271.359	-0.01
271.574	-0.07
271.789	-0.04
272.004	-0.03
272.218	-0.1
272.433	-0.03
272.648	-0.04
272.862	0.02
273.077	-0
273.292	-0.08
273.506	-0.08
273.721	-0.07
273.936	-0.01
274.15	0.03
274.365	-0.06
274.579	0
274.794	0.01
275.008	0.07
275.223	-0.11
275.437	-0.02
275.652	0.05
275.866	0.02
276.081	-0.02
276.295	0.04
276.509	-0.04
276.724	-0.03
276.938	0.07
277.153	-0
277.367	0.04
277.581	-0.1
277.796	-0.02
278.01	-0.13
278.224	-0.02
278.438	0.1
278.653	-0.12
278.867	-0.08
279.081	-0.17
279.295	-0.02
279.51	0.01
279.724	-0.14
279.938	0.04
280.152	-0.01
280.366	-0.11
280.58	-0
280.794	0.05
281.008	-0.02
281.222	0.01
281.437	0.08
281.651	0.01
281.865	0.04
282.079	-0.07
282.293	-0.15
282.507	-0.05
282.721	-0.01
282.935	-0.01
283.148	-0.09
283.362	-0.02
283.576	-0.09
283.79	0.03
284.004	-0.09
284.218	0.03
284.432	-0.04
284.646	-0.03
284.859	-0.04
285.073	-0.04
285.287	0.02
285.501	-0.03
285.714	-0.05
285.928	0
286.142	-0.03
286.356	-0.07
286.569	-0.03
286.783	0.01
286.997	0.05
287.21	-0.03
287.424	-0.01
287.637	-0.02
287.851	-0.03
288.065	0.06
288.278	-0.04
288.492	-0.02
288.705	-0.01
288.919	0.03
289.132	-0.07
289.346	0.02
289.559	-0.09
289.773	-0.11
289.986	-0.06
290.2	-0.05
290.413	-0.02
290.626	-0.11
290.84	-0.05
291.053	-0.09
291.267	0.06
291.48	0.01
291.693	0.01
291.906	-0.02
292.12	-0.03
292.333	-0.11
292.546	-0.04
292.76	0.06
292.973	0.03
293.186	0.02
293.399	-0.01
293.612	0.05
293.826	-0.03
294.039	0
294.252	-0.09
294.465	0.03
294.678	0.01
294.891	-0.02
295.104	-0.01
295.317	-0.03
295.53	-0
295.743	-0.04
295.956	-0.01
296.169	0.04
296.382	0.06
296.595	-0.01
296.808	-0.06
297.021	0.04
297.234	0.04
297.447	-0.08
297.66	-0.02
297.873	0.06
298.086	-0
298.299	-0.03
298.511	-0.08
298.724	-0.02
298.937	-0.09
299.15	-0.03
299.363	-0.04
299.575	0.02
299.788	-0
300.001	-0.05
300.213	-0.08
300.426	0.01
300.639	-0.02
300.852	-0.05
301.064	0.04
301.277	0.06
301.489	0
301.702	0.02
301.915	-0.01
302.127	0.03
302.34	0.02
302.552	0.01
302.765	-0.05
302.977	0.03
303.19	-0.08
303.402	-0.02
303.615	0
303.827	0.01
304.04	0.01
304.252	0
304.464	-0.01
304.677	0.07
304.889	0.03
305.102	-0.03
305.314	-0.03
305.526	0.01
305.739	0.01
305.951	-0.05
306.163	-0.08
306.375	0.05
306.588	-0.1
306.8	-0.03
307.012	-0.09
307.224	-0.02
307.436	0.07
307.649	-0.07
307.861	-0.02
308.073	-0.01
308.285	-0.04
308.497	-0.03
308.709	-0.01
308.921	-0.02
309.133	0.05
309.346	0.02
309.558	-0.02
309.77	0.01
309.982	0.02
310.194	0.02
310.406	-0.04
310.617	0.06
310.829	0.02
311.041	-0.03
311.253	-0.07
311.465	-0.06
311.677	0.01
311.889	-0.01
312.101	-0.04
312.313	0.03
312.524	0.02
312.736	-0.07
312.948	-0.02
313.16	0.07
313.372	0.01
313.583	0.02
313.795	-0.02
314.007	-0.05
314.218	0.04
314.43	-0.02
314.642	-0.07
314.853	-0.04
315.065	0.03
315.277	-0.01
315.488	0.03
315.7	0.02
315.912	-0.03
316.123	-0.03
316.335	-0.04
316.546	0.1
316.758	-0.02
316.969	-0.03
317.181	-0.04
317.392	-0.02
317.604	0.02
317.815	-0.03
318.026	-0.06
318.238	-0.05
318.449	0.03
318.661	-0.1
318.872	-0.05
319.083	-0.07
319.295	-0.01
319.506	-0.05
319.717	-0
319.929	0.01
320.14	0
320.351	0
320.562	-0.04
320.774	-0
320.985	0
321.196	-0.05
321.407	-0.11
321.618	0
321.829	0.02
322.041	0.02
322.252	-0.04
322.463	-0.05
322.674	-0
322.885	-0.05
323.096	-0
323.307	-0.04
323.518	0.01
323.729	-0.03
323.94	-0.04
324.151	-0.01
324.362	-0.03
324.573	0
324.784	-0.06
324.995	0.05
325.206	-0.01
325.417	-0.04
325.628	0.01
325.838	-0.01
326.049	0.02
326.26	0.03
326.471	-0.04
326.682	0.02
326.892	-0.02
327.103	-0.1
327.314	-0.08
327.525	0.06
327.735	-0.03
327.946	0
328.157	-0.04
328.368	-0
328.578	-0.05
328.789	-0.02
328.999	-0.01
329.21	-0.07
329.421	0.04
329.631	-0.03
329.842	-0.04
330.052	0.04
330.263	0.01
330.473	0
330.684	-0.03
330.894	-0.03
331.105	0.03
331.315	-0.01
331.526	-0.03
331.736	0.09
331.947	-0.01
332.157	0
332.367	-0.03
332.578	0.03
332.788	0.04
332.999	0.05
333.209	-0.03
333.419	-0.08
333.629	0.02
333.84	0.01
334.05	-0.02
334.26	-0.01
334.47	-0.04
334.681	0.09
334.891	-0.04
335.101	0.04
335.311	0.04
335.521	0.01
335.732	-0.05
335.942	0.05
336.152	-0.02
336.362	0.01
336.572	0.04
336.782	0.03
336.992	-0.02
337.202	-0.05
337.412	-0.07
337.622	-0.02
337.832	-0.02
338.042	-0.03
338.252	-0.04
338.462	-0.04
338.672	-0.02
338.882	-0.05
339.092	0.02
339.302	0.02
339.511	-0.02
339.721	-0.02
339.931	-0.07
340.141	0.03
340.351	0.06
340.561	0.04
340.77	-0.01
340.98	-0.05
341.19	-0.03
341.4	-0.06
341.609	-0.02
341.819	0.01
342.029	-0.07
342.238	-0.01
342.448	-0.01
342.658	0.05
342.867	0.03
343.077	-0.04
343.286	0
343.496	-0.05
343.706	0.04
343.915	-0.07
344.125	0.02
344.334	-0.01
344.544	-0.1
344.753	-0.03
344.963	-0.04
345.172	-0.04
345.381	-0.06
345.591	-0.04
345.8	-0.03
346.01	0.04
346.219	0.05
346.428	-0.11
346.638	-0.07
346.847	-0.03
347.056	0.02
347.266	-0.03
347.475	-0.01
347.684	-0.03
347.893	0.01
348.103	-0.02
348.312	-0.02
348.521	-0.03
348.73	-0.01
348.94	-0.01
349.149	-0.05
349.358	-0.04
349.567	-0.03
349.776	-0.05
349.985	-0.06
350.194	0.03
350.403	0.03
350.612	-0.08
350.821	-0.09
351.03	-0.01
351.239	-0.07
351.448	-0.04
351.657	-0.02
351.866	0.05
352.075	-0.01
352.284	0.04
352.493	-0.05
352.702	0.03
352.911	-0.01
353.12	-0.01
353.329	-0.03
353.538	-0
353.746	-0.04
353.955	-0.04
354.164	-0
354.373	-0.05
354.582	-0.02
354.79	0.01
354.999	0.03
355.208	-0.06
355.416	0.02
355.625	-0.03
355.834	-0.01
356.042	-0.04
356.251	-0.02
356.46	-0.08
356.668	-0.03
356.877	0.05
357.085	0.01
357.294	-0.11
357.503	0.04
357.711	-0.01
357.92	0.1
358.128	-0.01
358.337	-0.02
358.545	-0.03
358.754	-0.02
358.962	0.04
359.17	-0.05
359.379	-0.03
359.587	0.04
359.796	-0.01
360.004	0
360.212	-0.02
360.421	0
360.629	-0.04
360.837	-0.06
361.046	-0.02
361.254	0.04
361.462	-0
361.67	-0.03
361.879	0.01
362.087	0.05
362.295	0.01
362.503	-0.04
362.711	-0.06
362.92	-0.06
363.128	-0
363.336	-0.04
363.544	-0.1
363.752	-0.02
363.96	-0.06
364.168	-0.04
364.376	-0.03
364.584	0.02
364.792	0.02
365	-0.04
365.208	-0
365.416	-0.01
365.624	-0.01
365.832	-0.04
366.04	0.04
366.248	0.06
366.456	-0.01
366.664	-0.02
366.872	-0.03
367.079	-0.03
367.287	0.01
367.495	0.02
367.703	0.02
367.911	-0.02
368.118	0.01
368.326	-0.03
368.534	-0.05
368.742	0.03
368.949	-0.06
369.157	-0.04
369.365	0.02
369.572	-0.02
369.78	-0.07
369.988	0.01
370.195	0
370.403	-0.02
370.61	-0.03
370.818	0.01
371.026	0.06
371.233	0
371.441	0.01
371.648	-0.03
371.856	0
372.063	-0.02
372.271	-0.05
372.478	-0.06
372.685	-0.06
372.893	0.03
373.1	0
373.308	-0.03
373.515	0.07
373.722	-0.01
373.93	-0
374.137	0.01
374.344	0.05
374.552	-0
374.759	0.02
374.966	0.02
375.173	-0.02
375.381	0.02
375.588	-0.02
375.795	-0.1
376.002	-0.01
376.209	-0.04
376.417	0
376.624	-0.03
376.831	-0.06
377.038	-0.03
377.245	-0.1
377.452	0
377.659	-0.05
377.866	-0.05
378.073	-0.03
378.28	-0.02
378.487	0.06
378.694	0.02
378.901	-0.03
379.108	0.02
379.315	0.04
379.522	0.04
379.729	-0
379.936	0
380.143	-0.01
380.35	0.03
380.557	-0.04
380.763	-0.03
380.97	-0.01
381.177	0.01
381.384	0.04
381.591	-0.03
381.797	0.01
382.004	0.01
382.211	0.01
382.418	-0.02
382.624	0.02
382.831	0.04
383.038	-0.01
383.244	0.02
383.451	-0.02
383.658	0.03
383.864	-0.03
384.071	-0.03
384.277	0.07
384.484	-0.05
384.69	0.03
384.897	-0.05
385.103	-0.02
385.31	-0.07
385.516	-0.06
385.723	-0.06
385.929	-0.05
386.136	-0.02
386.342	-0
386.549	-0.05
386.755	0.02
386.961	0.01
387.168	-0.06
387.374	0.01
387.58	-0.03
387.787	-0.03
387.993	-0
388.199	-0.01
388.406	-0.02
388.612	-0.04
388.818	-0.06
389.024	-0.04
389.231	-0.01
389.437	0.07
389.643	0.05
389.849	-0.01
390.055	-0.03
390.261	-0.02
390.467	-0.01
390.674	-0.05
390.88	-0.03
391.086	0.04
391.292	-0.07
391.498	-0.02
391.704	0.02
391.91	-0.02
392.116	-0.02
392.322	-0.08
392.528	-0.05
392.734	-0.04
392.94	-0.01
393.146	-0.07
393.352	-0.03
393.557	-0.04
393.763	-0.01
393.969	-0.01
394.175	-0.02
394.381	-0.02
394.587	-0.03
394.792	-0.04
394.998	-0.01
395.204	0.04
395.41	-0.01
395.615	0.02
395.821	-0.01
396.027	0
396.233	-0.04
396.438	0.03
396.644	0.03
396.85	-0.01
397.055	-0.03
397.261	-0.01
397.466	-0.03
397.672	-0.04
397.878	-0
398.083	-0.03
398.289	-0.01
398.494	0.02
398.7	-0
398.905	-0.08
399.111	0.06
399.316	-0.06
399.522	-0.04
399.727	-0.01
399.932	-0.02
400.138	-0.05
400.343	0.04
400.549	0.01
400.754	-0.03
400.959	-0.01
401.165	-0.03
401.37	-0.04
401.575	0.03
401.78	-0.03
401.986	-0.06
402.191	0.01
402.396	-0.05
402.601	0
402.807	0.03
403.012	-0.04
403.217	0.03
403.422	0.02
403.627	-0.03
403.832	-0
404.037	-0
404.243	-0
404.448	-0.08
404.653	-0.02
404.858	-0.01
405.063	0.04
405.268	-0.05
405.473	-0.08
405.678	-0
405.883	0.06
406.088	0.05
406.293	-0.08
406.498	-0.06
406.703	0.03
406.907	0
407.112	-0.05
407.317	-0.03
407.522	-0
407.727	-0.04
407.932	-0.03
408.136	0.06
408.341	-0.02
408.546	0.02
408.751	0.01
408.956	-0.02
409.16	-0
409.365	-0.02
409.57	-0.01
409.774	-0.02
409.979	0.04
410.184	-0.04
410.388	-0.06
410.593	0.04
410.798	-0.03
411.002	-0.04
411.207	-0.03
411.411	0.03
411.616	-0.07
411.82	0.02
412.025	-0.01
412.229	-0.1
412.434	0.03
412.638	0.01
412.843	-0.03
413.047	0
413.252	-0.04
413.456	-0.02
413.66	-0.01
413.865	-0.08
414.069	0.04
414.273	-0.02
414.478	-0.03
414.682	-0.07
414.886	-0.07
415.091	-0.1
415.295	-0.07
415.499	0.01
415.703	-0.04
415.908	-0
416.112	-0.11
416.316	-0.01
416.52	-0.05
416.724	-0.05
416.929	-0.04
417.133	0.09
417.337	-0.04
417.541	-0.06
417.745	-0.02
417.949	0
418.153	0.02
418.357	-0.07
418.561	0.01
418.765	-0.05
418.969	0.07
419.173	-0.01
419.377	-0.03
419.581	0.05
419.785	-0.05
419.989	-0.08
420.193	-0.07
420.397	-0.01
420.601	0.02
420.804	0.02
421.008	-0.02
421.212	-0.02
421.416	-0.01
421.62	-0.06
421.823	-0.03
422.027	0.03
422.231	-0.02
422.435	-0.06
422.638	-0.01
422.842	-0.04
423.046	-0.05
423.249	0.01
423.453	-0.01
423.657	0.01
423.86	-0.01
424.064	-0.04
424.268	0.01
424.471	0
424.675	0.05
424.878	0.04
425.082	-0.02
425.285	-0.01
425.489	-0.01
425.692	-0.01
425.896	-0.09
426.099	0.02
426.303	-0.08
426.506	-0.11
426.71	-0.01
426.913	0.03
427.116	0.06
427.32	-0.03
427.523	-0.01
427.726	0.07
427.93	-0.06
428.133	0
428.336	-0.08
428.54	-0.05
428.743	0.01
428.946	0.03
429.149	-0.03
429.353	-0.02
429.556	-0.06
429.759	-0.03
429.962	-0.05
430.165	-0.02
430.368	-0.03
430.571	-0.04
430.775	0
430.978	-0.05
431.181	-0.01
431.384	0.02
431.587	-0.01
431.79	-0.04
431.993	-0.11
432.196	-0.02
432.399	-0.02
432.602	0.03
432.805	-0.01
433.008	-0.07
433.211	-0.1
433.414	-0
433.616	0.02
433.819	0.01
434.022	-0.1
434.225	0.03
434.428	0.01
434.631	0.1
434.833	0
435.036	-0.07
435.239	0.07
435.442	0.02
435.645	-0.05
435.847	0.01
436.05	0.02
436.253	-0
436.455	-0.08
436.658	-0.03
436.861	0.06
437.063	-0.02
437.266	-0.04
437.468	0
437.671	0.09
437.874	-0.02
438.076	-0.11
438.279	-0.1
438.481	-0.03
438.684	-0.05
438.886	0.01
439.089	-0.15
439.291	-0.08
439.494	0.03
439.696	-0.05
439.899	-0.01
440.101	-0
440.303	-0.13
440.506	0.05
440.708	-0
440.91	0.01
441.113	-0.07
441.315	0.03
441.517	-0.08
441.72	0.06
441.922	-0.06
442.124	-0.06
442.326	0.01
442.529	0.02
442.731	-0.06
442.933	0.07
443.135	-0.05
443.337	-0.06
443.539	-0.03
443.742	-0.02
443.944	-0.06
444.146	-0.05
444.348	-0.02
444.55	-0.06
444.752	-0.04
444.954	-0.1
445.156	0.02
445.358	-0.07
445.56	0.05
445.762	-0.01
445.964	0.03
446.166	-0.02
446.368	-0.04
446.57	0.05
446.772	0.01
446.974	-0.04
447.175	0.04
447.377	-0.05
447.579	-0.07
447.781	-0.09
447.983	0.02
448.184	0
448.386	-0.03
448.588	-0.1
448.79	0
448.991	-0.08
449.193	-0.06
449.395	-0.02
449.597	0.04
449.798	-0.02
450	0.01
450.202	-0.01
450.403	-0.01
450.605	-0
450.806	-0
451.008	-0.08
451.21	-0.02
451.411	-0.05
451.613	-0.03
451.814	-0.03
452.016	-0.03
452.217	-0.03
452.419	0.01
452.62	-0.02
452.821	0.02
453.023	0.02
453.224	0.04
453.426	-0.05
453.627	0
453.828	0.06
454.03	-0.06
454.231	-0.01
454.432	-0.11
454.634	0.05
454.835	-0.06
455.036	-0.05
455.238	0.02
455.439	0.05
455.64	-0.05
455.841	-0.06
456.042	0.07
456.244	-0.01
456.445	-0.07
456.646	-0.06
456.847	-0.06
457.048	-0.03
457.249	-0
457.45	0.16
457.651	-0.12
457.852	0.03
458.054	-0
458.255	0
458.456	0.05
458.657	-0.01
458.858	-0.08
459.058	0.01
459.259	0.03
459.46	-0.01
459.661	-0.03
459.862	0.03
460.063	-0.05
460.264	0.05
460.465	-0.06
460.666	0.07
460.866	-0.06
461.067	0.01
461.268	-0.02
461.469	-0.05
461.67	-0.02
461.87	-0.04
462.071	-0.03
462.272	-0.03
462.473	0.02
462.673	0.03
462.874	-0.09
463.075	-0.01
463.275	-0.05
463.476	0.02
463.676	-0.03
463.877	-0.05
464.078	-0.04
464.278	0.04
464.479	-0.07
464.679	0.01
464.88	-0.04
465.08	0.03
465.281	-0.09
465.481	-0.06
465.682	-0.03
465.882	0.03
466.083	-0.04
466.283	-0.05
466.483	-0.04
466.684	-0.04
466.884	-0.06
467.085	-0.04
467.285	0.02
467.485	-0.04
467.686	-0.02
467.886	-0.1
468.086	0.02
468.286	-0.04
468.487	-0.02
468.687	-0.07
468.887	-0.03
469.087	0.02
469.287	-0.05
469.488	-0.04
469.688	-0.01
469.888	0.02
470.088	0.06
470.288	-0.01
470.488	0.01
470.688	-0.04
470.888	-0.02
471.088	-0.02
471.288	0.03
471.488	0.01
471.688	-0.03
471.888	-0.07
472.088	0.08
472.288	0.01
472.488	-0.05
472.688	-0.06
472.888	-0.03
473.088	-0.02
473.288	-0.01
473.488	-0.02
473.688	0.08
473.887	0
474.087	-0.01
474.287	0.01
474.487	-0.01
474.687	0.03
474.886	-0.05
475.086	-0.04
475.286	0
475.486	-0.01
475.685	-0.03
475.885	-0.01
476.085	-0.03
476.284	0.02
476.484	0
476.684	-0.01
476.883	0.05
477.083	0.01
477.282	-0.05
477.482	0.03
477.681	0.03
477.881	0.01
478.08	-0.06
478.28	-0.04
478.479	0.03
478.679	0.06
478.878	-0.04
479.078	-0.01
479.277	-0.03
479.477	-0.04
479.676	0.01
479.875	-0.01
480.075	-0.06
480.274	-0.03
480.473	0.01
480.673	-0.04
480.872	0.03
481.071	-0.02
481.271	0.01
481.47	0
481.669	-0.05
481.868	-0.03
482.067	-0.04
482.267	-0.04
482.466	-0.04
482.665	-0.05
482.864	-0.03
483.063	-0.06
483.262	-0.02
483.461	0.05
483.661	0.01
483.86	0
484.059	-0.02
484.258	-0
484.457	-0.02
484.656	-0.03
484.855	0.01
485.054	-0.03
485.253	-0.04
485.452	-0.04
485.651	-0.02
485.849	0.02
486.048	-0.04
486.247	-0.03
486.446	-0.02
486.645	-0.04
486.844	-0.02
487.043	-0.02
487.241	0.01
487.44	-0
487.639	-0.02
487.838	-0
488.037	-0
488.235	0.04
488.434	0.01
488.633	-0.03
488.831	-0.01
489.03	0.02
489.229	-0.02
489.427	-0.01
489.626	0.04
489.825	0.03
490.023	0.01
490.222	-0.01
490.42	-0.01
490.619	-0.01
490.817	0.02
491.016	-0.02
491.214	0.02
491.413	-0.03
491.611	-0.03
491.81	-0
492.008	0.02
492.207	0.01
492.405	-0.01
492.604	-0.05
492.802	-0.02
493	-0.01
493.199	-0.01
493.397	-0.01
493.595	-0.03
493.794	-0.01
493.992	0.05
494.19	-0.03
494.388	0.01
494.587	-0.01
494.785	-0.03
494.983	-0.04
495.181	0.01
495.379	-0
495.578	-0.01
495.776	0
495.974	0.01
496.172	-0.03
496.37	-0.04
496.568	-0.05
496.766	-0.03
496.964	0.02
497.162	-0
497.36	-0.04
497.558	-0.01
497.756	0.01
497.954	-0.02
498.152	-0.01
498.35	-0.02
498.548	-0.03
498.746	0
498.944	-0.03
499.142	-0.02
499.34	-0.01
499.538	-0.01
499.736	0
499.933	0.06
500.131	0
500.329	0.01
500.527	0.01
500.725	0.01
500.922	0.01
501.12	-0.01
501.318	-0
501.516	-0.02
501.713	0.02
501.911	-0.04
502.109	-0.05
502.306	-0
502.504	-0.02
502.701	-0.02
502.899	-0.02
503.097	0.05
503.294	-0.01
503.492	-0.02
503.689	0.01
503.887	0.02
504.084	0.03
504.282	-0.02
504.479	-0.04
504.677	0
504.874	-0.02
505.072	-0.01
505.269	-0.03
505.466	0.01
505.664	0.01
505.861	-0.05
506.059	-0.05
506.256	0
506.453	-0.04
506.651	0.03
506.848	0
507.045	-0
507.242	-0
507.44	-0.04
507.637	-0.01
507.834	-0.02
508.031	0.03
508.229	-0.05
508.426	0.01
508.623	0
508.82	-0.05
509.017	-0.02
509.214	-0.02
509.411	-0
509.608	-0.04
509.805	-0
510.003	-0.05
510.2	-0.02
510.397	0.02
510.594	-0.02
510.791	-0.02
510.988	-0.01
511.184	-0
511.381	0
511.578	-0.04
511.775	0.02
511.972	-0.04
512.169	-0.02
512.366	0
512.563	-0.01
512.76	-0.01
512.956	0.01
513.153	-0.02
513.35	0.01
513.547	-0
513.744	-0.03
513.94	-0.04
514.137	0.01
514.334	0.01
514.53	-0.01
514.727	-0.01
514.924	0.03
515.12	-0.01
515.317	-0.05
515.514	-0.02
515.71	-0.04
515.907	-0.01
516.103	-0.01
516.3	0.02
516.497	-0
516.693	0.01
516.89	-0.01
517.086	-0.05
517.283	0.02
517.479	-0.01
517.676	-0.02
517.872	-0.01
518.068	-0.02
518.265	-0.04
518.461	-0
518.658	-0.02
518.854	0.02
519.05	-0.02
519.247	-0.03
519.443	0.02
519.639	-0.01
519.836	-0.01
520.032	0
520.228	-0.01
520.424	0.06
520.621	0.01
520.817	-0.01
521.013	0
521.209	-0.01
521.405	0.03
521.601	-0.01
521.798	-0
521.994	0.02
522.19	-0.02
522.386	-0.06
522.582	-0.02
522.778	-0
522.974	-0.02
523.17	-0.01
523.366	-0.01
523.562	0.03
523.758	-0.01
523.954	-0.02
524.15	-0.02
524.346	-0
524.542	-0.01
524.738	-0.04
524.934	-0.01
525.129	-0.02
525.325	-0
525.521	-0.01
525.717	-0
525.913	-0
526.109	-0.01
526.304	-0.02
526.5	-0.02
526.696	0.01
526.892	-0.01
527.087	-0
527.283	-0.03
527.479	-0.01
527.674	-0.01
527.87	-0.01
528.066	-0.01
528.261	-0.01
528.457	0.01
528.653	-0.03
528.848	-0.02
529.044	0.01
529.239	-0.01
529.435	0.01
529.63	-0.01
529.826	0.02
530.021	0.01
530.217	0.02
530.412	-0.01
530.608	-0.01
530.803	-0
530.999	-0.01
531.194	-0.04
531.389	0
531.585	-0.05
531.78	-0.03
531.975	-0
532.171	0
532.366	-0.02
532.561	0
532.757	-0.03
532.952	-0.01
533.147	-0.03
533.342	0
533.538	-0.03
533.733	0.01
533.928	-0.02
534.123	-0.03
534.318	-0.05
534.513	-0.02
534.709	-0.02
534.904	-0.04
535.099	-0.03
535.294	0.01
535.489	-0.02
535.684	-0.03
535.879	-0.05
536.074	-0.03
536.269	-0.02
536.464	-0
536.659	-0.01
536.854	-0.02
537.049	-0
537.244	-0.03
537.439	-0.01
537.634	0.02
537.828	-0.02
538.023	-0.02
538.218	-0.05
538.413	-0.01
538.608	-0.04
538.803	-0
538.997	-0.02
539.192	0.02
539.387	0
539.582	0
539.776	-0
539.971	-0.02
540.166	-0.01
540.36	-0.04
540.555	-0.02
540.75	-0.02
540.944	0.01
541.139	-0.04
541.334	-0.03
541.528	0.02
541.723	-0
541.917	-0.04
542.112	-0.04
542.306	0
542.501	-0.02
542.695	-0.01
542.89	-0.03
543.084	-0.02
543.279	-0.01
543.473	-0.01
543.668	-0.01
543.862	-0.02
544.056	0.02
544.251	0.01
544.445	-0.01
544.64	-0.02
544.834	-0.05
545.028	-0.02
545.222	-0
545.417	-0.01
545.611	0.01
545.805	-0.02
546	-0.03
546.194	-0.02
546.388	0
546.582	0.02
546.776	-0
546.97	-0
547.165	0.01
547.359	0.01
547.553	-0.02
547.747	0
547.941	0.01
548.135	-0.01
548.329	0.01
548.523	-0.01
548.717	-0.02
548.911	-0.01
549.105	-0.01
549.299	0
549.493	0
549.687	-0.01
549.881	-0
550.075	-0.01
550.269	-0.04
550.463	0.02
550.657	-0.04
550.85	-0.01
551.044	-0.05
551.238	-0.01
551.432	-0.02
551.626	-0.04
551.82	0.02
552.013	-0.02
552.207	-0
552.401	-0
552.594	-0.02
552.788	-0
552.982	0
553.176	-0.04
553.369	0.01
553.563	0.01
553.756	-0.05
553.95	-0.05
554.144	-0.02
554.337	0
554.531	-0.03
554.724	-0
554.918	-0.01
555.111	0.01
555.305	0.01
555.498	0.01
555.692	0.01
555.885	-0.01
556.079	-0.01
556.272	-0.02
556.466	0.01
556.659	-0
556.852	-0.02
557.046	-0.03
557.239	0.02
557.432	-0.04
557.626	-0.04
557.819	-0
558.012	0.01
558.206	0.03
558.399	-0.01
558.592	0
558.785	-0.03
558.979	-0
559.172	-0
559.365	0.02
559.558	0.01
559.751	-0.03
559.944	0.01
560.138	-0.03
560.331	-0.02
560.524	-0.04
560.717	-0.01
560.91	-0.03
561.103	0
561.296	0
561.489	-0.01
561.682	0
561.875	0.04
562.068	0.01
562.261	0
562.454	0.01
562.647	-0.01
562.84	0.02
563.032	-0.04
563.225	-0.01
563.418	-0.01
563.611	-0.03
563.804	-0.01
563.997	-0.01
564.19	-0.05
564.382	-0.05
564.575	-0.01
564.768	-0.02
564.961	-0.02
565.153	-0.04
565.346	0
565.539	0
565.731	-0.01
565.924	0
566.117	0.03
566.309	-0.02
566.502	-0.03
566.695	-0.02
566.887	0.01
567.08	-0.03
567.272	-0.04
567.465	-0.01
567.657	-0.01
567.85	0.01
568.042	0.01
568.235	0.02
568.427	-0.01
568.62	-0.02
568.812	0.01
569.005	-0.02
569.197	-0.05
569.389	-0
569.582	-0.01
569.774	0
569.966	-0.02
570.159	-0.01
570.351	0.01
570.543	-0.03
570.736	-0.01
570.928	-0.02
571.12	-0.01
571.312	-0.03
571.505	-0.06
571.697	0.02
571.889	-0.03
572.081	-0.01
572.273	-0.03
572.465	0
572.658	-0.01
572.85	-0.01
573.042	-0.02
573.234	-0.01
573.426	0.04
573.618	-0.02
573.81	-0.01
574.002	0.01
574.194	-0
574.386	-0.05
574.578	-0.08
574.77	-0.05
574.962	-0
575.154	-0.03
575.346	-0.02
575.538	-0.01
575.729	-0.02
575.921	-0.03
576.113	-0.04
576.305	0.02
576.497	-0.01
576.689	-0.03
576.88	-0.04
577.072	-0.01
577.264	-0.03
577.456	-0.01
577.647	-0.07
577.839	-0
578.031	0.04
578.223	-0.05
578.414	-0.03
578.606	0.01
578.798	-0.02
578.989	-0.05
579.181	-0.01
579.372	-0.01
579.564	-0.02
579.755	-0
579.947	-0.01
580.139	0.01
580.33	-0.07
580.522	-0.02
580.713	-0.07
580.905	-0.02
581.096	-0.01
581.287	-0.02
581.479	-0.03
581.67	-0.01
581.862	-0.02
582.053	-0.04
582.244	-0.06
582.436	-0.02
582.627	-0.02
582.818	-0.05
583.01	-0.04
583.201	0
583.392	0.01
583.583	0.01
583.775	-0.03
583.966	-0.04
584.157	-0.03
584.348	-0.05
584.54	-0.05
584.731	0.01
584.922	-0.01
585.113	-0.03
585.304	-0.01
585.495	0.03
585.686	-0
585.877	0.01
586.068	-0.02
586.259	-0
586.45	-0.02
586.641	-0.03
586.832	-0.06
587.023	-0.01
587.214	-0.02
587.405	-0
587.596	-0.04
587.787	0.01
587.978	-0.01
588.169	-0.04
588.36	-0.04
588.551	-0.01
588.742	-0.04
588.932	-0.02
589.123	0.01
589.314	-0.01
589.505	0.01
589.696	-0
589.886	-0.01
590.077	-0.05
590.268	-0.02
590.458	-0.05
590.649	-0.05
590.84	-0
591.03	-0.02
591.221	-0.05
591.412	-0.03
591.602	0.01
591.793	0.06
591.984	-0.05
592.174	-0.06
592.365	0.05
592.555	-0.04
592.746	-0
592.936	0.02
593.127	0.02
593.317	0.03
593.508	-0.03
593.698	-0.01
593.889	-0
594.079	-0.01
594.269	-0.04
594.46	-0.01
594.65	-0.03
594.84	0.01
595.031	-0.05
595.221	-0.01
595.411	-0.03
595.602	0.02
595.792	-0.02
595.982	-0.06
596.172	0.04
596.363	-0.01
596.553	-0
596.743	-0.02
596.933	-0.01
597.123	0.01
597.314	-0.04
597.504	-0.03
597.694	0.02
597.884	-0
598.074	-0.02
598.264	-0.01
598.454	0.01
598.644	-0.02
598.834	-0.02
599.024	-0.08
599.214	0
599.404	0.03
599.594	-0.03
599.784	-0.03
599.974	0.02
600.164	0.02
600.354	-0.05
600.544	-0.06
600.734	-0
600.924	0.03
601.114	-0.03
601.303	-0.02
601.493	-0.01
601.683	-0.01
601.873	-0.04
602.063	-0.05
602.252	0.03
602.442	-0.07
602.632	-0.04
602.821	-0.05
603.011	0.03
603.201	-0.02
603.39	-0.05
603.58	-0.03
603.77	0.02
603.959	0.04
604.149	-0.02
604.339	-0.03
604.528	0.02
604.718	0.02
604.907	-0.05
605.097	-0.05
605.286	-0.08
605.476	0.02
605.665	0.02
605.855	-0.01
606.044	0.06
606.234	-0
606.423	-0.02
606.612	-0.06
606.802	-0
606.991	-0.01
607.181	-0.01
607.37	-0.04
607.559	-0.01
607.749	-0.04
607.938	-0.04
608.127	-0.02
608.316	-0.04
608.506	-0.03
608.695	-0.01
608.884	-0.04
609.073	-0.02
609.263	0
609.452	-0
609.641	-0
609.83	-0.05
610.019	-0.04
610.208	-0.05
610.397	-0.03
610.586	0.03
610.775	-0.04
610.965	-0.03
611.154	-0.04
611.343	0.01
611.532	-0.02
611.721	-0.05
611.91	-0.04
612.099	0.01
612.287	-0.04
612.476	-0.05
612.665	-0.01
612.854	-0.05
613.043	0.03
613.232	-0.02
613.421	-0.05
613.61	-0
613.798	-0.03
613.987	0.03
614.176	-0.01
614.365	0.01
614.554	-0
614.742	0
614.931	-0.02
615.12	0.01
615.309	-0.04
615.497	0.01
615.686	-0.03
615.875	-0.02
616.063	-0.03
616.252	-0.03
616.44	-0.03
616.629	-0.02
616.818	0.01
617.006	-0.03
617.195	-0.02
617.383	0
617.572	-0.04
617.76	-0.02
617.949	-0.04
618.137	-0
618.326	0.02
618.514	-0.04
618.703	-0.02
618.891	0.04
619.079	-0.08
619.268	0.03
619.456	-0.05
619.644	0.05
619.833	-0.06
620.021	-0.04
620.209	-0.07
620.398	-0.01
620.586	-0.01
620.774	0.01
620.962	-0.03
621.151	0.07
621.339	0
621.527	-0.04
621.715	-0.07
621.903	-0.05
622.092	-0.05
622.28	-0.02
622.468	-0.02
622.656	-0.01
622.844	-0
623.032	-0.04
623.22	-0.07
623.408	0.04
623.596	-0.01
623.784	0.02
623.972	-0.04
624.16	-0.02
624.348	0.06
624.536	-0.03
624.724	-0.02
624.912	0.04
625.1	-0
625.288	-0.02
625.476	-0.03
625.664	0
625.851	-0.04
626.039	-0.04
626.227	0.02
626.415	-0.03
626.603	-0.05
626.79	-0.03
626.978	-0.04
627.166	-0
627.354	0.01
627.541	-0.04
627.729	-0.08
627.917	0.02
628.104	0
628.292	0.01
628.48	-0.02
628.667	-0.01
628.855	-0
629.042	-0.03
629.23	-0.05
629.418	-0.02
629.605	-0.05
629.793	-0.05
629.98	-0.07
630.168	-0.03
630.355	-0.06
630.543	0.03
630.73	-0.03
630.917	0.02
631.105	0.04
631.292	-0.04
631.48	-0.03
631.667	0.06
631.854	-0.01
632.042	0
632.229	-0.08
632.416	-0.01
632.604	-0.03
632.791	-0.06
632.978	0.01
633.165	0.01
633.353	0.01
633.54	-0
633.727	-0.08
633.914	-0.03
634.101	-0.09
634.289	0.01
634.476	-0.04
634.663	-0.04
634.85	-0.01
635.037	-0.04
635.224	-0.07
635.411	0
635.598	0.02
635.785	-0.01
635.972	-0.03
636.159	0
636.346	-0.04
636.533	-0.03
636.72	-0.03
636.907	-0.03
637.094	0.03
637.281	-0.03
637.468	-0.03
637.655	-0.01
637.842	-0.03
638.029	-0.05
638.215	0
638.402	-0.04
638.589	-0.03
638.776	-0.02
638.963	-0.05
639.149	0.02
639.336	0.04
639.523	-0.02
639.709	-0.04
639.896	0
640.083	0.04
640.27	0.01
640.456	-0.04
640.643	0.02
640.829	-0.07
641.016	-0.01
641.203	-0.06
641.389	-0.02
641.576	-0
641.762	-0.02
641.949	-0.06
642.135	-0
642.322	0.01
642.508	-0.07
642.695	0
642.881	-0
643.068	-0.03
643.254	-0.06
643.441	0.02
643.627	-0.03
643.813	-0.02
644	0
644.186	-0.05
644.372	-0.06
644.559	0.02
644.745	-0.01
644.931	-0.05
645.118	-0.05
645.304	0.01
645.49	-0.05
645.676	-0.05
645.862	-0.03
646.049	0.01
646.235	-0.02
646.421	0.03
646.607	0.05
646.793	-0.04
646.979	-0.03
647.165	0
647.352	0.01
647.538	0.05
647.724	-0.03
647.91	-0.01
648.096	0.01
648.282	0.02
648.468	-0.03
648.654	0.01
648.84	-0
649.026	-0.02
649.212	-0.02
649.397	-0.02
649.583	-0.05
649.769	0.02
649.955	0
650.141	-0.01
650.327	0
650.513	-0.04
650.698	-0.01
650.884	-0.07
651.07	-0.01
651.256	-0.04
651.442	-0.03
651.627	-0.02
651.813	-0.01
651.999	-0.01
652.184	0.01
652.37	0.01
652.556	-0.07
652.741	0.02
652.927	-0.06
653.113	-0.03
653.298	-0.03
653.484	-0.03
653.669	-0.06
653.855	-0.02
654.04	-0
654.226	-0.05
654.412	-0.05
654.597	-0.04
654.782	0
654.968	0
655.153	-0.01
655.339	-0.03
655.524	-0.05
655.71	0.01
655.895	-0.02
656.08	-0.04
656.266	0.04
656.451	-0.03
656.636	-0.06
656.822	-0.04
657.007	-0.03
657.192	-0.06
657.378	-0.07
657.563	-0.02
657.748	-0.02
657.933	-0.02
658.118	-0.04
658.304	-0.01
658.489	0.02
658.674	0.02
658.859	-0.06
659.044	-0.04
659.229	-0
659.414	-0.03
659.599	-0.03
659.785	-0.09
659.97	-0.05
660.155	0.01
660.34	-0.01
660.525	-0.01
660.71	-0.04
660.895	-0.03
661.08	-0.04
661.264	-0.05
661.449	0.05
661.634	0.03
661.819	0.01
662.004	-0.02
662.189	-0.07
662.374	-0.04
662.559	-0.03
662.743	-0.09
662.928	0
663.113	-0.09
663.298	-0.07
663.483	-0.03
663.667	-0.03
663.852	-0.07
664.037	0.01
664.221	-0.06
664.406	0.02
664.591	-0.02
664.775	-0
664.96	-0.06
665.145	-0.01
665.329	0.03
665.514	-0.01
665.698	-0
665.883	-0.11
666.068	0.02
666.252	-0.03
666.437	-0.07
666.621	-0.04
666.806	0
666.99	0.01
667.174	-0.07
667.359	0.02
667.543	-0.04
667.728	-0.06
667.912	-0.09
668.096	-0
668.281	-0.01
668.465	-0.04
668.649	-0.04
668.834	-0.04
669.018	-0.04
669.202	-0.05
669.387	-0.04
669.571	-0.03
669.755	-0.05
669.939	-0.02
670.124	-0.01
670.308	0.04
670.492	0.02
670.676	-0.03
670.86	-0.05
671.044	-0.07
671.228	0.02
671.413	-0.05
671.597	-0.05
671.781	-0.03
671.965	-0
672.149	-0.01
672.333	-0.06
672.517	-0.04
672.701	0
672.885	-0.04
673.069	-0.09
673.253	0.05
673.437	-0.07
673.621	-0.05
673.804	-0.03
673.988	-0.04
674.172	-0.02
674.356	-0.11
674.54	-0.01
674.724	0.07
674.908	-0.05
675.091	-0.01
675.275	-0.04
675.459	-0.03
675.643	0.09
675.826	-0.01
676.01	-0.05
676.194	-0.01
676.377	0.03
676.561	0.01
676.745	-0
676.928	0.02
677.112	0.01
677.296	0
677.479	-0.03
677.663	-0.05
677.846	0
678.03	-0.03
678.213	-0.01
678.397	-0.01
678.58	-0.04
678.764	-0.06
678.947	-0.04
679.131	-0.09
679.314	0.05
679.498	-0.01
679.681	0
679.865	0.02
680.048	-0.01
680.231	-0.03
680.415	-0.05
680.598	-0.04
680.781	-0.04
680.965	-0.03
681.148	-0.02
681.331	-0.05
681.514	0.04
681.698	-0.03
681.881	0.01
682.064	-0.01
682.247	0.01
682.43	-0.1
682.614	0
682.797	0.02
682.98	-0.01
683.163	-0.06
683.346	0.03
683.529	-0.05
683.712	-0.05
683.895	-0.02
684.078	-0.06
684.261	-0.05
684.444	0.01
684.627	-0.03
684.81	-0.03
684.993	-0.03
685.176	0
685.359	-0.04
685.542	-0.04
685.725	0.03
685.908	-0
686.091	-0.02
686.274	0.02
686.457	-0.01
686.639	-0.01
686.822	0
687.005	-0.02
687.188	-0.01
687.371	0.05
687.553	-0.01
687.736	0.02
687.919	0.07
688.102	0.03
688.284	-0.02
688.467	-0.01
688.65	-0
688.832	-0.01
689.015	-0.07
689.197	-0.08
689.38	0.08
689.563	0.04
689.745	-0.06
689.928	-0
690.11	-0.01
690.293	0.02
690.475	-0.09
690.658	-0.03
690.84	-0.04
691.023	0.01
691.205	-0.06
691.388	0.04
691.57	0.03
691.752	0.02
691.935	-0.08
692.117	-0.03
692.3	-0
692.482	-0.03
692.664	-0.03
692.847	0.01
693.029	0.02
693.211	0.02
693.393	-0.07
693.576	-0.08
693.758	-0
693.94	-0.03
694.122	0.01
694.304	-0.06
694.487	-0.06
694.669	0.09
694.851	-0.05
695.033	0
695.215	-0.05
695.397	-0.07
695.579	-0.01
695.761	-0.06
695.943	-0.11
696.125	-0.01
696.308	0.02
696.49	-0.13
696.671	0.05
696.853	-0.08
697.035	0.11
697.217	0.03
697.399	0.02
697.581	-0
697.763	-0.05
697.945	-0.05
698.127	-0.04
698.309	0.02
698.491	0.01
698.672	-0
698.854	0
699.036	0.02
699.218	-0.02
699.399	0.06
699.581	-0.02
699.763	-0.03
699.945	-0.04
700.126	-0.07
700.308	0.01
700.49	-0.07
700.671	-0.12
700.853	-0.09
701.035	0
701.216	-0.01
701.398	-0.02
701.579	-0.01
701.761	0.01
701.943	-0.08
702.124	-0.08
702.306	-0.03
702.487	0.08
702.669	0.01
702.85	-0.03
703.031	-0.16
703.213	0.11
703.394	0.04
703.576	-0.03
703.757	0.04
703.938	-0.01
704.12	0.15
704.301	-0.03
704.483	-0
704.664	-0
704.845	0.04
705.026	-0.05
705.208	-0.04
705.389	-0.02
705.57	-0.02
705.751	-0.03
705.933	-0.07
706.114	-0.01
706.295	0
706.476	-0.02
706.657	0.04
706.838	-0.04
707.02	0.03
707.201	-0.08
707.382	-0.03
707.563	0.01
707.744	-0.05
707.925	-0.05
708.106	-0.04
708.287	-0.06
708.468	0.07
708.649	-0.02
708.83	-0.01
709.011	-0.07
709.192	0.1
709.373	-0.09
709.554	0.03
709.734	0
709.915	-0.03
710.096	-0.09
710.277	-0.14
710.458	-0.06
710.639	0.03
710.819	-0.07
711	-0.04
711.181	0.04
711.362	0.03
711.542	0.01
711.723	-0.04
711.904	0.05
712.085	-0.03
712.265	-0.01
712.446	-0.17
712.627	-0.02
712.807	-0.06
712.988	-0.05
713.168	-0.13
713.349	0.01
713.53	-0.1
713.71	-0.09
713.891	-0.13
714.071	0.04
714.252	-0.05
714.432	-0.04
714.613	-0.1
714.793	-0.01
714.974	0.07
715.154	0.03
715.334	0.07
715.515	0.01
715.695	-0.13
715.876	-0.04
716.056	-0.06
716.236	-0.04
716.417	-0
716.597	-0.01
716.777	0.13
716.957	-0.04
717.138	-0
717.318	-0.03
717.498	-0.12
717.678	-0.06
717.859	-0.02
718.039	-0.05
718.219	0.02
718.399	0.03
718.579	-0.11
718.759	-0.1
718.939	-0.01
719.12	-0.03
719.3	-0.01
719.48	-0.1
719.66	-0.13
719.84	0.02
720.02	-0.04
720.2	-0.12
720.38	-0.07
720.56	0.02
720.74	-0.04
720.92	0.02
721.1	0.13
721.279	0.03
721.459	-0.02
721.639	-0.09
721.819	-0.06
721.999	-0.07
722.179	0.01
722.359	-0.15
722.538	-0.08
722.718	-0.07
722.898	-0.08
723.078	-0.01
723.257	-0.11
723.437	-0.02
723.617	-0.07
723.797	-0.02
723.976	-0.03
724.156	-0.07
724.336	0.04
724.515	0.08
724.695	-0.13
724.874	-0.04
725.054	0
725.234	-0.09
725.413	-0.01
725.593	0.03
725.772	-0.07
725.952	-0.01
726.131	-0.05
726.311	0.02
726.49	-0.04
726.67	-0.14
726.849	-0.07
727.028	-0.07
727.208	-0.08
727.387	0.02
727.567	-0.15
727.746	-0.01
727.925	-0.12
728.105	-0.05
728.284	-0.1
728.463	-0.06
728.643	-0
728.822	-0.12
729.001	-0.07
729.18	-0.05
729.359	-0.05
729.539	-0.04
729.718	0
729.897	0.03
730.076	-0.09
730.255	-0.06
730.434	-0.02
730.614	0.05
730.793	0.03
730.972	-0.03
731.151	-0.01
731.33	0.07
731.509	-0.01
731.688	-0.06
731.867	-0.04
732.046	-0.11
732.225	0.09
732.404	-0.11
732.583	-0.12
732.762	-0.03
732.941	0.09
733.12	0.03
733.298	-0.04
733.477	-0.02
733.656	-0.07
733.835	-0.11
734.014	0.04
734.193	-0.1
734.371	0.02
734.55	0.09
734.729	-0.01
734.908	-0.01
735.086	0.03
735.265	0.02
735.444	-0.18
735.623	-0.13
735.801	-0.06
735.98	-0.01
736.159	-0.04
736.337	0.1
736.516	-0.03
736.694	-0.11
736.873	-0.13
737.052	0.07
737.23	0.04
737.409	-0.1
737.587	0.1
737.766	-0.21
737.944	-0.03
738.123	0.01
738.301	0.05
738.479	-0.08
738.658	-0.12
738.836	-0.23
739.015	-0.06
739.193	-0.02
739.371	-0.05
739.55	-0.09
739.728	-0.13
739.906	0.08
740.085	0.1
740.263	-0.03
740.441	-0.15
740.62	0.12
740.798	0.03
740.976	-0.08
741.154	-0.15
741.332	0.06
741.511	-0.08
741.689	-0.05
741.867	0.09
742.045	-0.05
742.223	-0.03
742.401	-0.15
742.579	-0.08
742.757	0.04
742.935	-0.18
743.114	-0.03
743.292	-0.07
743.47	0.01
743.648	-0.02
743.826	-0.15
744.004	-0.02
744.181	0.08
744.359	-0.09
744.537	0.04
744.715	-0.05
744.893	-0.08
745.071	-0.01
745.249	-0.01
745.427	-0.02
745.605	0.05
745.782	-0.07
745.96	0.01
746.138	-0.1
746.316	0.05
746.493	0.05
746.671	-0.03
746.849	-0
747.027	0.05
747.204	-0.09
747.382	-0.03
747.56	-0.13
747.737	-0.15
747.915	-0.09
748.093	-0.08
748.27	-0.05
748.448	-0.12
748.625	-0.16
748.803	-0.08
748.98	-0.09
749.158	0.04
749.335	0.13
749.513	-0.05
749.69	-0.01
749.868	-0.06
750.045	0.04
750.223	-0.14
750.4	-0.21
750.578	0.2
750.755	-0.04
750.932	-0.12
751.11	0.13
751.287	-0.18
751.464	0.06
751.642	-0.02
751.819	-0.02
751.996	-0.05
752.173	-0.1
752.351	-0.14
752.528	0.05
752.705	-0.05
752.882	-0.16
753.06	-0.02
753.237	-0.01
753.414	0.07
753.591	0.15
753.768	-0.01
753.945	-0.1
754.122	-0.13
754.299	0.07
754.476	-0.12
754.654	0.14
754.831	0.06
755.008	0.03
755.185	-0.1
755.362	-0.09
755.539	-0.02
755.716	-0.07
755.892	0.06
756.069	-0.04
756.246	-0.04
756.423	-0.08
756.6	0.17
756.777	0.04
756.954	0.02
757.131	-0.15
757.307	0.01
757.484	-0.16
757.661	-0.02
757.838	-0.08
758.015	-0.19
758.191	-0.08
758.368	0
758.545	0.11
758.721	0.05
758.898	-0.12
759.075	0.1
759.251	0.01
759.428	-0.05
759.605	-0.2
759.781	-0.06
759.958	0.08
760.134	0.05
760.311	-0.02
760.488	0.09
760.664	0.11
760.841	0.02
761.017	-0.15
761.194	-0.04
761.37	0.13
761.547	-0.13
761.723	-0.11
761.899	0.03
762.076	-0.09
762.252	-0.09
762.429	-0.1
762.605	-0.03
762.781	-0.06
762.958	0.1
763.134	0.01
763.31	-0.1
763.486	0.01
763.663	-0.22
763.839	-0.01
764.015	-0.2
764.191	-0.12
764.368	-0.1
764.544	-0.12
764.72	-0.04
764.896	0.1
765.072	0.09
765.248	-0.09
765.425	-0.01
765.601	-0.03
765.777	0.02
765.953	-0.25
766.129	-0.1
766.305	-0.01
766.481	0.02
766.657	-0.02
766.833	0.18
767.009	-0.19
767.185	-0.01
767.361	-0.11
767.537	-0.12
767.713	0.13
767.889	-0.1
768.065	0.02
768.24	-0.04
768.416	0.14
768.592	-0.1
768.768	-0.08
768.944	-0.05
769.12	-0.17
769.295	-0.14
769.471	-0.03
769.647	-0.09
769.823	-0.02
769.998	-0.16
770.174	-0.11
770.35	0.24
770.525	0.14
770.701	0.08
770.877	-0.09
771.052	-0.16
771.228	0.14
771.403	0.06
771.579	0.1
771.755	0.13
771.93	-0.09
772.106	-0.15
772.281	-0.28
772.457	-0.09
772.632	0.03
772.808	-0.23
772.983	-0.13
773.159	-0.16
773.334	0.08
773.509	-0.02
773.685	-0.16
773.86	0.31
774.036	0.21
774.211	0.06
774.386	-0.1
774.562	0.01
774.737	-0.09
774.912	-0.2
775.087	0.04
775.263	0
775.438	-0.04
775.613	-0.19
775.788	0.03
775.964	-0.02
776.139	0.28
776.314	-0.14
776.489	-0.04
776.664	-0.04
776.839	-0.18
777.014	0.07
777.19	0.1
777.365	0.22
777.54	0.12
777.715	-0.13
777.89	-0.08
778.065	-0.17
778.24	0.1
778.415	0.08
778.59	-0.18
778.765	-0.15
778.94	0.07
779.115	-0.18
779.289	-0.13
779.464	0.05
779.639	-0.04
779.814	-0.31
779.989	-0.2
780.164	0.09
780.339	0.17
780.513	-0.17
780.688	-0.28
780.863	-0.09
781.038	0.08
781.212	-0.27
781.387	-0.01
781.562	0.19
781.737	-0.12
781.911	0.11
782.086	-0.16
782.261	-0.11
782.435	0.14
782.61	-0.15
782.784	-0.08
782.959	0.2
783.134	-0.22
783.308	-0.25
783.483	-0.17
783.657	0.35
783.832	0.17
784.006	-0.35
784.181	-0.15
784.355	0.2
784.53	-0.17
784.704	-0.33
784.878	0.18
785.053	0.04
785.227	0.03
785.402	0.21
785.576	-0.27
785.75	-0.21
785.925	-0.1
786.099	-0.22
786.273	-0.05
786.448	0.2
786.622	-0.03
786.796	-0.2
786.97	-0.14
787.145	0.36
787.319	-0.42
787.493	-0.14
787.667	-0.48
787.841	-0.14
788.015	0.34
788.19	-0.3
788.364	-0.06
788.538	0.13
788.712	0.19
788.886	-0.13
789.06	0.09
789.234	0.03
789.408	-0.15
789.582	-0.24
789.756	-0.09
789.93	-0.25
790.104	-0.01
790.278	-0.29
790.452	-0.24
790.626	-0.08
790.8	-0.25
790.973	0.15
791.147	0.23
791.321	0.26
791.495	0.15
791.669	-0.17
791.843	0.07
792.016	-0.07
792.19	0.26
792.364	-0.27
792.538	0.37
792.711	0.15
792.885	-0.19
793.059	-0.19
793.233	-0.55
793.406	-0.1
793.58	0.14
793.754	0
793.927	0.03
794.101	0.29
794.274	-0.2
794.448	0.1
794.622	-0.18
794.795	0.39
794.969	-0.31
795.142	0.35
795.316	-0.31
795.489	-0.16
795.663	0.22
795.836	-0.14
796.009	-0.13
796.183	0.15
796.356	0.26
796.53	-0.12
796.703	-0.14
796.876	0.48
797.05	-0.17
797.223	-0
797.396	-0.15
797.57	-0.07
797.743	0.36
797.916	-0.08
798.09	-0.08
798.263	0.06
798.436	0.04
798.609	0.01
798.782	-0.2
798.956	0.04
799.129	0.02
799.302	0.03
799.475	-0.13
799.648	-0.3
799.821	-0.12
799.994	-0.14
800.167	-0.51
800.34	-0.11
800.514	0.04
800.687	-0.23
800.86	-0.28
801.033	-0.02
801.206	0.12
801.379	-0.31
801.551	0.15
801.724	0.28
801.897	0.41
802.07	-0.13
802.243	-0.81
802.416	-0.1
802.589	-0.31
802.762	-0.04
802.935	-0.04
803.107	0.24
803.28	0.02
803.453	0.31
803.626	-0.11
803.798	-0.09
803.971	0.05
804.144	-0.08
804.317	-0.11
804.489	0.15
804.662	-0.08
804.835	0.03
805.007	-0.47
805.18	0.18
805.353	-0.05
805.525	-0.06
805.698	-0.35
805.87	0.27
806.043	-0.01
806.215	-0.44
806.388	-0.39
806.56	-0.13
806.733	0.12
806.905	-0.05
807.078	-0.36
807.25	-0.31
807.423	0.03
807.595	0.03
807.768	-0.13
807.94	0.2
808.112	0.02
808.285	0.17
808.457	-0.22
808.629	-0.02
808.802	0.2
808.974	0.08
809.146	-0.12
809.318	-0.35
809.491	-0.18
809.663	-0.06
809.835	-0.3
810.007	0.09
810.18	-0.21
810.352	-0.5
810.524	-0.24
810.696	0.19
810.868	0.02
811.04	-0.2
811.212	0.13
811.384	0.26
811.556	0.3
811.728	-0.3
811.901	0.55
812.073	0.16
812.245	-0.65
812.417	0.05
812.589	-0.53
812.76	0.03
812.932	0.38
813.104	0.29
813.276	-0.06
813.448	0.27
813.62	-0.1
813.792	0.06
813.964	-0.12
814.136	-0
814.307	-0.49
814.479	-0.54
814.651	-0.38
814.823	0.69
814.995	0.26
815.166	-0.34
815.338	-0.28
815.51	-0.28
815.681	0.74
815.853	-0.08
816.025	-0.09
816.196	0.16
816.368	0.1
816.54	-0.71
816.711	-0.47
816.883	-0.03
817.054	0.46
817.226	-0.76
817.398	0.1
817.569	-0.11
817.741	0.17
817.912	0.14
818.084	-0.27
818.255	0.22
818.426	-0.54
818.598	-0.34
818.769	-0.34
818.941	-0.15
819.112	0.47
819.283	0.12
819.455	-0.16
819.626	-0.12
819.798	0.19
819.969	0.18
820.14	-0.3
820.311	-0.6
820.483	0.13
820.654	0.17
820.825	0.34
820.996	-0.24
821.168	-0.27
821.339	-0.22
821.51	-0.35
821.681	0.63
821.852	-0.11
822.023	-0.43
822.195	-0.78
822.366	0.55
822.537	-0.22
822.708	-0.07
822.879	-0.22
823.05	0.41
823.221	-0.08
823.392	-0
823.563	-0.05
823.734	0.09
823.905	-0.48
824.076	-0.14
824.247	-0.26
824.418	-0.66
824.589	-0
824.759	-0.51
824.93	-0.01
825.101	-1.05
825.272	-0.14
825.443	-0.25
825.614	0.54
825.784	-0.99
825.955	1.21
826.126	1.08
826.297	-0.43
826.467	0.83
826.638	0.72
826.809	-0.95
826.98	0.27
827.15	-0.4
827.321	-0.51
827.492	0.69
827.662	-0.22
827.833	0.8
828.003	0.42
828.174	-1.16
828.345	-0.6
828.515	0.24
828.686	0.28
828.856	-0.15
829.027	-0.16
829.197	-0.13
829.368	-0.13
829.538	0.16
829.709	-0.48
829.879	0.03
830.049	-0.24
830.22	-0.15
830.39	-0.16
830.56	0.13
830.731	-0.18
830.901	-0.92
831.072	-0.1
831.242	-0.01
831.412	-0.13
831.582	-0.54
831.753	-0.43
831.923	-0.14
832.093	0.08
832.263	0.13
832.434	-0.84
832.604	-0.39
832.774	0.41
832.944	0.07
833.114	-0.48
833.284	0.13
833.454	-0.37
833.624	-0.83
833.795	-0.27
833.965	0.36
834.135	0.62
834.305	-0.78
834.475	-0.39
834.645	-0.31
834.815	-0.42
834.985	-0.42
835.155	-0.67
835.325	0.68
835.494	0.21
835.664	-0.32
835.834	-0.69
836.004	-0.58
836.174	0.31
836.344	-0.02
836.514	-1.05
836.684	-0.43
836.853	-1
837.023	-0.61
837.193	-0.14
837.363	-0.02
837.532	0.22
837.702	0
837.872	-0.63
838.041	1.13
838.211	0.68
838.381	-0.93
838.55	-0.14
838.72	1.45
838.89	0.88
839.059	-0.43
839.229	-0.5
839.398	0.94
839.568	0.45
839.738	-0.05
839.907	0.1
840.077	-0.14
840.246	-0.71
840.416	-0.47
840.585	-0.7
840.755	1.1
840.924	0.43
841.093	-0.46
841.263	0.04
841.432	-0.03
841.602	-1
841.771	-0.49
841.94	-0.12
842.11	1.43
842.279	1.22
842.448	-0.92
842.617	-1.17
842.787	0.68
842.956	-1.51
843.125	-0.32
843.294	0.45
843.464	-0.03
843.633	-0.62
843.802	-0.88
843.971	-0.47
844.14	-0.07
844.309	-0.25
844.479	-1.82
844.648	-0.04
844.817	-0.31
844.986	-0.22
845.155	-0.24
845.324	-1.04
845.493	0.01
845.662	-1.07
845.831	0.49
846	0.24
846.169	-0.47
846.338	1.73
846.507	0.68
846.676	-0.13
846.844	-0.65
847.013	0.17
847.182	-1.18
847.351	-0.22
847.52	-0.88
847.689	-0.06
847.858	-0.36
848.026	-0.85
848.195	-0.69
848.364	-0.64
848.533	-0.88
848.701	0.01
848.87	0.39
849.039	0.6
849.207	0.63
849.376	0.07
849.545	1.41
849.713	-0.96
849.882	-0.54
850.051	-0.45
850.219	-0.28
850.388	0.02
850.556	-0.82
850.725	-0.44
850.893	-0.41
851.062	-0.34
851.23	0.32
851.399	-1.35
851.567	-0.3
851.736	-0.69
851.904	-0.51
852.073	-0.51
852.241	0.49
852.41	-0.58
852.578	0.62
852.746	-1.37
852.915	0.49
853.083	-0.05
853.251	-1.47
853.42	-1.24
853.588	-0.53
853.756	1.12
853.924	-0.36
854.093	-0.57
854.261	-0.18
854.429	-2.23
854.597	-0.21
854.765	-1.97
854.934	0.2
855.102	0.23
855.27	0.17
855.438	0.06
855.606	0.32
855.774	2.02
855.942	-2.11
856.11	-1.81
856.278	0.25
856.446	0.91
856.614	-0.75
856.782	-0.52
856.95	0.07
857.118	0.19
857.286	-0.55
857.454	-1.75
857.622	1.74
857.79	-1.13
857.958	-0.97
858.126	-0.82
858.294	-2.17
858.462	-0.2
858.629	-0.25
858.797	-1.62
858.965	-1.01
859.133	-0.85
859.301	-0.25
859.468	0.25
859.636	-1.47
859.804	1.24
859.971	0.88
860.139	-0.82
860.307	1.17
860.474	-0.26
860.642	-0.51
860.81	-1.04
860.977	-0.25
861.145	1.35
861.313	-0.39
861.48	-0
861.648	0.51
861.815	0.3
861.983	-2.38
862.15	-1.01
862.318	0.36
862.485	0.9
862.653	-1.24
862.82	-1.98
862.988	0.83
863.155	-0.67
863.322	-1.36
863.49	-0.78
863.657	-1.46
863.824	0.99
863.992	0.66
864.159	0.65
864.326	0.31
864.494	-1.07
864.661	2.35
864.828	-1.57
864.996	0.67
865.163	1.22
865.33	-0.62
865.497	-2.84
865.664	-0.29
865.832	-1.55
865.999	-1.01
866.166	-2.13
866.333	-1.14
866.5	0.28
866.667	0.06
866.834	-1.16
867.001	1.67
867.168	-1.6
867.335	1.15
867.502	-2.14
867.669	-0.48
867.836	0.37
868.003	-0.18
868.17	0.11
868.337	1.91
868.504	1.48
868.671	-2.22
868.838	-0.28
869.005	0.04
869.172	0.57
869.339	-1.1
869.505	-1.22
869.672	-0.35
869.839	2.46
870.006	-1.11
870.173	-0.81
870.339	0.58
870.506	2.77
870.673	-2.09
870.84	0.15
871.006	0.41
871.173	-1.3
871.34	-0.17
871.506	-0.84
871.673	-0.9
871.839	-1.92
872.006	-0.37
872.173	-1.26
872.339	-0.02
872.506	0.11
872.672	0.38
872.839	-1.74
873.005	-0.75
873.172	1.34
873.338	0.59
873.505	-0.21
873.671	-1.05
873.838	1.15
874.004	-2.2
874.171	-0.09
874.337	0.1
874.503	0.13
874.67	-0.85
874.836	-0.97
875.002	1.81
875.169	2.06
875.335	0.05
875.501	-1.65
875.668	0.75
875.834	-0.32
876	-1.27
876.166	2.18
876.332	0.6
876.499	2.41
876.665	-0.28
876.831	-0.68
876.997	1.73
877.163	1.5
877.329	-1.84
877.495	-0.5
877.662	2.26
877.828	-1.21
877.994	-1.39
878.16	-1.93
878.326	-1.35
878.492	0.23
878.658	-0.82
878.824	0.68
878.99	-1.05
879.156	-1.61
879.322	2.33
879.487	-0.27
879.653	-0.27
879.819	1.26
879.985	-2.29
880.151	0.25
880.317	-0.16
880.483	-1.54
880.648	-0.45
880.814	-2.47
880.98	-0.87
881.146	-2.95
881.312	-1.56
881.477	-0.06
881.643	-0.14
881.809	1.1
881.974	-0.38
882.14	-4.38
882.306	0.28
882.471	2.12
882.637	-0.83
882.803	-0.02
882.968	1.7
883.134	3.98
883.299	0.2
883.465	-0.38
883.63	1.3
883.796	1.13
883.961	0.2
884.127	0.81
884.292	-4.07
884.458	-1.13
884.623	-1.13
