Data from Apollo_Calib_20240827__AbsoluteIrradiance__230__02-59-01-339.txt Node

Date: Wed Aug 28 02:59:01 BST 2024
User: biology
Spectrometer: FLMT08252
Trigger mode: 0
Integration Time (sec): 5.000000E-1
Scans to average: 5
Electric dark correction enabled: true
Nonlinearity correction enabled: false
Boxcar width: 0
XAxis mode: Wavelengths
Number of Pixels in Spectrum: 3648
>>>>>Begin Spectral Data<<<<<
179.588	-0
179.809	-0
180.03	-0
180.251	-0
180.473	-0
180.694	0
180.915	0
181.136	-0
181.357	0
181.578	-0
181.799	-0
182.02	-0
182.241	0
182.462	0
182.683	0
182.904	-0
183.125	-0
183.346	0
183.567	0
183.788	-0
184.009	-0
184.23	-0
184.451	0
184.672	-0
184.892	-0
185.113	0
185.334	0
185.555	-0
185.776	-0
185.996	0
186.217	-0
186.438	-0
186.659	-0
186.879	0
187.1	-0
187.321	-0
187.541	-0
187.762	-0
187.983	-0
188.203	0
188.424	-0
188.644	-0
188.865	-0
189.086	-0
189.306	-0
189.527	-0
189.747	0
189.968	-0
190.188	0
190.409	0
190.629	0
190.849	-0
191.07	-0
191.29	0
191.511	-0
191.731	-0
191.951	-0
192.172	-0
192.392	-0
192.612	-0
192.833	-0
193.053	0
193.273	-0
193.493	-0
193.714	-0
193.934	0
194.154	0
194.374	-0
194.594	-0
194.815	-0
195.035	-0
195.255	-0
195.475	-0
195.695	0
195.915	0
196.135	-0
196.355	0
196.575	0
196.795	0
197.015	-0
197.235	-0
197.455	-0
197.675	0
197.895	-0
198.115	-0
198.335	0
198.555	-0
198.775	0
198.995	-0
199.214	0
199.434	-0
199.654	-0
199.874	-0
200.094	0.74
200.313	-0.09
200.533	-0.49
200.753	-1.01
200.973	0.62
201.192	0.27
201.412	-1.05
201.632	-0.21
201.851	0.79
202.071	-0.45
202.291	-0.57
202.51	-0.64
202.73	0.09
202.95	-0.1
203.169	-0.91
203.389	-0.17
203.608	-0.26
203.828	-0.68
204.047	-0.35
204.267	0.1
204.486	0.01
204.706	0.09
204.925	-0.33
205.145	-0.43
205.364	0.5
205.583	0.51
205.803	-0.35
206.022	-0.43
206.242	-0.14
206.461	-0.12
206.68	-0.5
206.9	-0.14
207.119	0.7
207.338	0.31
207.557	-0.5
207.777	-0.29
207.996	-0.1
208.215	0.02
208.434	-0.27
208.654	-0.58
208.873	0.09
209.092	0.35
209.311	-0.18
209.53	-0.43
209.749	-0.08
209.968	-0.4
210.187	-0.32
210.407	-0.53
210.626	0.06
210.845	0.04
211.064	-0.23
211.283	-0.35
211.502	0.18
211.721	-0.06
211.94	-0.01
212.159	0.11
212.377	-0.06
212.596	0.11
212.815	-0.09
213.034	-0.1
213.253	0.21
213.472	0.14
213.691	-0.23
213.91	-0.39
214.128	-0.31
214.347	0.3
214.566	-0.36
214.785	-0.44
215.003	0.19
215.222	0.08
215.441	-0.04
215.66	-0.37
215.878	-0.15
216.097	0
216.316	-0.31
216.534	-0.39
216.753	-0.03
216.972	-0.1
217.19	-0.34
217.409	-0.32
217.627	-0.25
217.846	-0.08
218.064	-0.09
218.283	-0.33
218.501	0.34
218.72	0.12
218.938	-0.21
219.157	-0.35
219.375	0.05
219.594	0.04
219.812	-0.34
220.031	-0.29
220.249	0.32
220.467	0.13
220.686	-0.1
220.904	-0.31
221.122	-0.07
221.341	0.21
221.559	-0.04
221.777	-0.49
221.995	-0.02
222.214	0.12
222.432	-0.03
222.65	0.06
222.868	0.03
223.086	-0.14
223.305	0.01
223.523	-0.13
223.741	0.17
223.959	-0.26
224.177	-0.39
224.395	-0.13
224.613	-0.11
224.831	0.04
225.049	-0.3
225.267	-0.23
225.485	-0.03
225.703	-0.07
225.921	-0.02
226.139	-0.18
226.357	0.14
226.575	0.15
226.793	-0.13
227.011	0.51
227.229	-0.09
227.447	0.05
227.665	-0.15
227.883	-0.31
228.1	-0.05
228.318	0.03
228.536	-0.29
228.754	-0.09
228.972	0.03
229.189	0.1
229.407	-0.1
229.625	-0.17
229.843	0.11
230.06	0.13
230.278	-0.08
230.496	-0.15
230.713	-0.03
230.931	0.07
231.149	-0.12
231.366	-0.25
231.584	-0.05
231.801	0.34
232.019	-0.03
232.236	-0.18
232.454	-0.25
232.671	-0.04
232.889	-0.1
233.106	-0.21
233.324	-0.06
233.541	0.05
233.759	-0.05
233.976	-0.2
234.194	-0.05
234.411	0.02
234.628	-0.21
234.846	-0.13
235.063	-0.04
235.28	-0.1
235.498	0.02
235.715	-0.28
235.932	0.05
236.149	-0.07
236.367	-0.21
236.584	-0.08
236.801	-0.16
237.018	0.06
237.236	0.01
237.453	-0.2
237.67	0.11
237.887	0.04
238.104	-0.11
238.321	-0.2
238.538	-0.16
238.755	0.11
238.973	-0.3
239.19	-0.09
239.407	-0.02
239.624	-0.04
239.841	-0.11
240.058	-0.12
240.275	-0.03
240.492	-0.14
240.709	-0.08
240.925	-0.15
241.142	-0.08
241.359	-0.16
241.576	-0.15
241.793	-0.11
242.01	-0.08
242.227	0.09
242.444	-0.05
242.66	0.13
242.877	0.02
243.094	-0.08
243.311	-0.04
243.527	-0.11
243.744	-0.01
243.961	0.04
244.178	-0.14
244.394	-0.11
244.611	0.06
244.828	0.12
245.044	-0.06
245.261	-0.01
245.477	-0.08
245.694	0.07
245.911	-0.12
246.127	0.02
246.344	0.17
246.56	0.1
246.777	-0.12
246.993	-0.07
247.21	-0.02
247.426	-0.16
247.643	-0.08
247.859	-0.08
248.076	-0.05
248.292	0.18
248.508	-0.15
248.725	-0.02
248.941	-0.05
249.157	0.18
249.374	-0.18
249.59	-0.07
249.806	-0.05
250.023	0.11
250.239	-0.17
250.455	-0.09
250.671	-0.07
250.888	-0.01
251.104	0.02
251.32	-0.1
251.536	0
251.752	-0.11
251.969	-0.02
252.185	-0.06
252.401	0.15
252.617	-0
252.833	-0.06
253.049	-0.03
253.265	0.02
253.481	-0.06
253.697	-0.1
253.913	-0.11
254.129	-0.02
254.345	0.02
254.561	-0.04
254.777	-0.09
254.993	0.04
255.209	-0
255.425	-0.08
255.641	-0.14
255.857	0.06
256.073	0.07
256.288	-0.16
256.504	-0.05
256.72	-0.05
256.936	0.05
257.152	-0.08
257.367	-0.14
257.583	-0.02
257.799	-0.05
258.015	-0.11
258.23	-0.1
258.446	0.13
258.662	-0.09
258.877	-0.08
259.093	-0.1
259.309	0.01
259.524	0.04
259.74	-0.09
259.955	-0.18
260.171	-0.07
260.387	-0.05
260.602	0.07
260.818	0.04
261.033	-0.06
261.249	-0.1
261.464	-0.03
261.68	-0.08
261.895	0.02
262.11	-0
262.326	-0.05
262.541	-0.15
262.757	0.02
262.972	0.02
263.187	-0.13
263.403	-0.09
263.618	0.06
263.833	0.02
264.049	-0.08
264.264	-0.03
264.479	-0
264.694	0.13
264.91	-0.1
265.125	0
265.34	0.07
265.555	0.06
265.77	-0.08
265.986	-0.09
266.201	0.06
266.416	0.09
266.631	-0.1
266.846	-0.01
267.061	-0.05
267.276	-0.01
267.491	-0.12
267.706	-0.02
267.921	0.01
268.136	0.02
268.351	-0.05
268.566	-0.09
268.781	0.07
268.996	-0
269.211	0.05
269.426	-0.1
269.641	-0.05
269.856	0.06
270.071	-0.11
270.285	-0.14
270.5	0.05
270.715	0.02
270.93	0.04
271.145	0.02
271.359	0.01
271.574	-0.12
271.789	0.04
272.004	-0.06
272.218	-0.08
272.433	0.04
272.648	-0.12
272.862	0.04
273.077	-0.06
273.292	-0.04
273.506	-0.08
273.721	-0.04
273.936	0.02
274.15	0.04
274.365	-0.07
274.579	0.03
274.794	0.07
275.008	0.09
275.223	-0.13
275.437	-0.03
275.652	0.04
275.866	0.08
276.081	-0.02
276.295	0.03
276.509	-0.03
276.724	-0.01
276.938	-0.05
277.153	-0.02
277.367	0.07
277.581	-0.01
277.796	-0.12
278.01	-0.1
278.224	0.01
278.438	0.13
278.653	-0.05
278.867	-0.05
279.081	-0.18
279.295	-0.04
279.51	0.05
279.724	-0.15
279.938	0.01
280.152	0
280.366	-0.09
280.58	-0.02
280.794	0.06
281.008	0.04
281.222	0.01
281.437	0.12
281.651	-0
281.865	0.07
282.079	0.01
282.293	-0.17
282.507	-0.04
282.721	-0.01
282.935	-0.04
283.148	-0.1
283.362	-0.06
283.576	-0.11
283.79	-0.06
284.004	-0.07
284.218	0.05
284.432	-0.06
284.646	-0.01
284.859	-0.07
285.073	-0.05
285.287	-0
285.501	-0.05
285.714	-0.06
285.928	0.01
286.142	0.04
286.356	-0.03
286.569	-0.05
286.783	0.1
286.997	0.03
287.21	-0
287.424	0.02
287.637	0
287.851	-0.04
288.065	0.01
288.278	-0.04
288.492	-0.01
288.705	-0.02
288.919	-0.01
289.132	-0.09
289.346	0.03
289.559	-0.06
289.773	-0.03
289.986	-0.05
290.2	0.01
290.413	0.04
290.626	-0.07
290.84	0
291.053	-0.03
291.267	0.1
291.48	-0.01
291.693	0.03
291.906	-0.03
292.12	-0.02
292.333	-0.02
292.546	-0.04
292.76	0.04
292.973	0.04
293.186	0.03
293.399	-0.02
293.612	0.07
293.826	0.01
294.039	-0.04
294.252	-0.01
294.465	0.06
294.678	0.04
294.891	0.03
295.104	-0.08
295.317	-0.06
295.53	-0.02
295.743	-0.01
295.956	-0.02
296.169	0.05
296.382	0.02
296.595	0
296.808	-0.04
297.021	0.06
297.234	0.01
297.447	-0.02
297.66	0.03
297.873	0.06
298.086	0.02
298.299	-0.02
298.511	-0.06
298.724	-0.02
298.937	-0.05
299.15	-0.01
299.363	0.01
299.575	0.05
299.788	0.02
300.001	-0.05
300.213	-0.09
300.426	-0.04
300.639	-0.03
300.852	-0.06
301.064	0.03
301.277	0.09
301.489	0.06
301.702	0.02
301.915	-0.04
302.127	-0.01
302.34	0.03
302.552	0.01
302.765	-0.02
302.977	0
303.19	-0.01
303.402	-0.04
303.615	-0.02
303.827	-0.06
304.04	-0.02
304.252	0.05
304.464	-0.08
304.677	0.11
304.889	0.05
305.102	-0.01
305.314	-0.03
305.526	0.07
305.739	0.06
305.951	-0.02
306.163	-0.08
306.375	0.07
306.588	-0.04
306.8	-0.03
307.012	-0.08
307.224	-0.01
307.436	0.04
307.649	-0.07
307.861	-0.01
308.073	0.08
308.285	0.01
308.497	-0.06
308.709	-0.06
308.921	0.01
309.133	0.03
309.346	-0.02
309.558	-0.01
309.77	0.08
309.982	0.05
310.194	0.01
310.406	-0.02
310.617	0.08
310.829	0.01
311.041	0.01
311.253	-0.05
311.465	0.02
311.677	0.01
311.889	-0.04
312.101	-0.03
312.313	0.06
312.524	0.01
312.736	-0.03
312.948	-0.01
313.16	0.1
313.372	0.01
313.583	-0.01
313.795	-0.01
314.007	-0.05
314.218	0.05
314.43	-0
314.642	-0.03
314.853	-0.08
315.065	0.05
315.277	0.01
315.488	-0.03
315.7	0.02
315.912	0.04
316.123	-0.05
316.335	-0.03
316.546	0.12
316.758	-0.02
316.969	-0.04
317.181	-0.05
317.392	-0.01
317.604	0.04
317.815	-0.04
318.026	-0.09
318.238	-0.01
318.449	0.02
318.661	-0.06
318.872	-0.11
319.083	-0.06
319.295	-0
319.506	-0.03
319.717	-0.04
319.929	0.02
320.14	0
320.351	-0
320.562	-0.04
320.774	0
320.985	-0
321.196	-0.07
321.407	-0.08
321.618	0.01
321.829	0.02
322.041	-0.02
322.252	0.01
322.463	0
322.674	0.01
322.885	-0.1
323.096	-0.02
323.307	-0.01
323.518	-0
323.729	-0.08
323.94	-0.05
324.151	-0.07
324.362	0.02
324.573	0
324.784	-0.05
324.995	0.05
325.206	0.03
325.417	-0.02
325.628	-0.03
325.838	-0.02
326.049	0.01
326.26	0.02
326.471	-0.03
326.682	0.02
326.892	-0.06
327.103	-0.12
327.314	-0.09
327.525	0.08
327.735	-0
327.946	-0.04
328.157	-0.07
328.368	0
328.578	-0.02
328.789	-0.02
328.999	-0.01
329.21	-0.02
329.421	0.04
329.631	-0.07
329.842	-0.05
330.052	0.03
330.263	0.02
330.473	-0.02
330.684	-0.04
330.894	0.01
331.105	0.01
331.315	-0.03
331.526	-0.08
331.736	0.06
331.947	0.03
332.157	-0.02
332.367	-0.09
332.578	0.03
332.788	0.02
332.999	-0.01
333.209	-0.01
333.419	-0.05
333.629	0.02
333.84	0.05
334.05	-0.06
334.26	0.04
334.47	-0.03
334.681	0.03
334.891	-0.02
335.101	0.06
335.311	0.09
335.521	0.03
335.732	-0.04
335.942	0.05
336.152	0.02
336.362	0.01
336.572	-0
336.782	0.02
336.992	-0.03
337.202	-0.04
337.412	-0.05
337.622	0.03
337.832	-0.01
338.042	-0.04
338.252	-0.04
338.462	-0.01
338.672	-0.02
338.882	-0.02
339.092	0.01
339.302	0.05
339.511	0.02
339.721	-0.03
339.931	-0.07
340.141	0.05
340.351	0.01
340.561	0.01
340.77	-0.03
340.98	0.03
341.19	0.01
341.4	0.02
341.609	-0.02
341.819	-0.02
342.029	-0.07
342.238	-0.02
342.448	-0.02
342.658	-0.01
342.867	0
343.077	-0.01
343.286	-0.02
343.496	0.01
343.706	0.09
343.915	-0.05
344.125	0.02
344.334	0.05
344.544	-0.04
344.753	0.01
344.963	-0.05
345.172	-0.08
345.381	-0.03
345.591	-0.04
345.8	-0.03
346.01	0.07
346.219	0.01
346.428	-0.16
346.638	-0
346.847	-0
347.056	0.03
347.266	-0.05
347.475	0
347.684	0.03
347.893	0.01
348.103	0
348.312	-0.02
348.521	-0.02
348.73	-0.01
348.94	-0.01
349.149	-0.05
349.358	-0.04
349.567	-0.03
349.776	-0.09
349.985	-0.03
350.194	0.04
350.403	0.01
350.612	-0.07
350.821	-0.03
351.03	-0.01
351.239	-0.09
351.448	-0
351.657	-0.06
351.866	0.07
352.075	-0.03
352.284	0.03
352.493	-0.1
352.702	0
352.911	-0.05
353.12	0.01
353.329	-0.04
353.538	0.05
353.746	-0.04
353.955	-0.05
354.164	-0.01
354.373	-0.04
354.582	0.03
354.79	-0.02
354.999	0.05
355.208	-0.07
355.416	0.09
355.625	-0.06
355.834	-0.01
356.042	-0.03
356.251	-0.04
356.46	-0.07
356.668	0.01
356.877	0.13
357.085	0.01
357.294	-0.05
357.503	-0.01
357.711	-0.02
357.92	0.09
358.128	0.01
358.337	-0.04
358.545	0.03
358.754	-0.03
358.962	-0
359.17	-0.05
359.379	-0.02
359.587	0
359.796	-0.02
360.004	0.04
360.212	0.02
360.421	0.04
360.629	-0.04
360.837	-0.05
361.046	0
361.254	0.11
361.462	0.01
361.67	-0
361.879	-0.03
362.087	0.01
362.295	-0.04
362.503	-0.03
362.711	-0.05
362.92	-0.04
363.128	-0.03
363.336	-0.05
363.544	-0.09
363.752	-0.06
363.96	-0.03
364.168	-0.03
364.376	-0.04
364.584	0.01
364.792	0.03
365	-0.01
365.208	0.01
365.416	0.04
365.624	0.02
365.832	-0.06
366.04	0.08
366.248	0.01
366.456	0.04
366.664	0.01
366.872	-0.02
367.079	0.01
367.287	0.01
367.495	-0.04
367.703	-0.02
367.911	-0.03
368.118	-0.03
368.326	-0.02
368.534	-0.05
368.742	0.04
368.949	-0.1
369.157	-0.03
369.365	-0
369.572	-0.03
369.78	-0.08
369.988	0.01
370.195	0.02
370.403	0.02
370.61	-0.04
370.818	-0.01
371.026	0.05
371.233	-0.01
371.441	0.02
371.648	-0.03
371.856	0.02
372.063	0
372.271	-0.07
372.478	-0.03
372.685	-0
372.893	0.05
373.1	-0.05
373.308	-0.01
373.515	0.06
373.722	0.01
373.93	-0.01
374.137	0.02
374.344	0.05
374.552	0.07
374.759	0.02
374.966	0.01
375.173	-0.04
375.381	0.03
375.588	-0.01
375.795	-0.08
376.002	0
376.209	-0.04
376.417	-0
376.624	-0.01
376.831	0.05
377.038	-0.02
377.245	-0.08
377.452	-0.02
377.659	-0.01
377.866	-0.02
378.073	-0.04
378.28	-0.03
378.487	0.04
378.694	0.01
378.901	-0.01
379.108	-0.04
379.315	-0.01
379.522	0.08
379.729	-0.02
379.936	-0.01
380.143	-0.04
380.35	0
380.557	-0.04
380.763	0.02
380.97	-0.02
381.177	0.02
381.384	0.01
381.591	-0.03
381.797	-0
382.004	-0.01
382.211	0.02
382.418	0.01
382.624	-0.02
382.831	0.06
383.038	-0.04
383.244	0.01
383.451	0
383.658	-0
383.864	-0.02
384.071	-0.05
384.277	0.03
384.484	-0.03
384.69	0.01
384.897	-0.06
385.103	0.01
385.31	-0.07
385.516	-0.02
385.723	-0.08
385.929	-0.02
386.136	-0.03
386.342	0.01
386.549	-0.02
386.755	0.03
386.961	-0
387.168	-0.04
387.374	0.02
387.58	0.03
387.787	-0.01
387.993	-0.02
388.199	0.01
388.406	-0.03
388.612	-0.02
388.818	-0.04
389.024	0.01
389.231	0.01
389.437	0.03
389.643	0.01
389.849	-0.04
390.055	-0.01
390.261	0.03
390.467	-0.03
390.674	-0.06
390.88	-0.03
391.086	0.01
391.292	-0.04
391.498	0.01
391.704	0.02
391.91	-0.01
392.116	-0.02
392.322	-0.11
392.528	-0.01
392.734	-0.02
392.94	-0.03
393.146	-0.04
393.352	-0.02
393.557	-0.05
393.763	-0.04
393.969	0.01
394.175	0
394.381	-0.01
394.587	-0.03
394.792	-0.04
394.998	0.04
395.204	0.05
395.41	-0.04
395.615	0.03
395.821	0.02
396.027	0.01
396.233	-0.06
396.438	-0.02
396.644	0.04
396.85	0.02
397.055	-0.05
397.261	-0.04
397.466	0.06
397.672	-0.01
397.878	0.02
398.083	0.01
398.289	-0.02
398.494	0.03
398.7	0.01
398.905	-0.09
399.111	0.09
399.316	-0.04
399.522	-0.02
399.727	-0.01
399.932	-0.02
400.138	0.05
400.343	0.01
400.549	0.01
400.754	0.02
400.959	0
401.165	-0.02
401.37	0.04
401.575	0.15
401.78	-0.01
401.986	-0.03
402.191	-0.01
402.396	-0.02
402.601	0.03
402.807	0.02
403.012	0.01
403.217	0.07
403.422	-0.01
403.627	0.04
403.832	-0.03
404.037	0.04
404.243	-0.01
404.448	-0.04
404.653	0.01
404.858	0.04
405.063	0.07
405.268	0.01
405.473	-0.04
405.678	0.01
405.883	0.17
406.088	0.05
406.293	0.01
406.498	-0
406.703	0.04
406.907	0.03
407.112	-0.01
407.317	0.04
407.522	0.05
407.727	-0.03
407.932	0.01
408.136	0.1
408.341	0.03
408.546	0.05
408.751	0.11
408.956	0.01
409.16	0.09
409.365	0.03
409.57	0.03
409.774	0.08
409.979	0.14
410.184	0.11
410.388	0.05
410.593	0.14
410.798	0.12
411.002	0.07
411.207	0.15
411.411	0.08
411.616	0.04
411.82	0.1
412.025	0.17
412.229	0.09
412.434	0.19
412.638	0.13
412.843	0.13
413.047	0.15
413.252	0.12
413.456	0.16
413.66	0.21
413.865	0.14
414.069	0.25
414.273	0.18
414.478	0.19
414.682	0.18
414.886	0.19
415.091	0.15
415.295	0.14
415.499	0.29
415.703	0.26
415.908	0.27
416.112	0.14
416.316	0.32
416.52	0.26
416.724	0.24
416.929	0.28
417.133	0.43
417.337	0.29
417.541	0.32
417.745	0.37
417.949	0.43
418.153	0.41
418.357	0.34
418.561	0.47
418.765	0.45
418.969	0.55
419.173	0.44
419.377	0.44
419.581	0.56
419.785	0.47
419.989	0.5
420.193	0.46
420.397	0.51
420.601	0.55
420.804	0.61
421.008	0.59
421.212	0.57
421.416	0.65
421.62	0.58
421.823	0.6
422.027	0.7
422.231	0.66
422.435	0.56
422.638	0.62
422.842	0.54
423.046	0.5
423.249	0.67
423.453	0.62
423.657	0.66
423.86	0.6
424.064	0.59
424.268	0.73
424.471	0.57
424.675	0.7
424.878	0.69
425.082	0.62
425.285	0.69
425.489	0.62
425.692	0.58
425.896	0.52
426.099	0.58
426.303	0.51
426.506	0.44
426.71	0.6
426.913	0.64
427.116	0.55
427.32	0.5
427.523	0.5
427.726	0.63
427.93	0.46
428.133	0.47
428.336	0.42
428.54	0.46
428.743	0.51
428.946	0.51
429.149	0.46
429.353	0.45
429.556	0.39
429.759	0.36
429.962	0.34
430.165	0.43
430.368	0.35
430.571	0.32
430.775	0.35
430.978	0.31
431.181	0.33
431.384	0.29
431.587	0.24
431.79	0.28
431.993	0.2
432.196	0.33
432.399	0.27
432.602	0.33
432.805	0.21
433.008	0.18
433.211	0.16
433.414	0.3
433.616	0.3
433.819	0.19
434.022	0.13
434.225	0.21
434.428	0.21
434.631	0.32
434.833	0.21
435.036	0.16
435.239	0.22
435.442	0.18
435.645	0.21
435.847	0.17
436.05	0.25
436.253	0.17
436.455	0.12
436.658	0.15
436.861	0.24
437.063	0.15
437.266	0.15
437.468	0.2
437.671	0.26
437.874	0.18
438.076	0.08
438.279	0.07
438.481	0.08
438.684	0.07
438.886	0.2
439.089	0.03
439.291	0.12
439.494	0.11
439.696	0.04
439.899	0.11
440.101	0.14
440.303	0.01
440.506	0.17
440.708	0.15
440.91	0.13
441.113	0.07
441.315	0.09
441.517	0.03
441.72	0.16
441.922	0.06
442.124	0.01
442.326	0.1
442.529	0.15
442.731	0.02
442.933	0.19
443.135	0.02
443.337	0.03
443.539	0.02
443.742	-0.02
443.944	0.06
444.146	-0
444.348	-0.01
444.55	-0.03
444.752	0.05
444.954	-0.01
445.156	0.05
445.358	-0.01
445.56	0.09
445.762	0.01
445.964	0.08
446.166	0.03
446.368	0.02
446.57	0.11
446.772	0.04
446.974	0.03
447.175	0.07
447.377	-0.04
447.579	0.04
447.781	-0.09
447.983	0.1
448.184	0.05
448.386	0.05
448.588	-0.05
448.79	0.04
448.991	-0
449.193	0.05
449.395	0.01
449.597	0.07
449.798	0.07
450	0
450.202	-0.02
450.403	0
450.605	0.02
450.806	0.02
451.008	-0.02
451.21	-0.01
451.411	0.01
451.613	-0.01
451.814	0.04
452.016	-0.03
452.217	0.01
452.419	0.07
452.62	-0.02
452.821	0.06
453.023	0.06
453.224	0.04
453.426	-0.02
453.627	0.03
453.828	0.09
454.03	-0.01
454.231	0.08
454.432	-0.1
454.634	0.04
454.835	-0.04
455.036	-0.04
455.238	0.02
455.439	0.11
455.64	-0.04
455.841	-0.05
456.042	0.14
456.244	0.03
456.445	-0.04
456.646	-0.07
456.847	-0.01
457.048	0.05
457.249	0.04
457.45	0.2
457.651	-0.07
457.852	0.08
458.054	0.04
458.255	-0.01
458.456	0.07
458.657	-0.02
458.858	-0.02
459.058	0
459.259	0.04
459.46	-0.01
459.661	-0.05
459.862	0.09
460.063	-0.05
460.264	0.06
460.465	-0.07
460.666	0.14
460.866	-0.04
461.067	0.01
461.268	-0
461.469	-0.06
461.67	-0.03
461.87	-0.05
462.071	-0.01
462.272	-0.06
462.473	-0.02
462.673	0.04
462.874	-0.04
463.075	-0.01
463.275	-0.02
463.476	-0.05
463.676	-0.03
463.877	-0.02
464.078	0.01
464.278	-0.01
464.479	-0.07
464.679	-0.01
464.88	-0.01
465.08	0.1
465.281	-0.05
465.481	-0.06
465.682	-0.05
465.882	0.05
466.083	-0
466.283	-0.01
466.483	0.01
466.684	-0.07
466.884	-0.05
467.085	-0.03
467.285	0.05
467.485	-0.08
467.686	0.01
467.886	-0.06
468.086	-0.03
468.286	-0.01
468.487	-0.01
468.687	-0.06
468.887	-0.03
469.087	0.04
469.287	-0.03
469.488	-0.06
469.688	0.01
469.888	0.07
470.088	0
470.288	0.06
470.488	0.03
470.688	-0.06
470.888	-0.03
471.088	-0.03
471.288	0.06
471.488	0.03
471.688	-0.01
471.888	-0.02
472.088	0.04
472.288	-0.02
472.488	-0.03
472.688	-0.06
472.888	-0.01
473.088	0.02
473.288	-0.01
473.488	-0.04
473.688	0.04
473.887	0.03
474.087	-0.02
474.287	-0.03
474.487	-0.03
474.687	0.03
474.886	-0.03
475.086	-0.01
475.286	0.01
475.486	-0.03
475.685	0.02
475.885	-0.03
476.085	-0.03
476.284	0.01
476.484	-0.04
476.684	0.02
476.883	0.05
477.083	0.02
477.282	-0.04
477.482	0.06
477.681	0.07
477.881	0.01
478.08	-0.04
478.28	-0.04
478.479	0.05
478.679	0.03
478.878	-0.03
479.078	-0.03
479.277	-0.01
479.477	-0.01
479.676	0.01
479.875	-0.01
480.075	-0.1
480.274	-0.02
480.473	-0.01
480.673	-0.03
480.872	0
481.071	0
481.271	0
481.47	-0.04
481.669	-0.03
481.868	0
482.067	-0.03
482.267	-0.03
482.466	-0.05
482.665	-0.03
482.864	-0.05
483.063	-0.05
483.262	0.01
483.461	0.05
483.661	0.02
483.86	0.01
484.059	-0
484.258	0.01
484.457	0.01
484.656	-0
484.855	0.03
485.054	-0.04
485.253	-0.01
485.452	-0.07
485.651	0.01
485.849	0.02
486.048	-0.04
486.247	-0.04
486.446	0
486.645	-0.06
486.844	-0.05
487.043	-0.03
487.241	0
487.44	-0.03
487.639	-0
487.838	0.01
488.037	-0.01
488.235	0.07
488.434	-0.01
488.633	-0.04
488.831	-0
489.03	0.01
489.229	0.02
489.427	-0
489.626	0.03
489.825	0.06
490.023	0.01
490.222	-0.04
490.42	-0.01
490.619	0.02
490.817	0.02
491.016	-0.03
491.214	0.03
491.413	-0.01
491.611	-0.04
491.81	-0
492.008	0.03
492.207	0
492.405	-0
492.604	-0.07
492.802	-0.01
493	0
493.199	-0.04
493.397	-0
493.595	-0.01
493.794	-0.01
493.992	0.01
494.19	0.01
494.388	0
494.587	-0.01
494.785	-0.01
494.983	-0.05
495.181	-0.01
495.379	-0.02
495.578	-0.01
495.776	0.01
495.974	0
496.172	-0.01
496.37	-0.01
496.568	-0.05
496.766	-0.01
496.964	0.01
497.162	-0.01
497.36	-0.03
497.558	0.01
497.756	0.01
497.954	-0.01
498.152	-0.03
498.35	-0.01
498.548	-0.02
498.746	0.02
498.944	-0.03
499.142	0.01
499.34	-0.01
499.538	-0
499.736	-0.03
499.933	0.02
500.131	0.02
500.329	0.02
500.527	0
500.725	0.02
500.922	0.01
501.12	-0.01
501.318	-0
501.516	-0.02
501.713	0
501.911	-0.03
502.109	-0.04
502.306	0
502.504	-0.02
502.701	-0.01
502.899	-0.02
503.097	0.05
503.294	0.01
503.492	-0.01
503.689	0.02
503.887	0.02
504.084	0.05
504.282	-0.01
504.479	-0.04
504.677	0.01
504.874	-0.05
505.072	-0.01
505.269	-0.03
505.466	-0
505.664	0.01
505.861	-0.03
506.059	-0.02
506.256	0
506.453	-0.03
506.651	0.03
506.848	0.04
507.045	-0
507.242	0.01
507.44	-0.04
507.637	-0.01
507.834	-0.01
508.031	0.01
508.229	-0.03
508.426	-0.01
508.623	0.03
508.82	-0.03
509.017	-0.01
509.214	-0.01
509.411	-0.01
509.608	-0.02
509.805	-0.01
510.003	-0.01
510.2	-0.02
510.397	0.04
510.594	-0.05
510.791	-0.04
510.988	-0.02
511.184	0.04
511.381	0.01
511.578	-0.02
511.775	0.03
511.972	-0.02
512.169	-0.01
512.366	-0
512.563	0.01
512.76	-0.02
512.956	0.01
513.153	-0.02
513.35	-0
513.547	-0.01
513.744	-0.02
513.94	-0.04
514.137	-0.01
514.334	-0.01
514.53	-0.03
514.727	-0.01
514.924	0.03
515.12	-0.02
515.317	-0.05
515.514	-0.01
515.71	-0.01
515.907	-0
516.103	-0.01
516.3	0.01
516.497	-0.01
516.693	0.01
516.89	0.01
517.086	-0.04
517.283	0.03
517.479	0.01
517.676	0.01
517.872	-0.01
518.068	-0.03
518.265	-0.05
518.461	-0.03
518.658	-0.03
518.854	0.01
519.05	-0.02
519.247	-0.04
519.443	0.02
519.639	0.01
519.836	0
520.032	-0.01
520.228	-0.03
520.424	0.03
520.621	0
520.817	-0
521.013	0
521.209	0.01
521.405	0.04
521.601	-0.01
521.798	0
521.994	0.04
522.19	-0.02
522.386	-0.04
522.582	0
522.778	0
522.974	-0.02
523.17	-0
523.366	-0.02
523.562	0.03
523.758	-0.01
523.954	-0.03
524.15	-0.01
524.346	0.03
524.542	-0.01
524.738	-0.03
524.934	-0.02
525.129	-0
525.325	0
525.521	-0.01
525.717	0.01
525.913	0
526.109	0
526.304	0
526.5	-0
526.696	0.04
526.892	-0.01
527.087	-0.01
527.283	-0.03
527.479	0.01
527.674	-0.02
527.87	-0.02
528.066	-0.01
528.261	0.02
528.457	0.01
528.653	-0.02
528.848	-0.02
529.044	0.01
529.239	-0.01
529.435	0.01
529.63	-0.01
529.826	0.03
530.021	0
530.217	-0.01
530.412	-0.03
530.608	-0.03
530.803	-0
530.999	-0.02
531.194	-0.06
531.389	0
531.585	-0.06
531.78	-0.01
531.975	-0.01
532.171	0.03
532.366	-0.01
532.561	-0.01
532.757	-0.02
532.952	-0.01
533.147	-0.01
533.342	-0.01
533.538	-0.03
533.733	0.02
533.928	-0.03
534.123	-0.03
534.318	-0.03
534.513	-0
534.709	-0.01
534.904	-0.03
535.099	-0.03
535.294	-0.01
535.489	-0.01
535.684	-0.02
535.879	-0.04
536.074	-0
536.269	-0.02
536.464	0.01
536.659	-0.01
536.854	-0.02
537.049	0
537.244	0
537.439	-0.02
537.634	0
537.828	0.01
538.023	-0
538.218	-0.04
538.413	-0.01
538.608	-0.03
538.803	0.03
538.997	-0.04
539.192	0
539.387	-0
539.582	0.02
539.776	0
539.971	-0.03
540.166	-0.01
540.36	-0.04
540.555	-0
540.75	-0.02
540.944	-0.01
541.139	-0.04
541.334	-0.02
541.528	-0.01
541.723	0.01
541.917	-0.01
542.112	-0.05
542.306	0
542.501	-0.01
542.695	-0.01
542.89	-0.03
543.084	0
543.279	-0.01
543.473	-0.02
543.668	0
543.862	-0.01
544.056	0.01
544.251	-0.01
544.445	0
544.64	-0
544.834	-0.05
545.028	-0.01
545.222	0
545.417	0.04
545.611	-0
545.805	-0.01
546	-0.02
546.194	-0.01
546.388	-0.03
546.582	-0.01
546.776	-0.03
546.97	-0
547.165	-0.02
547.359	0
547.553	-0.02
547.747	0
547.941	-0.02
548.135	-0.01
548.329	0.02
548.523	-0
548.717	-0.01
548.911	-0.02
549.105	-0.01
549.299	-0.01
549.493	0.02
549.687	0
549.881	0.01
550.075	-0.01
550.269	-0.05
550.463	0.02
550.657	-0.01
550.85	-0.03
551.044	-0.03
551.238	-0.03
551.432	-0.05
551.626	-0.04
551.82	0.01
552.013	-0.03
552.207	0.01
552.401	-0.01
552.594	0
552.788	-0.01
552.982	0
553.176	-0.06
553.369	0.01
553.563	0
553.756	-0.04
553.95	-0.04
554.144	-0.02
554.337	0.03
554.531	0.01
554.724	0
554.918	0.01
555.111	0.01
555.305	-0.01
555.498	0.06
555.692	0.02
555.885	-0.04
556.079	-0
556.272	-0.02
556.466	0
556.659	-0
556.852	-0.02
557.046	-0
557.239	0.01
557.432	-0.03
557.626	-0.02
557.819	0.01
558.012	0.02
558.206	0.02
558.399	-0.02
558.592	0.01
558.785	-0.03
558.979	0.03
559.172	-0.01
559.365	0.01
559.558	0
559.751	0.01
559.944	0
560.138	-0.01
560.331	-0.01
560.524	-0.02
560.717	-0.02
560.91	-0.01
561.103	0
561.296	-0
561.489	-0.01
561.682	-0.03
561.875	0.03
562.068	0.01
562.261	-0.01
562.454	0.04
562.647	0.01
562.84	0.01
563.032	-0.01
563.225	-0
563.418	-0.02
563.611	-0.03
563.804	0.01
563.997	-0.03
564.19	-0.02
564.382	0
564.575	-0.02
564.768	-0.02
564.961	-0
565.153	-0.05
565.346	0
565.539	0.02
565.731	-0.01
565.924	0.01
566.117	0
566.309	0.01
566.502	-0.03
566.695	0
566.887	-0.01
567.08	-0.05
567.272	-0.02
567.465	-0.03
567.657	-0
567.85	0
568.042	-0.01
568.235	0.01
568.427	0
568.62	0.01
568.812	-0.01
569.005	-0
569.197	-0.05
569.389	0.01
569.582	0.01
569.774	0.02
569.966	-0.03
570.159	0
570.351	-0.01
570.543	-0.02
570.736	-0
570.928	-0.04
571.12	-0.01
571.312	0
571.505	-0.03
571.697	0.04
571.889	-0.02
572.081	-0.03
572.273	-0.03
572.465	0.03
572.658	-0.01
572.85	-0.02
573.042	-0
573.234	-0.01
573.426	0.03
573.618	-0.03
573.81	0.01
574.002	0.03
574.194	0.03
574.386	-0.06
574.578	-0.07
574.77	-0.05
574.962	-0
575.154	-0.04
575.346	-0
575.538	0.01
575.729	-0.04
575.921	-0.02
576.113	-0.01
576.305	-0.01
576.497	-0.02
576.689	-0.02
576.88	-0.04
577.072	0.01
577.264	-0.03
577.456	0
577.647	-0.06
577.839	-0
578.031	0.04
578.223	-0.04
578.414	-0.05
578.606	-0.01
578.798	-0.01
578.989	-0.01
579.181	-0
579.372	-0.02
579.564	-0.03
579.755	-0
579.947	-0
580.139	0
580.33	-0.09
580.522	-0.02
580.713	-0.09
580.905	-0.02
581.096	-0
581.287	-0.01
581.479	-0.02
581.67	0.02
581.862	-0.02
582.053	-0.04
582.244	-0.07
582.436	-0.01
582.627	-0.01
582.818	-0.05
583.01	-0.05
583.201	0.01
583.392	-0.01
583.583	-0.03
583.775	-0.03
583.966	-0.05
584.157	-0.04
584.348	-0.03
584.54	-0.04
584.731	-0
584.922	-0.01
585.113	-0.02
585.304	0.01
585.495	0.01
585.686	-0.01
585.877	0.02
586.068	-0.01
586.259	-0
586.45	0
586.641	-0.05
586.832	-0.09
587.023	-0.02
587.214	-0.03
587.405	-0.01
587.596	-0.02
587.787	0.03
587.978	-0.04
588.169	-0.03
588.36	-0.04
588.551	0.03
588.742	-0.01
588.932	-0
589.123	-0.01
589.314	0.03
589.505	0.01
589.696	-0
589.886	-0.02
590.077	-0.06
590.268	-0.01
590.458	-0.04
590.649	-0.05
590.84	0.04
591.03	-0.05
591.221	-0.04
591.412	-0.08
591.602	0.02
591.793	0.02
591.984	-0.02
592.174	-0.01
592.365	0.04
592.555	-0.05
592.746	-0
592.936	0.01
593.127	-0
593.317	0.02
593.508	-0.03
593.698	-0.04
593.889	0.01
594.079	-0.01
594.269	-0.02
594.46	-0.02
594.65	-0.01
594.84	-0.03
595.031	-0.04
595.221	-0.05
595.411	-0.05
595.602	-0.01
595.792	-0.03
595.982	-0.05
596.172	0.06
596.363	-0.02
596.553	-0
596.743	-0.01
596.933	-0.02
597.123	0
597.314	-0.03
597.504	-0.06
597.694	0.01
597.884	0.01
598.074	-0.02
598.264	-0.03
598.454	-0
598.644	-0.01
598.834	-0.03
599.024	-0.07
599.214	-0.03
599.404	0.02
599.594	-0.02
599.784	-0.04
599.974	0.06
600.164	0.03
600.354	-0.06
600.544	-0.06
600.734	-0.01
600.924	0
601.114	-0.04
601.303	-0.02
601.493	-0
601.683	0.01
601.873	-0.03
602.063	-0.07
602.252	0.03
602.442	-0.07
602.632	-0.03
602.821	-0.06
603.011	0.01
603.201	-0.03
603.39	-0.06
603.58	-0.04
603.77	-0.01
603.959	0.01
604.149	-0.02
604.339	-0.03
604.528	0.02
604.718	0.02
604.907	-0.04
605.097	-0.04
605.286	-0.05
605.476	-0
605.665	0.01
605.855	-0.03
606.044	0.05
606.234	-0.01
606.423	-0.01
606.612	-0.03
606.802	-0.02
606.991	-0.01
607.181	-0.02
607.37	-0.06
607.559	-0.03
607.749	-0.04
607.938	-0.02
608.127	-0.03
608.316	-0.05
608.506	0.01
608.695	-0.02
608.884	-0.04
609.073	-0.02
609.263	-0.01
609.452	-0
609.641	-0
609.83	-0.05
610.019	-0.03
610.208	-0.07
610.397	-0.04
610.586	0.02
610.775	-0.05
610.965	-0.04
611.154	-0.03
611.343	0.01
611.532	0.01
611.721	-0.03
611.91	-0.02
612.099	0
612.287	-0.01
612.476	-0.03
612.665	-0.04
612.854	-0.03
613.043	-0.02
613.232	-0.02
613.421	-0.07
613.61	-0.03
613.798	-0.03
613.987	0
614.176	-0.04
614.365	-0
614.554	-0.01
614.742	0.03
614.931	-0.05
615.12	-0
615.309	-0.03
615.497	0
615.686	-0.06
615.875	-0.02
616.063	-0.03
616.252	-0.04
616.44	-0.03
616.629	-0
616.818	0.01
617.006	-0
617.195	-0.03
617.383	0.03
617.572	-0.02
617.76	-0.03
617.949	-0.02
618.137	-0.01
618.326	0.05
618.514	-0.03
618.703	-0.03
618.891	0.05
619.079	-0.07
619.268	-0.01
619.456	-0.04
619.644	0.02
619.833	-0.03
620.021	-0.03
620.209	-0.08
620.398	0
620.586	-0.03
620.774	-0
620.962	-0.03
621.151	0.04
621.339	-0.01
621.527	-0.08
621.715	-0.04
621.903	-0.05
622.092	-0.06
622.28	-0.02
622.468	-0
622.656	-0
622.844	-0.02
623.032	-0.05
623.22	-0.08
623.408	0.06
623.596	0
623.784	0.02
623.972	-0.04
624.16	-0.03
624.348	0.08
624.536	-0.05
624.724	-0.04
624.912	0.04
625.1	0.03
625.288	-0.04
625.476	-0.04
625.664	0.02
625.851	-0.05
626.039	-0
626.227	0
626.415	-0.04
626.603	-0.09
626.79	-0.05
626.978	-0.05
627.166	0.01
627.354	-0.01
627.541	-0.03
627.729	-0.07
627.917	0.01
628.104	0.02
628.292	-0.02
628.48	-0.03
628.667	0.02
628.855	0.01
629.042	-0.01
629.23	-0.04
629.418	-0.03
629.605	-0.02
629.793	-0.02
629.98	-0.02
630.168	0
630.355	-0.01
630.543	-0.01
630.73	-0.06
630.917	-0.02
631.105	0.04
631.292	-0.02
631.48	-0.02
631.667	0.04
631.854	-0.03
632.042	-0.02
632.229	-0.03
632.416	-0.01
632.604	-0.02
632.791	-0.08
632.978	-0.01
633.165	0.02
633.353	0.03
633.54	0.01
633.727	-0.09
633.914	-0.01
634.101	-0.11
634.289	0.02
634.476	-0.06
634.663	-0.05
634.85	0.02
635.037	-0.07
635.224	-0.08
635.411	0.04
635.598	-0.01
635.785	-0.02
635.972	-0.04
636.159	0.05
636.346	-0.04
636.533	-0.02
636.72	-0.05
636.907	-0.02
637.094	0.01
637.281	-0.04
637.468	0.01
637.655	-0.02
637.842	0.01
638.029	-0.04
638.215	-0
638.402	-0.01
638.589	-0.03
638.776	-0.04
638.963	-0.05
639.149	0.02
639.336	0.08
639.523	-0.04
639.709	-0
639.896	-0.04
640.083	0.05
640.27	-0.01
640.456	-0.04
640.643	0.01
640.829	-0.07
641.016	0
641.203	-0.03
641.389	0.01
641.576	-0.03
641.762	-0
641.949	-0.06
642.135	0.01
642.322	-0.01
642.508	-0.09
642.695	-0.04
642.881	-0.05
643.068	-0.03
643.254	-0.02
643.441	0
643.627	0
643.813	-0.04
644	0
644.186	-0.04
644.372	-0
644.559	0
644.745	-0.02
644.931	-0.04
645.118	0.01
645.304	-0.03
645.49	-0.01
645.676	-0.05
645.862	-0.01
646.049	0.05
646.235	-0.01
646.421	0.04
646.607	0.04
646.793	-0.03
646.979	-0.05
647.165	0.02
647.352	-0.01
647.538	0.04
647.724	0.01
647.91	0.01
648.096	0.01
648.282	0.04
648.468	-0.06
648.654	0.01
648.84	-0.01
649.026	0.01
649.212	0
649.397	-0.02
649.583	-0.06
649.769	0.02
649.955	-0.04
650.141	-0.01
650.327	0.04
650.513	-0.05
650.698	0
650.884	-0.12
651.07	-0.02
651.256	0.01
651.442	-0.04
651.627	-0.07
651.813	0.03
651.999	0
652.184	0.01
652.37	-0.03
652.556	-0.04
652.741	0.03
652.927	-0.06
653.113	-0.03
653.298	-0.01
653.484	-0.04
653.669	-0.09
653.855	-0.02
654.04	0.01
654.226	0.01
654.412	-0.04
654.597	-0.07
654.782	0
654.968	0.06
655.153	0.02
655.339	-0.01
655.524	-0.07
655.71	0.04
655.895	-0.05
656.08	-0.01
656.266	0.02
656.451	-0
656.636	-0.06
656.822	-0.02
657.007	-0.04
657.192	-0.01
657.378	-0.05
657.563	0.01
657.748	0.02
657.933	-0.01
658.118	-0.03
658.304	-0.03
658.489	0.05
658.674	0.01
658.859	-0.07
659.044	0.02
659.229	-0.02
659.414	-0.01
659.599	-0.04
659.785	-0.06
659.97	-0.02
660.155	0.01
660.34	-0.01
660.525	-0.02
660.71	-0.04
660.895	0.01
661.08	-0.02
661.264	-0.04
661.449	0.01
661.634	0.03
661.819	0.02
662.004	0.01
662.189	-0.07
662.374	-0.06
662.559	-0.06
662.743	-0.12
662.928	-0.02
663.113	-0.02
663.298	-0.09
663.483	-0.01
663.667	-0.05
663.852	-0.05
664.037	0.03
664.221	-0.06
664.406	0.02
664.591	0
664.775	-0.04
664.96	-0.01
665.145	-0
665.329	0.01
665.514	-0.04
665.698	-0.04
665.883	-0.12
666.068	0.04
666.252	-0.03
666.437	-0.04
666.621	-0.01
666.806	0.02
666.99	-0.03
667.174	-0.06
667.359	0.06
667.543	-0.01
667.728	-0.04
667.912	-0.08
668.096	-0.04
668.281	-0.02
668.465	-0.03
668.649	-0.02
668.834	-0.04
669.018	-0.03
669.202	-0.02
669.387	-0.06
669.571	-0
669.755	-0.03
669.939	-0.01
670.124	-0.05
670.308	0.04
670.492	0
670.676	0
670.86	-0.03
671.044	-0.07
671.228	0.01
671.413	-0.09
671.597	-0.02
671.781	-0.04
671.965	-0.01
672.149	-0.05
672.333	-0.06
672.517	-0.07
672.701	0
672.885	-0.04
673.069	-0.09
673.253	0.06
673.437	-0.05
673.621	-0.06
673.804	0.01
673.988	-0.02
674.172	-0.04
674.356	-0.07
674.54	-0.04
674.724	0.05
674.908	-0.04
675.091	0.04
675.275	-0.02
675.459	-0.01
675.643	0.02
675.826	0
676.01	-0.02
676.194	-0.05
676.377	0.06
676.561	0.02
676.745	0
676.928	-0.01
677.112	0.02
677.296	-0.06
677.479	-0.06
677.663	-0.04
677.846	0.01
678.03	-0.04
678.213	-0.02
678.397	-0.02
678.58	-0.07
678.764	-0.07
678.947	-0.06
679.131	-0.07
679.314	-0.01
679.498	-0.03
679.681	-0.02
679.865	0.02
680.048	-0.03
680.231	-0
680.415	-0.02
680.598	0
680.781	-0.03
680.965	-0.07
681.148	-0.01
681.331	-0.07
681.514	-0.04
681.698	0
681.881	0.02
682.064	0.02
682.247	-0.01
682.43	-0.09
682.614	0.01
682.797	0.03
682.98	0.02
683.163	-0.06
683.346	-0.03
683.529	-0.03
683.712	-0.06
683.895	-0.03
684.078	-0.08
684.261	-0.02
684.444	-0.01
684.627	-0.04
684.81	-0.05
684.993	-0.01
685.176	-0.02
685.359	-0.1
685.542	-0.09
685.725	0.05
685.908	-0.01
686.091	-0.07
686.274	0.04
686.457	0.01
686.639	-0.01
686.822	-0.04
687.005	-0.03
687.188	0
687.371	0.08
687.553	-0.02
687.736	-0.01
687.919	0.1
688.102	0.05
688.284	-0.05
688.467	0
688.65	-0.06
688.832	-0.04
689.015	-0.03
689.197	-0.06
689.38	0.07
689.563	0.07
689.745	-0.07
689.928	-0.07
690.11	-0.05
690.293	0.04
690.475	-0.1
690.658	0.02
690.84	-0.02
691.023	-0.02
691.205	-0.05
691.388	-0.03
691.57	0.07
691.752	-0
691.935	-0.08
692.117	-0.08
692.3	-0.01
692.482	-0.01
692.664	-0.06
692.847	-0.01
693.029	0.03
693.211	0.01
693.393	-0.05
693.576	-0.01
693.758	0.01
693.94	-0.05
694.122	-0.04
694.304	-0.04
694.487	-0.04
694.669	0.05
694.851	-0.05
695.033	-0.01
695.215	-0.08
695.397	-0.05
695.579	0.02
695.761	-0
695.943	-0.11
696.125	0.04
696.308	-0
696.49	-0.12
696.671	0.12
696.853	-0.07
697.035	0.13
697.217	-0.03
697.399	-0.04
697.581	-0.07
697.763	-0.04
697.945	-0.07
698.127	-0.01
698.309	0.04
698.491	-0.06
698.672	-0.03
698.854	0.04
699.036	0.03
699.218	-0.04
699.399	0.04
699.581	0.02
699.763	-0.02
699.945	-0.08
700.126	-0.08
700.308	0.03
700.49	-0.03
700.671	-0.15
700.853	-0.15
701.035	-0.07
701.216	-0.03
701.398	-0.12
701.579	-0
701.761	0.01
701.943	-0.06
702.124	-0.12
702.306	-0.04
702.487	0.06
702.669	0.01
702.85	-0.13
703.031	-0.11
703.213	0.11
703.394	0.03
703.576	-0.03
703.757	0.06
703.938	0.03
704.12	0.13
704.301	-0.01
704.483	-0.03
704.664	0.02
704.845	0.01
705.026	-0.02
705.208	-0.01
705.389	0
705.57	-0.01
705.751	-0.06
705.933	0.04
706.114	0.04
706.295	0.01
706.476	-0.09
706.657	0.08
706.838	0.02
707.02	0.07
707.201	-0.07
707.382	-0.09
707.563	0.04
707.744	-0.01
707.925	-0.09
708.106	-0.13
708.287	0.04
708.468	0.1
708.649	-0.03
708.83	0.01
709.011	-0.02
709.192	0.02
709.373	-0.13
709.554	-0.02
709.734	-0.04
709.915	0.04
710.096	-0.02
710.277	-0.15
710.458	-0.03
710.639	0.04
710.819	-0.12
711	-0.1
711.181	0.09
711.362	0.01
711.542	-0.04
711.723	-0
711.904	0.03
712.085	0.04
712.265	0.04
712.446	-0.11
712.627	-0.03
712.807	0.03
712.988	-0
713.168	-0.14
713.349	-0.02
713.53	-0.11
713.71	-0.08
713.891	-0.09
714.071	0.03
714.252	-0.09
714.432	-0.05
714.613	-0.09
714.793	-0.05
714.974	0.08
715.154	0.05
715.334	0.01
715.515	0.06
715.695	-0.11
715.876	0.04
716.056	-0.05
716.236	-0.04
716.417	-0.08
716.597	-0.05
716.777	0.07
716.957	-0.02
717.138	0.02
717.318	-0.03
717.498	-0.06
717.678	0.01
717.859	-0.02
718.039	-0.1
718.219	0.03
718.399	0
718.579	-0.09
718.759	-0.11
718.939	0.04
719.12	-0.06
719.3	-0.02
719.48	-0.2
719.66	-0.09
719.84	0.04
720.02	-0.05
720.2	-0.06
720.38	-0.08
720.56	0.07
720.74	-0.03
720.92	0.01
721.1	0.11
721.279	0.07
721.459	-0.01
721.639	-0.16
721.819	-0.03
721.999	0.03
722.179	-0.01
722.359	-0.06
722.538	-0.06
722.718	-0.03
722.898	-0.12
723.078	-0.04
723.257	-0.14
723.437	0.03
723.617	0.02
723.797	-0.1
723.976	-0.04
724.156	-0
724.336	0.13
724.515	0.14
724.695	-0.11
724.874	-0.05
725.054	-0.01
725.234	-0.11
725.413	-0.05
725.593	-0.09
725.772	-0.05
725.952	-0
726.131	-0.13
726.311	-0.09
726.49	-0
726.67	-0.17
726.849	-0.07
727.028	0.02
727.208	-0.08
727.387	0.06
727.567	-0.17
727.746	-0.06
727.925	-0.07
728.105	-0.18
728.284	-0.09
728.463	-0.26
728.643	0.03
728.822	-0.12
729.001	-0.12
729.18	0.02
729.359	0.03
729.539	0.04
729.718	-0.04
729.897	-0.04
730.076	-0.06
730.255	-0.12
730.434	-0.09
730.614	-0.06
730.793	0.01
730.972	-0.09
731.151	-0.07
731.33	0.09
731.509	-0.02
731.688	-0.04
731.867	-0.01
732.046	-0.2
732.225	0.14
732.404	-0.17
732.583	-0.17
732.762	-0
732.941	-0.05
733.12	-0.05
733.298	-0.09
733.477	0.14
733.656	-0.02
733.835	-0.15
734.014	0
734.193	-0.06
734.371	0.07
734.55	0.01
734.729	-0.17
734.908	0.04
735.086	0.01
735.265	0.05
735.444	-0.19
735.623	-0.07
735.801	-0.12
735.98	-0.07
736.159	-0.04
736.337	0.09
736.516	-0.1
736.694	-0.06
736.873	-0.1
737.052	0.03
737.23	0.09
737.409	-0.02
737.587	0.08
737.766	-0.18
737.944	-0.04
738.123	-0.01
738.301	0.04
738.479	0.01
738.658	-0.01
738.836	-0.27
739.015	-0.09
739.193	0.07
739.371	-0.15
739.55	-0.02
739.728	-0.12
739.906	-0.07
740.085	0.08
740.263	-0.07
740.441	-0.13
740.62	0.23
740.798	0.06
740.976	-0.17
741.154	-0.2
741.332	0.11
741.511	0.03
741.689	-0.08
741.867	0.03
742.045	-0.01
742.223	-0
742.401	-0.11
742.579	-0.09
742.757	-0.01
742.935	-0.13
743.114	-0.04
743.292	-0.07
743.47	-0.06
743.648	0.02
743.826	-0.15
744.004	-0.04
744.181	0.11
744.359	-0.11
744.537	0.03
744.715	-0.11
744.893	-0.03
745.071	-0.02
745.249	-0.13
745.427	0
745.605	0.09
745.782	-0.07
745.96	0.06
746.138	-0.07
746.316	0.1
746.493	-0.02
746.671	-0.05
746.849	-0.12
747.027	0.12
747.204	-0.02
747.382	-0.1
747.56	-0.15
747.737	-0.16
747.915	-0.14
748.093	-0.02
748.27	-0.12
748.448	-0.12
748.625	-0.17
748.803	-0.08
748.98	-0.14
749.158	-0.01
749.335	0.08
749.513	-0.13
749.69	0
749.868	-0.02
750.045	0.08
750.223	-0.13
750.4	-0.29
750.578	0.05
750.755	-0.03
750.932	-0.16
751.11	0.19
751.287	-0.17
751.464	0.09
751.642	-0.1
751.819	0.01
751.996	-0.01
752.173	-0.1
752.351	-0.14
752.528	0.04
752.705	-0.14
752.882	-0.08
753.06	-0.02
753.237	-0.07
753.414	0.16
753.591	0.19
753.768	-0.07
753.945	-0.12
754.122	-0.06
754.299	0.01
754.476	-0.21
754.654	-0.16
754.831	0.1
755.008	-0.07
755.185	-0.09
755.362	-0.15
755.539	0.03
755.716	-0.14
755.892	0
756.069	-0.01
756.246	-0.07
756.423	-0.01
756.6	0.12
756.777	-0.15
756.954	-0.03
757.131	-0.05
757.307	-0.19
757.484	-0.2
757.661	-0.06
757.838	0.01
758.015	-0.14
758.191	0.02
758.368	-0
758.545	0.24
758.721	0.05
758.898	-0.08
759.075	0.01
759.251	0.06
759.428	0.02
759.605	-0.21
759.781	-0.17
759.958	-0.01
760.134	0
760.311	-0.08
760.488	0.1
760.664	0.08
760.841	0.03
761.017	-0.19
761.194	-0.04
761.37	0.05
761.547	-0.09
761.723	-0.1
761.899	0.05
762.076	-0.01
762.252	-0.24
762.429	-0.12
762.605	0.06
762.781	-0.07
762.958	0.05
763.134	-0.1
763.31	-0.04
763.486	0.06
763.663	-0.29
763.839	0.05
764.015	-0.27
764.191	-0.1
764.368	-0.07
764.544	-0.11
764.72	0.06
764.896	0.08
765.072	-0.01
765.248	-0.06
765.425	-0.06
765.601	-0.04
765.777	-0.14
765.953	-0.23
766.129	-0.1
766.305	-0.08
766.481	-0.03
766.657	-0.1
766.833	0.15
767.009	-0.18
767.185	-0.24
767.361	-0.12
767.537	-0.14
767.713	0.1
767.889	-0.06
768.065	-0.09
768.24	0.06
768.416	-0
768.592	-0.05
768.768	-0.09
768.944	0.04
769.12	-0.22
769.295	-0.01
769.471	-0.26
769.647	-0.04
769.823	0.15
769.998	-0.19
770.174	-0.22
770.35	0.3
770.525	0.19
770.701	-0.1
770.877	-0.05
771.052	-0.05
771.228	0.01
771.403	-0.05
771.579	-0.04
771.755	0.29
771.93	-0.04
772.106	-0.24
772.281	-0.25
772.457	-0.09
772.632	-0.01
772.808	-0.3
772.983	-0.02
773.159	-0.28
773.334	0.21
773.509	-0.08
773.685	-0.11
773.86	0.2
774.036	0.2
774.211	-0.04
774.386	-0.04
774.562	-0.13
774.737	0.19
774.912	-0.12
775.087	0.06
775.263	-0.01
775.438	-0.06
775.613	-0.11
775.788	0.03
775.964	0.11
776.139	0.41
776.314	-0.32
776.489	-0.01
776.664	-0.08
776.839	-0.13
777.014	0.04
777.19	0.02
777.365	0.22
777.54	-0.01
777.715	-0.2
777.89	-0.13
778.065	-0.29
778.24	-0.15
778.415	-0.01
778.59	-0.13
778.765	-0.09
778.94	0
779.115	-0.04
779.289	-0.02
779.464	-0.04
779.639	-0.05
779.814	-0.3
779.989	-0.2
780.164	0.18
780.339	0.03
780.513	-0.15
780.688	-0.18
780.863	0.03
781.038	0.02
781.212	-0.28
781.387	0.02
781.562	0.18
781.737	0.02
781.911	0.22
782.086	-0.25
782.261	-0.06
782.435	0.31
782.61	-0.1
782.784	-0.01
782.959	-0.03
783.134	-0.15
783.308	-0.2
783.483	-0.09
783.657	0.18
783.832	0.07
784.006	-0.32
784.181	-0.04
784.355	0.18
784.53	-0.31
784.704	-0.17
784.878	0.21
785.053	0.19
785.227	0.16
785.402	0.31
785.576	-0.52
785.75	-0.22
785.925	-0.11
786.099	0.01
786.273	-0.1
786.448	0.08
786.622	-0.01
786.796	0.01
786.97	-0.1
787.145	0.49
787.319	-0.23
787.493	-0.14
787.667	-0.45
787.841	-0.22
788.015	0.23
788.19	-0.14
788.364	-0.05
788.538	0.36
788.712	-0.02
788.886	-0.19
789.06	0.02
789.234	-0.03
789.408	-0.52
789.582	-0.09
789.756	-0.15
789.93	-0.03
790.104	0.03
790.278	-0.16
790.452	-0.28
790.626	-0.13
790.8	-0.17
790.973	0.09
791.147	0.11
791.321	0.3
791.495	0.18
791.669	-0.04
791.843	-0.01
792.016	0.08
792.19	0.37
792.364	-0.03
792.538	0.55
792.711	0.09
792.885	-0.27
793.059	-0.25
793.233	-0.39
793.406	0.37
793.58	-0.02
793.754	0.01
793.927	-0.09
794.101	0.19
794.274	0.11
794.448	0.21
794.622	-0.29
794.795	0.22
794.969	-0.37
795.142	0.13
795.316	-0.36
795.489	-0.42
795.663	0.07
795.836	0.11
796.009	-0.25
796.183	0.42
796.356	0.12
796.53	-0.05
796.703	0.08
796.876	0.64
797.05	-0.17
797.223	-0.19
797.396	-0.08
797.57	-0.03
797.743	0.23
797.916	-0.17
798.09	0.15
798.263	0.14
798.436	-0.07
798.609	-0.1
798.782	-0.13
798.956	0.28
799.129	0.03
799.302	-0.12
799.475	-0.2
799.648	-0.5
799.821	-0.26
799.994	0.05
800.167	-0.47
800.34	0.27
800.514	-0.07
800.687	-0.12
800.86	-0.29
801.033	0
801.206	0.09
801.379	-0.29
801.551	-0.03
801.724	0.19
801.897	0.57
802.07	-0.12
802.243	-0.48
802.416	-0.18
802.589	-0.14
802.762	-0.02
802.935	0.19
803.107	-0.01
803.28	0.3
803.453	0.41
803.626	-0.24
803.798	-0.15
803.971	-0.39
804.144	-0.02
804.317	0.4
804.489	-0.08
804.662	-0.1
804.835	-0.04
805.007	-0.19
805.18	0.55
805.353	0.2
805.525	-0.04
805.698	-0.38
805.87	0.28
806.043	0.14
806.215	-0.39
806.388	-0.26
806.56	0.37
806.733	0.19
806.905	0.03
807.078	-0.32
807.25	-0.42
807.423	0.16
807.595	-0.12
807.768	-0.05
807.94	0.17
808.112	0.07
808.285	0.25
808.457	0.05
808.629	-0.33
808.802	-0.16
808.974	-0.35
809.146	-0.82
809.318	-0.32
809.491	0.06
809.663	0.25
809.835	-0.28
810.007	-0.03
810.18	0.08
810.352	-0.37
810.524	-0.15
810.696	0.2
810.868	0.25
811.04	-0.22
811.212	-0.05
811.384	0.13
811.556	-0.06
811.728	-0.45
811.901	0.54
812.073	0.01
812.245	0.37
812.417	0.27
812.589	-0.87
812.76	0.03
812.932	0.19
813.104	0.33
813.276	-0.21
813.448	0.16
813.62	-0.01
813.792	-0.03
813.964	-0.28
814.136	0.04
814.307	-0.11
814.479	-0.27
814.651	-0.27
814.823	0.67
814.995	-0.32
815.166	0.06
815.338	-0.31
815.51	-0.26
815.681	0.52
815.853	0.19
816.025	-0.42
816.196	0.49
816.368	0.1
816.54	-0.51
816.711	-0.82
816.883	0.2
817.054	0.97
817.226	-0.71
817.398	-0.01
817.569	-0.33
817.741	-0.13
817.912	0.09
818.084	-0.41
818.255	0.4
818.426	-0.09
818.598	-0.07
818.769	-0.41
818.941	0.3
819.112	0.58
819.283	0.05
819.455	-0.25
819.626	0.12
819.798	-0.13
819.969	0.2
820.14	-0.06
820.311	-0.29
820.483	0.16
820.654	0.15
820.825	-0.05
820.996	-0.25
821.168	-0.3
821.339	-0.61
821.51	-0.97
821.681	-0.16
821.852	-0.22
822.023	-0.34
822.195	-0.35
822.366	-0.16
822.537	-0.19
822.708	-0.38
822.879	-0.4
823.05	0.52
823.221	-0.02
823.392	0.01
823.563	-0.44
823.734	-0.08
823.905	0.03
824.076	-0.06
824.247	-0.67
824.418	-0.24
824.589	0.14
824.759	-0.08
824.93	-0.06
825.101	-0.75
825.272	0.4
825.443	0.56
825.614	0.34
825.784	-0.67
825.955	0.9
826.126	-0.21
826.297	-0.13
826.467	0.71
826.638	0.66
826.809	-0.6
826.98	0.03
827.15	-0.2
827.321	-0.6
827.492	0.45
827.662	0.28
827.833	0.77
828.003	0.44
828.174	-0.55
828.345	-0.52
828.515	0.27
828.686	-0.01
828.856	-0.57
829.027	-0.64
829.197	0.3
829.368	0.32
829.538	-0.14
829.709	-0.21
829.879	-0.07
830.049	-0.32
830.22	-0.49
830.39	-0.32
830.56	-0.14
830.731	-0.6
830.901	-0.68
831.072	-0.24
831.242	0.15
831.412	0.15
831.582	-0.03
831.753	-1.1
831.923	-0.23
832.093	-0.07
832.263	-0.87
832.434	-0.67
832.604	-0.68
832.774	0.56
832.944	-0.36
833.114	-0.27
833.284	-0.11
833.454	-1.06
833.624	-0.29
833.795	-0.01
833.965	0.33
834.135	0.78
834.305	-1
834.475	-1.05
834.645	-0.26
834.815	-0.74
834.985	-0.89
835.155	-0.98
835.325	0.84
835.494	0.44
835.664	-0.78
835.834	-0.86
836.004	0.13
836.174	0.33
836.344	-0.57
836.514	-0.93
836.684	-0.68
836.853	-0.21
837.023	0.23
837.193	-0.38
837.363	0.2
837.532	-0.28
837.702	0.01
837.872	-0.95
838.041	0.27
838.211	1.52
838.381	-0.6
838.55	-0.64
838.72	1.77
838.89	1
839.059	-0.52
839.229	-0.94
839.398	1.81
839.568	-0.05
839.738	-0.27
839.907	0.59
840.077	0.05
840.246	-0.55
840.416	-1.03
840.585	-0.22
840.755	0.94
840.924	0.36
841.093	-0.26
841.263	-0.93
841.432	-0.05
841.602	-1.45
841.771	-0.59
841.94	-0.83
842.11	1.74
842.279	1.02
842.448	-0.97
842.617	-1.22
842.787	1.23
842.956	-1.55
843.125	0.92
843.294	-0.5
843.464	0.95
843.633	0.46
843.802	-1.34
843.971	-0.45
844.14	0.64
844.309	0.08
844.479	-0.92
844.648	-0.93
844.817	-0.75
844.986	0.46
845.155	-0.46
845.324	-0.21
845.493	-0.7
845.662	-1.35
845.831	0.31
846	-0.02
846.169	0.21
846.338	1.36
846.507	-0.15
846.676	-0.06
846.844	0.43
847.013	0.11
847.182	-0.75
847.351	-0.87
847.52	0.04
847.689	-0.09
847.858	-0.34
848.026	-0.53
848.195	-0.43
848.364	-0.02
848.533	-0.67
848.701	-0.99
848.87	0.2
849.039	0.88
849.207	1.17
849.376	0.18
849.545	1.88
849.713	-0.58
849.882	-0.08
850.051	-0.32
850.219	0.41
850.388	0.22
850.556	-1.18
850.725	-0.95
850.893	0.13
851.062	-0.56
851.23	-0.37
851.399	-0.42
851.567	-0.6
851.736	-0.99
851.904	-0.97
852.073	0.35
852.241	0.13
852.41	-1.11
852.578	-1.18
852.746	-1.56
852.915	-0.33
853.083	0.04
853.251	-1.78
853.42	-0.7
853.588	0.22
853.756	1.06
853.924	0.11
854.093	-0.3
854.261	-0.73
854.429	-1.61
854.597	0.71
854.765	-1.7
854.934	-0.12
855.102	-0.01
855.27	-0.83
855.438	0.76
855.606	1.83
855.774	1.04
855.942	-2.24
856.11	-1.67
856.278	-0.24
856.446	0.42
856.614	0.09
856.782	-0.11
856.95	1.48
857.118	0.85
857.286	0.39
857.454	-1.25
857.622	1.14
857.79	-0.34
857.958	-1.79
858.126	-1
858.294	-3.39
858.462	-0.28
858.629	-0.97
858.797	-0.5
858.965	0.18
859.133	0.48
859.301	-0.34
859.468	0.26
859.636	-1.43
859.804	1.2
859.971	-0.3
860.139	-0.88
860.307	0.43
860.474	0.5
860.642	-1.36
860.81	-0.47
860.977	-0.56
861.145	0.24
861.313	-0.88
861.48	-0.46
861.648	0.46
861.815	-1.12
861.983	-1.31
862.15	-0.59
862.318	-0.15
862.485	-1.17
862.653	-0.22
862.82	-1.39
862.988	1.89
863.155	1.83
863.322	-1.67
863.49	-1.95
863.657	-1.87
863.824	3.62
863.992	1.16
864.159	-1
864.326	1.09
864.494	-1.56
864.661	2.52
864.828	-1.17
864.996	1.55
865.163	1.81
865.33	-1.22
865.497	-3.06
865.664	0.06
865.832	-2.79
865.999	-1.48
866.166	-2.14
866.333	-1.51
866.5	0.52
866.667	-1.17
866.834	-1.32
867.001	2.16
867.168	-2.23
867.335	-0.24
867.502	-1.79
867.669	-0.03
867.836	3.25
868.003	-0.56
868.17	0.79
868.337	1.7
868.504	1.94
868.671	-1.82
868.838	-2.69
869.005	1.39
869.172	1.85
869.339	-1.57
869.505	-0.2
869.672	-0.71
869.839	0.65
870.006	0.76
870.173	-1.95
870.339	0.24
870.506	2.98
870.673	-0.82
870.84	-0.44
871.006	0.32
871.173	-1.05
871.34	-1.31
871.506	-2.55
871.673	0.15
871.839	-2.86
872.006	-0.67
872.173	-0.81
872.339	-0.28
872.506	0.86
872.672	0.22
872.839	-1.91
873.005	-0.97
873.172	1.45
873.338	1
873.505	-1.46
873.671	-2.61
873.838	1.24
874.004	-1.97
874.171	-1.79
874.337	0.14
874.503	1.08
874.67	-1.29
874.836	-2.04
875.002	2.25
875.169	-0.5
875.335	-0.16
875.501	-1.81
875.668	0.49
875.834	0.5
876	-1.35
876.166	0.02
876.332	0.75
876.499	2.63
876.665	-1.52
876.831	-1.06
876.997	1.19
877.163	0.75
877.329	-1.46
877.495	-1.23
877.662	1.34
877.828	0.95
877.994	-0.57
878.16	-2.49
878.326	-1.63
878.492	1.96
878.658	-0.17
878.824	1.67
878.99	2.51
879.156	-2.07
879.322	1.96
879.487	-0.5
879.653	-1.07
879.819	-1.66
879.985	-0.89
880.151	0.82
880.317	-0.8
880.483	-0.49
880.648	0.88
880.814	-2.48
880.98	-0.52
881.146	-3.3
881.312	-2.74
881.477	-0.94
881.643	-0.53
881.809	0.6
881.974	1.54
882.14	-1.97
882.306	0.72
882.471	1.81
882.637	-1.78
882.803	0.45
882.968	1.7
883.134	3.74
883.299	0.49
883.465	-2.32
883.63	1.1
883.796	1.32
883.961	-0.72
884.127	1.08
884.292	-6.14
884.458	-2.33
884.623	-2.32
