Data from Apollo_Calib_20240827__AbsoluteIrradiance__159__01-48-02-303.txt Node

Date: Wed Aug 28 01:48:02 BST 2024
User: biology
Spectrometer: FLMT08252
Trigger mode: 0
Integration Time (sec): 5.000000E-1
Scans to average: 5
Electric dark correction enabled: true
Nonlinearity correction enabled: false
Boxcar width: 0
XAxis mode: Wavelengths
Number of Pixels in Spectrum: 3648
>>>>>Begin Spectral Data<<<<<
179.588	-0
179.809	-0
180.03	-0
180.251	-0
180.473	-0
180.694	0
180.915	0
181.136	-0
181.357	0
181.578	-0
181.799	0
182.02	-0
182.241	-0
182.462	-0
182.683	0
182.904	-0
183.125	-0
183.346	0
183.567	0
183.788	-0
184.009	-0
184.23	-0
184.451	0
184.672	-0
184.892	-0
185.113	0
185.334	0
185.555	-0
185.776	0
185.996	0
186.217	0
186.438	-0
186.659	-0
186.879	0
187.1	-0
187.321	-0
187.541	-0
187.762	0
187.983	-0
188.203	-0
188.424	0
188.644	-0
188.865	0
189.086	-0
189.306	-0
189.527	-0
189.747	-0
189.968	-0
190.188	0
190.409	-0
190.629	0
190.849	-0
191.07	-0
191.29	0
191.511	0
191.731	-0
191.951	-0
192.172	-0
192.392	-0
192.612	-0
192.833	-0
193.053	0
193.273	0
193.493	-0
193.714	-0
193.934	0
194.154	0
194.374	-0
194.594	-0
194.815	-0
195.035	-0
195.255	-0
195.475	-0
195.695	-0
195.915	0
196.135	-0
196.355	0
196.575	0
196.795	0
197.015	-0
197.235	-0
197.455	-0
197.675	0
197.895	-0
198.115	-0
198.335	0
198.555	-0
198.775	0
198.995	0
199.214	0
199.434	-0
199.654	-0
199.874	-0
200.094	0.4
200.313	-0.41
200.533	-0.45
200.753	-1.49
200.973	0.96
201.192	0.27
201.412	-1.3
201.632	-0.46
201.851	0.75
202.071	-0.48
202.291	-0.57
202.51	-0.98
202.73	-0.06
202.95	-0.5
203.169	-0.4
203.389	0.03
203.608	0.34
203.828	-0.37
204.047	-0.21
204.267	0.23
204.486	-0.15
204.706	-0.15
204.925	-0.3
205.145	-0.38
205.364	0.22
205.583	0.35
205.803	-0.12
206.022	-0.39
206.242	-0.19
206.461	-0.19
206.68	-0.66
206.9	0.03
207.119	0.33
207.338	0.46
207.557	-0.32
207.777	-0.18
207.996	-0.25
208.215	0.42
208.434	-0.46
208.654	-0.6
208.873	-0.05
209.092	0.42
209.311	-0.31
209.53	-0.08
209.749	-0.26
209.968	-0.21
210.187	-0.25
210.407	-0.49
210.626	-0.36
210.845	0.19
211.064	-0.38
211.283	-0.25
211.502	0.26
211.721	-0.06
211.94	-0.03
212.159	0.06
212.377	0.26
212.596	0.3
212.815	-0.14
213.034	0.14
213.253	0.38
213.472	0.16
213.691	-0.19
213.91	-0.36
214.128	-0.22
214.347	0.34
214.566	-0.6
214.785	-0.41
215.003	-0.01
215.222	0.16
215.441	-0.06
215.66	-0.48
215.878	-0.06
216.097	0.11
216.316	-0.28
216.534	-0.17
216.753	-0.04
216.972	-0.02
217.19	-0.15
217.409	-0.47
217.627	-0.32
217.846	-0.07
218.064	0.1
218.283	-0.29
218.501	0.31
218.72	0.24
218.938	-0.3
219.157	-0.23
219.375	0.19
219.594	0.2
219.812	-0.25
220.031	-0.29
220.249	0.24
220.467	0.09
220.686	-0.2
220.904	-0.37
221.122	-0.17
221.341	0.21
221.559	0.06
221.777	-0.29
221.995	-0.12
222.214	-0.01
222.432	-0.22
222.65	0.21
222.868	-0.05
223.086	0.03
223.305	0.09
223.523	-0.22
223.741	0.13
223.959	-0.2
224.177	-0.28
224.395	-0.32
224.613	-0.11
224.831	0.09
225.049	-0.18
225.267	-0.17
225.485	-0.05
225.703	-0.18
225.921	-0.04
226.139	-0.26
226.357	0.17
226.575	0.09
226.793	-0.28
227.011	0.35
227.229	-0.12
227.447	0.14
227.665	-0.19
227.883	-0.27
228.1	-0.08
228.318	-0.03
228.536	-0.31
228.754	-0.21
228.972	-0
229.189	0.07
229.407	-0.07
229.625	-0.23
229.843	0.06
230.06	-0.01
230.278	-0.02
230.496	-0.09
230.713	0.01
230.931	0.18
231.149	-0.14
231.366	-0.18
231.584	-0.09
231.801	0.25
232.019	-0.08
232.236	-0.25
232.454	-0.09
232.671	0.04
232.889	-0.1
233.106	-0.18
233.324	-0.07
233.541	-0.08
233.759	0.05
233.976	-0.07
234.194	-0.08
234.411	-0.08
234.628	-0.13
234.846	-0.04
235.063	-0.06
235.28	-0.1
235.498	-0.07
235.715	-0.26
235.932	0.08
236.149	0.01
236.367	-0.08
236.584	-0
236.801	-0
237.018	0.03
237.236	-0.03
237.453	-0.16
237.67	0.04
237.887	-0.14
238.104	-0.08
238.321	-0.11
238.538	-0.04
238.755	0.18
238.973	-0.15
239.19	-0.01
239.407	-0
239.624	-0.1
239.841	-0.14
240.058	-0.15
240.275	-0.03
240.492	-0.1
240.709	-0.08
240.925	-0.06
241.142	-0.05
241.359	-0.11
241.576	-0.07
241.793	-0.14
242.01	-0.03
242.227	0.06
242.444	0.08
242.66	0.05
242.877	0.1
243.094	-0.15
243.311	0.02
243.527	-0.03
243.744	-0.01
243.961	0.12
244.178	-0.15
244.394	-0.06
244.611	0.14
244.828	0.14
245.044	-0.04
245.261	-0.04
245.477	-0
245.694	0.04
245.911	-0.13
246.127	-0.02
246.344	0.02
246.56	-0.01
246.777	-0.01
246.993	-0.09
247.21	0
247.426	-0.04
247.643	-0.08
247.859	-0.1
248.076	-0.1
248.292	0.15
248.508	-0.06
248.725	-0.03
248.941	0.02
249.157	0.04
249.374	-0.05
249.59	-0.06
249.806	-0.05
250.023	0.13
250.239	-0.11
250.455	-0.14
250.671	-0.04
250.888	-0
251.104	0.04
251.32	-0.12
251.536	-0.06
251.752	-0.05
251.969	-0.05
252.185	0.01
252.401	0.08
252.617	-0.02
252.833	-0.05
253.049	-0.03
253.265	-0.01
253.481	-0.03
253.697	-0.09
253.913	-0.07
254.129	-0.03
254.345	0.01
254.561	-0.1
254.777	0.01
254.993	0.05
255.209	-0.03
255.425	-0.09
255.641	-0.15
255.857	0.06
256.073	0.05
256.288	-0.09
256.504	-0.03
256.72	0.04
256.936	0.05
257.152	-0.1
257.367	-0.08
257.583	-0.01
257.799	0.08
258.015	-0.04
258.23	-0.07
258.446	0.14
258.662	-0.03
258.877	-0.11
259.093	-0.02
259.309	-0.05
259.524	-0.02
259.74	-0.03
259.955	-0.13
260.171	-0.1
260.387	-0.01
260.602	0.04
260.818	-0
261.033	-0.11
261.249	-0.04
261.464	-0.09
261.68	-0.06
261.895	-0.06
262.11	0.12
262.326	-0.02
262.541	-0.17
262.757	0.02
262.972	0.07
263.187	-0.02
263.403	-0.07
263.618	0.04
263.833	-0
264.049	-0.06
264.264	-0.05
264.479	0.01
264.694	0.15
264.91	-0.06
265.125	-0.1
265.34	0.06
265.555	0.12
265.77	0.03
265.986	-0.09
266.201	0.06
266.416	0.1
266.631	-0.09
266.846	-0.02
267.061	0.01
267.276	0.14
267.491	-0.16
267.706	0.03
267.921	0.02
268.136	-0.05
268.351	-0.06
268.566	-0.09
268.781	0.1
268.996	-0
269.211	0.01
269.426	-0.08
269.641	-0.03
269.856	0.03
270.071	-0.03
270.285	-0.12
270.5	0.05
270.715	0.07
270.93	-0.09
271.145	-0.04
271.359	0.02
271.574	-0.09
271.789	-0.03
272.004	-0.1
272.218	-0.08
272.433	0.01
272.648	-0.07
272.862	0.06
273.077	-0.07
273.292	-0.02
273.506	-0.06
273.721	-0.02
273.936	0.01
274.15	0.08
274.365	-0.05
274.579	-0.01
274.794	0
275.008	0.03
275.223	-0.11
275.437	-0.06
275.652	0.05
275.866	0.03
276.081	0.02
276.295	0.02
276.509	-0
276.724	-0
276.938	0.02
277.153	0.05
277.367	0.03
277.581	0.03
277.796	-0.03
278.01	-0.05
278.224	0.04
278.438	0.06
278.653	-0.06
278.867	-0.05
279.081	-0.17
279.295	-0.01
279.51	0.01
279.724	-0.09
279.938	0.11
280.152	0.06
280.366	-0.08
280.58	-0.03
280.794	0.09
281.008	0.02
281.222	0.03
281.437	0.05
281.651	-0.01
281.865	0.1
282.079	-0.02
282.293	-0.07
282.507	-0.09
282.721	-0.01
282.935	0.02
283.148	-0.12
283.362	-0.03
283.576	-0.05
283.79	-0.02
284.004	-0.05
284.218	0.06
284.432	-0.01
284.646	-0.04
284.859	-0.04
285.073	-0.02
285.287	-0.02
285.501	-0.05
285.714	0.02
285.928	-0.02
286.142	0
286.356	-0.01
286.569	0.01
286.783	0.05
286.997	0.03
287.21	0.01
287.424	0.04
287.637	-0.03
287.851	-0.06
288.065	0.04
288.278	-0.01
288.492	-0.01
288.705	-0.02
288.919	0.02
289.132	-0.06
289.346	0.04
289.559	-0.1
289.773	-0.09
289.986	-0.02
290.2	-0.03
290.413	0.04
290.626	-0.09
290.84	-0.04
291.053	0.04
291.267	0.05
291.48	-0.03
291.693	-0.03
291.906	-0.06
292.12	-0.01
292.333	-0.04
292.546	-0.04
292.76	0.04
292.973	0.03
293.186	0.05
293.399	-0.01
293.612	0.02
293.826	-0.04
294.039	-0.03
294.252	-0.02
294.465	0.03
294.678	0.02
294.891	0.03
295.104	-0.06
295.317	-0.03
295.53	0.02
295.743	-0.05
295.956	0
296.169	0.06
296.382	0.03
296.595	-0.03
296.808	-0.07
297.021	0.05
297.234	0.06
297.447	0
297.66	0.02
297.873	0.03
298.086	0.03
298.299	-0.07
298.511	-0.06
298.724	-0
298.937	-0.08
299.15	-0.11
299.363	-0.02
299.575	-0
299.788	0.02
300.001	0
300.213	-0.04
300.426	-0.03
300.639	-0.08
300.852	-0.05
301.064	-0
301.277	0.06
301.489	0.05
301.702	0.04
301.915	-0.02
302.127	-0.02
302.34	0.03
302.552	0.01
302.765	-0
302.977	0.07
303.19	-0.04
303.402	-0.04
303.615	0.01
303.827	-0
304.04	0.04
304.252	0.01
304.464	-0.02
304.677	0.09
304.889	0.1
305.102	-0.05
305.314	-0.01
305.526	0.02
305.739	-0.01
305.951	-0.04
306.163	-0.03
306.375	0.1
306.588	-0.03
306.8	-0.02
307.012	-0.07
307.224	0.03
307.436	0.06
307.649	-0.08
307.861	0.04
308.073	0.01
308.285	-0.06
308.497	-0.04
308.709	-0.04
308.921	0
309.133	0.04
309.346	-0.02
309.558	-0.01
309.77	0.01
309.982	0.04
310.194	-0
310.406	-0.06
310.617	0.05
310.829	0
311.041	0.04
311.253	-0.07
311.465	-0.01
311.677	-0.02
311.889	-0.02
312.101	-0.09
312.313	0.01
312.524	0.06
312.736	-0.08
312.948	-0
313.16	0.06
313.372	-0
313.583	0.01
313.795	-0.06
314.007	-0.02
314.218	0.02
314.43	-0.02
314.642	-0.03
314.853	-0.05
315.065	0.03
315.277	0.01
315.488	0.01
315.7	0.04
315.912	0.01
316.123	-0.06
316.335	-0.01
316.546	0.12
316.758	-0.04
316.969	-0.02
317.181	0.02
317.392	-0.01
317.604	0.04
317.815	-0.05
318.026	-0.05
318.238	-0.01
318.449	0.05
318.661	-0.06
318.872	-0.01
319.083	-0.06
319.295	0.05
319.506	0.01
319.717	0
319.929	0
320.14	-0.01
320.351	0.02
320.562	-0.07
320.774	-0.01
320.985	-0.03
321.196	-0.02
321.407	-0.05
321.618	0.02
321.829	-0.01
322.041	0.01
322.252	-0.03
322.463	-0.01
322.674	-0.02
322.885	-0.04
323.096	-0.04
323.307	0
323.518	-0.01
323.729	-0.06
323.94	-0.07
324.151	-0.06
324.362	0.02
324.573	0.01
324.784	-0.08
324.995	0.05
325.206	-0.02
325.417	-0.01
325.628	-0.02
325.838	-0.04
326.049	0.03
326.26	0.01
326.471	0
326.682	0.03
326.892	-0.01
327.103	-0.07
327.314	-0.06
327.525	-0.01
327.735	0.02
327.946	-0.05
328.157	-0.02
328.368	-0.02
328.578	-0.01
328.789	0.05
328.999	0
329.21	-0.01
329.421	0.02
329.631	-0.01
329.842	-0.07
330.052	0.03
330.263	0.04
330.473	0.01
330.684	-0.02
330.894	-0.03
331.105	0
331.315	-0.01
331.526	-0.07
331.736	0.07
331.947	0.05
332.157	0
332.367	-0.06
332.578	0.01
332.788	0.05
332.999	0.02
333.209	0
333.419	-0.01
333.629	0.04
333.84	0.03
334.05	-0.03
334.26	0.04
334.47	0.01
334.681	0.05
334.891	-0.01
335.101	0.05
335.311	0.07
335.521	-0.04
335.732	-0.06
335.942	0.07
336.152	0.01
336.362	0.03
336.572	-0
336.782	0.04
336.992	-0.01
337.202	-0
337.412	-0.06
337.622	-0.04
337.832	0.02
338.042	0
338.252	-0.04
338.462	-0.05
338.672	0.02
338.882	-0.01
339.092	0.01
339.302	0.1
339.511	0.08
339.721	-0.03
339.931	-0.09
340.141	0.08
340.351	0.02
340.561	0.04
340.77	0.03
340.98	-0.02
341.19	0.01
341.4	-0.07
341.609	-0.01
341.819	-0.01
342.029	-0.07
342.238	0.02
342.448	-0.02
342.658	0
342.867	0
343.077	-0.01
343.286	-0.01
343.496	-0.03
343.706	0.05
343.915	-0.05
344.125	-0.01
344.334	0.02
344.544	-0.06
344.753	-0.01
344.963	-0.03
345.172	-0.04
345.381	-0.05
345.591	-0.01
345.8	-0.04
346.01	0.1
346.219	0.04
346.428	-0.16
346.638	-0.02
346.847	-0.05
347.056	0.08
347.266	-0.03
347.475	0.03
347.684	0.03
347.893	0.05
348.103	-0.02
348.312	-0.01
348.521	-0
348.73	-0.01
348.94	-0
349.149	-0.02
349.358	-0.02
349.567	-0.02
349.776	-0.05
349.985	0
350.194	0.03
350.403	0.02
350.612	-0.05
350.821	-0.01
351.03	0
351.239	-0.07
351.448	-0.01
351.657	-0.03
351.866	0.07
352.075	0.02
352.284	0.04
352.493	-0.04
352.702	0.06
352.911	0.02
353.12	-0.02
353.329	-0.03
353.538	0.06
353.746	0.01
353.955	-0.02
354.164	0
354.373	0
354.582	0.03
354.79	0.01
354.999	0.04
355.208	-0.02
355.416	0.06
355.625	-0.04
355.834	-0.03
356.042	0.03
356.251	-0
356.46	-0.04
356.668	0.04
356.877	0.07
357.085	0.02
357.294	-0.1
357.503	-0
357.711	0.01
357.92	0.11
358.128	-0.02
358.337	-0.04
358.545	0.05
358.754	-0.03
358.962	0.03
359.17	-0.03
359.379	0.04
359.587	0.03
359.796	-0
360.004	0.03
360.212	0.05
360.421	0.04
360.629	-0
360.837	-0.03
361.046	0.01
361.254	0.07
361.462	0.01
361.67	-0.01
361.879	-0.01
362.087	0.06
362.295	0.01
362.503	-0.04
362.711	-0.06
362.92	-0.02
363.128	-0.07
363.336	-0.08
363.544	-0.04
363.752	-0.01
363.96	-0.01
364.168	-0.01
364.376	-0.02
364.584	-0.02
364.792	0.02
365	0.04
365.208	0
365.416	0.01
365.624	0.03
365.832	-0.01
366.04	0.03
366.248	0.04
366.456	-0.03
366.664	-0.02
366.872	-0.01
367.079	0.01
367.287	-0.02
367.495	0.03
367.703	-0.02
367.911	-0.03
368.118	0.01
368.326	-0.01
368.534	-0.02
368.742	0.04
368.949	-0.03
369.157	-0.02
369.365	0.02
369.572	0.01
369.78	-0.06
369.988	0.07
370.195	0.05
370.403	0.05
370.61	-0.04
370.818	-0.01
371.026	0.06
371.233	-0.03
371.441	0.03
371.648	-0.01
371.856	0
372.063	-0.01
372.271	-0.02
372.478	-0.02
372.685	-0
372.893	0.09
373.1	0
373.308	-0.02
373.515	0.06
373.722	0.03
373.93	-0.01
374.137	0.02
374.344	0.12
374.552	0.04
374.759	0.03
374.966	0.01
375.173	0.02
375.381	0.04
375.588	-0.01
375.795	-0.12
376.002	-0.04
376.209	-0.02
376.417	0.02
376.624	0.01
376.831	-0.01
377.038	-0
377.245	-0.09
377.452	-0.02
377.659	-0.01
377.866	-0.06
378.073	-0.01
378.28	-0.01
378.487	0.01
378.694	0.02
378.901	-0.01
379.108	-0.04
379.315	0.04
379.522	0.1
379.729	-0.01
379.936	-0
380.143	0.01
380.35	0.02
380.557	0.04
380.763	-0.02
380.97	0.01
381.177	0.01
381.384	0.05
381.591	-0.04
381.797	0.01
382.004	0.02
382.211	0.01
382.418	0.03
382.624	0.05
382.831	0.02
383.038	-0.07
383.244	0.01
383.451	-0.01
383.658	0.04
383.864	-0.02
384.071	0.01
384.277	0.04
384.484	-0
384.69	0.06
384.897	0.02
385.103	0
385.31	-0.03
385.516	0
385.723	-0.02
385.929	0.05
386.136	-0.02
386.342	0.03
386.549	0.03
386.755	0.07
386.961	0.09
387.168	0
387.374	0.05
387.58	0.05
387.787	0.04
387.993	0.02
388.199	0.04
388.406	0.01
388.612	0.06
388.818	-0.01
389.024	0.03
389.231	0.05
389.437	0.08
389.643	0.07
389.849	0.06
390.055	0.07
390.261	0.09
390.467	0.14
390.674	0.08
390.88	0.11
391.086	0.12
391.292	0.02
391.498	0.15
391.704	0.13
391.91	0.15
392.116	0.1
392.322	0.05
392.528	0.16
392.734	0.14
392.94	0.15
393.146	0.16
393.352	0.18
393.557	0.13
393.763	0.2
393.969	0.21
394.175	0.28
394.381	0.27
394.587	0.22
394.792	0.25
394.998	0.28
395.204	0.33
395.41	0.31
395.615	0.34
395.821	0.38
396.027	0.38
396.233	0.36
396.438	0.42
396.644	0.52
396.85	0.5
397.055	0.49
397.261	0.51
397.466	0.53
397.672	0.58
397.878	0.63
398.083	0.68
398.289	0.66
398.494	0.68
398.7	0.77
398.905	0.65
399.111	0.86
399.316	0.71
399.522	0.84
399.727	0.91
399.932	0.94
400.138	0.94
400.343	1.05
400.549	1.06
400.754	1.14
400.959	1.16
401.165	1.26
401.37	1.3
401.575	1.48
401.78	1.39
401.986	1.42
402.191	1.5
402.396	1.69
402.601	1.64
402.807	1.8
403.012	1.79
403.217	2.03
403.422	1.91
403.627	2.04
403.832	2.07
404.037	2.19
404.243	2.24
404.448	2.32
404.653	2.37
404.858	2.47
405.063	2.37
405.268	2.47
405.473	2.55
405.678	2.59
405.883	2.88
406.088	2.84
406.293	2.71
406.498	2.79
406.703	2.83
406.907	2.89
407.112	2.92
407.317	3
407.522	3.18
407.727	3.02
407.932	3.12
408.136	3.14
408.341	3.06
408.546	3.05
408.751	3.04
408.956	3.08
409.16	3.04
409.365	3.01
409.57	2.95
409.774	2.84
409.979	2.9
410.184	2.76
410.388	2.73
410.593	2.77
410.798	2.73
411.002	2.64
411.207	2.63
411.411	2.57
411.616	2.41
411.82	2.43
412.025	2.34
412.229	2.25
412.434	2.23
412.638	2.17
412.843	2.05
413.047	2.03
413.252	1.84
413.456	1.94
413.66	1.88
413.865	1.75
414.069	1.74
414.273	1.65
414.478	1.59
414.682	1.54
414.886	1.51
415.091	1.38
415.295	1.36
415.499	1.42
415.703	1.29
415.908	1.32
416.112	1.19
416.316	1.3
416.52	1.21
416.724	1.1
416.929	1.1
417.133	1.21
417.337	1.03
417.541	1.05
417.745	1.02
417.949	1.04
418.153	0.96
418.357	0.94
418.561	1.05
418.765	0.94
418.969	1.01
419.173	0.99
419.377	0.87
419.581	0.97
419.785	0.82
419.989	0.78
420.193	0.82
420.397	0.78
420.601	0.84
420.804	0.81
421.008	0.72
421.212	0.74
421.416	0.77
421.62	0.68
421.823	0.64
422.027	0.68
422.231	0.65
422.435	0.55
422.638	0.57
422.842	0.55
423.046	0.48
423.249	0.56
423.453	0.53
423.657	0.5
423.86	0.46
424.064	0.43
424.268	0.5
424.471	0.46
424.675	0.47
424.878	0.45
425.082	0.41
425.285	0.41
425.489	0.37
425.692	0.37
425.896	0.28
426.099	0.34
426.303	0.29
426.506	0.3
426.71	0.39
426.913	0.37
427.116	0.37
427.32	0.31
427.523	0.25
427.726	0.37
427.93	0.21
428.133	0.25
428.336	0.18
428.54	0.2
428.743	0.33
428.946	0.28
429.149	0.24
429.353	0.23
429.556	0.21
429.759	0.22
429.962	0.16
430.165	0.21
430.368	0.22
430.571	0.12
430.775	0.21
430.978	0.12
431.181	0.2
431.384	0.21
431.587	0.17
431.79	0.16
431.993	0.12
432.196	0.15
432.399	0.19
432.602	0.22
432.805	0.17
433.008	0.17
433.211	0.12
433.414	0.22
433.616	0.22
433.819	0.14
434.022	0.12
434.225	0.19
434.428	0.17
434.631	0.3
434.833	0.16
435.036	0.13
435.239	0.19
435.442	0.14
435.645	0.1
435.847	0.12
436.05	0.18
436.253	0.13
436.455	0.08
436.658	0.08
436.861	0.23
437.063	0.06
437.266	0.11
437.468	0.1
437.671	0.24
437.874	0.09
438.076	0.08
438.279	0.02
438.481	0.11
438.684	0.06
438.886	0.17
439.089	0.01
439.291	0.06
439.494	0.11
439.696	0.09
439.899	0.05
440.101	0.09
440.303	0.01
440.506	0.1
440.708	0.09
440.91	0.1
441.113	0.03
441.315	0.12
441.517	0.02
441.72	0.08
441.922	0.02
442.124	0.02
442.326	0.11
442.529	0.16
442.731	0.05
442.933	0.16
443.135	0.06
443.337	0.06
443.539	0.01
443.742	0.04
443.944	0.06
444.146	0
444.348	0.1
444.55	0.02
444.752	0.04
444.954	-0.01
445.156	0.07
445.358	0.04
445.56	0.11
445.762	0.01
445.964	0.08
446.166	0
446.368	-0.01
446.57	0.08
446.772	0.02
446.974	0.04
447.175	-0.01
447.377	0
447.579	0.04
447.781	-0.05
447.983	0.1
448.184	0.02
448.386	0.05
448.588	-0.03
448.79	-0.02
448.991	-0.03
449.193	0.01
449.395	0.01
449.597	0.07
449.798	0.05
450	0.05
450.202	0.01
450.403	0.03
450.605	0.03
450.806	-0
451.008	-0.01
451.21	0.04
451.411	0.06
451.613	-0
451.814	0.02
452.016	0.06
452.217	0.02
452.419	0.06
452.62	0.02
452.821	0.02
453.023	0.08
453.224	0.06
453.426	0.03
453.627	0.06
453.828	0.06
454.03	-0.01
454.231	0.08
454.432	-0.01
454.634	0.07
454.835	-0
455.036	-0.01
455.238	0.07
455.439	0.07
455.64	-0.03
455.841	0.04
456.042	0.12
456.244	0.04
456.445	-0.07
456.646	-0.02
456.847	0.04
457.048	0.02
457.249	0.1
457.45	0.2
457.651	-0.02
457.852	0.08
458.054	0.04
458.255	-0.02
458.456	0.03
458.657	0.06
458.858	-0.03
459.058	0
459.259	0.05
459.46	0.05
459.661	0.01
459.862	0.12
460.063	-0.01
460.264	0.11
460.465	-0.02
460.666	0.12
460.866	0.03
461.067	0.03
461.268	0.05
461.469	0.01
461.67	0
461.87	0.01
462.071	-0
462.272	-0
462.473	0.02
462.673	0.07
462.874	-0.01
463.075	0.03
463.275	-0
463.476	0.03
463.676	0.01
463.877	0.05
464.078	0.03
464.278	0.07
464.479	0
464.679	0.02
464.88	0.02
465.08	0.09
465.281	-0.03
465.481	0.01
465.682	0.05
465.882	0.05
466.083	0.04
466.283	0.03
466.483	0.02
466.684	-0.01
466.884	0.04
467.085	0.01
467.285	0.06
467.485	-0.01
467.686	-0.03
467.886	-0.04
468.086	0.02
468.286	-0.01
468.487	0.03
468.687	-0.04
468.887	-0
469.087	0.04
469.287	0.01
469.488	-0.03
469.688	0.07
469.888	0.07
470.088	0.05
470.288	0.07
470.488	0.04
470.688	-0.03
470.888	0
471.088	0
471.288	0.05
471.488	0.01
471.688	0.05
471.888	-0.04
472.088	0.1
472.288	0.03
472.488	-0.02
472.688	-0.02
472.888	0.01
473.088	0.02
473.288	-0.01
473.488	0
473.688	0.09
473.887	0
474.087	-0.01
474.287	0.03
474.487	-0
474.687	0.05
474.886	-0.02
475.086	0
475.286	0.01
475.486	0.03
475.685	0.03
475.885	0
476.085	-0
476.284	0.05
476.484	0.03
476.684	0.03
476.883	0.1
477.083	0.01
477.282	-0.05
477.482	0.07
477.681	0.04
477.881	0.03
478.08	-0.02
478.28	-0
478.479	0.05
478.679	0.06
478.878	-0.04
479.078	0.02
479.277	-0.02
479.477	-0.02
479.676	0.03
479.875	0.02
480.075	-0.06
480.274	0.04
480.473	0.02
480.673	0
480.872	0.04
481.071	0.05
481.271	0.02
481.47	-0.02
481.669	0
481.868	-0.01
482.067	-0.01
482.267	-0.02
482.466	-0
482.665	-0
482.864	-0.02
483.063	-0.03
483.262	0.03
483.461	0.06
483.661	0.04
483.86	0.03
484.059	0
484.258	0.01
484.457	-0
484.656	-0.02
484.855	0.04
485.054	-0.05
485.253	-0.03
485.452	-0.03
485.651	0.01
485.849	0.02
486.048	-0.01
486.247	-0
486.446	0.02
486.645	-0.02
486.844	-0.01
487.043	0.02
487.241	0.02
487.44	-0.03
487.639	-0.02
487.838	0.01
488.037	0.03
488.235	0.06
488.434	0
488.633	-0
488.831	0.03
489.03	0.04
489.229	0.03
489.427	0.02
489.626	0.03
489.825	0.06
490.023	0
490.222	0
490.42	0.03
490.619	0.04
490.817	0.02
491.016	-0.03
491.214	0.04
491.413	-0.01
491.611	-0
491.81	-0
492.008	0.01
492.207	-0
492.405	-0
492.604	-0.01
492.802	0.03
493	0
493.199	-0.04
493.397	0.01
493.595	-0.02
493.794	-0.02
493.992	0.06
494.19	-0.02
494.388	0.02
494.587	0.02
494.785	-0.01
494.983	-0.03
495.181	0
495.379	0
495.578	-0.02
495.776	0.02
495.974	0.03
496.172	-0.02
496.37	-0.03
496.568	-0.02
496.766	-0.02
496.964	0.01
497.162	-0
497.36	-0.04
497.558	0.02
497.756	0.04
497.954	0.01
498.152	0
498.35	-0
498.548	-0.01
498.746	-0
498.944	-0.02
499.142	-0.01
499.34	-0.02
499.538	-0
499.736	-0.02
499.933	0.02
500.131	0.04
500.329	0.02
500.527	0.04
500.725	0.03
500.922	0.03
501.12	0
501.318	-0
501.516	0
501.713	-0.01
501.911	0.01
502.109	-0.02
502.306	0.02
502.504	-0.01
502.701	-0.01
502.899	0.01
503.097	0.05
503.294	0.01
503.492	-0
503.689	0.01
503.887	0
504.084	0.05
504.282	0.02
504.479	-0.02
504.677	-0
504.874	-0.04
505.072	0.01
505.269	0.01
505.466	0.02
505.664	0.03
505.861	-0.02
506.059	-0.01
506.256	0.04
506.453	-0
506.651	0.03
506.848	0.02
507.045	0.03
507.242	0.01
507.44	0.01
507.637	0.01
507.834	0.01
508.031	0.03
508.229	-0.03
508.426	-0.02
508.623	0.01
508.82	-0.01
509.017	-0.01
509.214	-0
509.411	-0.01
509.608	-0.01
509.805	0.02
510.003	-0.03
510.2	-0.01
510.397	0.02
510.594	-0.01
510.791	-0.02
510.988	-0.01
511.184	0.04
511.381	0.01
511.578	-0.05
511.775	0.04
511.972	-0
512.169	-0.01
512.366	-0
512.563	0.01
512.76	-0.02
512.956	0.01
513.153	0.01
513.35	0.01
513.547	-0.01
513.744	-0.05
513.94	-0.02
514.137	-0.01
514.334	0.02
514.53	-0
514.727	0.02
514.924	0.03
515.12	-0.01
515.317	-0.05
515.514	-0.02
515.71	-0.05
515.907	-0.01
516.103	-0.01
516.3	0.01
516.497	0.02
516.693	0.02
516.89	0
517.086	-0.03
517.283	0.02
517.479	0.01
517.676	-0.01
517.872	-0.01
518.068	-0.02
518.265	-0.03
518.461	-0.01
518.658	-0.01
518.854	0.02
519.05	-0
519.247	-0.01
519.443	0.03
519.639	0.03
519.836	0.01
520.032	0.01
520.228	0.01
520.424	0.02
520.621	0.01
520.817	0.01
521.013	-0
521.209	0.01
521.405	0.02
521.601	-0
521.798	0.01
521.994	0.01
522.19	-0.04
522.386	-0.03
522.582	-0
522.778	0.02
522.974	-0.01
523.17	0
523.366	0.02
523.562	-0.01
523.758	0.01
523.954	-0
524.15	-0.01
524.346	0.01
524.542	-0.05
524.738	-0.02
524.934	-0.02
525.129	-0.09
525.325	0
525.521	-0
525.717	0.01
525.913	-0.02
526.109	0.01
526.304	-0.02
526.5	0.01
526.696	0.01
526.892	-0
527.087	0
527.283	-0.03
527.479	0.01
527.674	-0.02
527.87	-0
528.066	-0.02
528.261	0.02
528.457	0.01
528.653	-0.02
528.848	-0.02
529.044	0.02
529.239	-0.02
529.435	0.04
529.63	0.01
529.826	0.04
530.021	-0
530.217	-0.01
530.412	0.01
530.608	-0.03
530.803	-0
530.999	-0.01
531.194	-0.04
531.389	-0.01
531.585	-0.07
531.78	0
531.975	0.01
532.171	0.01
532.366	-0.02
532.561	0.01
532.757	-0.05
532.952	-0.01
533.147	0.02
533.342	0.01
533.538	-0.01
533.733	0.01
533.928	-0
534.123	-0.02
534.318	-0.04
534.513	-0
534.709	-0.01
534.904	-0.03
535.099	-0.01
535.294	-0.02
535.489	-0.01
535.684	-0.03
535.879	-0.02
536.074	-0
536.269	-0.01
536.464	0.01
536.659	-0.01
536.854	-0
537.049	-0
537.244	-0.02
537.439	-0.02
537.634	0.01
537.828	0.01
538.023	-0.01
538.218	-0.05
538.413	-0.02
538.608	-0.03
538.803	0.01
538.997	-0.04
539.192	0.03
539.387	-0.02
539.582	0.01
539.776	0.02
539.971	-0.02
540.166	-0.01
540.36	-0.02
540.555	-0.01
540.75	0
540.944	-0
541.139	-0.02
541.334	-0
541.528	-0.01
541.723	0.03
541.917	-0.02
542.112	-0.04
542.306	-0.02
542.501	-0.03
542.695	-0.01
542.89	-0.03
543.084	-0.01
543.279	-0
543.473	-0
543.668	0.01
543.862	-0.01
544.056	0.03
544.251	-0.01
544.445	0.01
544.64	-0.02
544.834	-0.04
545.028	0.01
545.222	-0
545.417	0.01
545.611	0.01
545.805	-0
546	-0.01
546.194	-0.01
546.388	-0.02
546.582	0.01
546.776	-0.03
546.97	0.01
547.165	0.01
547.359	0.02
547.553	-0.03
547.747	0
547.941	0.01
548.135	-0
548.329	0.02
548.523	0.01
548.717	-0
548.911	-0.03
549.105	-0.02
549.299	-0.01
549.493	0.03
549.687	0.02
549.881	0.01
550.075	0.02
550.269	-0.04
550.463	-0.01
550.657	-0.02
550.85	-0.01
551.044	-0.05
551.238	0
551.432	-0.03
551.626	-0.05
551.82	0.01
552.013	-0.01
552.207	-0.01
552.401	0.01
552.594	0
552.788	-0
552.982	-0
553.176	-0.02
553.369	0
553.563	0.01
553.756	-0.04
553.95	-0.03
554.144	-0.03
554.337	0.02
554.531	-0.01
554.724	0
554.918	-0.01
555.111	0
555.305	-0
555.498	0.05
555.692	0.03
555.885	-0.02
556.079	0
556.272	-0.01
556.466	0
556.659	-0.02
556.852	-0.02
557.046	-0.04
557.239	0.03
557.432	-0.03
557.626	-0.02
557.819	-0.01
558.012	0.01
558.206	0.02
558.399	-0
558.592	0.03
558.785	-0.02
558.979	0.03
559.172	-0.01
559.365	0.01
559.558	0
559.751	-0
559.944	0.02
560.138	-0
560.331	-0.02
560.524	-0.02
560.717	-0.02
560.91	0
561.103	0.02
561.296	-0
561.489	0.01
561.682	0.01
561.875	0.01
562.068	0.02
562.261	0
562.454	0.03
562.647	0
562.84	0.01
563.032	0.01
563.225	0.01
563.418	-0.01
563.611	0
563.804	-0
563.997	-0.03
564.19	-0.04
564.382	-0.01
564.575	-0.01
564.768	-0.01
564.961	-0.01
565.153	-0.01
565.346	0.01
565.539	-0.01
565.731	0.03
565.924	0.01
566.117	0.02
566.309	0
566.502	-0.03
566.695	0
566.887	0
567.08	-0.03
567.272	-0.02
567.465	-0.01
567.657	-0.01
567.85	0.01
568.042	-0
568.235	0.03
568.427	0.01
568.62	-0.01
568.812	0.01
569.005	-0.01
569.197	-0.05
569.389	0.01
569.582	-0.01
569.774	-0.02
569.966	-0.04
570.159	-0.06
570.351	0.02
570.543	-0.03
570.736	-0
570.928	-0.03
571.12	-0.01
571.312	-0.02
571.505	-0.04
571.697	0.02
571.889	-0.03
572.081	-0.01
572.273	-0.04
572.465	0.02
572.658	-0.02
572.85	0
573.042	-0.02
573.234	-0.01
573.426	0.04
573.618	-0.03
573.81	0.01
574.002	0.02
574.194	0.03
574.386	-0.03
574.578	-0.08
574.77	-0.02
574.962	-0.02
575.154	-0.03
575.346	-0.01
575.538	0.01
575.729	-0.04
575.921	-0.04
576.113	0.01
576.305	0.03
576.497	-0.02
576.689	-0
576.88	-0.02
577.072	0.01
577.264	-0.03
577.456	-0.02
577.647	-0.08
577.839	-0.01
578.031	0.03
578.223	-0.04
578.414	-0.06
578.606	0.02
578.798	-0
578.989	-0.02
579.181	-0.02
579.372	-0.01
579.564	-0.01
579.755	0
579.947	0.01
580.139	0.01
580.33	-0.06
580.522	-0.04
580.713	-0.08
580.905	-0.02
581.096	0
581.287	-0.01
581.479	-0.02
581.67	0
581.862	-0.01
582.053	-0.03
582.244	-0.06
582.436	-0.04
582.627	-0
582.818	-0.06
583.01	-0.06
583.201	0.02
583.392	0.01
583.583	-0
583.775	-0.04
583.966	-0.03
584.157	-0.01
584.348	-0.03
584.54	-0.06
584.731	0.02
584.922	-0.03
585.113	-0.01
585.304	0.02
585.495	0.01
585.686	0.02
585.877	-0
586.068	0.01
586.259	0.02
586.45	-0.01
586.641	-0.02
586.832	-0.06
587.023	0.01
587.214	-0.02
587.405	0.01
587.596	-0.05
587.787	0.03
587.978	0
588.169	-0.03
588.36	-0.02
588.551	-0.02
588.742	-0.05
588.932	-0
589.123	-0
589.314	0.03
589.505	0.02
589.696	0
589.886	-0.04
590.077	-0.05
590.268	-0.01
590.458	-0.06
590.649	-0.05
590.84	0.03
591.03	-0.06
591.221	-0.06
591.412	-0.06
591.602	-0.01
591.793	0
591.984	-0.04
592.174	-0.02
592.365	0.04
592.555	-0.04
592.746	-0.01
592.936	-0.02
593.127	-0
593.317	0
593.508	-0.02
593.698	-0.04
593.889	0
594.079	0.01
594.269	-0.04
594.46	-0.03
594.65	-0
594.84	-0
595.031	-0.05
595.221	-0.02
595.411	-0.07
595.602	-0.02
595.792	-0.03
595.982	-0.05
596.172	0.05
596.363	-0.02
596.553	0.02
596.743	-0.04
596.933	-0.04
597.123	0.03
597.314	-0.01
597.504	-0.04
597.694	0.01
597.884	-0.01
598.074	-0.01
598.264	-0.05
598.454	0.01
598.644	-0.02
598.834	-0.03
599.024	-0.09
599.214	-0.03
599.404	0.01
599.594	-0.04
599.784	-0.05
599.974	-0.01
600.164	-0
600.354	-0.04
600.544	-0.06
600.734	0
600.924	0.02
601.114	-0.07
601.303	-0.03
601.493	0.01
601.683	-0.03
601.873	0
602.063	-0.07
602.252	0.03
602.442	-0.07
602.632	-0.04
602.821	-0.05
603.011	-0.01
603.201	-0.03
603.39	-0.04
603.58	-0.03
603.77	0.01
603.959	0.06
604.149	-0.02
604.339	-0.03
604.528	0.02
604.718	0.02
604.907	0.01
605.097	-0.04
605.286	-0.05
605.476	0
605.665	0.03
605.855	-0.02
606.044	0.03
606.234	0.01
606.423	-0.03
606.612	-0.04
606.802	-0.01
606.991	0.01
607.181	0.01
607.37	-0.06
607.559	-0.03
607.749	-0.03
607.938	-0.02
608.127	-0.02
608.316	-0.04
608.506	0.03
608.695	-0.03
608.884	-0.06
609.073	-0.03
609.263	-0.01
609.452	-0.01
609.641	-0.02
609.83	-0.06
610.019	0
610.208	-0.04
610.397	-0.01
610.586	0.02
610.775	-0.01
610.965	-0.03
611.154	-0.03
611.343	-0.02
611.532	-0
611.721	-0.02
611.91	-0.02
612.099	0.02
612.287	-0.03
612.476	-0.04
612.665	-0.03
612.854	-0.02
613.043	0.02
613.232	-0.02
613.421	-0.06
613.61	0
613.798	-0.05
613.987	0.01
614.176	-0.01
614.365	0.02
614.554	-0.01
614.742	0.02
614.931	-0.03
615.12	0
615.309	-0.01
615.497	-0
615.686	-0.04
615.875	0.01
616.063	-0.01
616.252	-0.06
616.44	-0.04
616.629	-0.03
616.818	-0
617.006	-0.02
617.195	-0.01
617.383	-0.01
617.572	-0.02
617.76	-0.05
617.949	-0.03
618.137	0.01
618.326	-0.01
618.514	-0
618.703	-0.04
618.891	0.05
619.079	-0.03
619.268	-0.02
619.456	-0.04
619.644	0.04
619.833	-0
620.021	-0.02
620.209	-0.06
620.398	-0.01
620.586	-0.04
620.774	-0.01
620.962	-0.01
621.151	0.01
621.339	-0.02
621.527	-0.07
621.715	-0.03
621.903	-0.06
622.092	-0.07
622.28	-0.01
622.468	0
622.656	-0.03
622.844	0
623.032	-0.04
623.22	-0.07
623.408	0.02
623.596	0.01
623.784	0.01
623.972	-0.05
624.16	-0.04
624.348	0.01
624.536	-0.04
624.724	-0.03
624.912	0.05
625.1	-0
625.288	-0.06
625.476	-0.02
625.664	-0.01
625.851	-0.06
626.039	-0.02
626.227	-0.03
626.415	-0.04
626.603	-0.08
626.79	-0.01
626.978	-0.03
627.166	-0.02
627.354	-0.02
627.541	-0.04
627.729	-0.08
627.917	0.01
628.104	0.01
628.292	-0.03
628.48	-0.02
628.667	-0.01
628.855	-0.02
629.042	0.01
629.23	-0.01
629.418	0
629.605	-0.03
629.793	-0.04
629.98	-0.05
630.168	-0.05
630.355	-0.03
630.543	0.03
630.73	-0.02
630.917	0.05
631.105	0.02
631.292	-0.04
631.48	-0.03
631.667	0.05
631.854	0
632.042	-0.03
632.229	-0.06
632.416	-0.03
632.604	-0.02
632.791	-0.04
632.978	-0.02
633.165	0
633.353	0.04
633.54	0.07
633.727	-0.06
633.914	-0.03
634.101	-0.08
634.289	0.03
634.476	-0.02
634.663	-0.05
634.85	-0.02
635.037	-0.04
635.224	-0.08
635.411	0.03
635.598	0.03
635.785	-0.01
635.972	-0.03
636.159	0
636.346	-0.04
636.533	-0.03
636.72	-0.03
636.907	-0.03
637.094	0.01
637.281	-0.03
637.468	0.01
637.655	0
637.842	-0.02
638.029	-0.03
638.215	-0.03
638.402	-0.01
638.589	-0.05
638.776	-0.03
638.963	-0.04
639.149	0.02
639.336	0.05
639.523	-0
639.709	-0.01
639.896	-0.03
640.083	0.04
640.27	-0
640.456	-0.03
640.643	0
640.829	-0.06
641.016	-0.02
641.203	-0.07
641.389	0.02
641.576	-0.02
641.762	-0.01
641.949	-0.05
642.135	0.03
642.322	0
642.508	-0.04
642.695	-0.02
642.881	-0.05
643.068	-0.06
643.254	-0.04
643.441	0.01
643.627	-0.01
643.813	-0.04
644	0
644.186	-0.03
644.372	-0.02
644.559	0
644.745	0
644.931	-0.06
645.118	-0.02
645.304	-0.03
645.49	-0.03
645.676	-0.02
645.862	-0
646.049	0.02
646.235	-0.02
646.421	0.05
646.607	0.04
646.793	-0.03
646.979	-0.06
647.165	0
647.352	0.01
647.538	0.03
647.724	-0.02
647.91	0.01
648.096	0.01
648.282	0.04
648.468	-0.03
648.654	0.01
648.84	-0
649.026	0.03
649.212	-0.01
649.397	-0.05
649.583	-0.04
649.769	-0
649.955	-0.04
650.141	-0.01
650.327	0.04
650.513	-0.04
650.698	-0.02
650.884	-0.09
651.07	-0.02
651.256	-0.02
651.442	-0.02
651.627	-0.02
651.813	-0.04
651.999	-0
652.184	-0
652.37	-0.02
652.556	-0.03
652.741	0.04
652.927	-0.07
653.113	-0.04
653.298	0.02
653.484	-0.05
653.669	-0.05
653.855	-0.03
654.04	-0
654.226	-0.03
654.412	-0.03
654.597	-0.04
654.782	0.03
654.968	-0
655.153	-0.01
655.339	-0.05
655.524	-0.07
655.71	0.03
655.895	-0.04
656.08	-0.04
656.266	0.02
656.451	-0
656.636	-0.05
656.822	-0.01
657.007	-0.07
657.192	-0.04
657.378	-0.07
657.563	-0.04
657.748	-0
657.933	-0.01
658.118	-0.04
658.304	-0.05
658.489	0.02
658.674	0.01
658.859	-0.06
659.044	-0.02
659.229	-0
659.414	-0
659.599	0
659.785	-0.07
659.97	-0.02
660.155	-0.01
660.34	-0.01
660.525	-0.02
660.71	-0.05
660.895	0.01
661.08	-0.06
661.264	-0.03
661.449	0.01
661.634	0.02
661.819	0.01
662.004	-0.01
662.189	-0.1
662.374	-0.03
662.559	-0.02
662.743	-0.09
662.928	-0.04
663.113	-0.04
663.298	-0.09
663.483	-0.04
663.667	0.02
663.852	-0.1
664.037	-0.01
664.221	-0.02
664.406	-0.02
664.591	-0.01
664.775	0.01
664.96	-0.07
665.145	-0
665.329	-0.01
665.514	-0.05
665.698	-0.01
665.883	-0.04
666.068	0.08
666.252	-0.03
666.437	-0.04
666.621	-0.01
666.806	-0
666.99	-0.02
667.174	-0.03
667.359	0.05
667.543	-0.03
667.728	-0.03
667.912	-0.09
668.096	0
668.281	-0.01
668.465	-0.03
668.649	-0.02
668.834	-0.04
669.018	-0.06
669.202	-0.02
669.387	-0.02
669.571	0.03
669.755	-0.07
669.939	-0.01
670.124	-0.04
670.308	0.05
670.492	0.02
670.676	0.02
670.86	-0.03
671.044	-0.03
671.228	0.01
671.413	-0.06
671.597	-0.03
671.781	-0.07
671.965	-0.02
672.149	-0.03
672.333	-0.01
672.517	-0.07
672.701	0.03
672.885	-0.01
673.069	-0.08
673.253	0.03
673.437	-0.01
673.621	-0.06
673.804	-0.03
673.988	-0.03
674.172	-0.02
674.356	-0.09
674.54	-0.04
674.724	0.07
674.908	0.01
675.091	-0.03
675.275	-0.06
675.459	0.03
675.643	-0.03
675.826	-0.05
676.01	0
676.194	0.02
676.377	-0.01
676.561	0.01
676.745	0.03
676.928	0.02
677.112	0.02
677.296	-0.03
677.479	-0.01
677.663	-0.04
677.846	0.02
678.03	-0.02
678.213	-0.03
678.397	0
678.58	-0.07
678.764	-0.03
678.947	-0.07
679.131	-0.06
679.314	0.06
679.498	-0.04
679.681	-0.01
679.865	0.01
680.048	-0.02
680.231	-0.02
680.415	0.01
680.598	-0.07
680.781	-0.04
680.965	-0.07
681.148	-0.02
681.331	-0.03
681.514	0.01
681.698	-0.08
681.881	-0.03
682.064	0
682.247	-0.02
682.43	-0.08
682.614	-0.02
682.797	0.02
682.98	0.01
683.163	-0
683.346	-0
683.529	-0.04
683.712	-0.07
683.895	0.02
684.078	-0.1
684.261	-0.07
684.444	0.01
684.627	-0.02
684.81	-0.06
684.993	-0.04
685.176	0.01
685.359	-0.03
685.542	-0.01
685.725	0.01
685.908	0.03
686.091	-0.05
686.274	0.01
686.457	0
686.639	0
686.822	0.01
687.005	-0.01
687.188	-0.01
687.371	0.09
687.553	-0.03
687.736	-0
687.919	0.07
688.102	0.01
688.284	0
688.467	-0.05
688.65	-0.02
688.832	-0.05
689.015	-0.02
689.197	-0.04
689.38	0.07
689.563	0.09
689.745	-0.06
689.928	-0.02
690.11	-0.02
690.293	0.02
690.475	-0.08
690.658	-0.03
690.84	-0.05
691.023	-0.02
691.205	-0.06
691.388	0.01
691.57	0.05
691.752	0.01
691.935	-0.12
692.117	-0.05
692.3	0
692.482	-0.03
692.664	-0.04
692.847	-0.02
693.029	0
693.211	0.03
693.393	-0.05
693.576	-0.03
693.758	0.04
693.94	-0.01
694.122	-0.07
694.304	-0.03
694.487	-0.03
694.669	0.12
694.851	-0.07
695.033	-0.01
695.215	-0.05
695.397	-0.09
695.579	-0.03
695.761	-0.06
695.943	-0.09
696.125	-0.02
696.308	0.01
696.49	-0.13
696.671	0.06
696.853	-0.03
697.035	0.1
697.217	0.02
697.399	0.05
697.581	-0.05
697.763	-0.02
697.945	-0.06
698.127	-0.02
698.309	0.06
698.491	-0.02
698.672	-0
698.854	0.06
699.036	0.09
699.218	0.01
699.399	0.06
699.581	0.02
699.763	-0.06
699.945	-0.08
700.126	-0.05
700.308	-0.01
700.49	-0.04
700.671	-0.09
700.853	-0.04
701.035	-0.04
701.216	-0.04
701.398	-0.08
701.579	-0.07
701.761	0.04
701.943	-0.09
702.124	-0.07
702.306	-0.01
702.487	0.1
702.669	-0.02
702.85	-0.08
703.031	-0.12
703.213	0.06
703.394	0.04
703.576	-0.05
703.757	0.07
703.938	0.05
704.12	0.11
704.301	-0.05
704.483	-0.06
704.664	0.01
704.845	0.01
705.026	-0.01
705.208	-0
705.389	0.01
705.57	0.04
705.751	-0.04
705.933	-0.05
706.114	0.05
706.295	-0.04
706.476	-0.04
706.657	-0
706.838	0.01
707.02	0.06
707.201	-0.09
707.382	-0.08
707.563	-0
707.744	-0.07
707.925	-0.06
708.106	-0.12
708.287	-0
708.468	0.05
708.649	-0.07
708.83	0.01
709.011	-0.04
709.192	0.01
709.373	-0.13
709.554	-0.03
709.734	-0
709.915	0.07
710.096	-0.02
710.277	-0.1
710.458	-0.02
710.639	-0.02
710.819	-0.09
711	-0.03
711.181	-0.02
711.362	0.03
711.542	-0.06
711.723	-0.01
711.904	0.05
712.085	-0.01
712.265	0.01
712.446	-0.07
712.627	-0.08
712.807	0.01
712.988	-0.1
713.168	-0.12
713.349	0.04
713.53	-0.17
713.71	-0.13
713.891	-0.08
714.071	-0.04
714.252	-0.06
714.432	-0.08
714.613	-0.17
714.793	0
714.974	0.01
715.154	0.04
715.334	-0.04
715.515	0.08
715.695	-0.13
715.876	0.01
716.056	-0
716.236	-0.07
716.417	-0.06
716.597	-0.12
716.777	0.11
716.957	-0.01
717.138	0.01
717.318	0
717.498	-0.12
717.678	-0.08
717.859	0.02
718.039	-0.06
718.219	0
718.399	-0.02
718.579	-0.06
718.759	-0.1
718.939	-0.07
719.12	-0.05
719.3	-0.02
719.48	-0.16
719.66	-0.16
719.84	0.1
720.02	-0.06
720.2	-0.1
720.38	-0.07
720.56	0.08
720.74	-0.05
720.92	0.01
721.1	0.01
721.279	-0.01
721.459	-0
721.639	-0.09
721.819	0.02
721.999	-0.06
722.179	0
722.359	-0.1
722.538	0.01
722.718	0.01
722.898	-0.08
723.078	-0.1
723.257	0.02
723.437	-0.01
723.617	0.02
723.797	-0.11
723.976	-0.08
724.156	-0.03
724.336	0.02
724.515	0.06
724.695	-0.19
724.874	-0.02
725.054	0.02
725.234	-0.14
725.413	-0.01
725.593	-0.01
725.772	-0.08
725.952	-0.08
726.131	-0.07
726.311	-0.08
726.49	-0.01
726.67	-0.11
726.849	-0.1
727.028	-0.04
727.208	-0.01
727.387	0.01
727.567	-0.1
727.746	-0.03
727.925	-0.07
728.105	-0.07
728.284	-0.06
728.463	-0.08
728.643	-0.02
728.822	-0.13
729.001	-0.12
729.18	-0.07
729.359	-0.04
729.539	-0.06
729.718	0.01
729.897	-0.07
730.076	-0.08
730.255	-0.14
730.434	-0.01
730.614	-0.03
730.793	0.11
730.972	-0.17
731.151	-0.06
731.33	0.03
731.509	0.03
731.688	-0.08
731.867	-0.03
732.046	-0.14
732.225	0.22
732.404	-0.1
732.583	-0.06
732.762	-0.08
732.941	0.01
733.12	-0.04
733.298	-0.05
733.477	-0.02
733.656	-0.02
733.835	-0.03
734.014	0.02
734.193	-0.05
734.371	0.08
734.55	-0.03
734.729	-0.13
734.908	-0.02
735.086	0.03
735.265	0.01
735.444	-0.2
735.623	-0.17
735.801	-0.06
735.98	0.01
736.159	-0.11
736.337	0.01
736.516	-0.03
736.694	-0.06
736.873	-0.11
737.052	0.06
737.23	0.08
737.409	-0.01
737.587	0.2
737.766	-0.31
737.944	-0.14
738.123	0.05
738.301	0.01
738.479	-0.08
738.658	0.05
738.836	-0.2
739.015	-0.09
739.193	0.08
739.371	-0.17
739.55	-0.13
739.728	-0.15
739.906	0.03
740.085	0.07
740.263	-0.02
740.441	-0.21
740.62	0.13
740.798	0.09
740.976	-0.17
741.154	-0.2
741.332	0.04
741.511	-0.11
741.689	-0.04
741.867	0.1
742.045	-0.1
742.223	-0.07
742.401	-0.19
742.579	-0.09
742.757	-0
742.935	-0.1
743.114	-0.14
743.292	-0.13
743.47	0
743.648	-0.03
743.826	-0.13
744.004	0.07
744.181	0.04
744.359	-0.1
744.537	0.04
744.715	-0.05
744.893	-0.02
745.071	-0.15
745.249	-0.05
745.427	-0.02
745.605	-0.03
745.782	-0.08
745.96	0.05
746.138	-0.07
746.316	0.12
746.493	-0.14
746.671	-0.06
746.849	-0.09
747.027	0.03
747.204	-0.12
747.382	-0.02
747.56	-0.15
747.737	-0.22
747.915	-0.14
748.093	-0.01
748.27	-0.05
748.448	-0
748.625	-0.19
748.803	-0.06
748.98	-0.1
749.158	-0.06
749.335	0.03
749.513	-0.18
749.69	-0.08
749.868	0
750.045	-0.01
750.223	-0.09
750.4	-0.15
750.578	0.14
750.755	0.02
750.932	-0.18
751.11	0.12
751.287	-0.21
751.464	0.08
751.642	-0.1
751.819	-0.03
751.996	-0.06
752.173	-0.11
752.351	-0.16
752.528	0.08
752.705	-0.02
752.882	-0.17
753.06	0.02
753.237	0.05
753.414	0.1
753.591	0.06
753.768	-0.08
753.945	-0.09
754.122	-0.07
754.299	0.12
754.476	-0.12
754.654	-0.05
754.831	0
755.008	-0.05
755.185	-0.08
755.362	-0.14
755.539	0.02
755.716	-0.04
755.892	0.01
756.069	-0.04
756.246	-0.11
756.423	0
756.6	0.13
756.777	-0.2
756.954	-0.01
757.131	-0.12
757.307	-0.13
757.484	-0.13
757.661	-0.09
757.838	0.08
758.015	-0.22
758.191	-0.04
758.368	-0.15
758.545	0.14
758.721	0.04
758.898	-0.15
759.075	-0.05
759.251	0.02
759.428	0.06
759.605	-0.1
759.781	-0.14
759.958	-0.05
760.134	0
760.311	-0.09
760.488	0.13
760.664	0.14
760.841	-0.07
761.017	-0.14
761.194	0.08
761.37	0
761.547	0.03
761.723	0.04
761.899	0.05
762.076	-0.14
762.252	-0.17
762.429	-0.11
762.605	0.07
762.781	-0.11
762.958	0.09
763.134	-0.19
763.31	-0.21
763.486	0.05
763.663	-0.28
763.839	0
764.015	-0.2
764.191	-0.13
764.368	-0.11
764.544	-0.18
764.72	0.01
764.896	0.07
765.072	-0.12
765.248	-0.01
765.425	-0.07
765.601	0.05
765.777	0.01
765.953	-0.3
766.129	-0.11
766.305	-0.21
766.481	-0
766.657	-0.04
766.833	0.12
767.009	-0.11
767.185	-0.11
767.361	-0.04
767.537	-0.29
767.713	-0.08
767.889	-0.18
768.065	-0.07
768.24	-0.1
768.416	-0.01
768.592	-0.01
768.768	0.02
768.944	-0.02
769.12	-0.19
769.295	-0.05
769.471	-0.2
769.647	-0.04
769.823	0.02
769.998	-0.21
770.174	-0.12
770.35	0.2
770.525	0.14
770.701	-0.05
770.877	-0.1
771.052	-0.26
771.228	0.08
771.403	0.03
771.579	0.07
771.755	0.08
771.93	-0.16
772.106	-0.17
772.281	-0.22
772.457	0.09
772.632	-0.01
772.808	-0.31
772.983	-0.11
773.159	-0.32
773.334	0.11
773.509	0.05
773.685	-0.15
773.86	0.32
774.036	0.09
774.211	0.09
774.386	-0.09
774.562	-0.02
774.737	0.01
774.912	-0.1
775.087	0.08
775.263	-0.14
775.438	0.05
775.613	-0.17
775.788	-0.11
775.964	0.11
776.139	0.28
776.314	-0.34
776.489	0.02
776.664	-0.03
776.839	-0.04
777.014	0.03
777.19	0.01
777.365	0.17
777.54	0.18
777.715	-0.18
777.89	-0.03
778.065	-0.26
778.24	-0.05
778.415	0.1
778.59	-0.38
778.765	-0.17
778.94	-0.04
779.115	-0.23
779.289	-0.14
779.464	-0.11
779.639	-0.25
779.814	-0.2
779.989	-0.19
780.164	0.26
780.339	-0.03
780.513	-0.14
780.688	-0.12
780.863	-0.14
781.038	0.2
781.212	0.02
781.387	-0.06
781.562	0.22
781.737	-0.04
781.911	0.16
782.086	-0.13
782.261	-0.1
782.435	0.24
782.61	-0.11
782.784	-0.03
782.959	0.37
783.134	-0.21
783.308	-0.29
783.483	-0.09
783.657	0.3
783.832	-0
784.006	-0.34
784.181	0.03
784.355	0.17
784.53	-0.27
784.704	-0.27
784.878	0.19
785.053	0.1
785.227	0.09
785.402	0.34
785.576	-0.19
785.75	-0.08
785.925	-0.4
786.099	-0.02
786.273	-0.19
786.448	0.03
786.622	0.06
786.796	-0.23
786.97	-0.19
787.145	0.38
787.319	-0.28
787.493	-0.11
787.667	-0.38
787.841	-0.09
788.015	0.11
788.19	-0.11
788.364	0.03
788.538	0.05
788.712	0.11
788.886	-0.02
789.06	0.18
789.234	0.18
789.408	-0.34
789.582	-0.11
789.756	-0.06
789.93	-0.2
790.104	-0.05
790.278	-0.05
790.452	-0.28
790.626	0.01
790.8	-0.19
790.973	0.11
791.147	0.18
791.321	0.26
791.495	0.24
791.669	0.03
791.843	-0.06
792.016	0.06
792.19	0.34
792.364	-0.31
792.538	0.36
792.711	0.1
792.885	-0.08
793.059	-0.3
793.233	-0.46
793.406	0.07
793.58	-0.22
793.754	0.05
793.927	-0.03
794.101	0.2
794.274	-0.13
794.448	0.26
794.622	-0.42
794.795	0.37
794.969	-0.25
795.142	0.35
795.316	-0.28
795.489	-0.34
795.663	0.4
795.836	-0.07
796.009	-0.34
796.183	0.21
796.356	0.07
796.53	0.02
796.703	-0.27
796.876	0.46
797.05	-0.13
797.223	-0.04
797.396	-0.08
797.57	-0.13
797.743	0.32
797.916	-0.01
798.09	-0.25
798.263	0.07
798.436	0.14
798.609	-0.13
798.782	-0.07
798.956	-0.02
799.129	-0.14
799.302	-0.15
799.475	-0.12
799.648	-0.14
799.821	-0.19
799.994	-0.01
800.167	-0.26
800.34	-0.2
800.514	-0.07
800.687	-0.1
800.86	-0.29
801.033	0.14
801.206	-0.2
801.379	-0.38
801.551	0.09
801.724	-0.05
801.897	0.46
802.07	-0.36
802.243	-0.66
802.416	-0.41
802.589	-0.37
802.762	-0.14
802.935	0.21
803.107	0.2
803.28	0.25
803.453	-0.01
803.626	-0.35
803.798	-0.23
803.971	-0.29
804.144	-0.18
804.317	0.21
804.489	0.28
804.662	-0.23
804.835	0.19
805.007	-0.26
805.18	0.24
805.353	0.09
805.525	-0.33
805.698	-0.26
805.87	0.08
806.043	0.49
806.215	-0.22
806.388	-0.31
806.56	0.12
806.733	0.26
806.905	0.05
807.078	-0.15
807.25	-0.49
807.423	0.07
807.595	-0.2
807.768	0.02
807.94	0.45
808.112	-0.03
808.285	0.23
808.457	-0.38
808.629	-0.05
808.802	-0.27
808.974	-0.08
809.146	-0.33
809.318	-0.45
809.491	-0.02
809.663	-0.04
809.835	-0.32
810.007	0.16
810.18	-0.02
810.352	-0.53
810.524	-0.1
810.696	0.17
810.868	0.07
811.04	-0.02
811.212	-0.32
811.384	0.29
811.556	0.15
811.728	-0.01
811.901	0.47
812.073	-0.21
812.245	0.31
812.417	-0.05
812.589	-0.76
812.76	-0.11
812.932	0.23
813.104	0.09
813.276	-0.22
813.448	0.19
813.62	-0.2
813.792	-0.12
813.964	-0.4
814.136	0.02
814.307	0.09
814.479	-0.51
814.651	-0.62
814.823	0.64
814.995	-0.12
815.166	0
815.338	-0.28
815.51	-0.4
815.681	0.9
815.853	-0.13
816.025	-0.38
816.196	0.26
816.368	0.04
816.54	-0.88
816.711	-0.18
816.883	0.25
817.054	1.13
817.226	-0.74
817.398	-0.38
817.569	-0.45
817.741	0.13
817.912	-0.31
818.084	-0.21
818.255	0.19
818.426	-0.41
818.598	-0.24
818.769	-0.33
818.941	0.62
819.112	0.41
819.283	0.09
819.455	-0.49
819.626	-0.01
819.798	-0.14
819.969	0.19
820.14	-0.28
820.311	-0.19
820.483	-0.23
820.654	-0.02
820.825	-0.45
820.996	-0.03
821.168	-0.31
821.339	-0.4
821.51	-0.73
821.681	0.03
821.852	-0.1
822.023	-0.6
822.195	-0.53
822.366	-0.05
822.537	-0.45
822.708	-0.11
822.879	-0.36
823.05	0.43
823.221	-0.16
823.392	0.11
823.563	0.06
823.734	0.27
823.905	-0.05
824.076	-0.29
824.247	-0.46
824.418	-0.82
824.589	0.43
824.759	-0.07
824.93	-0.19
825.101	-0.77
825.272	0.44
825.443	0.28
825.614	0.68
825.784	-0.86
825.955	0.98
826.126	0.42
826.297	-0.27
826.467	0.67
826.638	0.09
826.809	-1.07
826.98	-0.39
827.15	0.02
827.321	0.36
827.492	0.11
827.662	-0.21
827.833	0.74
828.003	-0.11
828.174	-1
828.345	-0.89
828.515	0.45
828.686	-0.15
828.856	-0.33
829.027	-0.36
829.197	-0.14
829.368	0.56
829.538	-0.15
829.709	-0.32
829.879	0.32
830.049	-0.39
830.22	-0.52
830.39	-0.24
830.56	0.57
830.731	-0.47
830.901	-1.19
831.072	0.12
831.242	0.09
831.412	0.09
831.582	-0.06
831.753	-1.1
831.923	0.57
832.093	-0.16
832.263	-0.34
832.434	-0.73
832.604	-0.58
832.774	-0.43
832.944	-0.49
833.114	-0.27
833.284	0.1
833.454	-0.82
833.624	-0.7
833.795	-0.08
833.965	0.48
834.135	0.12
834.305	-1.02
834.475	-0.67
834.645	-0.63
834.815	-0.14
834.985	-1.01
835.155	-0.11
835.325	0.64
835.494	0.52
835.664	-0.28
835.834	-1.38
836.004	-0.23
836.174	0.2
836.344	0.27
836.514	-1.22
836.684	-0.96
836.853	-0.22
837.023	-0.22
837.193	-0.28
837.363	0.6
837.532	0.77
837.702	-0.42
837.872	-0.9
838.041	0.18
838.211	1.04
838.381	-1.41
838.55	-0.53
838.72	1.06
838.89	1.24
839.059	-0.08
839.229	-1.32
839.398	1.35
839.568	-0.07
839.738	0.03
839.907	1.04
840.077	0.21
840.246	-0.39
840.416	-0.23
840.585	-0.86
840.755	0.38
840.924	0.82
841.093	-0.82
841.263	-0.79
841.432	0.04
841.602	-0.19
841.771	-0.68
841.94	-0.19
842.11	1.16
842.279	0.86
842.448	-0.88
842.617	-1.28
842.787	1.45
842.956	-1.74
843.125	-0
843.294	-0.15
843.464	0.7
843.633	-0.09
843.802	-1.04
843.971	-0.58
844.14	0.56
844.309	0.11
844.479	-0.54
844.648	-0.53
844.817	-0.07
844.986	-0.22
845.155	-0.32
845.324	-0.97
845.493	-0.5
845.662	-0.38
845.831	-0.05
846	0.53
846.169	-0.35
846.338	0.99
846.507	0.21
846.676	0.4
846.844	-0.21
847.013	0.23
847.182	0.38
847.351	-0.85
847.52	0.11
847.689	-0.32
847.858	-0.64
848.026	-1.1
848.195	-0.12
848.364	0.66
848.533	-0.88
848.701	-0.36
848.87	-0.42
849.039	0.49
849.207	0.82
849.376	0.17
849.545	1.26
849.713	-0.45
849.882	-0.1
850.051	-0.89
850.219	-0.08
850.388	0.77
850.556	-0.3
850.725	-0.26
850.893	-0.55
851.062	0.21
851.23	0.4
851.399	-2.38
851.567	-1.29
851.736	-0.08
851.904	-0.43
852.073	-0.24
852.241	1.63
852.41	0.62
852.578	-0.18
852.746	-0.5
852.915	0.4
853.083	-0.32
853.251	-0.69
853.42	-0.71
853.588	-0.26
853.756	0.37
853.924	-0.69
854.093	-0.72
854.261	-0.51
854.429	-1.09
854.597	0.22
854.765	-1
854.934	0.79
855.102	-0
855.27	-0.85
855.438	0.16
855.606	1.6
855.774	1.54
855.942	-1.34
856.11	-1.07
856.278	-0.28
856.446	0.06
856.614	-0.29
856.782	-0.2
856.95	0.43
857.118	0.29
857.286	-1.21
857.454	-1.11
857.622	0.76
857.79	0.19
857.958	-1.37
858.126	-0.7
858.294	-2.62
858.462	-0.84
858.629	-0.8
858.797	-0.47
858.965	-0.11
859.133	-0.31
859.301	-0.94
859.468	0.29
859.636	-0.06
859.804	0.44
859.971	0.1
860.139	-1.66
860.307	-0.32
860.474	-0.23
860.642	0.02
860.81	-1.41
860.977	-0.76
861.145	0.94
861.313	-0.39
861.48	0.58
861.648	-0.76
861.815	-0.94
861.983	-0.78
862.15	-0.4
862.318	-0.1
862.485	1.16
862.653	-2.19
862.82	0.39
862.988	0.39
863.155	-2.24
863.322	-1.84
863.49	-1.45
863.657	-1.65
863.824	1.84
863.992	0.57
864.159	0.41
864.326	1.42
864.494	-0.79
864.661	3.28
864.828	-0.85
864.996	0.75
865.163	0.88
865.33	-0.53
865.497	-2.32
865.664	-0.71
865.832	-2.84
865.999	-0.71
866.166	-2.61
866.333	-0.86
866.5	-0.61
866.667	-0.62
866.834	-0.02
867.001	1.83
867.168	-1.61
867.335	-0.67
867.502	-1.68
867.669	-1.1
867.836	1.71
868.003	-0.6
868.17	0.47
868.337	-0.68
868.504	2.45
868.671	-1.16
868.838	-1.66
869.005	-0.98
869.172	0.69
869.339	-0.74
869.505	-0.07
869.672	-1.79
869.839	0.81
870.006	-1.93
870.173	-1.95
870.339	0.94
870.506	2
870.673	-2.41
870.84	-0.32
871.006	-0.88
871.173	-0.09
871.34	-1.56
871.506	-1
871.673	-0.3
871.839	-2.02
872.006	-0.73
872.173	0.45
872.339	0.5
872.506	0.42
872.672	-1.05
872.839	-2.34
873.005	-1.07
873.172	1.69
873.338	0.31
873.505	-1.11
873.671	-0.73
873.838	1.13
874.004	-2.81
874.171	-2.02
874.337	2.12
874.503	-0.4
874.67	-0.2
874.836	-1.46
875.002	0.55
875.169	0.69
875.335	-0.22
875.501	-0.66
875.668	1.07
875.834	-0.27
876	-2.09
876.166	0.9
876.332	-0.08
876.499	2.41
876.665	-1.73
876.831	-0.59
876.997	1.68
877.163	-0.21
877.329	-0.26
877.495	1.22
877.662	1.13
877.828	1.53
877.994	-1.08
878.16	-2.95
878.326	-0.53
878.492	-1.99
878.658	-1.9
878.824	-1.05
878.99	-0.84
879.156	-3.32
879.322	-0.08
879.487	0.33
879.653	0.12
879.819	0.38
879.985	-0.83
880.151	-0.94
880.317	2.29
880.483	-0.14
880.648	0.23
880.814	-3.61
880.98	0.12
881.146	-3.05
881.312	-2.56
881.477	-1.23
881.643	0.14
881.809	-0.35
881.974	0.84
882.14	-2.56
882.306	0.97
882.471	1.63
882.637	-0.74
882.803	0.65
882.968	2.55
883.134	1.97
883.299	0.03
883.465	-1.73
883.63	1.17
883.796	1.26
883.961	0.5
884.127	1.15
884.292	-4.76
884.458	-1.84
884.623	-1.83
