Data from Apollo_Calib_20240827__AbsoluteIrradiance__130__01-19-01-571.txt Node

Date: Wed Aug 28 01:19:01 BST 2024
User: biology
Spectrometer: FLMT08252
Trigger mode: 0
Integration Time (sec): 5.000000E-1
Scans to average: 5
Electric dark correction enabled: true
Nonlinearity correction enabled: false
Boxcar width: 0
XAxis mode: Wavelengths
Number of Pixels in Spectrum: 3648
>>>>>Begin Spectral Data<<<<<
179.588	-0
179.809	-0
180.03	-0
180.251	-0
180.473	-0
180.694	0
180.915	0
181.136	-0
181.357	0
181.578	-0
181.799	-0
182.02	-0
182.241	-0
182.462	-0
182.683	0
182.904	-0
183.125	-0
183.346	0
183.567	0
183.788	-0
184.009	-0
184.23	0
184.451	0
184.672	-0
184.892	-0
185.113	0
185.334	0
185.555	-0
185.776	-0
185.996	0
186.217	0
186.438	-0
186.659	-0
186.879	0
187.1	-0
187.321	-0
187.541	-0
187.762	0
187.983	0
188.203	-0
188.424	-0
188.644	-0
188.865	0
189.086	0
189.306	0
189.527	-0
189.747	-0
189.968	-0
190.188	0
190.409	0
190.629	0
190.849	-0
191.07	-0
191.29	0
191.511	0
191.731	-0
191.951	-0
192.172	0
192.392	0
192.612	-0
192.833	-0
193.053	0
193.273	0
193.493	-0
193.714	-0
193.934	0
194.154	0
194.374	-0
194.594	0
194.815	0
195.035	0
195.255	0
195.475	-0
195.695	0
195.915	0
196.135	-0
196.355	0
196.575	0
196.795	0
197.015	-0
197.235	-0
197.455	-0
197.675	0
197.895	-0
198.115	-0
198.335	0
198.555	0
198.775	0
198.995	0
199.214	0
199.434	0
199.654	-0
199.874	-0
200.094	1.3
200.313	-0.84
200.533	-0.37
200.753	-0.21
200.973	0.93
201.192	0.57
201.412	-0.75
201.632	-0.24
201.851	0.66
202.071	-0.49
202.291	-0.39
202.51	-0.29
202.73	0.34
202.95	0.33
203.169	-0.49
203.389	0.12
203.608	-0.19
203.828	-0.64
204.047	-0.12
204.267	0.46
204.486	0.02
204.706	0.29
204.925	-0.14
205.145	-0.41
205.364	0.53
205.583	0.66
205.803	-0.36
206.022	-0.36
206.242	-0.22
206.461	0.16
206.68	-0.35
206.9	0.14
207.119	0.15
207.338	0.77
207.557	0.09
207.777	-0.16
207.996	-0.33
208.215	0.43
208.434	-0.33
208.654	-0.29
208.873	-0.05
209.092	0.42
209.311	-0.2
209.53	0.08
209.749	-0.24
209.968	-0.18
210.187	-0.16
210.407	-0.34
210.626	-0.07
210.845	0.17
211.064	0.16
211.283	-0.26
211.502	0.33
211.721	-0.06
211.94	-0.17
212.159	0.32
212.377	0.35
212.596	0.24
212.815	0.02
213.034	-0.16
213.253	0.32
213.472	0.24
213.691	-0.11
213.91	-0.08
214.128	-0.1
214.347	0.5
214.566	-0.34
214.785	-0.34
215.003	0.1
215.222	-0.12
215.441	0.11
215.66	-0.18
215.878	-0.05
216.097	0.09
216.316	-0.14
216.534	-0.03
216.753	0.1
216.972	0.09
217.19	-0.18
217.409	-0.21
217.627	-0.17
217.846	0.01
218.064	0.01
218.283	0.01
218.501	0.44
218.72	0.15
218.938	-0.25
219.157	-0.03
219.375	0.07
219.594	0.26
219.812	-0.3
220.031	-0.1
220.249	0.32
220.467	0.4
220.686	-0.06
220.904	-0.3
221.122	0
221.341	0.31
221.559	-0.07
221.777	-0.15
221.995	0.11
222.214	0.1
222.432	-0.05
222.65	0.1
222.868	0.08
223.086	0.13
223.305	0.21
223.523	-0.08
223.741	0.22
223.959	-0.17
224.177	-0.17
224.395	-0.16
224.613	0.08
224.831	0.15
225.049	-0.21
225.267	0.04
225.485	-0.09
225.703	-0.04
225.921	0
226.139	0.01
226.357	0.13
226.575	0.01
226.793	-0.12
227.011	0.5
227.229	-0.02
227.447	0.31
227.665	-0.05
227.883	-0.14
228.1	-0.01
228.318	0.06
228.536	-0.34
228.754	-0.26
228.972	0.12
229.189	0.06
229.407	0.02
229.625	-0.11
229.843	0.07
230.06	0.16
230.278	-0.04
230.496	-0.02
230.713	0.06
230.931	0.21
231.149	-0.07
231.366	-0.24
231.584	0.01
231.801	0.41
232.019	-0.08
232.236	-0.12
232.454	-0.11
232.671	-0.03
232.889	-0.02
233.106	-0.15
233.324	0.02
233.541	0.09
233.759	0.08
233.976	-0.03
234.194	0.07
234.411	0.04
234.628	-0.07
234.846	-0.01
235.063	0.02
235.28	-0.07
235.498	-0.06
235.715	-0.03
235.932	0.18
236.149	-0.02
236.367	-0.06
236.584	0.04
236.801	-0.06
237.018	0.12
237.236	0.03
237.453	-0.12
237.67	0.06
237.887	-0.04
238.104	-0.06
238.321	-0.09
238.538	-0.04
238.755	0.05
238.973	-0.08
239.19	0.02
239.407	0.02
239.624	0.03
239.841	-0.19
240.058	-0.08
240.275	0.01
240.492	0.08
240.709	0.08
240.925	0.05
241.142	-0.02
241.359	-0.06
241.576	-0.12
241.793	-0.03
242.01	0.05
242.227	0.17
242.444	0.06
242.66	0.09
242.877	0.05
243.094	-0.06
243.311	0.1
243.527	-0.02
243.744	-0.04
243.961	0.07
244.178	-0.05
244.394	-0.05
244.611	0.12
244.828	0.19
245.044	0.05
245.261	0.01
245.477	0.04
245.694	0.04
245.911	-0.08
246.127	0.02
246.344	0.21
246.56	0.09
246.777	-0.12
246.993	0.02
247.21	0.06
247.426	0.11
247.643	-0.03
247.859	-0.05
248.076	-0
248.292	0.19
248.508	-0.01
248.725	0.1
248.941	0.05
249.157	0.15
249.374	0.06
249.59	-0.06
249.806	-0.08
250.023	0.11
250.239	0.03
250.455	-0.11
250.671	0.06
250.888	0.1
251.104	0.16
251.32	-0.06
251.536	-0
251.752	0.04
251.969	0.06
252.185	0.04
252.401	0.08
252.617	-0.01
252.833	0.03
253.049	-0
253.265	-0.04
253.481	0.04
253.697	-0.04
253.913	0.03
254.129	0.02
254.345	0.02
254.561	-0.02
254.777	-0.03
254.993	0.1
255.209	0.01
255.425	-0
255.641	-0.02
255.857	0.05
256.073	0.03
256.288	-0.06
256.504	0.04
256.72	0.1
256.936	0.09
257.152	0.03
257.367	-0.1
257.583	0
257.799	0.08
258.015	-0.03
258.23	-0.08
258.446	0.07
258.662	0.08
258.877	-0.03
259.093	-0.03
259.309	0.03
259.524	0.04
259.74	-0.01
259.955	-0.12
260.171	0.01
260.387	0.04
260.602	0.01
260.818	0.06
261.033	-0.1
261.249	-0.02
261.464	-0.03
261.68	-0.11
261.895	0.08
262.11	0.06
262.326	0.02
262.541	-0.05
262.757	0.08
262.972	0.03
263.187	0.02
263.403	-0.01
263.618	0.13
263.833	0.02
264.049	-0.01
264.264	0.07
264.479	0.12
264.694	0.11
264.91	-0.09
265.125	0.01
265.34	0.04
265.555	0.08
265.77	0.04
265.986	-0.08
266.201	-0
266.416	0.08
266.631	-0
266.846	0
267.061	0.05
267.276	0.05
267.491	-0.16
267.706	0.04
267.921	0.07
268.136	-0.02
268.351	-0.02
268.566	-0.07
268.781	0.13
268.996	0.03
269.211	0.01
269.426	-0.02
269.641	-0.05
269.856	0.04
270.071	-0.04
270.285	-0.03
270.5	0.05
270.715	0.12
270.93	-0.02
271.145	0.03
271.359	0.03
271.574	-0.04
271.789	-0.02
272.004	-0.06
272.218	-0.09
272.433	0.06
272.648	-0.02
272.862	0.14
273.077	-0.03
273.292	-0
273.506	-0.04
273.721	-0.05
273.936	0.04
274.15	0.12
274.365	-0.05
274.579	0.08
274.794	0.08
275.008	0.12
275.223	-0.11
275.437	0.03
275.652	-0.08
275.866	0.1
276.081	-0
276.295	0.12
276.509	0.05
276.724	0.07
276.938	-0
277.153	0.11
277.367	0.07
277.581	-0.02
277.796	0.02
278.01	-0.08
278.224	0.07
278.438	0.11
278.653	-0.08
278.867	-0.07
279.081	-0.16
279.295	-0.02
279.51	0.05
279.724	-0.08
279.938	0.07
280.152	-0.01
280.366	-0.07
280.58	0.01
280.794	0.08
281.008	0.08
281.222	0.07
281.437	0.11
281.651	0.06
281.865	0.12
282.079	0.01
282.293	-0.07
282.507	-0.09
282.721	0.02
282.935	-0.01
283.148	-0.04
283.362	0
283.576	-0.06
283.79	0.05
284.004	-0.05
284.218	0.06
284.432	-0.02
284.646	0.02
284.859	-0.01
285.073	-0.02
285.287	0.06
285.501	0.04
285.714	0
285.928	0.01
286.142	0.01
286.356	-0.01
286.569	-0.04
286.783	0.05
286.997	0.06
287.21	0.02
287.424	-0.04
287.637	0.01
287.851	0.01
288.065	-0.04
288.278	0.05
288.492	0.06
288.705	-0.01
288.919	0.11
289.132	-0.07
289.346	0.06
289.559	-0.05
289.773	-0.03
289.986	-0
290.2	0.01
290.413	0.04
290.626	-0.07
290.84	-0.02
291.053	0.03
291.267	0.1
291.48	0.03
291.693	-0.01
291.906	-0.01
292.12	-0
292.333	-0.05
292.546	0.02
292.76	0.1
292.973	0.05
293.186	0.04
293.399	0.02
293.612	0.04
293.826	-0.02
294.039	0.02
294.252	0.02
294.465	0.04
294.678	0.04
294.891	0.05
295.104	0.02
295.317	0.01
295.53	0.04
295.743	0.01
295.956	-0.02
296.169	0.08
296.382	0.05
296.595	-0.03
296.808	-0.1
297.021	0.05
297.234	0.04
297.447	0.01
297.66	0.05
297.873	0.07
298.086	0.07
298.299	-0.03
298.511	-0.02
298.724	0.02
298.937	-0.08
299.15	0.01
299.363	0.04
299.575	0.09
299.788	0.02
300.001	-0.02
300.213	-0.02
300.426	0.01
300.639	-0.03
300.852	-0.02
301.064	0.06
301.277	0.04
301.489	0.07
301.702	0.07
301.915	0.02
302.127	0.01
302.34	0.06
302.552	0.04
302.765	-0.02
302.977	-0
303.19	-0.03
303.402	0.04
303.615	-0.03
303.827	-0.02
304.04	-0.01
304.252	0.03
304.464	0.01
304.677	0.13
304.889	0.06
305.102	-0.03
305.314	-0.01
305.526	0.06
305.739	-0.02
305.951	0.02
306.163	-0.02
306.375	0.08
306.588	0.01
306.8	-0.01
307.012	-0.02
307.224	-0.01
307.436	0.1
307.649	-0.05
307.861	0.03
308.073	0.07
308.285	0
308.497	-0
308.709	-0
308.921	0.03
309.133	0.07
309.346	0.02
309.558	0.02
309.77	0.05
309.982	0.04
310.194	0.06
310.406	-0.02
310.617	0.05
310.829	0.06
311.041	0.07
311.253	0
311.465	-0.01
311.677	-0.02
311.889	-0.03
312.101	-0.02
312.313	0.06
312.524	0.08
312.736	-0.04
312.948	-0.01
313.16	0.07
313.372	0.07
313.583	0.04
313.795	0.02
314.007	-0
314.218	0.04
314.43	0.01
314.642	-0
314.853	-0.05
315.065	0.07
315.277	0.04
315.488	0.05
315.7	0.05
315.912	0.04
316.123	-0.01
316.335	0.03
316.546	0.11
316.758	-0.03
316.969	-0.01
317.181	0
317.392	-0.01
317.604	0.05
317.815	0.03
318.026	0.01
318.238	0.01
318.449	0.03
318.661	-0.01
318.872	-0.05
319.083	-0.02
319.295	0.07
319.506	-0.02
319.717	0.03
319.929	-0.02
320.14	0.05
320.351	0.02
320.562	0.02
320.774	0.05
320.985	0.05
321.196	-0.07
321.407	-0.06
321.618	0.04
321.829	0.03
322.041	0.08
322.252	0
322.463	0.03
322.674	0.04
322.885	-0.01
323.096	-0
323.307	-0.01
323.518	0.02
323.729	-0.01
323.94	0.01
324.151	-0.01
324.362	0.03
324.573	-0.01
324.784	-0.01
324.995	0.05
325.206	0.02
325.417	-0.01
325.628	0
325.838	-0.04
326.049	-0.01
326.26	0.05
326.471	0.02
326.682	0.06
326.892	0.03
327.103	-0.06
327.314	-0
327.525	0.11
327.735	0.04
327.946	-0.03
328.157	-0.01
328.368	0.03
328.578	-0.01
328.789	0.03
328.999	0.05
329.21	-0.01
329.421	0.02
329.631	-0.02
329.842	0.05
330.052	0.04
330.263	0.05
330.473	0.05
330.684	0
330.894	-0.02
331.105	0.03
331.315	-0.02
331.526	-0.06
331.736	0.08
331.947	0.06
332.157	0.07
332.367	-0.06
332.578	0.03
332.788	0.07
332.999	0.03
333.209	0.02
333.419	-0.03
333.629	0.12
333.84	0.05
334.05	0.06
334.26	0.05
334.47	-0
334.681	0.04
334.891	-0.02
335.101	0.03
335.311	0.12
335.521	0.02
335.732	-0.04
335.942	0.06
336.152	0.08
336.362	0.04
336.572	0.01
336.782	0.04
336.992	-0.02
337.202	0
337.412	0.02
337.622	0.03
337.832	0.02
338.042	0.01
338.252	0.03
338.462	0.03
338.672	0.03
338.882	-0.03
339.092	0.01
339.302	0.06
339.511	0.05
339.721	-0.01
339.931	-0.02
340.141	0.04
340.351	0.06
340.561	0.03
340.77	-0.01
340.98	-0.02
341.19	0.04
341.4	0.01
341.609	-0.04
341.819	0.05
342.029	-0.01
342.238	0
342.448	-0.01
342.658	0.05
342.867	0.01
343.077	0.03
343.286	0.06
343.496	0.03
343.706	0.08
343.915	-0.02
344.125	0.04
344.334	0.03
344.544	-0.02
344.753	-0
344.963	0.01
345.172	-0.05
345.381	-0.01
345.591	-0.03
345.8	0.03
346.01	0.08
346.219	0.04
346.428	-0.11
346.638	0.02
346.847	-0
347.056	0.09
347.266	0
347.475	0.03
347.684	0.07
347.893	0.03
348.103	0.04
348.312	-0.02
348.521	0.03
348.73	0.02
348.94	0.04
349.149	0.02
349.358	-0.01
349.567	0.01
349.776	-0.05
349.985	0.03
350.194	0.05
350.403	0.06
350.612	-0.06
350.821	0.01
351.03	0.02
351.239	-0.03
351.448	0.06
351.657	-0.04
351.866	0.07
352.075	0.01
352.284	0.06
352.493	-0.01
352.702	0.12
352.911	0.06
353.12	0.03
353.329	0.05
353.538	0.04
353.746	0.05
353.955	-0.01
354.164	0.05
354.373	0.03
354.582	0.04
354.79	0.06
354.999	0.05
355.208	0.03
355.416	0.07
355.625	-0
355.834	-0.02
356.042	0.02
356.251	-0.04
356.46	-0.01
356.668	0.04
356.877	0.13
357.085	0.05
357.294	-0.04
357.503	0.04
357.711	0.02
357.92	0.16
358.128	0.04
358.337	0.01
358.545	0.04
358.754	0.01
358.962	0.04
359.17	0.01
359.379	0.01
359.587	0.04
359.796	0.02
360.004	0.08
360.212	0.06
360.421	0.09
360.629	0.04
360.837	-0
361.046	0.04
361.254	0.17
361.462	0.03
361.67	0.02
361.879	0.05
362.087	0.08
362.295	0
362.503	0.02
362.711	-0.01
362.92	-0.01
363.128	0.04
363.336	0.01
363.544	0
363.752	0.04
363.96	-0.02
364.168	0.05
364.376	0.06
364.584	0.04
364.792	0.12
365	0.04
365.208	-0.04
365.416	0.06
365.624	0.07
365.832	0.01
366.04	0.09
366.248	0.07
366.456	0.05
366.664	0.03
366.872	0.04
367.079	0.05
367.287	0.06
367.495	0.07
367.703	0.04
367.911	0.08
368.118	0.04
368.326	0.09
368.534	0.05
368.742	0.14
368.949	0.09
369.157	0.09
369.365	0.15
369.572	0.12
369.78	0.11
369.988	0.19
370.195	0.21
370.403	0.22
370.61	0.15
370.818	0.26
371.026	0.3
371.233	0.27
371.441	0.28
371.648	0.26
371.856	0.38
372.063	0.35
372.271	0.39
372.478	0.46
372.685	0.46
372.893	0.57
373.1	0.52
373.308	0.59
373.515	0.72
373.722	0.69
373.93	0.69
374.137	0.73
374.344	0.92
374.552	0.86
374.759	0.92
374.966	0.94
375.173	0.97
375.381	1.1
375.588	1.06
375.795	1.1
376.002	1.22
376.209	1.21
376.417	1.35
376.624	1.37
376.831	1.49
377.038	1.51
377.245	1.46
377.452	1.68
377.659	1.85
377.866	1.78
378.073	1.92
378.28	1.95
378.487	2.17
378.694	2.24
378.901	2.34
379.108	2.43
379.315	2.53
379.522	2.69
379.729	2.71
379.936	2.83
380.143	2.91
380.35	3.07
380.557	3.23
380.763	3.28
380.97	3.37
381.177	3.55
381.384	3.7
381.591	3.86
381.797	3.85
382.004	4.07
382.211	4.23
382.418	4.28
382.624	4.42
382.831	4.43
383.038	4.55
383.244	4.64
383.451	4.6
383.658	4.64
383.864	4.8
384.071	4.73
384.277	4.86
384.484	4.8
384.69	4.75
384.897	4.68
385.103	4.65
385.31	4.69
385.516	4.58
385.723	4.48
385.929	4.38
386.136	4.23
386.342	4.22
386.549	4.06
386.755	4.01
386.961	3.92
387.168	3.77
387.374	3.62
387.58	3.57
387.787	3.35
387.993	3.28
388.199	3.05
388.406	3.01
388.612	2.74
388.818	2.68
389.024	2.57
389.231	2.51
389.437	2.52
389.643	2.35
389.849	2.31
390.055	2.23
390.261	2.06
390.467	2.07
390.674	1.97
390.88	1.91
391.086	1.92
391.292	1.88
391.498	1.82
391.704	1.74
391.91	1.66
392.116	1.57
392.322	1.44
392.528	1.55
392.734	1.45
392.94	1.43
393.146	1.32
393.352	1.34
393.557	1.23
393.763	1.27
393.969	1.23
394.175	1.13
394.381	1.13
394.587	1.03
394.792	1.05
394.998	1.06
395.204	1.06
395.41	0.97
395.615	0.96
395.821	0.96
396.027	0.95
396.233	0.86
396.438	0.87
396.644	0.84
396.85	0.78
397.055	0.79
397.261	0.77
397.466	0.67
397.672	0.69
397.878	0.74
398.083	0.67
398.289	0.59
398.494	0.61
398.7	0.58
398.905	0.45
399.111	0.59
399.316	0.4
399.522	0.49
399.727	0.43
399.932	0.47
400.138	0.47
400.343	0.46
400.549	0.41
400.754	0.41
400.959	0.37
401.165	0.42
401.37	0.4
401.575	0.47
401.78	0.33
401.986	0.38
402.191	0.36
402.396	0.32
402.601	0.39
402.807	0.35
403.012	0.34
403.217	0.34
403.422	0.26
403.627	0.33
403.832	0.23
404.037	0.32
404.243	0.33
404.448	0.24
404.653	0.29
404.858	0.3
405.063	0.25
405.268	0.25
405.473	0.2
405.678	0.21
405.883	0.38
406.088	0.28
406.293	0.21
406.498	0.17
406.703	0.26
406.907	0.2
407.112	0.2
407.317	0.25
407.522	0.25
407.727	0.16
407.932	0.2
408.136	0.29
408.341	0.16
408.546	0.16
408.751	0.18
408.956	0.22
409.16	0.16
409.365	0.18
409.57	0.15
409.774	0.18
409.979	0.22
410.184	0.13
410.388	0.08
410.593	0.22
410.798	0.15
411.002	0.14
411.207	0.16
411.411	0.18
411.616	0.16
411.82	0.15
412.025	0.19
412.229	0.16
412.434	0.18
412.638	0.18
412.843	0.1
413.047	0.16
413.252	0.11
413.456	0.09
413.66	0.14
413.865	0.06
414.069	0.18
414.273	0.05
414.478	0.13
414.682	0.1
414.886	0.05
415.091	-0
415.295	0.05
415.499	0.1
415.703	0.12
415.908	0.16
416.112	0.01
416.316	0.16
416.52	0.08
416.724	0.07
416.929	0.04
417.133	0.21
417.337	0.07
417.541	0.07
417.745	0.05
417.949	0.11
418.153	0.09
418.357	0.05
418.561	0.15
418.765	0.03
418.969	0.15
419.173	0.1
419.377	0.08
419.581	0.18
419.785	0.06
419.989	-0.01
420.193	0.06
420.397	0.06
420.601	0.12
420.804	0.15
421.008	0.07
421.212	0.09
421.416	0.12
421.62	0.04
421.823	0.05
422.027	0.13
422.231	0.07
422.435	0.04
422.638	0.08
422.842	0.05
423.046	0.07
423.249	0.06
423.453	0.08
423.657	0.07
423.86	0.02
424.064	0.08
424.268	0.11
424.471	0.03
424.675	0.14
424.878	0.1
425.082	0.1
425.285	0.1
425.489	0.07
425.692	0.11
425.896	0.04
426.099	0.12
426.303	0.02
426.506	0.01
426.71	0.1
426.913	0.1
427.116	0.14
427.32	0.05
427.523	0.06
427.726	0.16
427.93	0.03
428.133	0.09
428.336	0.04
428.54	0.02
428.743	0.07
428.946	0.15
429.149	0.08
429.353	0.08
429.556	0.08
429.759	0.09
429.962	0.05
430.165	0.1
430.368	0.09
430.571	0.05
430.775	0.06
430.978	0.05
431.181	0.11
431.384	0.11
431.587	0.08
431.79	0.09
431.993	0.08
432.196	0.05
432.399	0.05
432.602	0.14
432.805	0.1
433.008	0.06
433.211	0.03
433.414	0.11
433.616	0.12
433.819	0.07
434.022	0.01
434.225	0.18
434.428	0.16
434.631	0.17
434.833	0.07
435.036	0.06
435.239	0.11
435.442	0.06
435.645	0.06
435.847	0.12
436.05	0.17
436.253	0.06
436.455	0.03
436.658	0.1
436.861	0.16
437.063	0.05
437.266	0.07
437.468	0.12
437.671	0.24
437.874	0.15
438.076	-0.03
438.279	-0.01
438.481	0.06
438.684	0.05
438.886	0.13
439.089	0.07
439.291	0.07
439.494	0.1
439.696	0.08
439.899	0.02
440.101	0.06
440.303	0.06
440.506	0.13
440.708	0.07
440.91	0.1
441.113	0.05
441.315	0.15
441.517	0.05
441.72	0.13
441.922	0.11
442.124	0.06
442.326	0.1
442.529	0.17
442.731	0.08
442.933	0.16
443.135	0.1
443.337	0.06
443.539	0.05
443.742	0.1
443.944	0.09
444.146	0.1
444.348	0.09
444.55	0.08
444.752	0.11
444.954	0.03
445.156	0.12
445.358	0.13
445.56	0.16
445.762	0.07
445.964	0.1
446.166	0.08
446.368	0.06
446.57	0.18
446.772	0.1
446.974	0.05
447.175	0.09
447.377	0.08
447.579	0.09
447.781	0.03
447.983	0.19
448.184	0.15
448.386	0.11
448.588	0.08
448.79	0.14
448.991	0.09
449.193	0.16
449.395	0.09
449.597	0.17
449.798	0.07
450	0.16
450.202	0.15
450.403	0.08
450.605	0.17
450.806	0.12
451.008	0.02
451.21	0.14
451.411	0.14
451.613	0.11
451.814	0.12
452.016	0.15
452.217	0.09
452.419	0.13
452.62	0.09
452.821	0.14
453.023	0.15
453.224	0.15
453.426	0.06
453.627	0.09
453.828	0.17
454.03	0.08
454.231	0.15
454.432	0.05
454.634	0.18
454.835	0.04
455.036	0
455.238	0.1
455.439	0.2
455.64	0.05
455.841	0.04
456.042	0.12
456.244	0.08
456.445	0.04
456.646	0.01
456.847	0.08
457.048	0.09
457.249	0.16
457.45	0.25
457.651	0.05
457.852	0.12
458.054	0.08
458.255	0.05
458.456	0.14
458.657	0.14
458.858	0.01
459.058	0.03
459.259	0.07
459.46	0.04
459.661	0.03
459.862	0.17
460.063	0.1
460.264	0.09
460.465	-0.02
460.666	0.15
460.866	0.01
461.067	0.07
461.268	0.03
461.469	0.02
461.67	0.02
461.87	0.02
462.071	-0.01
462.272	0.08
462.473	0.05
462.673	0.07
462.874	0.01
463.075	0.11
463.275	0.03
463.476	0.05
463.676	0.08
463.877	0.08
464.078	0.02
464.278	0.09
464.479	0.11
464.679	0.04
464.88	0.07
465.08	0.11
465.281	0
465.481	0.02
465.682	0
465.882	0.08
466.083	0.07
466.283	0.03
466.483	0.04
466.684	0.03
466.884	-0
467.085	0.05
467.285	0.12
467.485	0.04
467.686	0
467.886	0.02
468.086	0.05
468.286	0.04
468.487	0.07
468.687	-0.01
468.887	0.06
469.087	0.06
469.287	0.05
469.488	-0.02
469.688	0.07
469.888	0.06
470.088	0.07
470.288	0.11
470.488	0.06
470.688	-0
470.888	0.02
471.088	0.02
471.288	0.05
471.488	0.07
471.688	0.06
471.888	0.03
472.088	0.08
472.288	0.06
472.488	0.02
472.688	0.01
472.888	0.04
473.088	0.06
473.288	0.01
473.488	0.07
473.688	0.11
473.887	0.03
474.087	-0.01
474.287	0.04
474.487	0
474.687	0.07
474.886	0.01
475.086	0.02
475.286	0.01
475.486	0.02
475.685	0.01
475.885	0.03
476.085	0.01
476.284	0.04
476.484	0.03
476.684	0.05
476.883	0.08
477.083	0.03
477.282	0.02
477.482	0.07
477.681	0.07
477.881	0.05
478.08	0.04
478.28	-0.01
478.479	0.06
478.679	0.1
478.878	-0.02
479.078	0.02
479.277	0.03
479.477	0.03
479.676	0.05
479.875	0.03
480.075	-0.01
480.274	0.04
480.473	0.05
480.673	-0
480.872	0.08
481.071	0.03
481.271	0.04
481.47	0.01
481.669	0.04
481.868	0.01
482.067	0
482.267	0.01
482.466	0.01
482.665	0.01
482.864	-0.01
483.063	0.01
483.262	0.03
483.461	0.04
483.661	0.06
483.86	0.03
484.059	0.01
484.258	0
484.457	0.02
484.656	0.05
484.855	0.06
485.054	-0.01
485.253	-0.03
485.452	-0.01
485.651	0
485.849	0.03
486.048	0.03
486.247	-0.02
486.446	0.01
486.645	-0
486.844	0.02
487.043	0.04
487.241	0.07
487.44	-0.01
487.639	0.02
487.838	0.01
488.037	0.03
488.235	0.08
488.434	0.03
488.633	0.01
488.831	0.05
489.03	0.07
489.229	0.02
489.427	0.01
489.626	0.04
489.825	0.05
490.023	0.01
490.222	0.03
490.42	0.06
490.619	0.03
490.817	0.04
491.016	-0
491.214	0.07
491.413	-0
491.611	0.02
491.81	0.02
492.008	0.03
492.207	0.02
492.405	-0.01
492.604	-0
492.802	0.01
493	0.02
493.199	0.03
493.397	0.02
493.595	0
493.794	-0
493.992	0.06
494.19	0.03
494.388	0.03
494.587	0
494.785	0.05
494.983	-0.02
495.181	0.01
495.379	0.01
495.578	0
495.776	0.02
495.974	0.05
496.172	0.01
496.37	0.03
496.568	-0
496.766	0.01
496.964	0.04
497.162	0
497.36	-0
497.558	0.03
497.756	0.02
497.954	0.02
498.152	-0.01
498.35	0.02
498.548	-0
498.746	0.04
498.944	-0.03
499.142	0
499.34	-0.01
499.538	0.03
499.736	-0.02
499.933	0.05
500.131	0.04
500.329	0.01
500.527	0.03
500.725	0.04
500.922	0.02
501.12	0.02
501.318	0.03
501.516	-0.02
501.713	0.03
501.911	0.02
502.109	0.03
502.306	0.04
502.504	0.01
502.701	-0
502.899	0.01
503.097	0.05
503.294	0.01
503.492	-0
503.689	0.03
503.887	0.03
504.084	0.05
504.282	0.03
504.479	0.01
504.677	0.03
504.874	0
505.072	0.02
505.269	0.02
505.466	0.02
505.664	0.01
505.861	-0.01
506.059	-0.02
506.256	0
506.453	-0.01
506.651	0.06
506.848	0.04
507.045	0.02
507.242	0.02
507.44	0.01
507.637	-0
507.834	0.02
508.031	0.04
508.229	0.01
508.426	0.05
508.623	0.02
508.82	0
509.017	-0.02
509.214	-0.01
509.411	-0.01
509.608	-0.01
509.805	-0
510.003	0.01
510.2	-0
510.397	0.03
510.594	-0
510.791	0
510.988	0
511.184	0.02
511.381	0.02
511.578	-0.01
511.775	0.04
511.972	-0
512.169	-0.01
512.366	0.01
512.563	0.03
512.76	-0.02
512.956	0.02
513.153	-0
513.35	0.02
513.547	0.02
513.744	0.01
513.94	-0.02
514.137	0.02
514.334	0
514.53	0.01
514.727	0.03
514.924	0.06
515.12	-0.03
515.317	-0.02
515.514	-0.01
515.71	-0
515.907	0
516.103	0.04
516.3	0.03
516.497	0.03
516.693	0.05
516.89	0.02
517.086	-0
517.283	0.06
517.479	0
517.676	0.01
517.872	0.01
518.068	-0.01
518.265	-0
518.461	-0.01
518.658	-0.01
518.854	0.02
519.05	0.03
519.247	-0.01
519.443	0.03
519.639	0.01
519.836	-0
520.032	0.01
520.228	0.03
520.424	0.09
520.621	0.03
520.817	0.01
521.013	0.03
521.209	0
521.405	0.04
521.601	0.02
521.798	-0.01
521.994	0.03
522.19	-0.02
522.386	-0.01
522.582	0.02
522.778	-0.01
522.974	0.01
523.17	0.01
523.366	0.04
523.562	-0
523.758	0.02
523.954	-0.02
524.15	-0.01
524.346	0.02
524.542	0
524.738	-0.01
524.934	0.01
525.129	0.01
525.325	0.02
525.521	-0
525.717	0.04
525.913	0.01
526.109	0.02
526.304	0.03
526.5	0
526.696	0.03
526.892	-0
527.087	0.02
527.283	-0.02
527.479	0.03
527.674	0.02
527.87	0.01
528.066	0
528.261	0.02
528.457	0.01
528.653	0
528.848	-0
529.044	0.01
529.239	0.02
529.435	0.04
529.63	0.01
529.826	0.05
530.021	0.03
530.217	0.03
530.412	-0.01
530.608	0
530.803	0.01
530.999	0.02
531.194	-0.05
531.389	0.03
531.585	-0.03
531.78	-0
531.975	0
532.171	0.04
532.366	0.01
532.561	0
532.757	0
532.952	0.01
533.147	0.03
533.342	0.01
533.538	-0.01
533.733	0.04
533.928	-0.01
534.123	0.02
534.318	-0.02
534.513	0.02
534.709	0.02
534.904	-0
535.099	0.01
535.294	0.02
535.489	0.02
535.684	-0.01
535.879	-0.02
536.074	0.02
536.269	-0
536.464	0.03
536.659	0.02
536.854	0.01
537.049	0.01
537.244	0.02
537.439	0.02
537.634	0.03
537.828	-0
538.023	0.01
538.218	-0.01
538.413	-0
538.608	-0.01
538.803	0.02
538.997	-0.01
539.192	0.04
539.387	0.02
539.582	0.03
539.776	0.03
539.971	-0.02
540.166	0.01
540.36	-0.01
540.555	0.02
540.75	-0
540.944	0.01
541.139	-0.02
541.334	0.02
541.528	0.04
541.723	0.04
541.917	-0
542.112	-0.02
542.306	0
542.501	0.01
542.695	0.02
542.89	-0.01
543.084	0
543.279	0
543.473	-0.01
543.668	0.01
543.862	-0.01
544.056	0.03
544.251	-0
544.445	0.01
544.64	-0.01
544.834	-0
545.028	0
545.222	0.03
545.417	0.02
545.611	0.03
545.805	0
546	-0
546.194	0.03
546.388	0.01
546.582	0.03
546.776	-0
546.97	0.02
547.165	0.01
547.359	0.04
547.553	-0.01
547.747	-0
547.941	0.02
548.135	0.02
548.329	0.04
548.523	0.03
548.717	-0.01
548.911	-0.02
549.105	0.01
549.299	0.01
549.493	0.04
549.687	0.03
549.881	0.01
550.075	0.02
550.269	-0.02
550.463	0.03
550.657	0.01
550.85	0.02
551.044	0
551.238	0.01
551.432	0
551.626	0
551.82	0.02
552.013	-0
552.207	0.01
552.401	0.03
552.594	0.02
552.788	0.01
552.982	0
553.176	0.01
553.369	0.03
553.563	0.02
553.756	-0.01
553.95	-0.01
554.144	0
554.337	0.03
554.531	0.03
554.724	0.02
554.918	-0
555.111	0.03
555.305	0.02
555.498	0.05
555.692	0.03
555.885	0
556.079	0.02
556.272	-0
556.466	0.05
556.659	0.02
556.852	0.01
557.046	0
557.239	0.03
557.432	-0.02
557.626	0
557.819	0.03
558.012	0.04
558.206	0.02
558.399	0
558.592	0.02
558.785	0.01
558.979	0.03
559.172	0.02
559.365	0.01
559.558	0.01
559.751	0.01
559.944	0.02
560.138	0.01
560.331	-0
560.524	0.02
560.717	-0.01
560.91	0.01
561.103	0.03
561.296	0.01
561.489	0.01
561.682	0
561.875	0.05
562.068	0.03
562.261	0
562.454	0.04
562.647	0.02
562.84	0.03
563.032	-0.01
563.225	0.01
563.418	0.01
563.611	0
563.804	0.01
563.997	-0.03
564.19	0.01
564.382	0.02
564.575	0.01
564.768	-0
564.961	-0
565.153	0
565.346	0.05
565.539	0.04
565.731	0.05
565.924	0.06
566.117	0.04
566.309	-0
566.502	0.01
566.695	0.01
566.887	0.01
567.08	0.01
567.272	-0
567.465	0.01
567.657	0.02
567.85	0.04
568.042	0.03
568.235	0.05
568.427	0.01
568.62	0.02
568.812	0.03
569.005	0.01
569.197	-0.03
569.389	0.01
569.582	0.02
569.774	0.02
569.966	-0.02
570.159	0.01
570.351	0.05
570.543	-0.01
570.736	0.02
570.928	0
571.12	0.01
571.312	-0.02
571.505	-0.03
571.697	0.05
571.889	-0.02
572.081	-0.02
572.273	-0
572.465	0.04
572.658	0.02
572.85	0.02
573.042	-0.01
573.234	0
573.426	0.02
573.618	-0.01
573.81	0.02
574.002	0.04
574.194	0.03
574.386	-0.01
574.578	-0.06
574.77	-0.01
574.962	-0
575.154	-0.02
575.346	0.01
575.538	0.01
575.729	-0.02
575.921	0.01
576.113	-0
576.305	0.02
576.497	0.01
576.689	0.01
576.88	-0
577.072	0.03
577.264	0.01
577.456	0.01
577.647	-0.07
577.839	0
578.031	0.04
578.223	-0.01
578.414	-0.02
578.606	0.05
578.798	-0
578.989	0
579.181	-0
579.372	0.01
579.564	0.02
579.755	0.01
579.947	0
580.139	0.04
580.33	-0.05
580.522	-0.02
580.713	-0.05
580.905	-0.01
581.096	0.03
581.287	0.02
581.479	0.02
581.67	0
581.862	0.01
582.053	-0.01
582.244	-0.03
582.436	0.02
582.627	0
582.818	-0.02
583.01	-0.03
583.201	0.06
583.392	0.02
583.583	0
583.775	0.02
583.966	-0.02
584.157	0
584.348	-0.02
584.54	-0.01
584.731	0.03
584.922	0.03
585.113	-0.01
585.304	0.02
585.495	0.03
585.686	0.02
585.877	0.03
586.068	0.01
586.259	0.02
586.45	0.02
586.641	-0.01
586.832	-0.06
587.023	0.01
587.214	0.01
587.405	0.01
587.596	-0.02
587.787	0.03
587.978	0.01
588.169	-0.02
588.36	-0.01
588.551	0.01
588.742	-0.03
588.932	0.01
589.123	0.01
589.314	0.05
589.505	0.03
589.696	0.03
589.886	-0.01
590.077	-0.05
590.268	0.02
590.458	-0.03
590.649	-0.02
590.84	0.02
591.03	-0.03
591.221	-0.03
591.412	-0.04
591.602	0.01
591.793	0.02
591.984	-0.04
592.174	0.02
592.365	0.07
592.555	-0.03
592.746	0.01
592.936	0.01
593.127	0.01
593.317	0.04
593.508	-0.02
593.698	0.01
593.889	0.02
594.079	-0
594.269	-0.02
594.46	0
594.65	-0.01
594.84	0
595.031	-0.06
595.221	-0
595.411	-0.03
595.602	0.02
595.792	0.01
595.982	-0.01
596.172	0.04
596.363	0
596.553	0.01
596.743	-0.03
596.933	0.01
597.123	0.03
597.314	-0.01
597.504	-0.02
597.694	0.03
597.884	0.02
598.074	-0
598.264	-0.01
598.454	-0
598.644	0.01
598.834	0
599.024	-0.05
599.214	-0.03
599.404	0.05
599.594	-0.03
599.784	-0.03
599.974	0.04
600.164	0
600.354	-0.01
600.544	-0.04
600.734	0.03
600.924	0.05
601.114	0.01
601.303	-0
601.493	-0.01
601.683	0.01
601.873	-0.02
602.063	-0.03
602.252	0.05
602.442	-0.05
602.632	-0.04
602.821	-0.01
603.011	0.03
603.201	0.01
603.39	-0.01
603.58	-0.02
603.77	0.03
603.959	0.03
604.149	-0.01
604.339	0.01
604.528	0.05
604.718	0.01
604.907	-0.01
605.097	-0.01
605.286	-0.04
605.476	0.05
605.665	0.02
605.855	0.01
606.044	0.07
606.234	0.01
606.423	-0.02
606.612	-0.02
606.802	0.01
606.991	0.03
607.181	0.02
607.37	-0.03
607.559	-0
607.749	-0.02
607.938	0
608.127	0.01
608.316	-0.01
608.506	-0.01
608.695	0.02
608.884	-0.01
609.073	-0
609.263	0.01
609.452	0.05
609.641	0
609.83	-0.02
610.019	-0.02
610.208	-0.02
610.397	0.01
610.586	0.03
610.775	-0.02
610.965	0.01
611.154	-0.01
611.343	-0
611.532	0.01
611.721	-0.01
611.91	-0.02
612.099	0
612.287	0
612.476	-0.02
612.665	0.02
612.854	-0.02
613.043	0.05
613.232	-0
613.421	-0.02
613.61	0.03
613.798	-0.01
613.987	0.01
614.176	0.03
614.365	0.05
614.554	0.02
614.742	0.02
614.931	0.01
615.12	0.01
615.309	-0.01
615.497	0.02
615.686	-0
615.875	-0.01
616.063	-0
616.252	0.02
616.44	0.02
616.629	0.03
616.818	0.01
617.006	-0.01
617.195	-0.02
617.383	0.03
617.572	-0
617.76	-0.02
617.949	-0
618.137	0.01
618.326	0.01
618.514	-0.01
618.703	-0.03
618.891	0.06
619.079	-0.04
619.268	0.01
619.456	-0.03
619.644	0.06
619.833	0.01
620.021	0.01
620.209	-0.03
620.398	-0.01
620.586	0.01
620.774	0.04
620.962	0.01
621.151	0.08
621.339	0.02
621.527	-0.01
621.715	-0.02
621.903	-0
622.092	-0
622.28	0.02
622.468	0.03
622.656	0.02
622.844	0.03
623.032	0
623.22	-0.04
623.408	0.04
623.596	0.05
623.784	0.06
623.972	-0.01
624.16	-0
624.348	0.08
624.536	-0.02
624.724	-0.01
624.912	0.04
625.1	0.05
625.288	-0.03
625.476	-0.01
625.664	0.02
625.851	-0.02
626.039	0
626.227	0.03
626.415	-0.05
626.603	-0.02
626.79	0.03
626.978	-0.02
627.166	0.02
627.354	-0.03
627.541	-0.03
627.729	-0.06
627.917	0.04
628.104	0.07
628.292	0.03
628.48	0.04
628.667	0.03
628.855	0.01
629.042	0.02
629.23	0.01
629.418	0.01
629.605	0.02
629.793	0.01
629.98	-0.01
630.168	0.03
630.355	0.01
630.543	0.02
630.73	-0.03
630.917	0.02
631.105	0.07
631.292	0
631.48	-0.02
631.667	0.05
631.854	0
632.042	-0.01
632.229	-0.02
632.416	0.01
632.604	-0
632.791	0.03
632.978	0.03
633.165	0.05
633.353	0.04
633.54	0.07
633.727	-0.03
633.914	0.02
634.101	-0.05
634.289	0.05
634.476	-0
634.663	-0.02
634.85	0.01
635.037	-0
635.224	-0.06
635.411	0.01
635.598	0.02
635.785	0.01
635.972	0.02
636.159	0.02
636.346	-0.01
636.533	0.04
636.72	0.03
636.907	0
637.094	0.05
637.281	0.03
637.468	0.04
637.655	0.03
637.842	0
638.029	0.02
638.215	0.08
638.402	0.02
638.589	-0.01
638.776	0.01
638.963	0.01
639.149	0.02
639.336	0.08
639.523	0.02
639.709	0.05
639.896	0.03
640.083	0.1
640.27	0.05
640.456	-0.01
640.643	0.04
640.829	0
641.016	0.03
641.203	-0
641.389	0.06
641.576	0.07
641.762	0.02
641.949	0
642.135	0.05
642.322	0.04
642.508	-0.02
642.695	-0
642.881	0
643.068	0.03
643.254	0.06
643.441	0.07
643.627	0.03
643.813	0.01
644	0.09
644.186	-0
644.372	0.05
644.559	0.08
644.745	0.01
644.931	0.04
645.118	0.04
645.304	0.07
645.49	0.02
645.676	0.04
645.862	0.05
646.049	0.07
646.235	0.05
646.421	0.09
646.607	0.13
646.793	0.03
646.979	0.02
647.165	0.07
647.352	0.06
647.538	0.08
647.724	0.05
647.91	0.05
648.096	0.11
648.282	0.09
648.468	0.04
648.654	0.05
648.84	0.08
649.026	0.07
649.212	0.04
649.397	0.04
649.583	0.01
649.769	0.11
649.955	0.07
650.141	0.08
650.327	0.12
650.513	0.06
650.698	0.09
650.884	0.02
651.07	0.07
651.256	0.08
651.442	0.04
651.627	0.06
651.813	0.08
651.999	0.11
652.184	0.11
652.37	0.08
652.556	0.06
652.741	0.12
652.927	0.03
653.113	0.06
653.298	0.11
653.484	0.06
653.669	0.06
653.855	0.1
654.04	0.13
654.226	0.08
654.412	0.07
654.597	0.07
654.782	0.1
654.968	0.08
655.153	0.11
655.339	0.04
655.524	0.07
655.71	0.12
655.895	0.08
656.08	0.07
656.266	0.13
656.451	0.12
656.636	0.08
656.822	0.12
657.007	0.11
657.192	0.08
657.378	0.09
657.563	0.11
657.748	0.14
657.933	0.12
658.118	0.07
658.304	0.1
658.489	0.11
658.674	0.1
658.859	0.07
659.044	0.12
659.229	0.13
659.414	0.1
659.599	0.1
659.785	0.06
659.97	0.1
660.155	0.14
660.34	0.13
660.525	0.08
660.71	0.1
660.895	0.15
661.08	0.08
661.264	0.09
661.449	0.13
661.634	0.14
661.819	0.11
662.004	0.09
662.189	0
662.374	0.08
662.559	0.05
662.743	0.07
662.928	0.06
663.113	0.06
663.298	0
663.483	0.07
663.667	0.11
663.852	0.01
664.037	0.12
664.221	0.04
664.406	0.09
664.591	0.11
664.775	0.07
664.96	0.01
665.145	0.04
665.329	0.06
665.514	0.01
665.698	0.01
665.883	0.02
666.068	0.09
666.252	0.04
666.437	-0
666.621	0.05
666.806	0.06
666.99	0.03
667.174	0
667.359	0.1
667.543	-0
667.728	0.05
667.912	-0.07
668.096	0.07
668.281	-0.01
668.465	0.06
668.649	0.03
668.834	0
669.018	-0.02
669.202	0.04
669.387	0.02
669.571	0.08
669.755	-0.02
669.939	0.03
670.124	0.03
670.308	0.07
670.492	0.03
670.676	-0
670.86	-0.01
671.044	-0.03
671.228	0.04
671.413	-0.02
671.597	-0.03
671.781	0.03
671.965	0.05
672.149	-0
672.333	0.01
672.517	-0.03
672.701	0.04
672.885	0
673.069	-0.04
673.253	0.05
673.437	0.02
673.621	-0.01
673.804	0.01
673.988	0.04
674.172	0
674.356	-0.02
674.54	0.01
674.724	0.1
674.908	0.01
675.091	0.05
675.275	0.02
675.459	0.02
675.643	0.03
675.826	0.03
676.01	-0.01
676.194	-0.01
676.377	0.05
676.561	0.01
676.745	-0
676.928	0.01
677.112	0.03
677.296	-0.03
677.479	-0.03
677.663	-0.03
677.846	0
678.03	0.03
678.213	0.01
678.397	0.05
678.58	-0.04
678.764	0.01
678.947	-0.02
679.131	0.01
679.314	0.08
679.498	0.01
679.681	0.01
679.865	0.05
680.048	0.01
680.231	-0.03
680.415	0.01
680.598	-0.01
680.781	0.03
680.965	-0.01
681.148	0.01
681.331	-0.01
681.514	0.04
681.698	0.01
681.881	0.06
682.064	0.01
682.247	0.04
682.43	-0.09
682.614	0.08
682.797	0.03
682.98	0.01
683.163	-0.02
683.346	0.02
683.529	-0.02
683.712	-0
683.895	0.03
684.078	-0.04
684.261	-0.01
684.444	0
684.627	0.03
684.81	-0.01
684.993	-0.02
685.176	0.02
685.359	0
685.542	-0.02
685.725	0.05
685.908	0.01
686.091	-0.01
686.274	0.02
686.457	0.05
686.639	0.01
686.822	0.04
687.005	0.01
687.188	0.06
687.371	0.07
687.553	0.02
687.736	0.02
687.919	0.09
688.102	0.09
688.284	-0
688.467	-0
688.65	-0
688.832	-0
689.015	0.02
689.197	-0.07
689.38	0.09
689.563	0.07
689.745	-0.03
689.928	-0.01
690.11	-0.01
690.293	0.03
690.475	-0.06
690.658	0.04
690.84	0.02
691.023	-0.05
691.205	-0.01
691.388	0.02
691.57	0.07
691.752	0.02
691.935	-0.05
692.117	-0.01
692.3	0.03
692.482	-0
692.664	-0.02
692.847	0.01
693.029	0.04
693.211	0.01
693.393	-0
693.576	-0.01
693.758	-0
693.94	-0.03
694.122	0.01
694.304	-0
694.487	-0.01
694.669	0.12
694.851	-0.05
695.033	-0.02
695.215	-0.04
695.397	0.01
695.579	0
695.761	0.02
695.943	-0.07
696.125	0.1
696.308	0.03
696.49	-0.12
696.671	0.09
696.853	-0.03
697.035	0.08
697.217	0.02
697.399	0.02
697.581	-0.05
697.763	0
697.945	-0.02
698.127	0.01
698.309	0.07
698.491	0.03
698.672	-0
698.854	0.02
699.036	0.07
699.218	0.01
699.399	0.07
699.581	0.07
699.763	0.02
699.945	-0.08
700.126	-0.05
700.308	0.04
700.49	-0.03
700.671	-0.12
700.853	-0.05
701.035	-0.02
701.216	0.03
701.398	-0.02
701.579	0
701.761	0.06
701.943	0.05
702.124	-0.01
702.306	-0.05
702.487	0.13
702.669	0.02
702.85	0.01
703.031	-0.03
703.213	0.12
703.394	0.02
703.576	-0.03
703.757	0.08
703.938	-0
704.12	0.15
704.301	0.04
704.483	0.02
704.664	0.02
704.845	0.12
705.026	0.11
705.208	0.01
705.389	-0.03
705.57	0.07
705.751	0.02
705.933	-0
706.114	0.08
706.295	0.01
706.476	-0.06
706.657	0.12
706.838	0.09
707.02	0.04
707.201	-0.01
707.382	-0.04
707.563	0.04
707.744	-0.01
707.925	-0.05
708.106	-0.03
708.287	0.01
708.468	0.17
708.649	-0.01
708.83	0.05
709.011	-0.03
709.192	0.07
709.373	-0.06
709.554	-0.02
709.734	0.05
709.915	0.08
710.096	0.01
710.277	-0.04
710.458	0.05
710.639	0.03
710.819	-0.01
711	0.02
711.181	0.1
711.362	0.1
711.542	0.06
711.723	0.04
711.904	0.06
712.085	0.05
712.265	-0.01
712.446	-0.05
712.627	-0.02
712.807	-0.01
712.988	0.04
713.168	-0.04
713.349	0.1
713.53	-0
713.71	-0.04
713.891	-0.05
714.071	-0.01
714.252	-0
714.432	-0.03
714.613	-0.08
714.793	0.03
714.974	0.16
715.154	0.11
715.334	0.05
715.515	0.17
715.695	-0.03
715.876	0.01
716.056	0.02
716.236	-0.01
716.417	-0.03
716.597	0.02
716.777	0.09
716.957	0.05
717.138	-0.05
717.318	0.07
717.498	-0.08
717.678	0.03
717.859	0.05
718.039	0.02
718.219	0.06
718.399	0.12
718.579	-0.06
718.759	0
718.939	0.12
719.12	0.08
719.3	0.11
719.48	-0.08
719.66	-0.1
719.84	0.14
720.02	0.06
720.2	-0
720.38	0.09
720.56	0.06
720.74	-0.02
720.92	0.04
721.1	0.14
721.279	0.08
721.459	0.07
721.639	-0.08
721.819	0.09
721.999	0.05
722.179	0.11
722.359	0.02
722.538	0.06
722.718	0.06
722.898	0.05
723.078	-0.01
723.257	0.02
723.437	0.05
723.617	0.13
723.797	0.1
723.976	0.05
724.156	0.06
724.336	0.15
724.515	0.23
724.695	-0.03
724.874	0.02
725.054	0.12
725.234	-0.01
725.413	0.12
725.593	0.03
725.772	-0
725.952	0.08
726.131	0.01
726.311	0.03
726.49	0.07
726.67	0.03
726.849	0.01
727.028	0.12
727.208	0.04
727.387	0.08
727.567	0.03
727.746	0.1
727.925	-0.02
728.105	-0.06
728.284	0.05
728.463	0.07
728.643	0.09
728.822	0.07
729.001	0.06
729.18	0.04
729.359	0.11
729.539	0.06
729.718	0.05
729.897	0.18
730.076	0.05
730.255	0.07
730.434	0.1
730.614	0.17
730.793	0.12
730.972	0.03
731.151	0.08
731.33	0.22
731.509	0.16
731.688	0.15
731.867	0.14
732.046	-0.05
732.225	0.29
732.404	-0.03
732.583	0.02
732.762	0.15
732.941	0.12
733.12	0.11
733.298	0.16
733.477	0.19
733.656	0.09
733.835	-0.05
734.014	0.18
734.193	0.04
734.371	0.13
734.55	0.15
734.729	0.03
734.908	0.16
735.086	0.06
735.265	0.16
735.444	0.06
735.623	-0
735.801	0.03
735.98	0.13
736.159	0.07
736.337	0.22
736.516	0.07
736.694	-0.01
736.873	0.03
737.052	0.21
737.23	0.17
737.409	0.04
737.587	0.33
737.766	-0.2
737.944	0.11
738.123	0.25
738.301	0.18
738.479	0.06
738.658	0.13
738.836	-0.03
739.015	0.14
739.193	0.3
739.371	-0.01
739.55	0.07
739.728	0.04
739.906	0.25
740.085	0.22
740.263	0.12
740.441	-0.08
740.62	0.19
740.798	0.12
740.976	0.01
741.154	0.06
741.332	0.25
741.511	0.07
741.689	0.2
741.867	0.16
742.045	-0.04
742.223	0.1
742.401	0.05
742.579	0.09
742.757	0.05
742.935	-0.13
743.114	0.1
743.292	0.01
743.47	0.13
743.648	0.14
743.826	0.06
744.004	0.15
744.181	0.16
744.359	0.05
744.537	0.02
744.715	-0.01
744.893	0
745.071	0.06
745.249	-0.05
745.427	-0.04
745.605	0.13
745.782	0.11
745.96	0.07
746.138	0.05
746.316	0.15
746.493	-0.05
746.671	0.03
746.849	0.01
747.027	0.15
747.204	-0.04
747.382	0.1
747.56	-0.13
747.737	-0
747.915	-0.01
748.093	0.07
748.27	0.01
748.448	0.01
748.625	-0.06
748.803	-0.09
748.98	-0.02
749.158	0.09
749.335	0.1
749.513	0.08
749.69	0.01
749.868	0.07
750.045	0.01
750.223	-0.04
750.4	-0.21
750.578	0.18
750.755	0.02
750.932	-0.15
751.11	0.18
751.287	-0.14
751.464	0.12
751.642	0.04
751.819	0.15
751.996	-0.01
752.173	-0.04
752.351	-0.05
752.528	0.04
752.705	0.05
752.882	-0.08
753.06	0.1
753.237	0.07
753.414	0.21
753.591	0.12
753.768	0.02
753.945	-0.07
754.122	-0.12
754.299	0.05
754.476	-0.06
754.654	0.05
754.831	0.09
755.008	0.01
755.185	0.02
755.362	-0.15
755.539	-0.05
755.716	-0.07
755.892	0.11
756.069	-0.06
756.246	-0
756.423	-0.03
756.6	0.11
756.777	-0.03
756.954	0.14
757.131	0.01
757.307	-0.09
757.484	-0.03
757.661	0.04
757.838	0.06
758.015	-0.09
758.191	0.05
758.368	0.01
758.545	0.14
758.721	0.16
758.898	-0.01
759.075	0.07
759.251	0.14
759.428	0.09
759.605	-0.1
759.781	-0.05
759.958	0.01
760.134	0.04
760.311	-0.08
760.488	0.01
760.664	0.11
760.841	-0.04
761.017	-0.07
761.194	-0.02
761.37	0.06
761.547	-0.03
761.723	0.06
761.899	0.16
762.076	-0.11
762.252	-0.06
762.429	-0.13
762.605	0.11
762.781	0.05
762.958	0.15
763.134	0.11
763.31	-0.09
763.486	0.04
763.663	-0.04
763.839	0.09
764.015	-0.15
764.191	-0.14
764.368	0
764.544	-0.1
764.72	0.09
764.896	0.13
765.072	0.05
765.248	-0.04
765.425	-0.01
765.601	0
765.777	0.01
765.953	-0.2
766.129	-0.08
766.305	-0.06
766.481	0.07
766.657	0.03
766.833	0.1
767.009	-0.16
767.185	0.05
767.361	-0.07
767.537	-0.26
767.713	0.13
767.889	-0.08
768.065	0.03
768.24	-0.17
768.416	0.06
768.592	-0.1
768.768	-0.08
768.944	-0
769.12	-0.07
769.295	-0.03
769.471	-0.07
769.647	-0.04
769.823	0.23
769.998	0.02
770.174	-0.06
770.35	0.32
770.525	0.19
770.701	0.04
770.877	0.02
771.052	-0.13
771.228	0.08
771.403	0.02
771.579	0.16
771.755	0.33
771.93	-0.02
772.106	-0.15
772.281	-0.09
772.457	0.03
772.632	-0.01
772.808	-0.2
772.983	0.02
773.159	-0.05
773.334	0.22
773.509	0.06
773.685	-0.09
773.86	0.39
774.036	0.24
774.211	0.04
774.386	0.03
774.562	-0.07
774.737	0.04
774.912	-0.11
775.087	0.14
775.263	-0.06
775.438	-0.03
775.613	-0.01
775.788	0.05
775.964	0.14
776.139	0.32
776.314	-0.1
776.489	-0.08
776.664	0.04
776.839	-0.15
777.014	0.23
777.19	0.02
777.365	0.22
777.54	0.05
777.715	0.04
777.89	-0.06
778.065	-0.16
778.24	0.02
778.415	0.25
778.59	-0.1
778.765	-0.01
778.94	0.15
779.115	-0.04
779.289	-0.04
779.464	0.09
779.639	-0.02
779.814	-0.11
779.989	-0.22
780.164	0.33
780.339	0.1
780.513	0.06
780.688	-0.12
780.863	0.08
781.038	0.18
781.212	-0.08
781.387	0.11
781.562	0.15
781.737	0.2
781.911	0.03
782.086	-0
782.261	0.18
782.435	0.16
782.61	0
782.784	0.04
782.959	0.06
783.134	-0.07
783.308	-0.3
783.483	0.08
783.657	0.24
783.832	0.17
784.006	-0.13
784.181	-0.14
784.355	0.16
784.53	0.02
784.704	-0.24
784.878	0.38
785.053	0.11
785.227	0.11
785.402	0.31
785.576	-0.25
785.75	0.05
785.925	-0.05
786.099	0.27
786.273	0.19
786.448	0.16
786.622	0.32
786.796	0.07
786.97	0.07
787.145	0.4
787.319	-0.12
787.493	-0.09
787.667	-0.15
787.841	-0.17
788.015	0.27
788.19	-0.22
788.364	0.05
788.538	0.12
788.712	0.11
788.886	-0.05
789.06	0.2
789.234	0.3
789.408	-0.19
789.582	0.09
789.756	0.07
789.93	-0.11
790.104	-0.09
790.278	0.01
790.452	-0.13
790.626	0.21
790.8	-0.01
790.973	0.19
791.147	0.34
791.321	0.2
791.495	0.13
791.669	0.11
791.843	-0.03
792.016	0.04
792.19	0.44
792.364	-0.19
792.538	0.43
792.711	0.19
792.885	-0.06
793.059	-0.18
793.233	-0.41
793.406	0.24
793.58	0.02
793.754	0.15
793.927	-0.15
794.101	0.24
794.274	0.15
794.448	0.2
794.622	-0.26
794.795	0.24
794.969	-0.28
795.142	0.28
795.316	-0.02
795.489	-0.05
795.663	0.38
795.836	-0.01
796.009	-0.28
796.183	0.43
796.356	0.03
796.53	0.13
796.703	0.03
796.876	0.66
797.05	-0.04
797.223	0.02
797.396	0.19
797.57	0.17
797.743	0.34
797.916	0.16
798.09	-0.05
798.263	0.3
798.436	0.18
798.609	-0.05
798.782	-0.06
798.956	0.22
799.129	-0.19
799.302	0.1
799.475	-0.05
799.648	-0.07
799.821	0.13
799.994	0.23
800.167	-0.35
800.34	0.13
800.514	0.07
800.687	0.03
800.86	-0.04
801.033	0.09
801.206	0.29
801.379	-0.4
801.551	0.25
801.724	0.23
801.897	0.17
802.07	-0.09
802.243	-0.21
802.416	0.15
802.589	-0.22
802.762	-0.06
802.935	-0.19
803.107	0.38
803.28	0.28
803.453	0.23
803.626	-0.11
803.798	-0.21
803.971	-0.14
804.144	-0.08
804.317	-0.04
804.489	0.26
804.662	-0.17
804.835	0.34
805.007	-0.18
805.18	0.17
805.353	0.15
805.525	-0.38
805.698	-0.06
805.87	0.4
806.043	0.41
806.215	-0.11
806.388	-0.24
806.56	0.25
806.733	0.34
806.905	0.1
807.078	-0.09
807.25	-0.14
807.423	0.19
807.595	0.14
807.768	0.3
807.94	0.25
808.112	-0.04
808.285	0.02
808.457	0.06
808.629	-0.01
808.802	0.25
808.974	0.22
809.146	0.04
809.318	-0.23
809.491	0.11
809.663	0.05
809.835	-0.37
810.007	0.03
810.18	-0.01
810.352	-0.44
810.524	0.13
810.696	-0
810.868	0.38
811.04	-0.16
811.212	-0.16
811.384	0.31
811.556	0.19
811.728	-0.16
811.901	0.82
812.073	0.01
812.245	0.31
812.417	0.15
812.589	-0.28
812.76	0.12
812.932	0.3
813.104	0.42
813.276	0.11
813.448	0.52
813.62	0.12
813.792	0.28
813.964	0.13
814.136	0.1
814.307	0.02
814.479	-0.21
814.651	-0.07
814.823	0.46
814.995	0.06
815.166	0.28
815.338	-0.27
815.51	-0.66
815.681	0.8
815.853	0.31
816.025	-0.41
816.196	0.81
816.368	0.05
816.54	-0.34
816.711	-0.08
816.883	0.15
817.054	0.97
817.226	-0.51
817.398	-0.01
817.569	-0.08
817.741	-0.14
817.912	0.44
818.084	-0.05
818.255	0.24
818.426	-0.04
818.598	-0.03
818.769	0.25
818.941	-0.16
819.112	0.66
819.283	0.31
819.455	-0.75
819.626	0.41
819.798	0.42
819.969	0.53
820.14	-0.2
820.311	-0.32
820.483	0.19
820.654	0.06
820.825	0.16
820.996	-0.1
821.168	-0.27
821.339	0.06
821.51	-0.36
821.681	-0.33
821.852	-0.16
822.023	-0.32
822.195	-0.37
822.366	0.54
822.537	0.12
822.708	0.27
822.879	-0.38
823.05	0.57
823.221	0.28
823.392	0.35
823.563	-0.41
823.734	0.1
823.905	-0.27
824.076	-0.47
824.247	-0.3
824.418	-0.07
824.589	0.93
824.759	0.14
824.93	0.32
825.101	-0.19
825.272	0.16
825.443	0.47
825.614	0.12
825.784	-0.41
825.955	0.75
826.126	0.72
826.297	0.1
826.467	0.83
826.638	0.95
826.809	-0.28
826.98	0.22
827.15	0.01
827.321	-0.14
827.492	0.52
827.662	0.39
827.833	0.8
828.003	0.2
828.174	-0.39
828.345	-0.85
828.515	0.71
828.686	-0
828.856	-0.76
829.027	-0.19
829.197	0.42
829.368	0.26
829.538	-0.07
829.709	-0.57
829.879	0.56
830.049	0.11
830.22	-0
830.39	0.3
830.56	0.5
830.731	-0.16
830.901	-0.58
831.072	0.26
831.242	0.27
831.412	0.29
831.582	0.07
831.753	-0.46
831.923	0.37
832.093	-0.28
832.263	0.03
832.434	-0.91
832.604	0.09
832.774	0.66
832.944	-0.12
833.114	0.32
833.284	0.46
833.454	-0.7
833.624	-0.37
833.795	-0.39
833.965	0.99
834.135	0.81
834.305	-0.17
834.475	-0.62
834.645	0.38
834.815	-0.04
834.985	-0.89
835.155	-0.41
835.325	0.12
835.494	0.02
835.664	-0.35
835.834	-0.65
836.004	-0.11
836.174	-0.03
836.344	0.23
836.514	-0.7
836.684	-0.16
836.853	0.34
837.023	0.23
837.193	0.32
837.363	0.51
837.532	0.44
837.702	0.45
837.872	-0.5
838.041	0.3
838.211	1.44
838.381	-0.87
838.55	0.31
838.72	1.45
838.89	0.94
839.059	-0.3
839.229	0.02
839.398	1.39
839.568	0.13
839.738	0.15
839.907	0.87
840.077	0.53
840.246	0.01
840.416	-0.78
840.585	-0.84
840.755	1.18
840.924	0.86
841.093	-0.19
841.263	-0.28
841.432	0.5
841.602	-0.26
841.771	-0.56
841.94	0.11
842.11	2.18
842.279	1.53
842.448	-0.47
842.617	0.37
842.787	1.13
842.956	-0.73
843.125	0.32
843.294	1.17
843.464	0.66
843.633	0.2
843.802	-0.92
843.971	-0.16
844.14	0.46
844.309	0.75
844.479	-0.58
844.648	-1.12
844.817	-0.9
844.986	0.38
845.155	-1.53
845.324	-0.18
845.493	0.83
845.662	-0.4
845.831	0.28
846	-0.03
846.169	-0.43
846.338	0.59
846.507	-0.12
846.676	0.22
846.844	-0.78
847.013	0.9
847.182	-0.94
847.351	0.01
847.52	-0.33
847.689	0.15
847.858	0.58
848.026	-0.25
848.195	0.18
848.364	-1
848.533	-0.68
848.701	-0.29
848.87	-0.22
849.039	0.45
849.207	0.9
849.376	0.52
849.545	0.77
849.713	0.38
849.882	0.28
850.051	0.26
850.219	0.03
850.388	1.48
850.556	0.16
850.725	0.22
850.893	0.65
851.062	-0.98
851.23	-0.11
851.399	-1.3
851.567	-0.39
851.736	-0.39
851.904	-0.54
852.073	0.17
852.241	1.17
852.41	0.22
852.578	0.31
852.746	-0.52
852.915	0.02
853.083	0.41
853.251	-1.02
853.42	-0.71
853.588	0.1
853.756	1.57
853.924	0.32
854.093	-0
854.261	-0.12
854.429	-1.32
854.597	1.19
854.765	-0.64
854.934	0.96
855.102	0.84
855.27	1.07
855.438	0.79
855.606	1.04
855.774	1.96
855.942	-0.56
856.11	-1.14
856.278	0.34
856.446	0.98
856.614	0.81
856.782	-0.53
856.95	1.96
857.118	-0.26
857.286	0.04
857.454	-0.11
857.622	1.49
857.79	0.11
857.958	-0.51
858.126	0.12
858.294	-1.43
858.462	-0.12
858.629	-1.09
858.797	-1.04
858.965	0.53
859.133	-0.49
859.301	0.19
859.468	0.13
859.636	-0.28
859.804	1.84
859.971	0.28
860.139	-1.46
860.307	1.83
860.474	0.62
860.642	-0.59
860.81	-0.63
860.977	-0.29
861.145	0.61
861.313	0.09
861.48	-0.83
861.648	0.16
861.815	-0.22
861.983	-1.16
862.15	0.14
862.318	0.09
862.485	1.84
862.653	0.56
862.82	0.29
862.988	1.79
863.155	0.83
863.322	-0.63
863.49	-1.44
863.657	-1.53
863.824	0.51
863.992	0.85
864.159	-0.64
864.326	2.1
864.494	-0.73
864.661	2.35
864.828	-1.43
864.996	1.15
865.163	2.61
865.33	-0.34
865.497	-2.52
865.664	-0.1
865.832	-2.58
865.999	0.17
866.166	-0.16
866.333	0.24
866.5	-2.02
866.667	0.16
866.834	-1.1
867.001	2.85
867.168	-0.7
867.335	0.32
867.502	-1.3
867.669	0.68
867.836	2.07
868.003	-0.19
868.17	1.23
868.337	-0.84
868.504	0.95
868.671	-0.41
868.838	-0.05
869.005	0.42
869.172	1.09
869.339	0.12
869.505	-0.19
869.672	0.82
869.839	2.3
870.006	0.28
870.173	-1.47
870.339	0.6
870.506	2.16
870.673	-2.28
870.84	0.54
871.006	0.17
871.173	-0.08
871.34	-0.4
871.506	-1.41
871.673	1.05
871.839	-1.19
872.006	-0.53
872.173	0.33
872.339	-1.02
872.506	1.7
872.672	1.66
872.839	-1.82
873.005	-0.02
873.172	2.95
873.338	2
873.505	1.07
873.671	0.77
873.838	-0.12
874.004	-0.14
874.171	-1.66
874.337	0.12
874.503	1
874.67	-0.55
874.836	-0.23
875.002	1.36
875.169	1.72
875.335	1.22
875.501	-0.84
875.668	1.02
875.834	0.69
876	0.48
876.166	0.77
876.332	-0.72
876.499	2.87
876.665	-1.02
876.831	0.2
876.997	0.38
877.163	2.11
877.329	0.53
877.495	-0.13
877.662	0.88
877.828	0.86
877.994	0.04
878.16	-2.18
878.326	-1.02
878.492	-1.78
878.658	0.13
878.824	2.28
878.99	2.29
879.156	-1.21
879.322	0.47
879.487	-0.39
879.653	1.21
879.819	0.02
879.985	0.13
880.151	0.78
880.317	-0.1
880.483	1.62
880.648	2.2
880.814	-1.92
880.98	1.76
881.146	-1.92
881.312	-1.71
881.477	0.34
881.643	0.13
881.809	1.73
881.974	1.58
882.14	-2.14
882.306	-0.4
882.471	4.52
882.637	1.11
882.803	0.71
882.968	2.84
883.134	3.21
883.299	-0.53
883.465	0.15
883.63	1.15
883.796	1.17
883.961	1.92
884.127	-0.34
884.292	-2.79
884.458	-2.55
884.623	-2.55
