Data from Apollo_Calib_20240827__AbsoluteIrradiance__259__03-28-02-076.txt Node

Date: Wed Aug 28 03:28:02 BST 2024
User: biology
Spectrometer: FLMT08252
Trigger mode: 0
Integration Time (sec): 5.000000E-1
Scans to average: 5
Electric dark correction enabled: true
Nonlinearity correction enabled: false
Boxcar width: 0
XAxis mode: Wavelengths
Number of Pixels in Spectrum: 3648
>>>>>Begin Spectral Data<<<<<
179.588	-0
179.809	-0
180.03	-0
180.251	-0
180.473	-0
180.694	0
180.915	0
181.136	-0
181.357	-0
181.578	-0
181.799	0
182.02	-0
182.241	0
182.462	-0
182.683	0
182.904	-0
183.125	-0
183.346	0
183.567	0
183.788	-0
184.009	-0
184.23	0
184.451	0
184.672	-0
184.892	-0
185.113	0
185.334	0
185.555	-0
185.776	-0
185.996	0
186.217	0
186.438	0
186.659	-0
186.879	0
187.1	-0
187.321	-0
187.541	-0
187.762	-0
187.983	0
188.203	-0
188.424	0
188.644	0
188.865	0
189.086	-0
189.306	-0
189.527	-0
189.747	0
189.968	-0
190.188	0
190.409	0
190.629	0
190.849	-0
191.07	-0
191.29	0
191.511	0
191.731	0
191.951	-0
192.172	0
192.392	0
192.612	-0
192.833	-0
193.053	0
193.273	0
193.493	-0
193.714	-0
193.934	0
194.154	0
194.374	0
194.594	-0
194.815	0
195.035	0
195.255	0
195.475	-0
195.695	0
195.915	0
196.135	-0
196.355	0
196.575	0
196.795	0
197.015	-0
197.235	-0
197.455	-0
197.675	0
197.895	-0
198.115	-0
198.335	0
198.555	-0
198.775	0
198.995	0
199.214	0
199.434	0
199.654	0
199.874	-0
200.094	1.12
200.313	0.11
200.533	-0.22
200.753	-0.95
200.973	0.58
201.192	0.93
201.412	-0.69
201.632	-0.41
201.851	0.66
202.071	-0.02
202.291	-0.52
202.51	-0.38
202.73	0.33
202.95	-0.15
203.169	-0.79
203.389	-0.12
203.608	0.29
203.828	-0.3
204.047	0.06
204.267	0.04
204.486	0.45
204.706	0.26
204.925	0.07
205.145	-0.33
205.364	0.68
205.583	0.97
205.803	-0.17
206.022	-0.38
206.242	0.07
206.461	0.08
206.68	-0.23
206.9	0.18
207.119	0.7
207.338	0.8
207.557	-0.17
207.777	-0.09
207.996	-0.1
208.215	0.83
208.434	-0.28
208.654	-0.43
208.873	0.04
209.092	0.58
209.311	-0.11
209.53	0.11
209.749	0.03
209.968	-0.3
210.187	0.07
210.407	-0.21
210.626	-0.1
210.845	0.29
211.064	0.07
211.283	-0.33
211.502	0.33
211.721	0.05
211.94	0.04
212.159	0.23
212.377	0.17
212.596	0.22
212.815	-0.05
213.034	-0.13
213.253	0.21
213.472	0.23
213.691	0.06
213.91	-0.14
214.128	-0.23
214.347	0.44
214.566	-0.31
214.785	-0.27
215.003	0.26
215.222	0.22
215.441	-0.04
215.66	-0.28
215.878	0.22
216.097	0.29
216.316	-0.19
216.534	-0.03
216.753	0.24
216.972	-0
217.19	0.13
217.409	-0.17
217.627	-0.18
217.846	-0.09
218.064	0.05
218.283	-0.08
218.501	0.64
218.72	0.34
218.938	-0.13
219.157	-0.18
219.375	0.28
219.594	0.14
219.812	-0.06
220.031	-0.15
220.249	0.37
220.467	0.31
220.686	-0.06
220.904	-0.1
221.122	-0.11
221.341	0.24
221.559	0.15
221.777	-0.11
221.995	0.08
222.214	0.11
222.432	-0.07
222.65	0.19
222.868	0.01
223.086	0.11
223.305	0.16
223.523	-0.13
223.741	0.38
223.959	0.09
224.177	-0.16
224.395	-0.11
224.613	0.13
224.831	0.17
225.049	-0.08
225.267	0.01
225.485	0.12
225.703	0.09
225.921	-0.02
226.139	-0.07
226.357	0.2
226.575	0.21
226.793	0.07
227.011	0.66
227.229	0.1
227.447	0.07
227.665	-0.04
227.883	-0.16
228.1	-0.01
228.318	0.1
228.536	-0.29
228.754	-0.04
228.972	0.25
229.189	0.11
229.407	-0.11
229.625	-0.03
229.843	0.3
230.06	0.02
230.278	-0.05
230.496	0.04
230.713	0.08
230.931	0.22
231.149	0.03
231.366	-0.2
231.584	0.11
231.801	0.34
232.019	-0.02
232.236	-0.16
232.454	-0.2
232.671	0.19
232.889	-0.05
233.106	-0.06
233.324	0.08
233.541	0.04
233.759	0.01
233.976	-0.04
234.194	0.04
234.411	0.02
234.628	-0.15
234.846	0.08
235.063	-0
235.28	0.05
235.498	0.08
235.715	-0.17
235.932	0.11
236.149	-0.04
236.367	-0.02
236.584	0.13
236.801	-0.03
237.018	0.05
237.236	0
237.453	-0.1
237.67	0.19
237.887	0.02
238.104	-0.02
238.321	-0.12
238.538	-0.02
238.755	0.14
238.973	-0.22
239.19	0.05
239.407	0.11
239.624	0.07
239.841	-0.1
240.058	-0.09
240.275	0.21
240.492	0.04
240.709	0.01
240.925	-0.1
241.142	0.03
241.359	-0.02
241.576	-0.04
241.793	-0.05
242.01	-0
242.227	0.11
242.444	0.08
242.66	0.1
242.877	0.1
243.094	0.04
243.311	0.02
243.527	0.03
243.744	0.04
243.961	0.12
244.178	0
244.394	0.04
244.611	0.15
244.828	0.21
245.044	-0.09
245.261	-0.04
245.477	0.04
245.694	-0
245.911	0
246.127	0.11
246.344	0.22
246.56	0.13
246.777	-0.01
246.993	-0.04
247.21	0.11
247.426	0.11
247.643	-0.14
247.859	-0.09
248.076	0
248.292	0.17
248.508	-0.06
248.725	0.04
248.941	0.08
249.157	0.14
249.374	-0.09
249.59	-0.04
249.806	0.07
250.023	0.05
250.239	-0.04
250.455	-0.09
250.671	0
250.888	0.04
251.104	0.07
251.32	-0.01
251.536	0.04
251.752	0.05
251.969	0.02
252.185	0.1
252.401	0.2
252.617	0.01
252.833	-0.01
253.049	0.04
253.265	0.04
253.481	0.09
253.697	-0.02
253.913	0.02
254.129	-0
254.345	0.04
254.561	-0.05
254.777	0.04
254.993	0.06
255.209	0.06
255.425	-0
255.641	-0.03
255.857	0.12
256.073	0.03
256.288	-0.09
256.504	-0.05
256.72	0.11
256.936	0.1
257.152	-0.02
257.367	-0.11
257.583	0.05
257.799	0.13
258.015	0.03
258.23	-0.02
258.446	0.09
258.662	-0.04
258.877	-0.02
259.093	-0.08
259.309	0.06
259.524	0.05
259.74	-0.02
259.955	-0.03
260.171	0.03
260.387	0
260.602	0.07
260.818	0.05
261.033	-0.04
261.249	0.02
261.464	-0.02
261.68	-0.04
261.895	0.08
262.11	0.08
262.326	-0.02
262.541	-0.06
262.757	0.09
262.972	0.09
263.187	0.01
263.403	0.05
263.618	0.08
263.833	0.03
264.049	-0.03
264.264	0.06
264.479	0.07
264.694	0.17
264.91	-0.01
265.125	-0.01
265.34	0.12
265.555	0.18
265.77	0.06
265.986	-0.04
266.201	0.08
266.416	0.15
266.631	0.02
266.846	0.06
267.061	0.04
267.276	0.08
267.491	-0.08
267.706	0.05
267.921	0.03
268.136	0.01
268.351	-0.08
268.566	-0.06
268.781	0.1
268.996	0
269.211	0.05
269.426	-0.06
269.641	0
269.856	0.13
270.071	-0.06
270.285	-0.02
270.5	0.11
270.715	0.06
270.93	0.05
271.145	0.1
271.359	0.08
271.574	-0.03
271.789	0.02
272.004	0.03
272.218	-0.03
272.433	0.1
272.648	-0.02
272.862	0.04
273.077	-0
273.292	0.03
273.506	-0.07
273.721	-0.07
273.936	0.06
274.15	0.1
274.365	-0.04
274.579	0.08
274.794	0.09
275.008	0.11
275.223	-0.03
275.437	0.02
275.652	0.13
275.866	0.07
276.081	0.03
276.295	0.11
276.509	0.03
276.724	0.06
276.938	0.03
277.153	0.03
277.367	0.06
277.581	-0.04
277.796	-0.06
278.01	-0.07
278.224	0.1
278.438	0.17
278.653	-0.06
278.867	0
279.081	-0.17
279.295	-0.02
279.51	0.02
279.724	-0.09
279.938	0.09
280.152	0.04
280.366	-0.07
280.58	0.01
280.794	0.12
281.008	0.12
281.222	0.06
281.437	0.18
281.651	0.06
281.865	0.08
282.079	-0.03
282.293	-0.03
282.507	0.01
282.721	0.04
282.935	0.01
283.148	-0.07
283.362	-0.02
283.576	-0.07
283.79	-0.02
284.004	0.02
284.218	0.1
284.432	-0.05
284.646	-0.03
284.859	-0.02
285.073	0.03
285.287	0.01
285.501	0.04
285.714	-0.02
285.928	0.04
286.142	0.05
286.356	0.02
286.569	-0.02
286.783	0.15
286.997	0.12
287.21	0.02
287.424	0.03
287.637	-0.01
287.851	0.01
288.065	0.07
288.278	-0
288.492	0.02
288.705	0.05
288.919	0.02
289.132	-0.02
289.346	0.14
289.559	-0.06
289.773	-0.04
289.986	0.01
290.2	-0
290.413	0.06
290.626	-0.02
290.84	-0.02
291.053	0.01
291.267	0.14
291.48	0.04
291.693	0.01
291.906	-0.01
292.12	0.01
292.333	0
292.546	-0.03
292.76	0.06
292.973	0.04
293.186	0.03
293.399	-0.04
293.612	0.09
293.826	0.03
294.039	0.02
294.252	0.05
294.465	0.07
294.678	0.02
294.891	0
295.104	-0.06
295.317	-0.01
295.53	0.04
295.743	-0.03
295.956	0
296.169	0.07
296.382	0.06
296.595	0.04
296.808	-0.02
297.021	0.07
297.234	0.09
297.447	0.02
297.66	0
297.873	0.12
298.086	0.04
298.299	-0
298.511	-0.04
298.724	-0.02
298.937	0.01
299.15	-0
299.363	0.07
299.575	0.07
299.788	0.02
300.001	0
300.213	-0.07
300.426	-0.01
300.639	-0
300.852	0.01
301.064	0.05
301.277	0.09
301.489	0.1
301.702	0.07
301.915	-0
302.127	0.04
302.34	0.03
302.552	0.04
302.765	-0.02
302.977	0.05
303.19	0.02
303.402	0
303.615	0.05
303.827	0.01
304.04	0.01
304.252	0.05
304.464	0.01
304.677	0.16
304.889	0.07
305.102	0
305.314	-0.03
305.526	0.05
305.739	0.1
305.951	-0.01
306.163	-0.02
306.375	0.1
306.588	0.01
306.8	0
307.012	-0.09
307.224	0.05
307.436	0.1
307.649	-0.04
307.861	0.02
308.073	0.08
308.285	-0.01
308.497	-0.03
308.709	0.01
308.921	0.02
309.133	0.06
309.346	-0.03
309.558	0.01
309.77	0.09
309.982	0.1
310.194	0.09
310.406	0.01
310.617	0.09
310.829	0.04
311.041	0.04
311.253	-0
311.465	0.02
311.677	0.03
311.889	0.02
312.101	-0.04
312.313	0.09
312.524	0.06
312.736	-0.04
312.948	-0.01
313.16	0.14
313.372	0.02
313.583	0.04
313.795	0.03
314.007	-0
314.218	0.06
314.43	0.04
314.642	-0.02
314.853	0.01
315.065	0.05
315.277	0.01
315.488	0
315.7	0.02
315.912	0.04
316.123	0
316.335	-0.02
316.546	0.17
316.758	0.04
316.969	0.05
317.181	-0.01
317.392	0
317.604	0.06
317.815	-0.02
318.026	-0
318.238	0.01
318.449	0.01
318.661	-0.03
318.872	-0.01
319.083	0.01
319.295	0.05
319.506	-0.03
319.717	0.03
319.929	0.05
320.14	0.05
320.351	-0
320.562	0
320.774	0.02
320.985	0.05
321.196	-0.05
321.407	-0.03
321.618	0.08
321.829	0.02
322.041	0.01
322.252	-0.01
322.463	0.02
322.674	0.02
322.885	-0
323.096	0.01
323.307	0.03
323.518	-0.01
323.729	-0.01
323.94	0.01
324.151	0.03
324.362	0.03
324.573	0.06
324.784	0
324.995	0.07
325.206	-0.01
325.417	0.01
325.628	-0.01
325.838	0.03
326.049	0.03
326.26	0.06
326.471	-0.01
326.682	0.03
326.892	0.03
327.103	-0.03
327.314	-0.06
327.525	0.07
327.735	0.03
327.946	0.01
328.157	-0.01
328.368	0.06
328.578	-0.04
328.789	0.05
328.999	0.02
329.21	0.07
329.421	0.04
329.631	0.03
329.842	0.01
330.052	0.03
330.263	0.08
330.473	0.04
330.684	0.02
330.894	0.03
331.105	0.06
331.315	-0.01
331.526	-0.03
331.736	0.1
331.947	0.05
332.157	0.07
332.367	-0.02
332.578	0.06
332.788	0.07
332.999	0.07
333.209	0.06
333.419	0.01
333.629	0.04
333.84	0.09
334.05	0.02
334.26	0.09
334.47	0.04
334.681	0.05
334.891	0.01
335.101	0.08
335.311	0.13
335.521	0.03
335.732	-0.01
335.942	0.14
336.152	0.05
336.362	-0.01
336.572	0.06
336.782	0.08
336.992	0.02
337.202	-0.01
337.412	-0.04
337.622	0.03
337.832	0.04
338.042	0.02
338.252	-0.04
338.462	0.02
338.672	0
338.882	-0.01
339.092	0.06
339.302	0.1
339.511	0.06
339.721	-0.02
339.931	-0.05
340.141	0.08
340.351	0.1
340.561	0.06
340.77	0.03
340.98	0.05
341.19	0.06
341.4	-0.02
341.609	-0.01
341.819	-0.01
342.029	-0.01
342.238	0.06
342.448	-0.04
342.658	0.06
342.867	0
343.077	0.04
343.286	0.06
343.496	0.06
343.706	0.14
343.915	0
344.125	0.02
344.334	0.03
344.544	-0.05
344.753	0.07
344.963	0.03
345.172	-0.02
345.381	-0
345.591	0.01
345.8	0.01
346.01	0.1
346.219	0.07
346.428	-0.13
346.638	0.04
346.847	0.02
347.056	0.13
347.266	0.01
347.475	0.05
347.684	0.11
347.893	0.03
348.103	0.06
348.312	0.02
348.521	0
348.73	0.01
348.94	0.03
349.149	0.01
349.358	0.08
349.567	0.05
349.776	-0.03
349.985	0
350.194	0.02
350.403	0.09
350.612	-0.06
350.821	0.01
351.03	0.03
351.239	0.01
351.448	0.03
351.657	-0.02
351.866	0.1
352.075	0.03
352.284	-0.02
352.493	-0.03
352.702	0.11
352.911	0.08
353.12	0.06
353.329	0.02
353.538	0.04
353.746	0.04
353.955	-0.02
354.164	0.04
354.373	0.04
354.582	0.07
354.79	0.05
354.999	0.07
355.208	0.02
355.416	0.09
355.625	-0.01
355.834	0.01
356.042	0.05
356.251	-0
356.46	-0.01
356.668	0.05
356.877	0.1
357.085	0.06
357.294	-0.06
357.503	0.05
357.711	0.01
357.92	0.13
358.128	0.03
358.337	0.02
358.545	0.06
358.754	0
358.962	0.05
359.17	0.01
359.379	0.01
359.587	0.05
359.796	0
360.004	0.11
360.212	0.06
360.421	0.11
360.629	0.04
360.837	0.06
361.046	0.05
361.254	0.12
361.462	0.04
361.67	0.05
361.879	0.04
362.087	0.08
362.295	0.03
362.503	0.03
362.711	-0.05
362.92	0
363.128	0.03
363.336	-0.02
363.544	-0.02
363.752	0.02
363.96	0.01
364.168	-0
364.376	0.01
364.584	0.06
364.792	0.05
365	0.07
365.208	0.03
365.416	0.02
365.624	0.07
365.832	0.01
366.04	0.06
366.248	0.04
366.456	0.06
366.664	0.05
366.872	0.05
367.079	0.02
367.287	0.05
367.495	0.04
367.703	0.03
367.911	0.01
368.118	0.07
368.326	0.02
368.534	0.01
368.742	0.1
368.949	-0.01
369.157	0.01
369.365	0.07
369.572	0.06
369.78	-0.01
369.988	0.07
370.195	0.06
370.403	0.09
370.61	0.04
370.818	0.05
371.026	0.11
371.233	0.03
371.441	0.04
371.648	-0.02
371.856	0.04
372.063	0.01
372.271	0.01
372.478	0.06
372.685	-0.02
372.893	0.12
373.1	-0
373.308	0.03
373.515	0.12
373.722	0.03
373.93	0.04
374.137	0.08
374.344	0.13
374.552	0.08
374.759	0.09
374.966	0.04
375.173	0
375.381	0.12
375.588	0.04
375.795	-0.01
376.002	0.04
376.209	0.02
376.417	0.01
376.624	0.05
376.831	0.04
377.038	0.01
377.245	-0.03
377.452	0.01
377.659	0.03
377.866	0.04
378.073	0.04
378.28	0.03
378.487	0.08
378.694	0.07
378.901	0.04
379.108	0.06
379.315	0.08
379.522	0.1
379.729	0.06
379.936	-0
380.143	0.05
380.35	0.07
380.557	0.02
380.763	0.07
380.97	0.06
381.177	0.06
381.384	0.04
381.591	-0.01
381.797	0.05
382.004	0.08
382.211	0.06
382.418	0.06
382.624	0.06
382.831	0.09
383.038	0.06
383.244	0.09
383.451	0.06
383.658	0.04
383.864	0.05
384.071	0
384.277	0.1
384.484	0.06
384.69	0.08
384.897	0.06
385.103	0.07
385.31	0.01
385.516	0.07
385.723	-0.01
385.929	0.05
386.136	0.02
386.342	0.08
386.549	0
386.755	0.07
386.961	0.08
387.168	0.01
387.374	0.07
387.58	0.1
387.787	0.1
387.993	0.07
388.199	0.05
388.406	0.02
388.612	0.11
388.818	0.05
389.024	0.05
389.231	0.09
389.437	0.13
389.643	0.11
389.849	0.08
390.055	0.05
390.261	0.1
390.467	0.11
390.674	0.04
390.88	0.09
391.086	0.11
391.292	0.03
391.498	0.09
391.704	0.09
391.91	0.04
392.116	0.07
392.322	-0.02
392.528	0.11
392.734	0.07
392.94	0.12
393.146	0.1
393.352	0.1
393.557	0.09
393.763	0.06
393.969	0.09
394.175	0.08
394.381	0.11
394.587	0.08
394.792	0.1
394.998	0.16
395.204	0.14
395.41	0.12
395.615	0.12
395.821	0.15
396.027	0.16
396.233	0.14
396.438	0.22
396.644	0.23
396.85	0.2
397.055	0.15
397.261	0.2
397.466	0.3
397.672	0.2
397.878	0.2
398.083	0.21
398.289	0.2
398.494	0.3
398.7	0.23
398.905	0.16
399.111	0.35
399.316	0.16
399.522	0.26
399.727	0.28
399.932	0.28
400.138	0.29
400.343	0.32
400.549	0.36
400.754	0.34
400.959	0.38
401.165	0.36
401.37	0.35
401.575	0.37
401.78	0.37
401.986	0.42
402.191	0.41
402.396	0.41
402.601	0.53
402.807	0.53
403.012	0.53
403.217	0.57
403.422	0.61
403.627	0.62
403.832	0.63
404.037	0.72
404.243	0.72
404.448	0.71
404.653	0.69
404.858	0.76
405.063	0.76
405.268	0.87
405.473	0.84
405.678	0.85
405.883	1.12
406.088	1.07
406.293	0.99
406.498	1.11
406.703	1.16
406.907	1.18
407.112	1.22
407.317	1.38
407.522	1.47
407.727	1.46
407.932	1.51
408.136	1.71
408.341	1.63
408.546	1.77
408.751	1.87
408.956	1.94
409.16	2.06
409.365	2.04
409.57	2.11
409.774	2.23
409.979	2.37
410.184	2.37
410.388	2.45
410.593	2.67
410.798	2.73
411.002	2.87
411.207	2.99
411.411	3.13
411.616	3.18
411.82	3.36
412.025	3.49
412.229	3.58
412.434	3.82
412.638	3.89
412.843	3.97
413.047	4.11
413.252	4.23
413.456	4.5
413.66	4.64
413.865	4.71
414.069	4.87
414.273	5.08
414.478	5.16
414.682	5.34
414.886	5.59
415.091	5.67
415.295	5.83
415.499	6.22
415.703	6.27
415.908	6.57
416.112	6.68
416.316	7.04
416.52	7.2
416.724	7.34
416.929	7.6
417.133	8.1
417.337	7.93
417.541	8.44
417.745	8.52
417.949	8.71
418.153	9.04
418.357	9.14
418.561	9.67
418.765	9.64
418.969	9.97
419.173	10.47
419.377	10.46
419.581	10.94
419.785	11.22
419.989	11.27
420.193	11.75
420.397	11.82
420.601	12.15
420.804	12.45
421.008	12.3
421.212	12.61
421.416	12.48
421.62	12.45
421.823	12.5
422.027	12.56
422.231	12.39
422.435	12.27
422.638	12.49
422.842	12.49
423.046	12.57
423.249	12.76
423.453	12.55
423.657	12.65
423.86	12.74
424.064	12.77
424.268	12.76
424.471	12.48
424.675	12.76
424.878	12.51
425.082	12.52
425.285	12.86
425.489	12.25
425.692	12.11
425.896	11.81
426.099	11.9
426.303	11.82
426.506	11.69
426.71	11.75
426.913	11.66
427.116	11.41
427.32	11.23
427.523	10.88
427.726	10.97
427.93	10.61
428.133	10.68
428.336	10.55
428.54	10.44
428.743	10.13
428.946	10.07
429.149	9.79
429.353	9.5
429.556	8.93
429.759	8.65
429.962	8.5
430.165	8.36
430.368	7.55
430.571	7.36
430.775	7.19
430.978	6.83
431.181	6.6
431.384	6.45
431.587	6.16
431.79	6.32
431.993	5.97
432.196	5.99
432.399	5.99
432.602	5.88
432.805	5.65
433.008	5.76
433.211	5.5
433.414	5.52
433.616	5.23
433.819	5.09
434.022	4.91
434.225	4.97
434.428	4.76
434.631	4.89
434.833	4.48
435.036	4.45
435.239	4.41
435.442	4.24
435.645	4.19
435.847	4.13
436.05	4.08
436.253	3.97
436.455	3.86
436.658	3.74
436.861	3.77
437.063	3.54
437.266	3.44
437.468	3.42
437.671	3.5
437.874	3.31
438.076	3.12
438.279	3.13
438.481	3.03
438.684	3.1
438.886	2.92
439.089	2.81
439.291	2.8
439.494	2.82
439.696	2.63
439.899	2.71
440.101	2.71
440.303	2.55
440.506	2.62
440.708	2.52
440.91	2.42
441.113	2.39
441.315	2.39
441.517	2.18
441.72	2.21
441.922	2.02
442.124	1.98
442.326	1.95
442.529	2
442.731	1.8
442.933	1.91
443.135	1.72
443.337	1.63
443.539	1.67
443.742	1.58
443.944	1.56
444.146	1.49
444.348	1.46
444.55	1.37
444.752	1.36
444.954	1.34
445.156	1.28
445.358	1.26
445.56	1.3
445.762	1.17
445.964	1.24
446.166	1.07
446.368	1.04
446.57	1.13
446.772	1.06
446.974	0.96
447.175	1.03
447.377	0.89
447.579	0.95
447.781	0.83
447.983	0.93
448.184	0.82
448.386	0.92
448.588	0.77
448.79	0.77
448.991	0.85
449.193	0.78
449.395	0.78
449.597	0.8
449.798	0.74
450	0.74
450.202	0.72
450.403	0.68
450.605	0.68
450.806	0.65
451.008	0.55
451.21	0.63
451.411	0.65
451.613	0.57
451.814	0.59
452.016	0.64
452.217	0.55
452.419	0.6
452.62	0.55
452.821	0.52
453.023	0.61
453.224	0.57
453.426	0.49
453.627	0.44
453.828	0.5
454.03	0.46
454.231	0.56
454.432	0.44
454.634	0.52
454.835	0.4
455.036	0.35
455.238	0.46
455.439	0.48
455.64	0.33
455.841	0.34
456.042	0.54
456.244	0.45
456.445	0.38
456.646	0.32
456.847	0.36
457.048	0.37
457.249	0.39
457.45	0.6
457.651	0.29
457.852	0.38
458.054	0.27
458.255	0.28
458.456	0.37
458.657	0.28
458.858	0.22
459.058	0.27
459.259	0.35
459.46	0.3
459.661	0.26
459.862	0.39
460.063	0.26
460.264	0.34
460.465	0.22
460.666	0.36
460.866	0.22
461.067	0.26
461.268	0.18
461.469	0.2
461.67	0.22
461.87	0.21
462.071	0.2
462.272	0.15
462.473	0.23
462.673	0.24
462.874	0.16
463.075	0.21
463.275	0.16
463.476	0.22
463.676	0.21
463.877	0.21
464.078	0.24
464.278	0.26
464.479	0.13
464.679	0.22
464.88	0.19
465.08	0.23
465.281	0.18
465.481	0.16
465.682	0.18
465.882	0.2
466.083	0.17
466.283	0.16
466.483	0.15
466.684	0.09
466.884	0.12
467.085	0.15
467.285	0.15
467.485	0.11
467.686	0.11
467.886	0.09
468.086	0.13
468.286	0.16
468.487	0.15
468.687	0.08
468.887	0.1
469.087	0.18
469.287	0.15
469.488	0.07
469.688	0.16
469.888	0.16
470.088	0.18
470.288	0.17
470.488	0.18
470.688	0.05
470.888	0.11
471.088	0.07
471.288	0.16
471.488	0.14
471.688	0.13
471.888	0.07
472.088	0.13
472.288	0.12
472.488	0.11
472.688	0.09
472.888	0.09
473.088	0.09
473.288	0.13
473.488	0.09
473.688	0.16
473.887	0.08
474.087	0.1
474.287	0.1
474.487	0.06
474.687	0.12
474.886	0.05
475.086	0.06
475.286	0.11
475.486	0.11
475.685	0.1
475.885	0.05
476.085	0.1
476.284	0.1
476.484	0.03
476.684	0.07
476.883	0.13
477.083	0.11
477.282	0.06
477.482	0.14
477.681	0.13
477.881	0.08
478.08	0.05
478.28	0.02
478.479	0.12
478.679	0.17
478.878	0.02
479.078	0.04
479.277	0.04
479.477	0.07
479.676	0.12
479.875	0.03
480.075	0.01
480.274	0.09
480.473	0.11
480.673	0.01
480.872	0.08
481.071	0.06
481.271	0.07
481.47	0.06
481.669	0.08
481.868	0.05
482.067	0
482.267	0.04
482.466	0.02
482.665	0.01
482.864	0.01
483.063	0.01
483.262	0.06
483.461	0.08
483.661	0.06
483.86	0.04
484.059	0.07
484.258	0.05
484.457	0.05
484.656	0.05
484.855	0.09
485.054	-0.02
485.253	-0
485.452	0.02
485.651	0.05
485.849	0.05
486.048	0.02
486.247	0.02
486.446	0.06
486.645	0.03
486.844	0
487.043	0.04
487.241	0.04
487.44	0.02
487.639	0.04
487.838	0.08
488.037	0.09
488.235	0.08
488.434	0.07
488.633	0.01
488.831	0.06
489.03	0.05
489.229	0.04
489.427	0.06
489.626	0.07
489.825	0.07
490.023	0.03
490.222	0.02
490.42	0.06
490.619	0.08
490.817	0.05
491.016	0.02
491.214	0.08
491.413	0.04
491.611	0.02
491.81	0.04
492.008	0.06
492.207	0.06
492.405	0.03
492.604	0.02
492.802	0.03
493	0.03
493.199	0
493.397	0.03
493.595	0.02
493.794	0.02
493.992	0.1
494.19	0.04
494.388	0.06
494.587	0.03
494.785	0.02
494.983	-0.02
495.181	0.03
495.379	0.05
495.578	0.02
495.776	0.05
495.974	0.05
496.172	0.02
496.37	-0
496.568	0
496.766	-0.01
496.964	0.04
497.162	0.04
497.36	-0.01
497.558	0.05
497.756	0.06
497.954	0.02
498.152	-0.01
498.35	0.03
498.548	0.05
498.746	0.02
498.944	0.02
499.142	0.01
499.34	0.01
499.538	0.02
499.736	-0
499.933	0.07
500.131	0.07
500.329	0.03
500.527	0.06
500.725	0.05
500.922	0.05
501.12	0.04
501.318	0.04
501.516	0
501.713	0.03
501.911	0.03
502.109	0
502.306	0.03
502.504	0.03
502.701	0.02
502.899	0.03
503.097	0.07
503.294	0.03
503.492	0.02
503.689	0.04
503.887	0.04
504.084	0.08
504.282	0.03
504.479	-0
504.677	0.05
504.874	-0.01
505.072	0.03
505.269	0.03
505.466	0.04
505.664	0.05
505.861	-0.01
506.059	0.01
506.256	0.05
506.453	0.03
506.651	0.07
506.848	0.04
507.045	0.04
507.242	0.03
507.44	0.01
507.637	0.01
507.834	0.03
508.031	0.04
508.229	0.01
508.426	0.05
508.623	0.05
508.82	-0
509.017	0.01
509.214	0.02
509.411	0.04
509.608	0.01
509.805	0.02
510.003	0
510.2	0
510.397	0.05
510.594	-0
510.791	0.02
510.988	0.01
511.184	0.05
511.381	0.02
511.578	0.01
511.775	0.06
511.972	-0.01
512.169	0.02
512.366	0.03
512.563	0.05
512.76	0
512.956	0.04
513.153	0.01
513.35	0.04
513.547	-0.01
513.744	-0
513.94	-0.01
514.137	0.03
514.334	0.04
514.53	0.02
514.727	0.04
514.924	0.08
515.12	-0.02
515.317	-0.02
515.514	0
515.71	0.01
515.907	0.01
516.103	0.03
516.3	0.01
516.497	0.02
516.693	0.06
516.89	0.01
517.086	-0
517.283	0.05
517.479	0.01
517.676	0.02
517.872	0.03
518.068	0
518.265	0.01
518.461	-0.01
518.658	0
518.854	0.03
519.05	0.01
519.247	-0.01
519.443	0.03
519.639	0.03
519.836	0.02
520.032	0.01
520.228	0.01
520.424	0.05
520.621	0.05
520.817	0.03
521.013	0.05
521.209	0.04
521.405	0.06
521.601	0.01
521.798	0.03
521.994	0.05
522.19	0.01
522.386	-0.02
522.582	0
522.778	-0.01
522.974	0.01
523.17	0.02
523.366	0.05
523.562	0.05
523.758	0.02
523.954	-0.02
524.15	0.01
524.346	0.05
524.542	-0.01
524.738	0
524.934	0.01
525.129	0.03
525.325	0.03
525.521	0.01
525.717	0.04
525.913	0
526.109	0.02
526.304	-0.02
526.5	0.03
526.696	0.04
526.892	-0
527.087	0.03
527.283	-0.01
527.479	0.04
527.674	-0.01
527.87	0.01
528.066	0.01
528.261	0.02
528.457	0.02
528.653	0
528.848	0.02
529.044	0.02
529.239	0.01
529.435	0.04
529.63	0.02
529.826	0.07
530.021	0.03
530.217	0.04
530.412	-0.01
530.608	0
530.803	0
530.999	0.01
531.194	-0.02
531.389	0.02
531.585	-0.03
531.78	0.01
531.975	0.02
532.171	0.03
532.366	-0.01
532.561	0.03
532.757	-0.01
532.952	0
533.147	0.04
533.342	0.01
533.538	-0
533.733	0.05
533.928	0
534.123	0
534.318	-0.01
534.513	0.01
534.709	0.01
534.904	-0.01
535.099	0.01
535.294	0
535.489	0.03
535.684	-0.01
535.879	-0.03
536.074	0.01
536.269	0.01
536.464	0.03
536.659	-0
536.854	-0.01
537.049	0.03
537.244	0
537.439	-0
537.634	0.04
537.828	0.02
538.023	0.02
538.218	-0.03
538.413	0.02
538.608	-0.02
538.803	0.03
538.997	-0.02
539.192	0.06
539.387	0.04
539.582	0.03
539.776	0.01
539.971	0.02
540.166	0.01
540.36	-0.01
540.555	0
540.75	0.01
540.944	0.02
541.139	-0.03
541.334	0.02
541.528	0.03
541.723	0.04
541.917	0
542.112	-0.01
542.306	0
542.501	0.01
542.695	0.03
542.89	0
543.084	0.02
543.279	0
543.473	0.01
543.668	0.01
543.862	0.03
544.056	0.04
544.251	0.02
544.445	0.02
544.64	0.01
544.834	0
545.028	0
545.222	0.02
545.417	0.05
545.611	0.03
545.805	-0.01
546	0.02
546.194	0.03
546.388	-0.01
546.582	0.03
546.776	0
546.97	0.01
547.165	0.01
547.359	0.02
547.553	-0.01
547.747	0.02
547.941	0.02
548.135	0.02
548.329	0.02
548.523	0.03
548.717	0.01
548.911	-0.01
549.105	0.03
549.299	0.02
549.493	0.03
549.687	0.01
549.881	0.02
550.075	0.01
550.269	-0.03
550.463	0.04
550.657	0.01
550.85	0.01
551.044	-0.02
551.238	0.01
551.432	-0.02
551.626	-0.01
551.82	0.02
552.013	-0
552.207	0.01
552.401	0.05
552.594	0.03
552.788	-0
552.982	0
553.176	0.01
553.369	0.02
553.563	0.01
553.756	-0.01
553.95	0.01
554.144	0.02
554.337	0.05
554.531	0.01
554.724	0.01
554.918	0.01
555.111	0.04
555.305	0.02
555.498	0.08
555.692	0.03
555.885	-0.01
556.079	0.01
556.272	-0.02
556.466	0.04
556.659	0.02
556.852	0.01
557.046	-0
557.239	0.03
557.432	-0
557.626	-0
557.819	0
558.012	0.03
558.206	0.02
558.399	0
558.592	0.02
558.785	0.01
558.979	0.03
559.172	0.01
559.365	0.05
559.558	0.02
559.751	0.01
559.944	0.02
560.138	0
560.331	0.01
560.524	-0.01
560.717	0
560.91	-0
561.103	0.04
561.296	0.02
561.489	0.04
561.682	0.01
561.875	0.04
562.068	0.01
562.261	0.03
562.454	0.04
562.647	0.02
562.84	-0
563.032	0.02
563.225	0.03
563.418	-0.01
563.611	0
563.804	0
563.997	0
564.19	-0.02
564.382	0.01
564.575	-0.01
564.768	0.02
564.961	0
565.153	-0.03
565.346	0.02
565.539	0.02
565.731	0.03
565.924	0.05
566.117	0.01
566.309	0.01
566.502	-0.02
566.695	0.01
566.887	0.02
567.08	-0.02
567.272	0.01
567.465	-0
567.657	0.01
567.85	0.01
568.042	0.02
568.235	0.04
568.427	0
568.62	0.01
568.812	0
569.005	-0.02
569.197	-0.04
569.389	0.01
569.582	-0.01
569.774	0.01
569.966	-0.01
570.159	-0.02
570.351	0.03
570.543	-0.01
570.736	-0.01
570.928	-0.01
571.12	-0.01
571.312	-0
571.505	-0.02
571.697	0.03
571.889	-0.02
572.081	0.02
572.273	-0.03
572.465	0.05
572.658	0.01
572.85	0.01
573.042	-0.01
573.234	0.03
573.426	0.02
573.618	-0.01
573.81	0.02
574.002	0.03
574.194	0.04
574.386	-0.03
574.578	-0.08
574.77	-0
574.962	-0.01
575.154	-0.02
575.346	-0.01
575.538	0.03
575.729	0
575.921	-0
576.113	-0.02
576.305	0.04
576.497	0.01
576.689	-0.02
576.88	-0.02
577.072	0.03
577.264	-0.01
577.456	0
577.647	-0.09
577.839	-0.01
578.031	0.06
578.223	-0.03
578.414	-0.02
578.606	0.03
578.798	0
578.989	-0
579.181	-0
579.372	0.01
579.564	-0.03
579.755	0.01
579.947	0.01
580.139	0.04
580.33	-0.03
580.522	-0.03
580.713	-0.08
580.905	-0
581.096	0.03
581.287	0
581.479	0.01
581.67	0.04
581.862	0.01
582.053	-0.02
582.244	-0.04
582.436	-0
582.627	-0
582.818	-0.03
583.01	-0.03
583.201	0.01
583.392	0.03
583.583	0
583.775	-0.01
583.966	-0.03
584.157	-0
584.348	-0.02
584.54	-0.02
584.731	0.03
584.922	0.02
585.113	-0.03
585.304	0.02
585.495	0.04
585.686	0
585.877	0.03
586.068	0.02
586.259	0.02
586.45	0.01
586.641	-0.03
586.832	-0.03
587.023	0.01
587.214	-0
587.405	0.01
587.596	-0.01
587.787	0.03
587.978	0.02
588.169	-0.05
588.36	-0.01
588.551	0.01
588.742	-0.02
588.932	0.02
589.123	-0
589.314	0.02
589.505	0.04
589.696	0.02
589.886	-0.01
590.077	-0.01
590.268	0.02
590.458	-0.03
590.649	-0.05
590.84	0.03
591.03	-0.02
591.221	-0.03
591.412	-0.06
591.602	0.02
591.793	0.03
591.984	-0.04
592.174	-0.01
592.365	0.06
592.555	-0.01
592.746	0.03
592.936	0.02
593.127	0.01
593.317	0.03
593.508	-0.04
593.698	-0.02
593.889	0.02
594.079	-0
594.269	-0.01
594.46	-0
594.65	0.02
594.84	0.01
595.031	-0.04
595.221	-0.03
595.411	-0.04
595.602	0.04
595.792	-0.01
595.982	-0.04
596.172	0.05
596.363	0
596.553	0
596.743	-0.02
596.933	0
597.123	0.04
597.314	-0.01
597.504	-0.02
597.694	0.03
597.884	0.01
598.074	-0
598.264	-0.03
598.454	0.02
598.644	0.03
598.834	-0.04
599.024	-0.06
599.214	-0
599.404	0.03
599.594	-0.01
599.784	-0.03
599.974	0.03
600.164	0.02
600.354	-0.02
600.544	-0.03
600.734	0.02
600.924	0.01
601.114	-0.03
601.303	0.01
601.493	-0
601.683	-0
601.873	0.02
602.063	-0.06
602.252	0.01
602.442	-0.05
602.632	-0.01
602.821	-0.05
603.011	0.03
603.201	-0.03
603.39	-0.06
603.58	-0
603.77	0.04
603.959	0.01
604.149	-0.02
604.339	-0.04
604.528	0.01
604.718	0.02
604.907	-0.02
605.097	-0.01
605.286	-0.06
605.476	0.03
605.665	0.02
605.855	-0.01
606.044	0.02
606.234	0.03
606.423	0
606.612	-0.05
606.802	-0.01
606.991	0.03
607.181	0.02
607.37	-0.06
607.559	-0.01
607.749	-0.04
607.938	0
608.127	-0.01
608.316	-0.04
608.506	0.03
608.695	-0.01
608.884	-0.03
609.073	0
609.263	0.01
609.452	0
609.641	-0.01
609.83	-0.03
610.019	0.02
610.208	-0
610.397	0.01
610.586	0.03
610.775	-0.05
610.965	-0.01
611.154	-0.01
611.343	0.02
611.532	0.01
611.721	-0.03
611.91	-0.05
612.099	0.01
612.287	0
612.476	-0.06
612.665	0
612.854	-0.04
613.043	0.03
613.232	0
613.421	-0.03
613.61	0.03
613.798	-0.03
613.987	0.03
614.176	-0.02
614.365	0.03
614.554	-0.01
614.742	0.04
614.931	-0.02
615.12	0.04
615.309	-0.02
615.497	-0.01
615.686	-0.02
615.875	-0
616.063	0.01
616.252	-0.01
616.44	-0.03
616.629	0
616.818	0.04
617.006	-0.02
617.195	-0.01
617.383	-0.01
617.572	0.01
617.76	0
617.949	-0.02
618.137	-0.02
618.326	0.04
618.514	-0.01
618.703	-0
618.891	0.05
619.079	-0.05
619.268	0.01
619.456	-0.03
619.644	0.05
619.833	-0
620.021	-0
620.209	-0.06
620.398	0.01
620.586	-0
620.774	0.02
620.962	-0.04
621.151	0.05
621.339	0.01
621.527	-0.04
621.715	-0.05
621.903	0.01
622.092	-0.04
622.28	0.02
622.468	-0.01
622.656	0.01
622.844	-0
623.032	-0.03
623.22	-0.06
623.408	0.02
623.596	0
623.784	0.02
623.972	-0.02
624.16	-0.02
624.348	0.06
624.536	-0.05
624.724	-0.03
624.912	0.02
625.1	0.03
625.288	-0.04
625.476	-0.02
625.664	0.01
625.851	-0.03
626.039	0.01
626.227	-0.01
626.415	-0
626.603	-0.08
626.79	0.02
626.978	-0.02
627.166	0.01
627.354	0.01
627.541	-0.04
627.729	-0.04
627.917	0.04
628.104	0.04
628.292	0
628.48	0
628.667	0
628.855	0.02
629.042	0.01
629.23	-0.01
629.418	0.02
629.605	0
629.793	-0.03
629.98	-0.05
630.168	-0.03
630.355	-0
630.543	0.02
630.73	-0.06
630.917	0.02
631.105	0.07
631.292	-0.03
631.48	-0.02
631.667	0.08
631.854	0.02
632.042	-0.01
632.229	-0.04
632.416	0
632.604	-0.02
632.791	-0.06
632.978	0.01
633.165	0.02
633.353	0.07
633.54	0.02
633.727	-0.06
633.914	-0.01
634.101	-0.07
634.289	0.03
634.476	-0.05
634.663	-0.05
634.85	-0.01
635.037	-0.05
635.224	-0.06
635.411	0.04
635.598	0.01
635.785	-0.04
635.972	-0.02
636.159	0.03
636.346	-0.03
636.533	0
636.72	-0
636.907	0
637.094	0.03
637.281	-0.02
637.468	0.03
637.655	-0.01
637.842	-0.03
638.029	-0.02
638.215	0.02
638.402	0.01
638.589	-0.03
638.776	-0.04
638.963	-0.02
639.149	0.03
639.336	0.07
639.523	-0.03
639.709	-0.02
639.896	0
640.083	0.06
640.27	-0.02
640.456	-0.01
640.643	-0.02
640.829	-0.04
641.016	-0.03
641.203	-0.08
641.389	0.01
641.576	0.01
641.762	-0.01
641.949	-0.03
642.135	0.01
642.322	-0.01
642.508	-0.07
642.695	-0.03
642.881	-0.03
643.068	-0
643.254	0.01
643.441	0.02
643.627	-0.05
643.813	-0.02
644	0.03
644.186	-0.03
644.372	0.01
644.559	0.02
644.745	-0.04
644.931	-0.03
645.118	-0.04
645.304	0.01
645.49	-0.04
645.676	-0.03
645.862	0.01
646.049	0.07
646.235	-0.01
646.421	0.05
646.607	0.07
646.793	-0.06
646.979	-0.01
647.165	-0
647.352	-0.01
647.538	0.05
647.724	-0.01
647.91	-0
648.096	0.02
648.282	0.04
648.468	-0.02
648.654	0.02
648.84	-0.03
649.026	-0.01
649.212	-0.04
649.397	-0.01
649.583	-0.04
649.769	0.01
649.955	-0
650.141	0.02
650.327	0.07
650.513	-0.04
650.698	0.01
650.884	-0.08
651.07	0.01
651.256	0.01
651.442	-0.01
651.627	-0.02
651.813	0.02
651.999	-0
652.184	0.02
652.37	0.01
652.556	-0.03
652.741	0.07
652.927	-0.08
653.113	-0.01
653.298	0.03
653.484	-0.01
653.669	-0.06
653.855	0
654.04	0.04
654.226	-0.01
654.412	-0.03
654.597	-0.07
654.782	0.02
654.968	0.02
655.153	0.01
655.339	-0.03
655.524	-0.05
655.71	0.02
655.895	-0.05
656.08	-0.01
656.266	0.01
656.451	0.04
656.636	-0.04
656.822	0
657.007	-0.04
657.192	-0.02
657.378	-0.05
657.563	-0
657.748	-0.02
657.933	0.02
658.118	-0.02
658.304	-0.02
658.489	-0.01
658.674	0
658.859	-0.02
659.044	-0.01
659.229	0.04
659.414	-0.01
659.599	-0.01
659.785	-0.05
659.97	-0.05
660.155	0.02
660.34	-0.02
660.525	-0.04
660.71	-0.03
660.895	0.02
661.08	-0.05
661.264	-0.05
661.449	0.08
661.634	0.04
661.819	0
662.004	0.01
662.189	-0.06
662.374	-0.05
662.559	-0.02
662.743	-0.06
662.928	-0.03
663.113	-0.02
663.298	-0.08
663.483	0
663.667	0.01
663.852	-0.06
664.037	0.03
664.221	-0.02
664.406	0.04
664.591	-0
664.775	-0
664.96	0.01
665.145	0.01
665.329	0.02
665.514	-0.01
665.698	-0.02
665.883	-0.07
666.068	0.06
666.252	0.01
666.437	-0.08
666.621	-0.02
666.806	0.03
666.99	-0.04
667.174	-0.04
667.359	0.07
667.543	0.02
667.728	-0.02
667.912	-0.1
668.096	0.02
668.281	-0.03
668.465	-0.01
668.649	-0.04
668.834	-0.04
669.018	-0.05
669.202	-0.06
669.387	-0.02
669.571	0.01
669.755	-0.05
669.939	0.01
670.124	-0.04
670.308	0.07
670.492	0.02
670.676	0
670.86	-0.01
671.044	-0.05
671.228	0.03
671.413	-0.04
671.597	-0.01
671.781	-0.09
671.965	0.04
672.149	0
672.333	-0
672.517	-0.05
672.701	0.02
672.885	-0.04
673.069	-0.06
673.253	0.05
673.437	-0.02
673.621	-0.04
673.804	0.01
673.988	-0.01
674.172	0
674.356	-0.05
674.54	-0.02
674.724	0.11
674.908	-0.03
675.091	0.03
675.275	-0.01
675.459	0.01
675.643	0.09
675.826	0.02
676.01	-0.02
676.194	-0.03
676.377	0.03
676.561	0
676.745	-0.02
676.928	0.02
677.112	0.03
677.296	-0.04
677.479	-0.03
677.663	-0.06
677.846	-0.03
678.03	0.02
678.213	0.02
678.397	0.01
678.58	-0.01
678.764	-0.03
678.947	-0.04
679.131	-0.04
679.314	0.05
679.498	-0
679.681	0
679.865	0.03
680.048	-0.03
680.231	-0.04
680.415	-0.03
680.598	-0.01
680.781	0.01
680.965	-0.04
681.148	0.02
681.331	-0.02
681.514	-0.03
681.698	-0.02
681.881	-0.01
682.064	0.01
682.247	0.04
682.43	-0.07
682.614	-0.01
682.797	0.02
682.98	0.05
683.163	-0.03
683.346	0.04
683.529	-0.01
683.712	-0.04
683.895	-0
684.078	-0.07
684.261	-0.03
684.444	-0.04
684.627	0.01
684.81	-0.05
684.993	-0
685.176	0.03
685.359	-0.05
685.542	-0.08
685.725	0.04
685.908	0.03
686.091	-0.09
686.274	-0
686.457	0.04
686.639	-0.02
686.822	-0.01
687.005	-0.02
687.188	0.08
687.371	0.11
687.553	0
687.736	-0.02
687.919	0.04
688.102	0.07
688.284	-0.06
688.467	0.01
688.65	0.01
688.832	-0.02
689.015	0.01
689.197	-0.09
689.38	0.03
689.563	0.05
689.745	-0.03
689.928	-0.03
690.11	-0.03
690.293	0.01
690.475	-0.08
690.658	0.05
690.84	-0.02
691.023	-0.04
691.205	0
691.388	0
691.57	0.08
691.752	0.03
691.935	-0.07
692.117	-0
692.3	-0.01
692.482	0.01
692.664	-0.01
692.847	0.05
693.029	0.08
693.211	0.03
693.393	-0.03
693.576	-0.07
693.758	-0.03
693.94	-0.01
694.122	-0.05
694.304	0
694.487	0.01
694.669	0.05
694.851	-0.1
695.033	-0.03
695.215	-0.07
695.397	-0.07
695.579	0.03
695.761	-0.04
695.943	-0.07
696.125	0.06
696.308	0.03
696.49	-0.12
696.671	0.11
696.853	-0
697.035	0.1
697.217	-0.07
697.399	-0.02
697.581	-0.08
697.763	-0.02
697.945	-0.04
698.127	-0.01
698.309	0.06
698.491	-0.03
698.672	0.03
698.854	0.03
699.036	-0
699.218	-0.06
699.399	0.1
699.581	0.07
699.763	0.01
699.945	-0.06
700.126	-0.07
700.308	0.01
700.49	-0.05
700.671	-0.06
700.853	-0.05
701.035	0.02
701.216	0.02
701.398	-0.04
701.579	-0.02
701.761	0.05
701.943	-0.05
702.124	-0.02
702.306	0.02
702.487	0.12
702.669	-0.02
702.85	-0.01
703.031	-0.04
703.213	0.05
703.394	0.06
703.576	-0.01
703.757	0.05
703.938	0.05
704.12	0.22
704.301	0.01
704.483	-0.04
704.664	0.06
704.845	0.03
705.026	0.03
705.208	-0.05
705.389	0.01
705.57	-0.02
705.751	-0.06
705.933	-0.03
706.114	0.06
706.295	0.02
706.476	-0.07
706.657	0.05
706.838	-0.04
707.02	0.03
707.201	-0.03
707.382	-0.05
707.563	-0
707.744	0
707.925	-0.04
708.106	-0.04
708.287	0
708.468	0.07
708.649	-0
708.83	-0
709.011	-0.02
709.192	0.06
709.373	-0.12
709.554	-0.02
709.734	0.01
709.915	0.06
710.096	-0.03
710.277	-0.13
710.458	-0.03
710.639	0.05
710.819	-0.06
711	-0.06
711.181	0.12
711.362	0.08
711.542	0.01
711.723	0
711.904	-0.02
712.085	-0.01
712.265	0
712.446	-0.1
712.627	-0.01
712.807	-0.04
712.988	-0.05
713.168	-0.09
713.349	0.05
713.53	-0.14
713.71	-0.12
713.891	-0.08
714.071	0.01
714.252	-0.02
714.432	-0
714.613	-0.11
714.793	-0
714.974	0.03
715.154	0.09
715.334	0.02
715.515	0.06
715.695	-0.1
715.876	-0.03
716.056	-0.04
716.236	-0.02
716.417	-0.03
716.597	-0.08
716.777	0.07
716.957	-0.06
717.138	0.02
717.318	0.07
717.498	-0.12
717.678	-0.01
717.859	0
718.039	-0.12
718.219	0
718.399	-0
718.579	-0.04
718.759	-0.12
718.939	0.01
719.12	-0.01
719.3	-0.02
719.48	-0.15
719.66	-0.16
719.84	0
720.02	-0.02
720.2	-0.05
720.38	0.06
720.56	0.12
720.74	-0.11
720.92	-0.01
721.1	0.11
721.279	0.14
721.459	-0.05
721.639	-0.03
721.819	0.04
721.999	-0.09
722.179	0.03
722.359	-0.13
722.538	-0
722.718	-0.03
722.898	-0.01
723.078	-0.05
723.257	-0.07
723.437	0.01
723.617	-0.05
723.797	-0.14
723.976	0.03
724.156	0.04
724.336	0.1
724.515	0.19
724.695	-0.07
724.874	-0.06
725.054	0.08
725.234	-0.1
725.413	0.01
725.593	0.02
725.772	-0.06
725.952	-0.07
726.131	-0.04
726.311	0.03
726.49	0.03
726.67	-0.09
726.849	-0.08
727.028	0.11
727.208	0.05
727.387	0.03
727.567	-0.12
727.746	-0.06
727.925	-0.1
728.105	0
728.284	-0.09
728.463	-0.03
728.643	0.06
728.822	-0.13
729.001	-0.09
729.18	-0.03
729.359	-0.01
729.539	-0.06
729.718	0.04
729.897	0.09
730.076	-0.06
730.255	-0.21
730.434	-0
730.614	0.04
730.793	0.09
730.972	-0.05
731.151	-0.05
731.33	0.14
731.509	0.02
731.688	0.07
731.867	-0.08
732.046	-0.21
732.225	0.18
732.404	-0.06
732.583	-0.07
732.762	-0.03
732.941	0.1
733.12	-0.06
733.298	-0.06
733.477	0.08
733.656	-0.02
733.835	-0.09
734.014	0.04
734.193	-0.06
734.371	0.05
734.55	0.04
734.729	-0.09
734.908	-0.01
735.086	-0.01
735.265	-0.04
735.444	-0.12
735.623	-0.1
735.801	-0.13
735.98	-0.09
736.159	-0.07
736.337	0.11
736.516	0.06
736.694	0.01
736.873	-0.03
737.052	0.03
737.23	0.12
737.409	-0.03
737.587	0.16
737.766	-0.19
737.944	-0.02
738.123	0.07
738.301	0.03
738.479	-0.08
738.658	-0.02
738.836	-0.36
739.015	-0.01
739.193	0.21
739.371	-0.12
739.55	-0.05
739.728	-0.09
739.906	0.03
740.085	0.06
740.263	-0.05
740.441	-0.22
740.62	0.2
740.798	0.01
740.976	-0.22
741.154	-0.16
741.332	0.15
741.511	-0.08
741.689	-0.06
741.867	0.11
742.045	-0.05
742.223	0
742.401	-0.11
742.579	-0.04
742.757	0.02
742.935	-0.12
743.114	-0.13
743.292	0.02
743.47	0.02
743.648	0.05
743.826	-0.05
744.004	0.01
744.181	0.03
744.359	-0.04
744.537	-0
744.715	-0.12
744.893	-0.08
745.071	-0.1
745.249	-0.17
745.427	-0.12
745.605	0.06
745.782	-0.04
745.96	0.1
746.138	0.07
746.316	0.05
746.493	0.07
746.671	-0.04
746.849	0.07
747.027	0.14
747.204	-0.05
747.382	0.01
747.56	-0.15
747.737	-0.04
747.915	-0.02
748.093	0.05
748.27	-0.12
748.448	-0.09
748.625	-0.13
748.803	-0.01
748.98	-0.06
749.158	-0.02
749.335	0.1
749.513	0.01
749.69	0.03
749.868	-0.03
750.045	0.09
750.223	-0.04
750.4	-0.21
750.578	0.28
750.755	-0.03
750.932	-0.15
751.11	0.02
751.287	-0.2
751.464	0.1
751.642	-0.15
751.819	0.1
751.996	0.03
752.173	-0.14
752.351	-0.06
752.528	0.01
752.705	-0.01
752.882	-0.06
753.06	-0.02
753.237	0.09
753.414	0.08
753.591	0.19
753.768	-0.09
753.945	-0.14
754.122	-0.15
754.299	0.08
754.476	-0.11
754.654	-0.05
754.831	-0.03
755.008	0.04
755.185	-0.08
755.362	-0.06
755.539	0.05
755.716	-0.06
755.892	-0.03
756.069	-0.06
756.246	0.05
756.423	-0.02
756.6	0.17
756.777	-0.06
756.954	0.14
757.131	-0.03
757.307	-0.09
757.484	-0.18
757.661	0.08
757.838	-0.04
758.015	-0.07
758.191	0.17
758.368	-0
758.545	0.24
758.721	0.01
758.898	-0.07
759.075	0.1
759.251	0.05
759.428	0.05
759.605	-0.14
759.781	0.01
759.958	0
760.134	-0.01
760.311	-0.1
760.488	-0.03
760.664	0.16
760.841	0.02
761.017	-0.03
761.194	-0.03
761.37	0.07
761.547	0.04
761.723	-0.06
761.899	0.14
762.076	-0.06
762.252	-0.2
762.429	-0.09
762.605	0.04
762.781	-0.05
762.958	0.02
763.134	-0.19
763.31	-0.17
763.486	0.19
763.663	-0.27
763.839	0.07
764.015	-0.21
764.191	-0.11
764.368	0.07
764.544	0.01
764.72	-0.1
764.896	0.08
765.072	0.05
765.248	0.08
765.425	-0.06
765.601	0.01
765.777	-0.07
765.953	-0.25
766.129	-0.07
766.305	-0.07
766.481	0.14
766.657	0.04
766.833	0.15
767.009	-0.17
767.185	-0.04
767.361	-0.09
767.537	-0.22
767.713	0.1
767.889	-0.03
768.065	-0.03
768.24	-0.01
768.416	0.13
768.592	-0.04
768.768	-0.12
768.944	-0.05
769.12	-0.19
769.295	0.08
769.471	-0.03
769.647	0.09
769.823	0.07
769.998	-0.04
770.174	-0.05
770.35	0.26
770.525	0.09
770.701	-0.13
770.877	0.03
771.052	-0.11
771.228	0.04
771.403	0.16
771.579	-0.01
771.755	0.25
771.93	-0.17
772.106	-0.14
772.281	-0.18
772.457	-0.01
772.632	-0.05
772.808	-0.3
772.983	0.03
773.159	-0.23
773.334	0.03
773.509	-0.02
773.685	-0.16
773.86	0.28
774.036	0.11
774.211	0.01
774.386	-0.26
774.562	-0.04
774.737	0.07
774.912	-0.08
775.087	-0.01
775.263	-0.02
775.438	0.02
775.613	-0.17
775.788	-0.07
775.964	-0.02
776.139	0.23
776.314	-0.27
776.489	0.06
776.664	0.07
776.839	-0.2
777.014	0.19
777.19	-0.06
777.365	0.26
777.54	0.21
777.715	-0.09
777.89	-0.12
778.065	-0.23
778.24	-0.16
778.415	0.05
778.59	-0.29
778.765	-0.06
778.94	-0.03
779.115	-0.14
779.289	-0.08
779.464	0.01
779.639	-0.12
779.814	-0.18
779.989	-0.2
780.164	0.25
780.339	0.02
780.513	-0.14
780.688	-0.22
780.863	-0.02
781.038	0.15
781.212	-0.26
781.387	-0.14
781.562	0.35
781.737	0.12
781.911	0.18
782.086	-0.1
782.261	-0.07
782.435	0.23
782.61	-0.09
782.784	-0.1
782.959	-0.02
783.134	-0.17
783.308	-0.14
783.483	-0.03
783.657	0.54
783.832	0.12
784.006	-0.29
784.181	-0.04
784.355	0.14
784.53	-0.15
784.704	-0.16
784.878	0.16
785.053	0.07
785.227	0.28
785.402	0.31
785.576	-0.19
785.75	-0.09
785.925	-0.16
786.099	0.02
786.273	0.21
786.448	0.08
786.622	0.03
786.796	0.12
786.97	0.04
787.145	0.6
787.319	-0.45
787.493	-0.13
787.667	-0.39
787.841	-0.17
788.015	0.19
788.19	-0.16
788.364	0.1
788.538	0.13
788.712	0.02
788.886	-0.01
789.06	0.16
789.234	0.12
789.408	-0.39
789.582	-0.02
789.756	0.03
789.93	-0.18
790.104	-0.03
790.278	-0.17
790.452	-0.47
790.626	0.14
790.8	-0.09
790.973	0.15
791.147	0.28
791.321	0.31
791.495	0.02
791.669	0.02
791.843	0.08
792.016	0.05
792.19	0.4
792.364	-0.28
792.538	0.62
792.711	0.43
792.885	-0.01
793.059	-0.17
793.233	-0.59
793.406	0.21
793.58	0.05
793.754	0
793.927	-0.06
794.101	0.13
794.274	-0.12
794.448	0.42
794.622	-0.26
794.795	0.28
794.969	-0.24
795.142	0.17
795.316	-0.13
795.489	-0.29
795.663	0.21
795.836	0.3
796.009	-0.31
796.183	0.18
796.356	-0.06
796.53	0.09
796.703	-0.13
796.876	0.51
797.05	-0.06
797.223	-0.01
797.396	0.12
797.57	-0.21
797.743	0.3
797.916	-0.16
798.09	0.04
798.263	0.19
798.436	0.17
798.609	-0.18
798.782	-0.12
798.956	0.04
799.129	0.31
799.302	0.09
799.475	-0.13
799.648	-0.26
799.821	-0.15
799.994	-0.18
800.167	-0.69
800.34	0.08
800.514	-0.05
800.687	-0.08
800.86	-0.25
801.033	0.21
801.206	-0.12
801.379	-0.5
801.551	0.12
801.724	0.27
801.897	0.29
802.07	-0.19
802.243	-0.38
802.416	-0.01
802.589	-0.19
802.762	0.21
802.935	-0.1
803.107	0.2
803.28	0.38
803.453	0.3
803.626	-0.09
803.798	-0.1
803.971	-0.21
804.144	0.03
804.317	0.18
804.489	0.3
804.662	0.14
804.835	0.21
805.007	-0.38
805.18	0.05
805.353	-0.12
805.525	-0.28
805.698	-0.25
805.87	0.16
806.043	0.11
806.215	-0.45
806.388	-0.28
806.56	-0.06
806.733	0.23
806.905	0.2
807.078	-0.09
807.25	-0.44
807.423	-0.08
807.595	-0.03
807.768	-0.27
807.94	0.19
808.112	0.24
808.285	-0.08
808.457	-0.34
808.629	-0.16
808.802	0.17
808.974	-0.33
809.146	0.03
809.318	-0.11
809.491	-0.25
809.663	0.35
809.835	0.08
810.007	0.19
810.18	0.08
810.352	-0.51
810.524	-0.21
810.696	0.32
810.868	0.49
811.04	-0.02
811.212	-0.16
811.384	0.47
811.556	-0.04
811.728	-0.11
811.901	0.45
812.073	-0.12
812.245	0.27
812.417	-0.31
812.589	-0.13
812.76	0.3
812.932	0.04
813.104	0.06
813.276	-0.01
813.448	0.52
813.62	0.08
813.792	-0.02
813.964	-0.06
814.136	0.23
814.307	-0.29
814.479	-0.41
814.651	-0.45
814.823	0.36
814.995	-0.12
815.166	0.24
815.338	-0.41
815.51	-0.56
815.681	0.87
815.853	0.31
816.025	-0.24
816.196	0.55
816.368	0.28
816.54	-0.57
816.711	0.15
816.883	-0.11
817.054	0.71
817.226	-0.55
817.398	-0.09
817.569	-0.27
817.741	0.02
817.912	0.06
818.084	-0.11
818.255	0.03
818.426	-0.22
818.598	-0.18
818.769	-0.54
818.941	0.73
819.112	0.33
819.283	0
819.455	-0.07
819.626	-0.33
819.798	0.37
819.969	-0.19
820.14	-0.37
820.311	-0.21
820.483	-0.04
820.654	0.08
820.825	-0.24
820.996	-0.33
821.168	-0.14
821.339	-0.47
821.51	-0.46
821.681	-0.42
821.852	-0.21
822.023	-0.45
822.195	-1.08
822.366	0.43
822.537	-0.07
822.708	-0.09
822.879	-0.3
823.05	0.43
823.221	-0.27
823.392	0.29
823.563	-0.3
823.734	0.24
823.905	-0.39
824.076	-0.42
824.247	-0.7
824.418	0.2
824.589	0.74
824.759	0.25
824.93	-0.37
825.101	-0.96
825.272	0.2
825.443	0.28
825.614	0.65
825.784	-0.95
825.955	1.43
826.126	0.51
826.297	0.07
826.467	0.84
826.638	0.6
826.809	-1.11
826.98	0.03
827.15	-0.14
827.321	0.01
827.492	0.54
827.662	0.06
827.833	1.35
828.003	0.01
828.174	-0.67
828.345	-0.44
828.515	0.65
828.686	-0
828.856	0.18
829.027	0.13
829.197	0.32
829.368	-0.04
829.538	-0.93
829.709	-0.46
829.879	0.01
830.049	0.29
830.22	-0.74
830.39	-0.06
830.56	1.07
830.731	-0.16
830.901	-0.38
831.072	0.09
831.242	0.14
831.412	-0.06
831.582	-0.51
831.753	-0.7
831.923	0.5
832.093	0.1
832.263	-0.02
832.434	-0.79
832.604	-0.08
832.774	0.23
832.944	-0.39
833.114	-0.53
833.284	0.51
833.454	-0.78
833.624	-0.56
833.795	-0.54
833.965	0.45
834.135	0.44
834.305	-1.28
834.475	-0.83
834.645	0.01
834.815	-0.06
834.985	-0.59
835.155	-0.51
835.325	0.33
835.494	-0.16
835.664	-0.01
835.834	-0.61
836.004	-0.2
836.174	-0.19
836.344	-0.18
836.514	-0.82
836.684	-0.05
836.853	0.37
837.023	0.1
837.193	-0.08
837.363	0.64
837.532	0.65
837.702	-0.38
837.872	-0.25
838.041	0.74
838.211	0.87
838.381	-0.52
838.55	0.05
838.72	1.92
838.89	1.46
839.059	-0.13
839.229	-0.36
839.398	0.58
839.568	-0.4
839.738	-0.32
839.907	0.59
840.077	-0.03
840.246	-0.37
840.416	-0.48
840.585	-0.48
840.755	1.03
840.924	1.61
841.093	-0.4
841.263	-0.25
841.432	0.33
841.602	-1.19
841.771	-0.76
841.94	0.48
842.11	1.31
842.279	1.82
842.448	-1.01
842.617	-0.63
842.787	0.82
842.956	-2.02
843.125	-0.43
843.294	0.02
843.464	0.52
843.633	-0.12
843.802	-1.51
843.971	-0.65
844.14	0.6
844.309	1.05
844.479	-0.33
844.648	-0.43
844.817	-0.29
844.986	0
845.155	0.13
845.324	-0.53
845.493	0.06
845.662	-1.03
845.831	0.07
846	0.11
846.169	-0.46
846.338	1.07
846.507	0.13
846.676	0.41
846.844	-0.78
847.013	1.06
847.182	-0.15
847.351	-0.43
847.52	0.52
847.689	0.66
847.858	-0.17
848.026	-0.09
848.195	-0.39
848.364	0.2
848.533	-1.33
848.701	-1.27
848.87	0.28
849.039	0.72
849.207	0.75
849.376	0.37
849.545	1.05
849.713	-0.68
849.882	0.25
850.051	-0.93
850.219	0.15
850.388	0.31
850.556	-0.17
850.725	-0.93
850.893	-0.62
851.062	-0.76
851.23	0.57
851.399	-1.2
851.567	-0.69
851.736	-0.43
851.904	-0.67
852.073	-0.39
852.241	0.22
852.41	-0.73
852.578	-0.36
852.746	-1.06
852.915	-0.2
853.083	-0.82
853.251	-0.89
853.42	-0.07
853.588	0
853.756	1.57
853.924	-0.29
854.093	-0.44
854.261	-1.19
854.429	-1.41
854.597	-0.51
854.765	-1.17
854.934	-0.59
855.102	1.63
855.27	-0.37
855.438	0.6
855.606	1.17
855.774	1.36
855.942	-1.27
856.11	-1.76
856.278	-0.65
856.446	0.99
856.614	-0.34
856.782	-0.76
856.95	0.63
857.118	0.46
857.286	-0.36
857.454	-1.11
857.622	0.31
857.79	0.54
857.958	-1.66
858.126	-0.28
858.294	-2.37
858.462	0.73
858.629	-0.66
858.797	-1.22
858.965	0.5
859.133	1
859.301	-0.99
859.468	0.61
859.636	-2.17
859.804	2.52
859.971	0.64
860.139	-0.45
860.307	1.26
860.474	0.09
860.642	-1.14
860.81	-0.11
860.977	0.13
861.145	0.31
861.313	0.45
861.48	0.5
861.648	0.7
861.815	-0.07
861.983	-2.31
862.15	-1.55
862.318	0.13
862.485	1.44
862.653	0.34
862.82	-0.71
862.988	1.69
863.155	-2.03
863.322	-0.7
863.49	-1.22
863.657	-0.87
863.824	2.04
863.992	0.37
864.159	0.14
864.326	1.36
864.494	-0.36
864.661	2.14
864.828	-1.97
864.996	1.02
865.163	1.1
865.33	-1.74
865.497	-2.46
865.664	-0.95
865.832	-2.4
865.999	0.18
866.166	-1.05
866.333	0.3
866.5	-0.6
866.667	-0.24
866.834	0.69
867.001	2.12
867.168	-1.77
867.335	0.15
867.502	-2.49
867.669	0.28
867.836	2.37
868.003	-0.56
868.17	0.49
868.337	-1.24
868.504	2.92
868.671	-1.98
868.838	-1.24
869.005	0.57
869.172	0.17
869.339	-0.4
869.505	0.46
869.672	-0.38
869.839	2.6
870.006	-0.88
870.173	-3.34
870.339	-0.83
870.506	2.56
870.673	-2.71
870.84	-0.23
871.006	0.22
871.173	-1.49
871.34	-0.99
871.506	-1.18
871.673	1.56
871.839	-4.11
872.006	-0.37
872.173	0.13
872.339	-0.1
872.506	0.1
872.672	-0.91
872.839	-2.19
873.005	-0.18
873.172	3.44
873.338	2.52
873.505	0.05
873.671	2.04
873.838	-0.3
874.004	0.34
874.171	-2.25
874.337	0.52
874.503	0.52
874.67	-0.89
874.836	-1.07
875.002	0.23
875.169	0.07
875.335	1.33
875.501	0.28
875.668	-0.47
875.834	-1.31
876	-0.89
876.166	0.99
876.332	0.81
876.499	2.89
876.665	-0.09
876.831	-1.07
876.997	3.9
877.163	0.59
877.329	-0.05
877.495	0.64
877.662	1.01
877.828	0.61
877.994	0.08
878.16	-2.62
878.326	-1.59
878.492	0.85
878.658	2.1
878.824	0.49
878.99	1.34
879.156	-2.85
879.322	2.26
879.487	-0.89
879.653	1.5
879.819	1.57
879.985	-1.61
880.151	-0.11
880.317	0.53
880.483	0.75
880.648	2
880.814	-1.66
880.98	0.57
881.146	-2.66
881.312	-2.45
881.477	-1.69
881.643	0.25
881.809	0.81
881.974	2.8
882.14	-3.98
882.306	-0.35
882.471	2
882.637	-0.82
882.803	0.53
882.968	1.7
883.134	2.77
883.299	-0.76
883.465	-2.44
883.63	0.69
883.796	-0.33
883.961	-0.15
884.127	-0.54
884.292	-3.88
884.458	-3.49
884.623	-3.48
