Data from Apollo_Calib_20240827__AbsoluteIrradiance__73__00-22-00-903.txt Node

Date: Wed Aug 28 00:22:00 BST 2024
User: biology
Spectrometer: FLMT08252
Trigger mode: 0
Integration Time (sec): 5.000000E-1
Scans to average: 5
Electric dark correction enabled: true
Nonlinearity correction enabled: false
Boxcar width: 0
XAxis mode: Wavelengths
Number of Pixels in Spectrum: 3648
>>>>>Begin Spectral Data<<<<<
179.588	-0
179.809	-0
180.03	-0
180.251	-0
180.473	-0
180.694	0
180.915	0
181.136	-0
181.357	0
181.578	-0
181.799	-0
182.02	-0
182.241	-0
182.462	-0
182.683	0
182.904	-0
183.125	-0
183.346	0
183.567	0
183.788	-0
184.009	-0
184.23	-0
184.451	0
184.672	-0
184.892	-0
185.113	0
185.334	0
185.555	-0
185.776	-0
185.996	0
186.217	-0
186.438	0
186.659	-0
186.879	0
187.1	-0
187.321	-0
187.541	-0
187.762	-0
187.983	-0
188.203	-0
188.424	-0
188.644	-0
188.865	-0
189.086	-0
189.306	-0
189.527	0
189.747	-0
189.968	-0
190.188	0
190.409	-0
190.629	0
190.849	-0
191.07	-0
191.29	0
191.511	-0
191.731	-0
191.951	-0
192.172	0
192.392	-0
192.612	-0
192.833	-0
193.053	-0
193.273	-0
193.493	-0
193.714	-0
193.934	0
194.154	0
194.374	-0
194.594	0
194.815	-0
195.035	-0
195.255	-0
195.475	-0
195.695	0
195.915	0
196.135	-0
196.355	0
196.575	0
196.795	-0
197.015	-0
197.235	-0
197.455	-0
197.675	0
197.895	-0
198.115	-0
198.335	0
198.555	-0
198.775	-0
198.995	0
199.214	0
199.434	0
199.654	-0
199.874	-0
200.094	0.39
200.313	-0.76
200.533	-0.7
200.753	-1.16
200.973	0.68
201.192	0.54
201.412	-0.86
201.632	-1.12
201.851	1.08
202.071	-0.72
202.291	-0.87
202.51	-0.47
202.73	0.2
202.95	-0.12
203.169	-0.56
203.389	-0.25
203.608	0.1
203.828	-0.58
204.047	-0.52
204.267	0.18
204.486	-0.02
204.706	0.04
204.925	-0.12
205.145	-0.4
205.364	0.18
205.583	0.07
205.803	-0.36
206.022	-0.36
206.242	-0.01
206.461	0
206.68	-0.27
206.9	-0.16
207.119	0.01
207.338	0.35
207.557	-0.31
207.777	-0.15
207.996	-0.3
208.215	0.28
208.434	-0.41
208.654	-0.54
208.873	-0.05
209.092	0.11
209.311	-0.26
209.53	-0.31
209.749	-0.32
209.968	-0.34
210.187	-0.32
210.407	-0.83
210.626	-0.26
210.845	0.27
211.064	-0.11
211.283	-0.31
211.502	0.02
211.721	-0.32
211.94	-0.3
212.159	0.16
212.377	0.07
212.596	0.33
212.815	-0.21
213.034	0
213.253	0.06
213.472	0.09
213.691	-0.47
213.91	-0.21
214.128	-0.37
214.347	0.3
214.566	-0.45
214.785	-0.17
215.003	0.12
215.222	0.09
215.441	-0.26
215.66	-0.41
215.878	-0.21
216.097	0.07
216.316	-0.3
216.534	-0.34
216.753	0.1
216.972	0.01
217.19	-0.26
217.409	-0.16
217.627	-0.26
217.846	-0.09
218.064	-0.03
218.283	-0.46
218.501	0.09
218.72	-0.03
218.938	-0.21
219.157	-0.28
219.375	0.14
219.594	-0.01
219.812	-0.18
220.031	-0.3
220.249	0.25
220.467	0.06
220.686	-0.15
220.904	-0.3
221.122	-0.28
221.341	0.14
221.559	-0.12
221.777	-0.11
221.995	0.06
222.214	0.04
222.432	-0.06
222.65	0.05
222.868	-0.03
223.086	0.13
223.305	-0.04
223.523	-0.03
223.741	0.12
223.959	-0.13
224.177	-0.33
224.395	-0.15
224.613	0.07
224.831	0.13
225.049	-0.16
225.267	-0.02
225.485	0.08
225.703	-0.09
225.921	-0.22
226.139	-0.2
226.357	0.15
226.575	0.1
226.793	-0.17
227.011	0.5
227.229	0.09
227.447	0.12
227.665	-0.34
227.883	-0.33
228.1	-0
228.318	-0.1
228.536	-0.31
228.754	-0.24
228.972	0.07
229.189	0.04
229.407	-0.2
229.625	-0.09
229.843	0.04
230.06	0.16
230.278	-0.05
230.496	-0.12
230.713	0
230.931	0.07
231.149	-0.02
231.366	-0.19
231.584	-0.04
231.801	0.18
232.019	-0.19
232.236	-0.23
232.454	-0.15
232.671	-0.04
232.889	-0.05
233.106	-0.16
233.324	-0.16
233.541	-0.11
233.759	-0.03
233.976	-0.1
234.194	-0
234.411	0.03
234.628	-0.17
234.846	-0.12
235.063	-0.02
235.28	-0.1
235.498	-0.18
235.715	-0.14
235.932	0.04
236.149	-0.04
236.367	-0.16
236.584	-0.02
236.801	-0.15
237.018	-0.04
237.236	0.05
237.453	-0.23
237.67	0.03
237.887	-0.01
238.104	-0.11
238.321	-0.11
238.538	-0.1
238.755	0.07
238.973	-0.18
239.19	0.01
239.407	0.08
239.624	-0.01
239.841	-0.21
240.058	-0.02
240.275	0.04
240.492	-0.1
240.709	-0.04
240.925	-0.03
241.142	0.05
241.359	-0.1
241.576	-0.18
241.793	-0.13
242.01	-0.05
242.227	0.05
242.444	0.07
242.66	0.1
242.877	0.01
243.094	-0.19
243.311	-0.01
243.527	-0.03
243.744	0.01
243.961	0.05
244.178	-0.13
244.394	0.01
244.611	0.15
244.828	0.18
245.044	-0.17
245.261	-0.12
245.477	0.07
245.694	-0.01
245.911	-0.01
246.127	-0.01
246.344	0.09
246.56	0.03
246.777	-0.08
246.993	0.01
247.21	-0.05
247.426	0.06
247.643	-0.07
247.859	-0.18
248.076	-0.11
248.292	0.19
248.508	-0.05
248.725	-0.07
248.941	-0.02
249.157	0.1
249.374	-0.1
249.59	-0.09
249.806	0
250.023	-0
250.239	-0.16
250.455	-0.07
250.671	-0.06
250.888	0.09
251.104	0
251.32	-0.05
251.536	0.02
251.752	-0.08
251.969	-0.07
252.185	0.01
252.401	0.13
252.617	0.01
252.833	-0.03
253.049	-0.02
253.265	-0.06
253.481	-0.07
253.697	-0.08
253.913	-0.03
254.129	-0.06
254.345	-0.07
254.561	-0.06
254.777	-0.07
254.993	0.08
255.209	-0.04
255.425	-0.06
255.641	-0.17
255.857	-0.03
256.073	-0.06
256.288	-0.11
256.504	-0.05
256.72	0.02
256.936	0.09
257.152	-0.07
257.367	-0.06
257.583	0.02
257.799	0
258.015	-0.09
258.23	-0.04
258.446	0.06
258.662	-0.03
258.877	-0.09
259.093	-0.1
259.309	0.01
259.524	0.03
259.74	-0.09
259.955	-0.19
260.171	0.08
260.387	-0.01
260.602	0.03
260.818	0.04
261.033	-0.17
261.249	-0.08
261.464	-0.02
261.68	-0.08
261.895	-0.01
262.11	-0.01
262.326	-0.04
262.541	-0.14
262.757	-0.03
262.972	-0.06
263.187	-0.08
263.403	-0.09
263.618	0.05
263.833	-0.04
264.049	-0.08
264.264	-0.02
264.479	0.02
264.694	0.1
264.91	-0.09
265.125	-0.03
265.34	0.07
265.555	0.11
265.77	0.01
265.986	-0.05
266.201	0
266.416	0.08
266.631	-0.06
266.846	0.03
267.061	-0.03
267.276	-0.04
267.491	-0.17
267.706	0.04
267.921	-0.05
268.136	-0.04
268.351	-0.02
268.566	-0.1
268.781	0.05
268.996	-0.05
269.211	0.02
269.426	-0.1
269.641	-0.07
269.856	0.02
270.071	-0.03
270.285	-0.11
270.5	0.07
270.715	0.02
270.93	-0.02
271.145	0.03
271.359	0.05
271.574	-0.07
271.789	-0.05
272.004	-0.01
272.218	-0.04
272.433	0.02
272.648	-0.07
272.862	0.05
273.077	-0.03
273.292	-0.01
273.506	-0.11
273.721	-0.05
273.936	0.03
274.15	0.11
274.365	-0.05
274.579	0.04
274.794	-0.01
275.008	0.05
275.223	-0.11
275.437	-0.04
275.652	0.05
275.866	0.07
276.081	-0.05
276.295	0.06
276.509	0.01
276.724	-0.02
276.938	0.02
277.153	-0.01
277.367	0.07
277.581	-0.07
277.796	-0.01
278.01	-0.08
278.224	0.08
278.438	0.08
278.653	-0.1
278.867	-0.05
279.081	0
279.295	-0.05
279.51	-0.02
279.724	-0.06
279.938	-0
280.152	-0
280.366	-0.08
280.58	0.06
280.794	0.05
281.008	0.07
281.222	0.02
281.437	0.1
281.651	-0.01
281.865	0.05
282.079	-0.04
282.293	-0.11
282.507	-0.06
282.721	-0.02
282.935	0
283.148	-0.11
283.362	-0.05
283.576	-0.08
283.79	0.01
284.004	-0.04
284.218	0.03
284.432	-0.08
284.646	-0.02
284.859	-0
285.073	-0.01
285.287	-0.01
285.501	0.07
285.714	-0.02
285.928	-0.05
286.142	0.01
286.356	-0.01
286.569	-0.06
286.783	0.05
286.997	0.02
287.21	0.03
287.424	0.01
287.637	0.01
287.851	-0.02
288.065	0.01
288.278	-0.02
288.492	-0.01
288.705	0
288.919	0.01
289.132	-0.04
289.346	0.07
289.559	-0.05
289.773	-0.06
289.986	-0.02
290.2	-0
290.413	0.03
290.626	-0.05
290.84	-0.03
291.053	-0.07
291.267	0.08
291.48	-0.07
291.693	-0.05
291.906	-0.05
292.12	-0.01
292.333	-0.1
292.546	-0.02
292.76	0.08
292.973	-0.01
293.186	0
293.399	-0.04
293.612	0.04
293.826	-0.02
294.039	-0.04
294.252	-0
294.465	-0.04
294.678	0.05
294.891	-0.03
295.104	-0.1
295.317	-0.01
295.53	-0.01
295.743	-0
295.956	-0.02
296.169	0.05
296.382	-0.01
296.595	-0.03
296.808	-0.09
297.021	0.04
297.234	0.06
297.447	-0.01
297.66	0.05
297.873	0.04
298.086	0
298.299	-0.07
298.511	-0.07
298.724	-0.04
298.937	-0.08
299.15	-0.04
299.363	0.01
299.575	0.03
299.788	0.01
300.001	-0.01
300.213	-0.02
300.426	-0.03
300.639	-0.01
300.852	-0.03
301.064	0
301.277	0.03
301.489	0.02
301.702	0.01
301.915	0.02
302.127	-0.04
302.34	-0.02
302.552	0.02
302.765	-0.05
302.977	-0
303.19	-0.03
303.402	-0.04
303.615	-0.07
303.827	-0.03
304.04	-0.02
304.252	0
304.464	0.01
304.677	0.09
304.889	0.04
305.102	0.01
305.314	-0.04
305.526	0.05
305.739	-0.03
305.951	-0.06
306.163	-0.04
306.375	0.02
306.588	-0.03
306.8	-0.05
307.012	-0.07
307.224	0.01
307.436	0.07
307.649	-0.11
307.861	0
308.073	0.02
308.285	-0.01
308.497	-0.05
308.709	-0.01
308.921	0.01
309.133	0.05
309.346	-0.05
309.558	-0.02
309.77	0.03
309.982	0.06
310.194	0.01
310.406	-0.05
310.617	0.08
310.829	-0.01
311.041	0.01
311.253	-0.02
311.465	-0.02
311.677	-0.02
311.889	-0.01
312.101	0.02
312.313	-0.01
312.524	-0
312.736	-0.04
312.948	-0.04
313.16	0.08
313.372	0.04
313.583	0.03
313.795	-0.04
314.007	-0.04
314.218	-0
314.43	0.01
314.642	-0.07
314.853	-0.07
315.065	-0
315.277	0.01
315.488	-0.02
315.7	0.04
315.912	-0.02
316.123	-0.07
316.335	-0.03
316.546	0.08
316.758	-0.01
316.969	-0.04
317.181	0.04
317.392	-0.03
317.604	-0.01
317.815	-0.03
318.026	-0.07
318.238	-0.02
318.449	0
318.661	-0.09
318.872	-0.04
319.083	-0.03
319.295	0.02
319.506	-0.02
319.717	0.01
319.929	0.03
320.14	0.01
320.351	0.01
320.562	-0.08
320.774	0.05
320.985	-0.01
321.196	-0.07
321.407	-0.08
321.618	-0
321.829	0.01
322.041	0.02
322.252	-0.02
322.463	0
322.674	0.03
322.885	-0.08
323.096	-0.05
323.307	-0.02
323.518	-0.03
323.729	-0.03
323.94	-0.01
324.151	-0.04
324.362	0.01
324.573	-0.01
324.784	-0.02
324.995	0.03
325.206	0.03
325.417	-0.06
325.628	-0.04
325.838	0.01
326.049	0
326.26	0.03
326.471	-0.02
326.682	0.03
326.892	-0.03
327.103	-0.04
327.314	-0.07
327.525	0.04
327.735	-0.02
327.946	-0.01
328.157	-0.05
328.368	0.05
328.578	-0.07
328.789	0.04
328.999	0.01
329.21	0.02
329.421	0.01
329.631	-0.07
329.842	-0.03
330.052	-0.03
330.263	0.06
330.473	0.01
330.684	-0.01
330.894	-0.04
331.105	-0.02
331.315	-0.01
331.526	-0.03
331.736	0.09
331.947	0
332.157	-0
332.367	-0.03
332.578	0.04
332.788	0.07
332.999	0.04
333.209	0.02
333.419	-0.01
333.629	0.02
333.84	-0.04
334.05	-0.01
334.26	0.02
334.47	-0.03
334.681	0.02
334.891	-0.02
335.101	0.02
335.311	0.09
335.521	0
335.732	-0.02
335.942	0.04
336.152	0.03
336.362	0.01
336.572	0.02
336.782	0.03
336.992	-0.04
337.202	-0.03
337.412	-0.03
337.622	0.04
337.832	-0.05
338.042	0
338.252	-0.05
338.462	-0.02
338.672	-0
338.882	-0.01
339.092	-0.01
339.302	0.05
339.511	0.01
339.721	-0.07
339.931	-0.03
340.141	-0.01
340.351	0.05
340.561	0
340.77	-0.01
340.98	0.01
341.19	0.02
341.4	-0.04
341.609	-0.05
341.819	-0.01
342.029	-0.11
342.238	0.01
342.448	-0.06
342.658	0.03
342.867	0.04
343.077	0
343.286	0
343.496	-0
343.706	0.05
343.915	-0.06
344.125	-0.01
344.334	0.02
344.544	-0.08
344.753	0
344.963	-0.02
345.172	-0.03
345.381	-0.05
345.591	-0.04
345.8	-0.03
346.01	0.07
346.219	0.04
346.428	-0.12
346.638	0
346.847	-0.01
347.056	0.02
347.266	-0.07
347.475	-0
347.684	0.01
347.893	0.04
348.103	-0.02
348.312	-0.04
348.521	-0.01
348.73	0.02
348.94	0.03
349.149	-0.02
349.358	-0.02
349.567	-0.03
349.776	-0.06
349.985	-0.05
350.194	0.05
350.403	0.01
350.612	-0.04
350.821	0
351.03	0
351.239	-0.03
351.448	-0.02
351.657	-0.04
351.866	0.01
352.075	0.02
352.284	0.06
352.493	-0.06
352.702	0.06
352.911	0
353.12	-0.01
353.329	-0.03
353.538	0.02
353.746	-0.03
353.955	-0.04
354.164	0
354.373	-0
354.582	0.06
354.79	-0.01
354.999	-0
355.208	-0.03
355.416	0.05
355.625	-0.05
355.834	-0.02
356.042	0.02
356.251	-0.03
356.46	-0.02
356.668	-0.05
356.877	0.03
357.085	0.04
357.294	-0.11
357.503	0
357.711	-0.02
357.92	0.11
358.128	0.04
358.337	-0.03
358.545	0
358.754	-0.02
358.962	-0
359.17	-0.01
359.379	-0.03
359.587	0.03
359.796	-0.01
360.004	0.02
360.212	0.03
360.421	0.03
360.629	-0.01
360.837	-0.05
361.046	0.04
361.254	0.11
361.462	-0.01
361.67	-0.03
361.879	-0.02
362.087	0.07
362.295	-0.01
362.503	-0.02
362.711	-0.08
362.92	-0.04
363.128	-0.03
363.336	-0.01
363.544	-0.02
363.752	-0.03
363.96	-0.04
364.168	-0.04
364.376	-0.05
364.584	-0
364.792	0.05
365	0.02
365.208	0.02
365.416	0.05
365.624	0.01
365.832	-0.05
366.04	0.03
366.248	0.02
366.456	0.02
366.664	0.01
366.872	-0.02
367.079	-0.04
367.287	-0.01
367.495	0.01
367.703	-0.01
367.911	-0.03
368.118	-0.01
368.326	-0.01
368.534	-0.03
368.742	0.11
368.949	-0.06
369.157	-0.03
369.365	0.06
369.572	-0.01
369.78	-0.04
369.988	0.03
370.195	-0
370.403	0.03
370.61	-0.02
370.818	0.01
371.026	0.07
371.233	-0.01
371.441	0.01
371.648	-0.03
371.856	0.04
372.063	0.04
372.271	-0.01
372.478	-0
372.685	-0.01
372.893	0.05
373.1	0.01
373.308	0.01
373.515	0.1
373.722	0.04
373.93	0.02
374.137	0.09
374.344	0.09
374.552	0.09
374.759	0.05
374.966	0.03
375.173	0.03
375.381	0.09
375.588	0.05
375.795	0.03
376.002	0.08
376.209	0.03
376.417	0.05
376.624	0.05
376.831	0.12
377.038	0.08
377.245	0.03
377.452	0.08
377.659	0.12
377.866	0.09
378.073	0.09
378.28	0.13
378.487	0.2
378.694	0.17
378.901	0.14
379.108	0.16
379.315	0.16
379.522	0.25
379.729	0.14
379.936	0.14
380.143	0.12
380.35	0.22
380.557	0.2
380.763	0.26
380.97	0.22
381.177	0.25
381.384	0.24
381.591	0.24
381.797	0.21
382.004	0.28
382.211	0.23
382.418	0.23
382.624	0.28
382.831	0.28
383.038	0.22
383.244	0.22
383.451	0.23
383.658	0.26
383.864	0.2
384.071	0.16
384.277	0.22
384.484	0.19
384.69	0.19
384.897	0.17
385.103	0.11
385.31	0.07
385.516	0.13
385.723	0.12
385.929	0.13
386.136	0.1
386.342	0.13
386.549	0.09
386.755	0.15
386.961	0.11
387.168	0.13
387.374	0.09
387.58	0.1
387.787	0.06
387.993	0.1
388.199	0.06
388.406	0.04
388.612	0.05
388.818	0.04
389.024	0.08
389.231	0.07
389.437	0.15
389.643	0.1
389.849	0.02
390.055	0.05
390.261	0.04
390.467	0.08
390.674	0.04
390.88	0.05
391.086	0.08
391.292	0.03
391.498	0.05
391.704	0.04
391.91	0.04
392.116	0.04
392.322	-0.08
392.528	0.07
392.734	0.04
392.94	0.05
393.146	0.02
393.352	0.05
393.557	0
393.763	-0.01
393.969	0.05
394.175	0.03
394.381	0.03
394.587	-0.05
394.792	-0.02
394.998	0.02
395.204	0.04
395.41	-0
395.615	0.05
395.821	0.01
396.027	0.03
396.233	-0.04
396.438	0.07
396.644	0.07
396.85	0.03
397.055	-0
397.261	0.03
397.466	0.01
397.672	-0.02
397.878	0.07
398.083	0.05
398.289	-0.02
398.494	0.05
398.7	0.03
398.905	-0.09
399.111	0.06
399.316	-0.06
399.522	0.06
399.727	-0.05
399.932	-0.03
400.138	-0.06
400.343	0.03
400.549	0.01
400.754	-0.02
400.959	0.06
401.165	0.01
401.37	0.06
401.575	0.07
401.78	0.02
401.986	-0.01
402.191	0.03
402.396	-0.04
402.601	0.02
402.807	0.01
403.012	-0.04
403.217	0.06
403.422	-0.01
403.627	-0.02
403.832	-0.01
404.037	0.04
404.243	0.04
404.448	-0.06
404.653	-0.02
404.858	0
405.063	0.06
405.268	-0.05
405.473	-0.06
405.678	-0.01
405.883	0.1
406.088	0.02
406.293	-0.03
406.498	-0
406.703	-0.01
406.907	0.02
407.112	-0.04
407.317	0.01
407.522	0.05
407.727	-0.03
407.932	0.01
408.136	0.1
408.341	-0.02
408.546	0.04
408.751	0.04
408.956	-0.09
409.16	-0
409.365	-0.02
409.57	-0.02
409.774	0.02
409.979	0.01
410.184	-0.01
410.388	-0.02
410.593	-0
410.798	0.03
411.002	-0.04
411.207	-0.01
411.411	0
411.616	-0.03
411.82	-0.05
412.025	0.01
412.229	-0.03
412.434	0.05
412.638	0.04
412.843	-0.01
413.047	0.01
413.252	-0.06
413.456	-0.04
413.66	0.03
413.865	-0.01
414.069	0.04
414.273	-0.02
414.478	-0.02
414.682	-0.04
414.886	-0.02
415.091	-0.03
415.295	-0.09
415.499	-0.03
415.703	-0.03
415.908	0.01
416.112	-0.11
416.316	0.03
416.52	-0.02
416.724	-0.1
416.929	-0.08
417.133	0.02
417.337	0
417.541	-0.05
417.745	-0
417.949	0.01
418.153	-0
418.357	-0.03
418.561	0.08
418.765	-0.02
418.969	0.09
419.173	0.01
419.377	-0.05
419.581	0.02
419.785	-0.01
419.989	-0.07
420.193	0
420.397	-0.02
420.601	-0
420.804	0.01
421.008	0.03
421.212	-0.01
421.416	0.01
421.62	-0.05
421.823	-0.07
422.027	0.07
422.231	-0.02
422.435	-0.02
422.638	0.01
422.842	-0
423.046	-0.05
423.249	0.04
423.453	0.02
423.657	0.03
423.86	-0.02
424.064	-0.05
424.268	0.03
424.471	0.02
424.675	0.05
424.878	0.05
425.082	-0.01
425.285	0.03
425.489	0.02
425.692	0.02
425.896	-0.09
426.099	0.03
426.303	-0.04
426.506	-0.04
426.71	0.02
426.913	0.06
427.116	0.05
427.32	-0
427.523	-0.03
427.726	0.04
427.93	-0.08
428.133	0
428.336	-0.03
428.54	-0.09
428.743	-0.01
428.946	-0.01
429.149	-0.04
429.353	0.01
429.556	0.01
429.759	0.01
429.962	-0.1
430.165	-0.01
430.368	-0.05
430.571	-0.01
430.775	-0.01
430.978	-0.02
431.181	0.03
431.384	0.01
431.587	-0.01
431.79	-0.02
431.993	0
432.196	-0.03
432.399	-0.01
432.602	0.04
432.805	0.01
433.008	-0.02
433.211	-0.08
433.414	0.01
433.616	0.01
433.819	-0
434.022	-0.07
434.225	0.06
434.428	0.05
434.631	0.09
434.833	0.02
435.036	-0.01
435.239	0.06
435.442	-0.02
435.645	-0.01
435.847	0.02
436.05	0.08
436.253	0
436.455	-0.04
436.658	-0
436.861	0.09
437.063	0.01
437.266	-0.07
437.468	0.02
437.671	0.11
437.874	0.01
438.076	-0
438.279	-0.06
438.481	0.01
438.684	-0.03
438.886	0.02
439.089	-0.02
439.291	-0.01
439.494	0.06
439.696	-0.02
439.899	-0.05
440.101	0.02
440.303	-0.05
440.506	0.04
440.708	0.03
440.91	0.01
441.113	-0.02
441.315	0.04
441.517	-0.02
441.72	0.08
441.922	0.01
442.124	-0.02
442.326	0.01
442.529	0.07
442.731	-0.02
442.933	0.1
443.135	-0.02
443.337	-0
443.539	0.02
443.742	-0.01
443.944	0.09
444.146	0.03
444.348	0
444.55	0.04
444.752	0.01
444.954	-0.01
445.156	0.05
445.358	-0.03
445.56	0.09
445.762	0.06
445.964	0.02
446.166	-0.02
446.368	-0.01
446.57	0.12
446.772	0.08
446.974	0.02
447.175	0.06
447.377	0.04
447.579	0.03
447.781	-0.04
447.983	0.13
448.184	0.06
448.386	0.05
448.588	0.01
448.79	0.08
448.991	0.02
449.193	0.06
449.395	0.04
449.597	0.08
449.798	0.05
450	0.06
450.202	0.07
450.403	0.07
450.605	0.08
450.806	0.05
451.008	-0
451.21	0.06
451.411	0.04
451.613	0.03
451.814	0.06
452.016	0.06
452.217	0.07
452.419	0.06
452.62	0.02
452.821	0.07
453.023	0.11
453.224	0.08
453.426	0.02
453.627	0.06
453.828	0.08
454.03	0.03
454.231	0.09
454.432	-0.02
454.634	0.1
454.835	0.01
455.036	0.01
455.238	0.08
455.439	0.13
455.64	-0
455.841	-0.03
456.042	0.13
456.244	0.04
456.445	-0.01
456.646	-0.04
456.847	0.05
457.048	0.05
457.249	0.05
457.45	0.2
457.651	-0.04
457.852	0.1
458.054	0.05
458.255	0.01
458.456	0.05
458.657	0.03
458.858	-0.02
459.058	0.03
459.259	0.04
459.46	0.05
459.661	-0.02
459.862	0.11
460.063	-0
460.264	0.04
460.465	-0.03
460.666	0.07
460.866	0
461.067	0
461.268	0.03
461.469	0.01
461.67	0.02
461.87	-0
462.071	-0.03
462.272	-0.02
462.473	0
462.673	0.07
462.874	-0.04
463.075	0.01
463.275	-0.06
463.476	-0.01
463.676	0.01
463.877	0.02
464.078	-0.05
464.278	0
464.479	0.01
464.679	0.01
464.88	-0
465.08	0.03
465.281	-0.04
465.481	-0.04
465.682	0.06
465.882	0.02
466.083	0.01
466.283	-0.02
466.483	0
466.684	-0.02
466.884	-0.01
467.085	0.01
467.285	0.01
467.485	-0.04
467.686	-0.03
467.886	-0.04
468.086	-0
468.286	0.04
468.487	0.04
468.687	-0.05
468.887	-0.02
469.087	0.04
469.287	0.01
469.488	-0.06
469.688	0.04
469.888	0.04
470.088	0.04
470.288	0.06
470.488	-0
470.688	-0.05
470.888	0
471.088	-0.04
471.288	0.05
471.488	-0.01
471.688	-0.03
471.888	0
472.088	0.06
472.288	0.05
472.488	-0.07
472.688	-0.05
472.888	-0.01
473.088	-0
473.288	-0
473.488	-0.01
473.688	0.07
473.887	0.01
474.087	-0.02
474.287	0.02
474.487	-0.03
474.687	0.01
474.886	-0.03
475.086	-0.01
475.286	-0.02
475.486	-0.02
475.685	0.03
475.885	-0.04
476.085	-0.03
476.284	0
476.484	-0.02
476.684	0.01
476.883	0.02
477.083	-0.01
477.282	-0.05
477.482	0.05
477.681	0.05
477.881	0.01
478.08	-0.05
478.28	-0.05
478.479	0.03
478.679	0.02
478.878	0
479.078	-0.04
479.277	-0.01
479.477	-0
479.676	0.02
479.875	-0.02
480.075	-0.07
480.274	0.05
480.473	0
480.673	-0.02
480.872	0.03
481.071	-0.01
481.271	-0.02
481.47	-0
481.669	-0
481.868	-0.02
482.067	-0.04
482.267	-0.03
482.466	-0.03
482.665	-0.04
482.864	-0.06
483.063	-0.03
483.262	0.03
483.461	0.05
483.661	0.01
483.86	-0.01
484.059	-0.01
484.258	0
484.457	-0.02
484.656	0.01
484.855	-0.01
485.054	-0.03
485.253	-0.05
485.452	-0.05
485.651	-0
485.849	0.01
486.048	-0.02
486.247	-0.02
486.446	0
486.645	-0.06
486.844	-0.04
487.043	-0.02
487.241	0.03
487.44	-0.01
487.639	-0.03
487.838	0
488.037	0.02
488.235	0.04
488.434	-0
488.633	-0.03
488.831	0
489.03	0.02
489.229	-0.02
489.427	0
489.626	0.05
489.825	0.03
490.023	-0.02
490.222	-0.03
490.42	0.01
490.619	0.02
490.817	0.01
491.016	-0
491.214	0.04
491.413	0
491.611	-0.02
491.81	-0.02
492.008	0.02
492.207	0.02
492.405	0.01
492.604	-0.02
492.802	-0.02
493	-0.01
493.199	-0.02
493.397	0.01
493.595	-0
493.794	-0.03
493.992	0.03
494.19	0.01
494.388	0.03
494.587	-0.01
494.785	-0.01
494.983	-0.05
495.181	0.01
495.379	-0
495.578	-0.03
495.776	0.02
495.974	0.02
496.172	-0.03
496.37	-0.01
496.568	-0.05
496.766	-0.03
496.964	0.01
497.162	-0.02
497.36	-0.04
497.558	0.03
497.756	0.03
497.954	0
498.152	-0.02
498.35	-0.01
498.548	-0.02
498.746	-0.01
498.944	-0.05
499.142	-0.02
499.34	-0.02
499.538	-0.02
499.736	-0.03
499.933	0.01
500.131	0.02
500.329	-0.02
500.527	0.01
500.725	0.01
500.922	0.02
501.12	0
501.318	0
501.516	-0.04
501.713	-0.01
501.911	0
502.109	-0.03
502.306	0.01
502.504	-0.02
502.701	-0.03
502.899	-0.02
503.097	0.04
503.294	-0
503.492	-0.01
503.689	0.02
503.887	0.03
504.084	0.03
504.282	0
504.479	-0.04
504.677	-0.01
504.874	-0.01
505.072	-0.01
505.269	-0.02
505.466	0
505.664	0.01
505.861	-0.05
506.059	-0.03
506.256	0
506.453	-0.01
506.651	0.03
506.848	0.03
507.045	-0.02
507.242	-0.01
507.44	-0.03
507.637	-0
507.834	-0.01
508.031	0
508.229	-0.04
508.426	-0.02
508.623	0.01
508.82	-0.03
509.017	-0.05
509.214	-0
509.411	-0.01
509.608	-0.03
509.805	-0.01
510.003	-0.01
510.2	-0.04
510.397	0.02
510.594	-0.04
510.791	-0.03
510.988	-0.02
511.184	0.03
511.381	-0
511.578	-0.03
511.775	0.01
511.972	-0.02
512.169	-0.01
512.366	-0.01
512.563	0.02
512.76	-0
512.956	0.01
513.153	-0
513.35	0.01
513.547	-0.01
513.744	-0.03
513.94	-0.04
514.137	0.01
514.334	-0.01
514.53	0
514.727	0.01
514.924	0.04
515.12	-0.03
515.317	-0.06
515.514	-0.04
515.71	-0.03
515.907	0
516.103	-0
516.3	-0
516.497	0.02
516.693	0.03
516.89	-0
517.086	-0.03
517.283	0.04
517.479	-0.02
517.676	-0
517.872	-0.01
518.068	-0.02
518.265	-0.02
518.461	-0.02
518.658	-0.04
518.854	-0.01
519.05	-0.03
519.247	-0.03
519.443	-0
519.639	0.01
519.836	0
520.032	-0
520.228	-0
520.424	0.04
520.621	0
520.817	-0.03
521.013	0.01
521.209	0.01
521.405	0.03
521.601	0.03
521.798	-0
521.994	0.05
522.19	-0.01
522.386	-0.05
522.582	-0.02
522.778	0
522.974	-0.01
523.17	-0.01
523.366	0.01
523.562	0.02
523.758	0
523.954	-0.02
524.15	-0.02
524.346	0
524.542	-0.03
524.738	-0.02
524.934	-0
525.129	-0.07
525.325	-0.01
525.521	-0
525.717	0.02
525.913	0
526.109	-0.02
526.304	-0.01
526.5	-0.01
526.696	0.01
526.892	-0
527.087	0
527.283	-0.03
527.479	-0.01
527.674	0
527.87	-0
528.066	0
528.261	-0
528.457	-0.01
528.653	-0.02
528.848	-0.04
529.044	-0.01
529.239	-0.01
529.435	0.04
529.63	0
529.826	0.03
530.021	0.01
530.217	0.01
530.412	0
530.608	-0.02
530.803	-0.02
530.999	-0.01
531.194	-0.03
531.389	-0.01
531.585	-0.05
531.78	-0.02
531.975	-0.01
532.171	0.02
532.366	-0.01
532.561	-0.02
532.757	-0.03
532.952	-0.01
533.147	0.01
533.342	-0
533.538	-0.03
533.733	-0.01
533.928	-0.01
534.123	-0.01
534.318	-0.03
534.513	-0.01
534.709	0
534.904	-0.02
535.099	-0.02
535.294	-0.02
535.489	-0
535.684	-0.02
535.879	-0.02
536.074	-0.01
536.269	-0.02
536.464	0.02
536.659	-0.01
536.854	-0.03
537.049	0
537.244	0.03
537.439	-0.03
537.634	0.02
537.828	-0.02
538.023	0
538.218	-0.05
538.413	0.01
538.608	-0.04
538.803	0
538.997	-0.04
539.192	0.02
539.387	0.03
539.582	-0.01
539.776	-0.02
539.971	-0.04
540.166	-0.02
540.36	-0.05
540.555	-0.01
540.75	-0.03
540.944	0
541.139	-0.04
541.334	-0
541.528	-0.01
541.723	0.02
541.917	-0.02
542.112	-0.04
542.306	-0.01
542.501	-0.01
542.695	-0
542.89	-0.02
543.084	0.02
543.279	-0.01
543.473	-0.03
543.668	-0
543.862	-0.01
544.056	-0
544.251	-0.03
544.445	-0.02
544.64	-0.01
544.834	-0.04
545.028	0.01
545.222	0.02
545.417	0.02
545.611	0
545.805	-0.01
546	-0.02
546.194	-0.02
546.388	-0.03
546.582	0.01
546.776	-0.01
546.97	0.01
547.165	0
547.359	0
547.553	-0.03
547.747	0.01
547.941	-0.01
548.135	-0.01
548.329	0.01
548.523	0
548.717	-0.01
548.911	-0.03
549.105	-0
549.299	0
549.493	0.01
549.687	0.01
549.881	0.01
550.075	0.01
550.269	-0.02
550.463	0.01
550.657	-0.04
550.85	-0.02
551.044	-0.02
551.238	-0.01
551.432	-0.02
551.626	-0.02
551.82	-0
552.013	-0.02
552.207	0.01
552.401	-0
552.594	-0
552.788	-0.02
552.982	0.01
553.176	-0.03
553.369	0.01
553.563	0.02
553.756	-0.05
553.95	-0.02
554.144	0.01
554.337	0.01
554.531	-0
554.724	-0.01
554.918	-0.01
555.111	0
555.305	-0
555.498	0.03
555.692	0.03
555.885	-0.03
556.079	0.01
556.272	-0.01
556.466	0.01
556.659	0.01
556.852	0
557.046	-0.01
557.239	0.01
557.432	-0
557.626	-0.02
557.819	-0.01
558.012	0.03
558.206	0
558.399	-0
558.592	-0.02
558.785	-0.01
558.979	0.02
559.172	0.01
559.365	0
559.558	0
559.751	-0.01
559.944	0.02
560.138	0
560.331	-0.02
560.524	0
560.717	-0.01
560.91	-0.01
561.103	0.01
561.296	0
561.489	0
561.682	-0.01
561.875	0.02
562.068	0
562.261	-0
562.454	0
562.647	0.01
562.84	-0
563.032	0
563.225	-0.01
563.418	-0.01
563.611	-0.03
563.804	-0.01
563.997	-0.04
564.19	-0.01
564.382	0.01
564.575	-0.01
564.768	0
564.961	-0.01
565.153	-0.02
565.346	0.01
565.539	0.02
565.731	0
565.924	0.02
566.117	0.01
566.309	-0.01
566.502	-0.01
566.695	0
566.887	-0.02
567.08	-0.03
567.272	-0.02
567.465	-0.04
567.657	0.01
567.85	0.01
568.042	-0.01
568.235	0.02
568.427	-0.01
568.62	-0
568.812	-0
569.005	0.02
569.197	-0.04
569.389	-0
569.582	0.01
569.774	0.01
569.966	-0.06
570.159	-0.05
570.351	0.01
570.543	-0.02
570.736	-0.03
570.928	-0.03
571.12	-0
571.312	-0.01
571.505	-0.03
571.697	0.03
571.889	-0.04
572.081	-0.03
572.273	-0.02
572.465	0.01
572.658	-0.02
572.85	0.01
573.042	-0.02
573.234	0.01
573.426	0.03
573.618	-0.05
573.81	-0.01
574.002	0.02
574.194	0.03
574.386	-0.03
574.578	-0.08
574.77	-0.04
574.962	-0.04
575.154	-0.04
575.346	-0.01
575.538	0
575.729	-0.02
575.921	-0.04
576.113	-0.03
576.305	0.03
576.497	-0.02
576.689	-0
576.88	-0.02
577.072	0.02
577.264	-0.04
577.456	-0.02
577.647	-0.08
577.839	-0.02
578.031	0.04
578.223	-0.05
578.414	-0.06
578.606	0.03
578.798	0
578.989	-0.02
579.181	-0
579.372	-0.01
579.564	-0.01
579.755	-0.02
579.947	0
580.139	0.01
580.33	-0.05
580.522	-0.02
580.713	-0.11
580.905	-0.02
581.096	0.01
581.287	-0.02
581.479	-0.01
581.67	0.01
581.862	-0
582.053	-0.03
582.244	-0.06
582.436	-0.02
582.627	-0.02
582.818	-0.04
583.01	-0.06
583.201	-0.01
583.392	-0
583.583	-0
583.775	-0.03
583.966	-0.01
584.157	-0.01
584.348	-0.03
584.54	-0.05
584.731	-0.02
584.922	-0
585.113	-0.04
585.304	0.02
585.495	0.01
585.686	-0.02
585.877	-0.01
586.068	-0
586.259	0
586.45	-0.02
586.641	-0.03
586.832	-0.05
587.023	-0.02
587.214	-0.04
587.405	-0.02
587.596	-0.05
587.787	0.01
587.978	0
588.169	-0.05
588.36	-0.05
588.551	0.01
588.742	-0.03
588.932	-0.01
589.123	-0.04
589.314	0.03
589.505	-0
589.696	-0.01
589.886	-0.05
590.077	-0.07
590.268	0.01
590.458	-0.03
590.649	-0.05
590.84	0.01
591.03	-0.03
591.221	-0.04
591.412	-0.06
591.602	-0.02
591.793	0.03
591.984	-0.04
592.174	-0.02
592.365	0.04
592.555	-0.04
592.746	-0.02
592.936	0.03
593.127	0.01
593.317	-0.01
593.508	-0.03
593.698	-0.03
593.889	-0.03
594.079	-0.01
594.269	-0.02
594.46	-0.02
594.65	0
594.84	-0.03
595.031	-0.04
595.221	-0.03
595.411	-0.05
595.602	0.02
595.792	-0.02
595.982	-0.01
596.172	0.02
596.363	-0.01
596.553	-0.02
596.743	-0.02
596.933	-0
597.123	0.04
597.314	-0.06
597.504	-0.04
597.694	0.05
597.884	0
598.074	0.01
598.264	-0.06
598.454	-0.01
598.644	-0.01
598.834	-0.01
599.024	-0.08
599.214	-0.02
599.404	0.03
599.594	-0.03
599.784	-0.03
599.974	0.01
600.164	0
600.354	-0.03
600.544	-0.04
600.734	-0
600.924	0.01
601.114	-0.04
601.303	-0.02
601.493	-0.03
601.683	-0.03
601.873	-0.02
602.063	-0.07
602.252	0.04
602.442	-0.07
602.632	-0.06
602.821	-0.04
603.011	0.01
603.201	-0.04
603.39	-0.05
603.58	-0.03
603.77	0.02
603.959	0.02
604.149	-0.01
604.339	-0.01
604.528	0
604.718	0.03
604.907	-0.01
605.097	-0.01
605.286	0.01
605.476	-0
605.665	0.02
605.855	-0.02
606.044	0.02
606.234	0.01
606.423	-0
606.612	-0.03
606.802	0.01
606.991	0.01
607.181	-0.01
607.37	-0.04
607.559	-0.03
607.749	-0.07
607.938	-0.02
608.127	-0.01
608.316	-0.03
608.506	-0.02
608.695	-0.02
608.884	-0.04
609.073	-0.03
609.263	0.02
609.452	0.02
609.641	-0.02
609.83	-0.06
610.019	-0.04
610.208	-0.04
610.397	-0
610.586	-0.01
610.775	-0.01
610.965	-0.02
611.154	-0.05
611.343	-0.03
611.532	0
611.721	-0.02
611.91	-0.01
612.099	0
612.287	-0.03
612.476	-0.04
612.665	0.01
612.854	-0.04
613.043	0
613.232	-0.01
613.421	-0.04
613.61	0.01
613.798	-0.03
613.987	0.01
614.176	-0.02
614.365	0.05
614.554	0
614.742	0.02
614.931	-0.01
615.12	0.02
615.309	0
615.497	-0.02
615.686	-0.03
615.875	-0.01
616.063	-0.01
616.252	-0.04
616.44	-0.02
616.629	0.02
616.818	0.03
617.006	-0.02
617.195	-0.01
617.383	0
617.572	-0
617.76	-0
617.949	-0.04
618.137	-0
618.326	0.05
618.514	-0.04
618.703	-0.02
618.891	0.02
619.079	-0.09
619.268	0.04
619.456	-0.03
619.644	0.05
619.833	0
620.021	-0.02
620.209	-0.04
620.398	-0.02
620.586	-0.03
620.774	-0.01
620.962	-0.03
621.151	0.04
621.339	0.01
621.527	-0.04
621.715	-0.03
621.903	-0.02
622.092	-0.05
622.28	0.01
622.468	-0.03
622.656	0.01
622.844	0.04
623.032	-0.01
623.22	-0.07
623.408	0
623.596	0.02
623.784	-0.02
623.972	-0.03
624.16	-0.02
624.348	0.03
624.536	0.01
624.724	-0.03
624.912	0.01
625.1	0.04
625.288	-0.02
625.476	-0.03
625.664	0.04
625.851	-0.04
626.039	-0.04
626.227	0
626.415	-0
626.603	-0.06
626.79	0.02
626.978	-0.03
627.166	-0.01
627.354	0
627.541	-0.04
627.729	-0.05
627.917	0
628.104	0.01
628.292	0.02
628.48	-0.01
628.667	0
628.855	0
629.042	0.02
629.23	-0
629.418	0.01
629.605	-0.01
629.793	-0.03
629.98	-0.04
630.168	-0.02
630.355	-0.02
630.543	-0.01
630.73	-0.01
630.917	0.03
631.105	0.05
631.292	-0.04
631.48	-0.03
631.667	0.07
631.854	-0.03
632.042	-0.04
632.229	-0.06
632.416	0.01
632.604	-0.02
632.791	-0.03
632.978	0.02
633.165	0.02
633.353	0.06
633.54	0.03
633.727	-0.03
633.914	-0.03
634.101	-0.06
634.289	0.06
634.476	-0.03
634.663	-0.02
634.85	0.03
635.037	-0.02
635.224	-0.05
635.411	0.03
635.598	0.04
635.785	-0.03
635.972	0
636.159	0.05
636.346	-0
636.533	0.02
636.72	-0
636.907	0.02
637.094	0.03
637.281	-0.01
637.468	0.02
637.655	0.01
637.842	-0.01
638.029	0.01
638.215	0.02
638.402	0.02
638.589	0
638.776	-0.02
638.963	-0.02
639.149	0.05
639.336	0.03
639.523	-0.02
639.709	0.03
639.896	-0.01
640.083	0.05
640.27	0.06
640.456	0.01
640.643	0.04
640.829	-0.03
641.016	0.01
641.203	-0.03
641.389	0.04
641.576	0.03
641.762	-0.01
641.949	-0.01
642.135	0
642.322	0.03
642.508	-0.03
642.695	0.01
642.881	-0.05
643.068	-0.02
643.254	0
643.441	0.06
643.627	0.01
643.813	-0
644	0.04
644.186	-0.02
644.372	0.04
644.559	0.05
644.745	0.01
644.931	0.01
645.118	0.01
645.304	0.01
645.49	-0.01
645.676	0.01
645.862	0.03
646.049	0.07
646.235	0.01
646.421	0.13
646.607	0.07
646.793	0.03
646.979	0.01
647.165	0.06
647.352	0.07
647.538	0.1
647.724	0.03
647.91	0.05
648.096	0.08
648.282	0.06
648.468	0.03
648.654	0.04
648.84	0.04
649.026	0.02
649.212	0.05
649.397	0.04
649.583	-0.01
649.769	0.06
649.955	0.05
650.141	0.07
650.327	0.08
650.513	0.02
650.698	0.09
650.884	-0.02
651.07	0.06
651.256	0.05
651.442	0.05
651.627	0.04
651.813	0.02
651.999	0.03
652.184	0.08
652.37	0.07
652.556	0.06
652.741	0.12
652.927	-0.02
653.113	0.06
653.298	0.09
653.484	0.07
653.669	0.03
653.855	0.03
654.04	0.09
654.226	0.07
654.412	0.05
654.597	0.03
654.782	0.09
654.968	0.1
655.153	0.07
655.339	0.08
655.524	0.03
655.71	0.09
655.895	0.06
656.08	0.04
656.266	0.13
656.451	0.09
656.636	0.04
656.822	0.11
657.007	0.03
657.192	0.07
657.378	0.04
657.563	0.09
657.748	0.13
657.933	0.08
658.118	0.08
658.304	0.07
658.489	0.14
658.674	0.12
658.859	0.08
659.044	0.11
659.229	0.13
659.414	0.08
659.599	0.1
659.785	0.05
659.97	0.09
660.155	0.1
660.34	0.09
660.525	0.11
660.71	0.06
660.895	0.12
661.08	0.07
661.264	0.07
661.449	0.14
661.634	0.14
661.819	0.1
662.004	0.12
662.189	0.03
662.374	0.03
662.559	0.04
662.743	0.02
662.928	0.05
663.113	0.03
663.298	-0.02
663.483	0.07
663.667	0.08
663.852	0.03
664.037	0.11
664.221	0.03
664.406	0.06
664.591	0.06
664.775	0.03
664.96	-0.01
665.145	0.03
665.329	0.04
665.514	0.03
665.698	0.04
665.883	-0.01
666.068	0.08
666.252	0.05
666.437	-0.01
666.621	0.04
666.806	0.06
666.99	0.01
667.174	-0.03
667.359	0.08
667.543	-0.01
667.728	0.01
667.912	-0.04
668.096	0.01
668.281	-0.02
668.465	0.02
668.649	0.06
668.834	-0.01
669.018	-0.03
669.202	-0.03
669.387	-0.01
669.571	0.05
669.755	-0.07
669.939	-0.01
670.124	-0
670.308	0.02
670.492	0.04
670.676	-0.01
670.86	-0.01
671.044	-0.03
671.228	0.05
671.413	-0.04
671.597	-0.05
671.781	-0.05
671.965	0.01
672.149	-0.04
672.333	-0.03
672.517	-0.02
672.701	0
672.885	-0.02
673.069	-0.09
673.253	0.06
673.437	0.03
673.621	-0.03
673.804	0.01
673.988	-0
674.172	0.01
674.356	-0.06
674.54	-0.02
674.724	0.06
674.908	-0.04
675.091	-0.01
675.275	-0.03
675.459	0.03
675.643	-0.01
675.826	0.01
676.01	-0.03
676.194	-0
676.377	0.03
676.561	0.01
676.745	0.01
676.928	-0.01
677.112	0.01
677.296	-0.04
677.479	-0.06
677.663	-0.01
677.846	-0.05
678.03	-0.04
678.213	-0.02
678.397	0.02
678.58	-0.02
678.764	-0.04
678.947	-0.06
679.131	-0.03
679.314	-0
679.498	-0.04
679.681	-0
679.865	0.04
680.048	-0.01
680.231	-0
680.415	-0
680.598	-0.04
680.781	-0.03
680.965	-0.03
681.148	0
681.331	-0.03
681.514	0.04
681.698	-0.04
681.881	-0.01
682.064	-0.04
682.247	-0.04
682.43	-0.08
682.614	0.04
682.797	0.02
682.98	0.01
683.163	-0.04
683.346	-0
683.529	-0.02
683.712	-0.04
683.895	0.02
684.078	-0.09
684.261	0.01
684.444	0.01
684.627	0.05
684.81	-0.05
684.993	-0.01
685.176	0.05
685.359	-0.07
685.542	-0.05
685.725	0.01
685.908	-0.01
686.091	-0.02
686.274	0.02
686.457	-0.02
686.639	-0.01
686.822	0.04
687.005	-0.03
687.188	0
687.371	0.09
687.553	-0.01
687.736	0
687.919	0.05
688.102	0.01
688.284	-0.02
688.467	0
688.65	-0.04
688.832	-0.05
689.015	-0.03
689.197	-0.06
689.38	0.04
689.563	0.06
689.745	-0.05
689.928	-0.05
690.11	-0.04
690.293	-0.02
690.475	-0.13
690.658	0.01
690.84	-0.02
691.023	-0.04
691.205	-0.09
691.388	-0
691.57	0.03
691.752	0.01
691.935	-0.14
692.117	-0.07
692.3	0.03
692.482	0.01
692.664	-0.03
692.847	0.01
693.029	0.05
693.211	-0.01
693.393	-0.02
693.576	-0.01
693.758	0.01
693.94	-0.03
694.122	-0.04
694.304	-0.01
694.487	-0
694.669	0.02
694.851	-0.13
695.033	-0.01
695.215	-0.04
695.397	-0.04
695.579	-0
695.761	-0.06
695.943	-0.07
696.125	0.04
696.308	-0
696.49	-0.12
696.671	0.11
696.853	-0.04
697.035	0.1
697.217	-0.01
697.399	-0.01
697.581	-0.05
697.763	-0.03
697.945	-0.06
698.127	-0.02
698.309	0.04
698.491	-0.01
698.672	-0.02
698.854	0.03
699.036	0.08
699.218	-0.04
699.399	0.03
699.581	0.03
699.763	-0.05
699.945	-0.05
700.126	-0.09
700.308	0.02
700.49	-0
700.671	-0.06
700.853	-0.02
701.035	-0.09
701.216	-0.01
701.398	-0.06
701.579	-0.04
701.761	0
701.943	-0.05
702.124	-0.01
702.306	-0.04
702.487	0.07
702.669	-0.04
702.85	-0.1
703.031	-0.07
703.213	0.05
703.394	0.02
703.576	-0.05
703.757	0.04
703.938	0.05
704.12	0.13
704.301	-0.02
704.483	-0.01
704.664	-0.04
704.845	0.1
705.026	0.02
705.208	-0.06
705.389	0.04
705.57	-0.01
705.751	0.01
705.933	-0.01
706.114	0.05
706.295	-0.02
706.476	-0.12
706.657	0.03
706.838	0.02
707.02	0.05
707.201	-0.03
707.382	-0.06
707.563	0.06
707.744	-0.03
707.925	-0.05
708.106	-0.07
708.287	0.04
708.468	0
708.649	-0.02
708.83	0.05
709.011	0.02
709.192	0
709.373	-0.1
709.554	-0.03
709.734	0.05
709.915	0.07
710.096	0.01
710.277	-0.13
710.458	0.01
710.639	0.07
710.819	-0.08
711	-0.02
711.181	0.04
711.362	0.03
711.542	0.01
711.723	-0.03
711.904	0.03
712.085	0.03
712.265	0.02
712.446	-0.01
712.627	-0.01
712.807	-0.07
712.988	-0.06
713.168	-0.1
713.349	-0.05
713.53	-0.12
713.71	-0.1
713.891	-0.08
714.071	-0.04
714.252	-0.02
714.432	-0.09
714.613	-0.15
714.793	0.02
714.974	0.15
715.154	0.07
715.334	0.07
715.515	0.12
715.695	-0.09
715.876	0.07
716.056	-0.01
716.236	0.02
716.417	-0.06
716.597	-0.04
716.777	0.13
716.957	0.04
717.138	0.02
717.318	-0.03
717.498	-0.03
717.678	-0.02
717.859	0.02
718.039	-0.07
718.219	0.03
718.399	0.09
718.579	-0.07
718.759	-0.07
718.939	0.02
719.12	0.04
719.3	0.06
719.48	-0.08
719.66	-0.06
719.84	0.12
720.02	0.06
720.2	-0.05
720.38	0.1
720.56	0.14
720.74	-0.01
720.92	0.02
721.1	0.07
721.279	0.06
721.459	0.01
721.639	-0.08
721.819	0.06
721.999	-0.02
722.179	-0
722.359	-0.12
722.538	-0.05
722.718	0.01
722.898	-0.05
723.078	-0.03
723.257	0.01
723.437	-0.03
723.617	0.13
723.797	-0.02
723.976	0.02
724.156	0.01
724.336	0.1
724.515	0.15
724.695	-0.02
724.874	0.02
725.054	0.08
725.234	-0.03
725.413	0.04
725.593	0.03
725.772	-0.02
725.952	-0.05
726.131	-0.01
726.311	0.01
726.49	-0.01
726.67	-0.06
726.849	0
727.028	0.04
727.208	0.12
727.387	0.09
727.567	-0.05
727.746	0.05
727.925	0
728.105	-0.03
728.284	-0.02
728.463	-0.08
728.643	0.05
728.822	-0.08
729.001	0.02
729.18	0.11
729.359	0.13
729.539	0.05
729.718	0.01
729.897	0.13
730.076	0
730.255	0
730.434	0.02
730.614	0.14
730.793	0.11
730.972	0.05
731.151	0.08
731.33	0.09
731.509	0.06
731.688	0.1
731.867	0.06
732.046	-0.12
732.225	0.17
732.404	0.11
732.583	-0.03
732.762	0.08
732.941	0.15
733.12	0.1
733.298	-0.08
733.477	0.17
733.656	0.12
733.835	-0.07
734.014	0.13
734.193	-0.06
734.371	0.09
734.55	0.15
734.729	0.02
734.908	0.16
735.086	0.01
735.265	0.22
735.444	-0.06
735.623	-0.03
735.801	-0.04
735.98	0.04
736.159	0.1
736.337	0.12
736.516	0.01
736.694	0.06
736.873	0.06
737.052	0.19
737.23	0.17
737.409	0.06
737.587	0.12
737.766	-0.04
737.944	0.11
738.123	0.09
738.301	0.16
738.479	0.02
738.658	0.12
738.836	-0.14
739.015	0.06
739.193	0.17
739.371	-0.12
739.55	-0.02
739.728	0
739.906	0.03
740.085	0.13
740.263	0.05
740.441	-0.09
740.62	0.22
740.798	0.11
740.976	0.05
741.154	-0.05
741.332	0.14
741.511	0.05
741.689	0.17
741.867	0.23
742.045	0.09
742.223	-0.01
742.401	-0.03
742.579	-0.07
742.757	0.04
742.935	-0.05
743.114	0.06
743.292	0.03
743.47	0.11
743.648	0.08
743.826	-0.17
744.004	0.17
744.181	0.17
744.359	-0.05
744.537	0.01
744.715	0.02
744.893	0.01
745.071	-0.04
745.249	-0.02
745.427	0
745.605	0.08
745.782	0
745.96	0.18
746.138	0.02
746.316	0.12
746.493	-0.12
746.671	-0.02
746.849	-0.01
747.027	0.16
747.204	-0.08
747.382	0.12
747.56	-0.12
747.737	0.08
747.915	-0.07
748.093	0.02
748.27	-0.06
748.448	-0.11
748.625	-0.14
748.803	0.02
748.98	-0.02
749.158	0.04
749.335	0.11
749.513	-0.04
749.69	0.03
749.868	-0.09
750.045	-0.01
750.223	-0.04
750.4	-0.23
750.578	0.18
750.755	0.05
750.932	-0.13
751.11	0.1
751.287	-0.11
751.464	0.07
751.642	-0.13
751.819	-0.08
751.996	-0.07
752.173	-0.09
752.351	-0.21
752.528	-0.02
752.705	-0.07
752.882	-0.1
753.06	0.01
753.237	0.05
753.414	0.16
753.591	0.18
753.768	0.01
753.945	-0.04
754.122	-0.16
754.299	-0.04
754.476	-0.12
754.654	-0.04
754.831	0.05
755.008	-0.03
755.185	0.02
755.362	-0.14
755.539	0.01
755.716	-0.18
755.892	0.04
756.069	-0.02
756.246	-0.09
756.423	-0.1
756.6	0.04
756.777	-0.01
756.954	0.12
757.131	-0.05
757.307	-0.1
757.484	-0.14
757.661	-0.03
757.838	-0.03
758.015	-0.2
758.191	0.13
758.368	-0.03
758.545	0.09
758.721	-0.01
758.898	-0.12
759.075	-0.02
759.251	0.06
759.428	0.04
759.605	-0.22
759.781	-0.07
759.958	0.03
760.134	-0.01
760.311	-0.07
760.488	0.04
760.664	0.25
760.841	-0.05
761.017	-0.16
761.194	0.03
761.37	0.02
761.547	-0
761.723	-0.05
761.899	0.09
762.076	-0.13
762.252	-0.25
762.429	-0.07
762.605	0.08
762.781	-0.08
762.958	0.11
763.134	-0.03
763.31	-0.22
763.486	0.01
763.663	-0.27
763.839	-0.02
764.015	-0.21
764.191	-0.19
764.368	-0.13
764.544	-0.28
764.72	0.03
764.896	0.01
765.072	-0.08
765.248	-0.03
765.425	-0.05
765.601	-0.07
765.777	0.04
765.953	-0.34
766.129	-0.07
766.305	-0.1
766.481	-0.03
766.657	-0.06
766.833	0.09
767.009	-0.12
767.185	-0.04
767.361	-0.11
767.537	-0.23
767.713	0.01
767.889	-0.1
768.065	0.05
768.24	-0.25
768.416	-0.05
768.592	0.03
768.768	-0.05
768.944	-0
769.12	-0.16
769.295	-0.12
769.471	-0.12
769.647	-0.1
769.823	0.15
769.998	-0.24
770.174	-0.09
770.35	0.36
770.525	0.33
770.701	0.06
770.877	-0.06
771.052	-0.08
771.228	-0.06
771.403	0.02
771.579	0.07
771.755	0.3
771.93	-0.07
772.106	-0.26
772.281	-0.14
772.457	0.02
772.632	0.01
772.808	-0.08
772.983	-0.09
773.159	-0.27
773.334	0.05
773.509	-0.03
773.685	-0.05
773.86	0.29
774.036	0.21
774.211	0.02
774.386	-0.12
774.562	-0.01
774.737	-0.17
774.912	-0.15
775.087	-0.09
775.263	0.02
775.438	-0.02
775.613	-0.13
775.788	-0.03
775.964	0.08
776.139	0.2
776.314	-0.28
776.489	0.11
776.664	-0.07
776.839	-0.21
777.014	0.1
777.19	0.08
777.365	0.04
777.54	0.06
777.715	-0.21
777.89	-0
778.065	-0.19
778.24	-0
778.415	0.08
778.59	-0.31
778.765	-0.15
778.94	0.01
779.115	-0.16
779.289	-0.09
779.464	-0.04
779.639	-0.06
779.814	-0.27
779.989	-0.07
780.164	0.24
780.339	-0.05
780.513	-0.14
780.688	-0.11
780.863	0.05
781.038	0.12
781.212	-0.14
781.387	-0.1
781.562	0.09
781.737	0.02
781.911	0.29
782.086	0.02
782.261	-0.1
782.435	0.15
782.61	-0.14
782.784	-0.14
782.959	0.14
783.134	-0.09
783.308	-0.4
783.483	-0.27
783.657	0.25
783.832	-0
784.006	-0.33
784.181	-0.28
784.355	0.26
784.53	0.04
784.704	-0.19
784.878	0.18
785.053	0.09
785.227	0.08
785.402	0.24
785.576	-0.29
785.75	-0.01
785.925	-0.1
786.099	0.01
786.273	-0.08
786.448	0.08
786.622	-0.13
786.796	-0.1
786.97	-0.19
787.145	0.29
787.319	-0.34
787.493	-0.23
787.667	-0.48
787.841	-0.07
788.015	0.09
788.19	-0.24
788.364	-0.15
788.538	-0.08
788.712	0.02
788.886	-0.37
789.06	-0.08
789.234	0.08
789.408	-0.24
789.582	-0.35
789.756	-0.08
789.93	-0.21
790.104	-0.25
790.278	-0.17
790.452	-0.37
790.626	0.28
790.8	-0.22
790.973	-0.1
791.147	0.2
791.321	0.04
791.495	0.33
791.669	-0.1
791.843	-0.01
792.016	0.1
792.19	0.2
792.364	-0.33
792.538	0.5
792.711	0.13
792.885	-0.23
793.059	-0.1
793.233	-0.59
793.406	0.41
793.58	0.16
793.754	-0.01
793.927	-0.09
794.101	0.29
794.274	0.12
794.448	0.23
794.622	-0.27
794.795	0.08
794.969	-0.25
795.142	0.37
795.316	-0.21
795.489	-0.36
795.663	0.2
795.836	0.03
796.009	-0.17
796.183	0.21
796.356	-0.05
796.53	0.19
796.703	-0.04
796.876	0.82
797.05	-0.26
797.223	0.12
797.396	0.2
797.57	-0.29
797.743	0.3
797.916	-0.1
798.09	-0.11
798.263	0.04
798.436	0.06
798.609	-0.44
798.782	-0.12
798.956	0.2
799.129	-0.17
799.302	-0.17
799.475	-0.19
799.648	-0.21
799.821	-0.23
799.994	0.02
800.167	-0.24
800.34	-0.06
800.514	-0.15
800.687	-0.32
800.86	-0.44
801.033	-0.19
801.206	0.09
801.379	-0.5
801.551	0.17
801.724	0.12
801.897	0.02
802.07	-0.2
802.243	-0.5
802.416	-0.12
802.589	-0.29
802.762	-0.07
802.935	-0.25
803.107	0.05
803.28	0.06
803.453	0.23
803.626	-0.33
803.798	0.01
803.971	-0.18
804.144	0.07
804.317	-0.01
804.489	0.1
804.662	-0.36
804.835	-0.05
805.007	-0.38
805.18	0.34
805.353	-0.24
805.525	-0.32
805.698	-0.14
805.87	0.24
806.043	-0.04
806.215	-0.36
806.388	-0.12
806.56	0.04
806.733	0.2
806.905	0.06
807.078	-0.47
807.25	-0.45
807.423	0.18
807.595	-0.21
807.768	-0.09
807.94	0.48
808.112	0.03
808.285	-0.14
808.457	-0.27
808.629	0.01
808.802	0.23
808.974	0.29
809.146	-0.36
809.318	-0.21
809.491	0
809.663	0.07
809.835	-0.25
810.007	0.22
810.18	-0.15
810.352	-0.31
810.524	-0.31
810.696	0.32
810.868	-0.01
811.04	-0.12
811.212	0.01
811.384	0.06
811.556	0.18
811.728	-0.2
811.901	0.8
812.073	-0.34
812.245	0.35
812.417	-0.24
812.589	-0.75
812.76	-0.15
812.932	-0.36
813.104	-0.08
813.276	-0.48
813.448	0.32
813.62	0.15
813.792	0.06
813.964	-0.14
814.136	0.07
814.307	-0.29
814.479	-0.36
814.651	-0.09
814.823	0.84
814.995	-0.12
815.166	-0.05
815.338	-0.19
815.51	-0.75
815.681	0.81
815.853	-0.18
816.025	-0.01
816.196	0.25
816.368	-0.05
816.54	-0.36
816.711	-0.5
816.883	-0.08
817.054	0.89
817.226	-0.44
817.398	0.06
817.569	-0.46
817.741	-0.47
817.912	-0.46
818.084	-0.17
818.255	0.12
818.426	-0.21
818.598	-0.55
818.769	-0.13
818.941	0.38
819.112	0.44
819.283	0.13
819.455	-0.32
819.626	-0.16
819.798	0.08
819.969	0.13
820.14	-0.16
820.311	-0.29
820.483	0.01
820.654	0.2
820.825	0.07
820.996	-0
821.168	-0.91
821.339	-0.13
821.51	-0.48
821.681	-0.62
821.852	-0.07
822.023	-0.35
822.195	-0.36
822.366	0.29
822.537	-0.22
822.708	0.13
822.879	-0.43
823.05	0.39
823.221	-0.62
823.392	0.02
823.563	-0.07
823.734	-0.46
823.905	0.1
824.076	-0.23
824.247	-0.56
824.418	-0.71
824.589	0.13
824.759	-0.12
824.93	-0.49
825.101	-0.88
825.272	0.99
825.443	0.39
825.614	0.29
825.784	-1.62
825.955	0.45
826.126	0.78
826.297	0.3
826.467	0.47
826.638	0.2
826.809	-0.55
826.98	-0.53
827.15	0.72
827.321	-0.13
827.492	0.68
827.662	-0.05
827.833	-0.06
828.003	0.06
828.174	-0.23
828.345	-1.07
828.515	0.25
828.686	-0.43
828.856	-0.28
829.027	-0.12
829.197	0.01
829.368	0.01
829.538	0.09
829.709	-0.6
829.879	0.22
830.049	0.11
830.22	-0.47
830.39	-0.35
830.56	0.37
830.731	-0.83
830.901	-0.3
831.072	-0.21
831.242	0.27
831.412	0.1
831.582	-0.23
831.753	-0.41
831.923	0.19
832.093	-0.34
832.263	0.28
832.434	-0.87
832.604	-0.93
832.774	0.22
832.944	-0.25
833.114	-0.3
833.284	0.07
833.454	-0.47
833.624	-0.62
833.795	-0.57
833.965	0.52
834.135	0.16
834.305	-1.34
834.475	-0.45
834.645	0
834.815	-0.03
834.985	-0.64
835.155	-0.66
835.325	0.15
835.494	0.04
835.664	-0.07
835.834	-0.91
836.004	0.03
836.174	-0.08
836.344	-0.05
836.514	-0.34
836.684	0.11
836.853	-0.2
837.023	0.18
837.193	-0.76
837.363	-0.13
837.532	0.1
837.702	-0.55
837.872	-0.41
838.041	0.35
838.211	0.87
838.381	-1.13
838.55	-0.19
838.72	1.67
838.89	0.95
839.059	-0.55
839.229	-0.81
839.398	1.35
839.568	-0.39
839.738	0.05
839.907	0.97
840.077	0.19
840.246	0.34
840.416	-0.92
840.585	-1.03
840.755	1.04
840.924	0.85
841.093	-0.91
841.263	0.76
841.432	0.2
841.602	-0.32
841.771	-0.99
841.94	-0.03
842.11	0.89
842.279	0.78
842.448	-0.69
842.617	-0.5
842.787	0.56
842.956	-0.78
843.125	-0.1
843.294	-0.04
843.464	0.07
843.633	-0.48
843.802	-1.24
843.971	-0.34
844.14	-0.23
844.309	0.92
844.479	-0.48
844.648	-1.07
844.817	-0.11
844.986	-0.4
845.155	-1.2
845.324	-0.23
845.493	0.05
845.662	-1.25
845.831	0.49
846	-0.03
846.169	-0.21
846.338	0.44
846.507	-0.16
846.676	0.48
846.844	-1.27
847.013	-0.12
847.182	0.4
847.351	-0.58
847.52	0.02
847.689	0.71
847.858	-0.22
848.026	-0.96
848.195	0.03
848.364	-0.41
848.533	-0.72
848.701	-0.57
848.87	0.11
849.039	0.05
849.207	0.84
849.376	1.07
849.545	1.34
849.713	-0.97
849.882	0.12
850.051	-0.69
850.219	0.42
850.388	0.49
850.556	-0.78
850.725	-0.52
850.893	-0.5
851.062	-0.09
851.23	0.43
851.399	-1.28
851.567	-0.97
851.736	-1.1
851.904	-1.03
852.073	-0.83
852.241	-0.74
852.41	0.52
852.578	0.23
852.746	-0.67
852.915	0.25
853.083	0.01
853.251	-0.67
853.42	0.11
853.588	-0.5
853.756	0.65
853.924	0.22
854.093	-0.87
854.261	-0.48
854.429	-0.68
854.597	-0.42
854.765	-0.44
854.934	0.15
855.102	0.23
855.27	-0.36
855.438	0.78
855.606	1.65
855.774	1.27
855.942	-1.14
856.11	-2
856.278	-0.28
856.446	0.7
856.614	0.59
856.782	-0.77
856.95	0.04
857.118	0.96
857.286	-0.44
857.454	-1.27
857.622	1.04
857.79	0.28
857.958	-0.73
858.126	-1.22
858.294	-2.33
858.462	-0.96
858.629	-1.22
858.797	0.02
858.965	0.32
859.133	-0.62
859.301	0.19
859.468	0.18
859.636	-1.18
859.804	1.31
859.971	0.65
860.139	-1.59
860.307	0.58
860.474	0.44
860.642	-1.14
860.81	-1
860.977	-0.96
861.145	1.34
861.313	-1.06
861.48	-1.13
861.648	0.6
861.815	-0.03
861.983	-1.03
862.15	-0.58
862.318	0.46
862.485	1.5
862.653	-1.07
862.82	-0.6
862.988	0.62
863.155	-0.92
863.322	-1.7
863.49	-1.44
863.657	-1.45
863.824	2.22
863.992	0.37
864.159	-0.42
864.326	0.19
864.494	0.78
864.661	0.73
864.828	-2.73
864.996	1.03
865.163	1.53
865.33	-0.83
865.497	-1.97
865.664	-1.26
865.832	-2.22
865.999	-0.74
866.166	-1.97
866.333	-0.6
866.5	-1.94
866.667	-0.32
866.834	-0.95
867.001	0.99
867.168	-2.05
867.335	-0.72
867.502	-2.61
867.669	0.45
867.836	2.54
868.003	-0.33
868.17	0.2
868.337	1.47
868.504	2.01
868.671	-1.87
868.838	-0.68
869.005	-1.46
869.172	0.35
869.339	-1.54
869.505	-0.4
869.672	-1.86
869.839	2.38
870.006	-0.56
870.173	-2.29
870.339	0.47
870.506	1.65
870.673	-1.59
870.84	0.69
871.006	0.45
871.173	-1.04
871.34	1.24
871.506	-1.45
871.673	1.39
871.839	-2.47
872.006	0.56
872.173	-0.3
872.339	-0.35
872.506	2.23
872.672	-0.11
872.839	-2.01
873.005	-0.14
873.172	3.04
873.338	2.26
873.505	-0.41
873.671	-0.18
873.838	0.3
874.004	-1.98
874.171	-0.83
874.337	0.8
874.503	0.75
874.67	-0.04
874.836	-1.03
875.002	2.1
875.169	1.33
875.335	-0.38
875.501	-2.66
875.668	0.22
875.834	0.38
876	1.09
876.166	0.49
876.332	2.36
876.499	2.86
876.665	-0.68
876.831	-1.23
876.997	1.89
877.163	0.14
877.329	-0.1
877.495	-0.45
877.662	-0.23
877.828	1.05
877.994	-0.47
878.16	-3.11
878.326	-0.75
878.492	0.06
878.658	-1.34
878.824	-0.58
878.99	0.47
879.156	-0.55
879.322	2.57
879.487	-0.78
879.653	0.16
879.819	0.61
879.985	-0.34
880.151	1.05
880.317	1.62
880.483	1.73
880.648	1.06
880.814	-4.1
880.98	-0.2
881.146	-2.26
881.312	-1.21
881.477	0.38
881.643	0.87
881.809	1.76
881.974	1.53
882.14	-2.43
882.306	1.53
882.471	3.06
882.637	-0.12
882.803	-0.44
882.968	2.33
883.134	1.69
883.299	0.4
883.465	-0.78
883.63	1.43
883.796	0.85
883.961	-0.69
884.127	-1.07
884.292	-3.02
884.458	-4.03
884.623	-4.03
