Data from Apollo_Calib_20240827__AbsoluteIrradiance__145__01-34-00-736.txt Node

Date: Wed Aug 28 01:34:00 BST 2024
User: biology
Spectrometer: FLMT08252
Trigger mode: 0
Integration Time (sec): 5.000000E-1
Scans to average: 5
Electric dark correction enabled: true
Nonlinearity correction enabled: false
Boxcar width: 0
XAxis mode: Wavelengths
Number of Pixels in Spectrum: 3648
>>>>>Begin Spectral Data<<<<<
179.588	-0
179.809	-0
180.03	-0
180.251	-0
180.473	-0
180.694	0
180.915	0
181.136	-0
181.357	0
181.578	-0
181.799	-0
182.02	-0
182.241	-0
182.462	-0
182.683	0
182.904	-0
183.125	-0
183.346	0
183.567	-0
183.788	-0
184.009	-0
184.23	-0
184.451	0
184.672	-0
184.892	-0
185.113	0
185.334	0
185.555	-0
185.776	-0
185.996	0
186.217	-0
186.438	-0
186.659	-0
186.879	0
187.1	-0
187.321	-0
187.541	-0
187.762	0
187.983	-0
188.203	-0
188.424	0
188.644	-0
188.865	0
189.086	-0
189.306	-0
189.527	-0
189.747	-0
189.968	-0
190.188	0
190.409	0
190.629	-0
190.849	-0
191.07	-0
191.29	-0
191.511	-0
191.731	-0
191.951	-0
192.172	-0
192.392	-0
192.612	-0
192.833	-0
193.053	0
193.273	0
193.493	-0
193.714	-0
193.934	0
194.154	0
194.374	0
194.594	0
194.815	-0
195.035	0
195.255	-0
195.475	-0
195.695	0
195.915	0
196.135	-0
196.355	0
196.575	0
196.795	0
197.015	-0
197.235	-0
197.455	-0
197.675	0
197.895	-0
198.115	-0
198.335	0
198.555	-0
198.775	-0
198.995	0
199.214	0
199.434	0
199.654	-0
199.874	-0
200.094	0.71
200.313	-0.36
200.533	-0.36
200.753	-0.99
200.973	0.56
201.192	0.07
201.412	-0.89
201.632	-0.11
201.851	0.3
202.071	-0.36
202.291	-0.74
202.51	-0.33
202.73	0.2
202.95	-0.37
203.169	-0.68
203.389	-0.23
203.608	-0.16
203.828	-0.39
204.047	-0.18
204.267	0.26
204.486	0
204.706	0.14
204.925	-0.06
205.145	0.02
205.364	0.06
205.583	0.25
205.803	-0.29
206.022	-0.66
206.242	-0.01
206.461	0.09
206.68	-0.79
206.9	0.28
207.119	0.29
207.338	0.43
207.557	-0.12
207.777	-0.11
207.996	-0.61
208.215	0.52
208.434	-0.28
208.654	-0.64
208.873	0.18
209.092	0.51
209.311	-0.12
209.53	-0.34
209.749	-0.08
209.968	-0.49
210.187	0.01
210.407	-0.35
210.626	-0.31
210.845	0.27
211.064	-0.02
211.283	-0.43
211.502	0.28
211.721	-0.17
211.94	-0.23
212.159	0.14
212.377	0.12
212.596	0.07
212.815	-0.2
213.034	0.04
213.253	0.21
213.472	0.3
213.691	-0.22
213.91	-0.24
214.128	-0.2
214.347	0.18
214.566	-0.41
214.785	-0.18
215.003	0.14
215.222	0.04
215.441	-0.08
215.66	-0.4
215.878	-0.11
216.097	0.43
216.316	-0.51
216.534	-0.12
216.753	-0.05
216.972	-0.03
217.19	-0.14
217.409	-0.25
217.627	-0.19
217.846	-0.02
218.064	-0.02
218.283	-0.19
218.501	0.31
218.72	0.16
218.938	-0.32
219.157	-0.22
219.375	0.23
219.594	-0.01
219.812	-0.14
220.031	-0.21
220.249	0.25
220.467	0.18
220.686	0.01
220.904	-0.15
221.122	-0.09
221.341	0.25
221.559	0.04
221.777	-0.28
221.995	-0.04
222.214	0.02
222.432	-0.09
222.65	0.13
222.868	-0.02
223.086	0.02
223.305	0.05
223.523	-0.05
223.741	0.18
223.959	-0.05
224.177	-0.38
224.395	-0.18
224.613	-0.11
224.831	0.21
225.049	-0.1
225.267	-0.01
225.485	-0.07
225.703	-0.04
225.921	0
226.139	-0.02
226.357	0.14
226.575	0.11
226.793	-0.15
227.011	0.51
227.229	0.05
227.447	0.13
227.665	-0.18
227.883	-0.32
228.1	-0.01
228.318	-0.04
228.536	-0.26
228.754	-0.13
228.972	-0.2
229.189	0
229.407	-0.06
229.625	-0.1
229.843	0.1
230.06	0.06
230.278	-0.18
230.496	-0.01
230.713	0.04
230.931	0.15
231.149	0
231.366	-0.26
231.584	0.1
231.801	0.26
232.019	-0.07
232.236	-0.24
232.454	-0.18
232.671	0.04
232.889	-0
233.106	-0.16
233.324	0.01
233.541	-0.03
233.759	0.02
233.976	-0.12
234.194	-0.09
234.411	-0.12
234.628	-0.11
234.846	-0.07
235.063	-0.02
235.28	-0.03
235.498	-0.02
235.715	-0.19
235.932	0.06
236.149	-0.01
236.367	-0.13
236.584	-0.04
236.801	-0.01
237.018	0.07
237.236	0.09
237.453	-0.29
237.67	0.1
237.887	-0.16
238.104	-0.11
238.321	-0.2
238.538	-0.1
238.755	0.16
238.973	-0.22
239.19	0.02
239.407	0.04
239.624	-0.01
239.841	-0.1
240.058	-0.19
240.275	0.09
240.492	-0.02
240.709	-0.07
240.925	-0.08
241.142	-0.03
241.359	-0.15
241.576	-0.12
241.793	0.01
242.01	-0.01
242.227	0.09
242.444	-0.01
242.66	0.03
242.877	0.08
243.094	-0.1
243.311	0
243.527	-0
243.744	0.09
243.961	0.04
244.178	-0.08
244.394	-0.15
244.611	0.03
244.828	0.06
245.044	-0.08
245.261	-0
245.477	-0.02
245.694	-0.09
245.911	-0.09
246.127	-0.03
246.344	0.12
246.56	-0.01
246.777	-0.03
246.993	-0.1
247.21	0.06
247.426	0.05
247.643	-0
247.859	-0.08
248.076	-0.01
248.292	0.11
248.508	-0.12
248.725	-0.06
248.941	-0
249.157	0.12
249.374	-0.1
249.59	-0.01
249.806	0.04
250.023	0.03
250.239	-0.11
250.455	-0.11
250.671	0.05
250.888	0.04
251.104	-0.07
251.32	0.05
251.536	-0.04
251.752	-0.1
251.969	-0.07
252.185	0.05
252.401	0.18
252.617	0.05
252.833	-0.04
253.049	0
253.265	-0.02
253.481	0.08
253.697	-0.05
253.913	-0.09
254.129	-0
254.345	-0.02
254.561	-0.04
254.777	-0.05
254.993	0.03
255.209	-0.04
255.425	-0.05
255.641	-0.12
255.857	0.04
256.073	-0.04
256.288	-0.04
256.504	-0.02
256.72	0.06
256.936	0.06
257.152	-0.05
257.367	-0.09
257.583	-0.07
257.799	0.04
258.015	-0.09
258.23	-0.03
258.446	0.07
258.662	0.02
258.877	-0.05
259.093	-0.07
259.309	-0.03
259.524	0.02
259.74	-0.07
259.955	-0.11
260.171	0.01
260.387	0
260.602	-0.02
260.818	0.04
261.033	-0.09
261.249	-0.13
261.464	-0.04
261.68	-0.13
261.895	-0.04
262.11	0.04
262.326	-0.07
262.541	-0.14
262.757	-0.01
262.972	-0.05
263.187	-0.01
263.403	-0
263.618	0.02
263.833	0
264.049	-0.05
264.264	0
264.479	-0.02
264.694	0.02
264.91	-0.03
265.125	-0.03
265.34	0.06
265.555	0.1
265.77	0.01
265.986	0
266.201	0.04
266.416	0.12
266.631	-0.03
266.846	0.02
267.061	0.01
267.276	-0.02
267.491	-0.15
267.706	0.01
267.921	0.04
268.136	-0
268.351	-0.01
268.566	-0.08
268.781	0.05
268.996	0.07
269.211	-0.01
269.426	-0.1
269.641	-0.11
269.856	0.02
270.071	-0.09
270.285	-0.14
270.5	0.07
270.715	0.05
270.93	0.01
271.145	-0.04
271.359	0.06
271.574	-0.06
271.789	0.04
272.004	-0.04
272.218	-0.01
272.433	0.02
272.648	-0.07
272.862	0.1
273.077	-0.04
273.292	-0
273.506	-0.06
273.721	-0.04
273.936	-0.02
274.15	0.06
274.365	-0.01
274.579	0.06
274.794	-0
275.008	0.03
275.223	-0.09
275.437	-0.01
275.652	-0.01
275.866	0.01
276.081	0.02
276.295	0.02
276.509	0.01
276.724	0.01
276.938	0.03
277.153	0.02
277.367	0.01
277.581	-0.06
277.796	-0.06
278.01	-0.06
278.224	0.01
278.438	0.11
278.653	-0.08
278.867	-0
279.081	0.07
279.295	-0.04
279.51	0.02
279.724	-0.11
279.938	0.04
280.152	0.03
280.366	-0.04
280.58	0.03
280.794	0.12
281.008	-0.02
281.222	0.05
281.437	0.04
281.651	-0.03
281.865	0.05
282.079	-0.08
282.293	-0.12
282.507	-0.06
282.721	-0.01
282.935	0.01
283.148	-0.02
283.362	-0.08
283.576	-0.07
283.79	0
284.004	-0.05
284.218	0
284.432	-0.06
284.646	-0.04
284.859	-0.04
285.073	-0.01
285.287	-0.03
285.501	-0.03
285.714	-0.05
285.928	-0.01
286.142	0.01
286.356	-0.01
286.569	-0.02
286.783	0.06
286.997	0.01
287.21	-0.02
287.424	0.01
287.637	-0.06
287.851	-0.01
288.065	0.06
288.278	0.02
288.492	-0.01
288.705	-0.04
288.919	0.02
289.132	-0.06
289.346	0.05
289.559	-0.07
289.773	-0.06
289.986	0
290.2	-0.05
290.413	0.03
290.626	-0.09
290.84	-0.04
291.053	-0.03
291.267	0.03
291.48	-0.03
291.693	-0.02
291.906	-0.05
292.12	-0.01
292.333	-0.01
292.546	-0.03
292.76	0.11
292.973	0.01
293.186	0.02
293.399	-0.07
293.612	0.06
293.826	0.06
294.039	-0.02
294.252	-0.05
294.465	0.02
294.678	0.02
294.891	0.03
295.104	-0.05
295.317	-0
295.53	0
295.743	-0.06
295.956	0.02
296.169	0.08
296.382	0.05
296.595	-0.04
296.808	-0.04
297.021	0.06
297.234	0.09
297.447	0.01
297.66	0.06
297.873	0.06
298.086	0.01
298.299	-0.03
298.511	-0.03
298.724	0
298.937	-0.07
299.15	-0.03
299.363	0.04
299.575	0.01
299.788	-0.01
300.001	-0.01
300.213	-0
300.426	-0.03
300.639	-0.04
300.852	-0.06
301.064	-0.01
301.277	0.07
301.489	0.04
301.702	0.04
301.915	0.01
302.127	0
302.34	-0
302.552	0.01
302.765	-0.03
302.977	0.02
303.19	-0.03
303.402	-0.01
303.615	-0.05
303.827	-0.06
304.04	-0.01
304.252	0.02
304.464	-0.03
304.677	0.15
304.889	0.01
305.102	-0.02
305.314	-0.03
305.526	0.04
305.739	0.04
305.951	-0.01
306.163	-0.03
306.375	0.08
306.588	-0.05
306.8	-0.04
307.012	-0.08
307.224	0.02
307.436	0.03
307.649	-0.05
307.861	0.03
308.073	0.01
308.285	-0.06
308.497	-0.04
308.709	-0
308.921	0
309.133	0.04
309.346	-0.05
309.558	-0.02
309.77	0
309.982	0.05
310.194	0.03
310.406	-0.04
310.617	0.08
310.829	0.02
311.041	0.01
311.253	-0.04
311.465	-0.01
311.677	0.01
311.889	0.02
312.101	-0.04
312.313	0.03
312.524	0.03
312.736	-0.01
312.948	-0.02
313.16	0.06
313.372	0.02
313.583	0.04
313.795	-0.05
314.007	0
314.218	0.03
314.43	-0.01
314.642	-0.02
314.853	-0.03
315.065	0.04
315.277	-0.02
315.488	-0.01
315.7	0.03
315.912	0
316.123	-0.04
316.335	-0.04
316.546	0.08
316.758	0.01
316.969	-0.02
317.181	0.02
317.392	-0
317.604	0.04
317.815	-0
318.026	-0.04
318.238	-0.03
318.449	0.03
318.661	-0.05
318.872	-0.03
319.083	-0.05
319.295	0.05
319.506	-0.02
319.717	0.01
319.929	0.01
320.14	0.03
320.351	0
320.562	0
320.774	-0.03
320.985	-0
321.196	-0.05
321.407	-0.08
321.618	-0
321.829	-0.03
322.041	0
322.252	-0.02
322.463	0.08
322.674	0.01
322.885	-0.03
323.096	-0.02
323.307	-0.01
323.518	0.02
323.729	-0
323.94	-0
324.151	-0.03
324.362	0.03
324.573	0.02
324.784	-0.06
324.995	0.07
325.206	-0
325.417	-0.01
325.628	-0.03
325.838	0.02
326.049	0.03
326.26	0.04
326.471	-0.04
326.682	0.05
326.892	-0.01
327.103	-0.09
327.314	-0.06
327.525	0.04
327.735	0.01
327.946	-0.06
328.157	-0
328.368	0.05
328.578	0
328.789	0.04
328.999	0.05
329.21	-0.03
329.421	0.02
329.631	-0.04
329.842	-0.06
330.052	0.03
330.263	0.01
330.473	0.03
330.684	-0
330.894	-0.01
331.105	0.03
331.315	-0.02
331.526	-0.07
331.736	0.04
331.947	0.03
332.157	-0.03
332.367	-0.04
332.578	0.01
332.788	0.06
332.999	0
333.209	-0.02
333.419	-0.03
333.629	0.01
333.84	0.01
334.05	0.02
334.26	0.03
334.47	-0.03
334.681	0.01
334.891	-0.01
335.101	0.02
335.311	0.1
335.521	-0.04
335.732	-0.03
335.942	0.05
336.152	-0.01
336.362	0.01
336.572	0.03
336.782	0.02
336.992	-0.03
337.202	-0.02
337.412	-0.06
337.622	0.02
337.832	0.02
338.042	-0
338.252	-0.02
338.462	-0.02
338.672	-0.02
338.882	-0.03
339.092	-0.03
339.302	0.03
339.511	-0
339.721	-0.05
339.931	-0.06
340.141	0.05
340.351	0.04
340.561	-0.01
340.77	0.02
340.98	0.05
341.19	0.03
341.4	-0.04
341.609	-0.03
341.819	-0.02
342.029	-0.04
342.238	0.01
342.448	-0.04
342.658	0.05
342.867	-0.01
343.077	-0.01
343.286	0
343.496	0.04
343.706	0.08
343.915	-0.04
344.125	0.02
344.334	0.02
344.544	-0.07
344.753	-0.03
344.963	-0.05
345.172	-0.04
345.381	-0.03
345.591	-0.04
345.8	0.04
346.01	0.02
346.219	0.03
346.428	-0.12
346.638	0.01
346.847	0.01
347.056	0.04
347.266	-0.06
347.475	-0.01
347.684	0.02
347.893	0.05
348.103	0.01
348.312	-0.04
348.521	-0.02
348.73	-0
348.94	0.03
349.149	0
349.358	-0.03
349.567	-0
349.776	-0.03
349.985	0.01
350.194	0.02
350.403	0.04
350.612	-0.08
350.821	-0.01
351.03	-0.01
351.239	-0.07
351.448	0.02
351.657	-0.04
351.866	0.08
352.075	0.03
352.284	0.05
352.493	-0.04
352.702	0.03
352.911	0.04
353.12	0.03
353.329	-0.02
353.538	0.04
353.746	0.01
353.955	-0.04
354.164	0.01
354.373	-0.01
354.582	0.08
354.79	0.02
354.999	0.03
355.208	-0.02
355.416	0.06
355.625	-0.09
355.834	-0.01
356.042	-0.03
356.251	-0.03
356.46	-0.05
356.668	0
356.877	0.07
357.085	0
357.294	-0.09
357.503	0.02
357.711	-0.02
357.92	0.12
358.128	-0
358.337	-0.03
358.545	-0.01
358.754	0.01
358.962	0
359.17	-0.03
359.379	0.01
359.587	0.02
359.796	-0.05
360.004	-0.02
360.212	0.04
360.421	0.03
360.629	-0.06
360.837	-0.04
361.046	0
361.254	0.11
361.462	0.02
361.67	-0.03
361.879	0.01
362.087	0.1
362.295	0.01
362.503	-0
362.711	-0.04
362.92	0
363.128	-0.04
363.336	-0.05
363.544	-0.01
363.752	-0.01
363.96	-0.01
364.168	-0.04
364.376	-0.04
364.584	-0.01
364.792	0.02
365	0
365.208	0.02
365.416	-0
365.624	-0
365.832	-0.03
366.04	0.03
366.248	0.02
366.456	-0.01
366.664	0.01
366.872	0.02
367.079	0
367.287	0.01
367.495	0.02
367.703	-0.02
367.911	-0.01
368.118	-0.01
368.326	-0.09
368.534	-0.06
368.742	0.03
368.949	-0.06
369.157	-0.05
369.365	0.06
369.572	0.01
369.78	-0.01
369.988	0.06
370.195	0.06
370.403	0.01
370.61	-0.03
370.818	0.04
371.026	0.06
371.233	-0.06
371.441	-0.01
371.648	-0
371.856	0
372.063	-0.01
372.271	-0.01
372.478	-0.02
372.685	-0.06
372.893	0.03
373.1	-0.01
373.308	-0.02
373.515	0.03
373.722	0.03
373.93	-0.03
374.137	0.01
374.344	0.03
374.552	0.03
374.759	0.06
374.966	0.05
375.173	-0.03
375.381	0.07
375.588	-0.02
375.795	-0.09
376.002	-0.06
376.209	-0.03
376.417	-0.02
376.624	-0.03
376.831	0.01
377.038	0
377.245	-0.06
377.452	0.01
377.659	-0.01
377.866	-0.02
378.073	0.01
378.28	0.02
378.487	0.04
378.694	0.01
378.901	-0.01
379.108	-0.02
379.315	0.02
379.522	0.05
379.729	-0.01
379.936	0.01
380.143	0.01
380.35	0.01
380.557	0
380.763	0.02
380.97	0.03
381.177	0.05
381.384	-0
381.591	-0.04
381.797	0
382.004	0.03
382.211	0.03
382.418	0.01
382.624	0.05
382.831	-0
383.038	-0.01
383.244	-0.01
383.451	-0.02
383.658	0.05
383.864	-0
384.071	0.01
384.277	0.08
384.484	-0.07
384.69	-0.01
384.897	-0.03
385.103	0
385.31	-0.06
385.516	0.02
385.723	-0.04
385.929	-0.01
386.136	0.01
386.342	-0.01
386.549	-0.01
386.755	0.04
386.961	0.04
387.168	-0.01
387.374	0.03
387.58	0.04
387.787	0.01
387.993	0.02
388.199	-0.03
388.406	-0.04
388.612	0.02
388.818	-0.01
389.024	-0.04
389.231	0.01
389.437	0.08
389.643	0.03
389.849	0.07
390.055	0.02
390.261	0.04
390.467	0.03
390.674	-0.07
390.88	0.04
391.086	0.08
391.292	-0.07
391.498	0.02
391.704	-0.02
391.91	-0.01
392.116	-0.01
392.322	-0.08
392.528	0.01
392.734	0.02
392.94	0.05
393.146	0.01
393.352	-0.01
393.557	-0.01
393.763	0.01
393.969	0.04
394.175	-0.01
394.381	0.05
394.587	-0.02
394.792	0.01
394.998	0.04
395.204	0.08
395.41	0.01
395.615	0.05
395.821	0.04
396.027	0.05
396.233	0.02
396.438	0
396.644	0.1
396.85	0.04
397.055	-0.01
397.261	0.02
397.466	0.13
397.672	0.05
397.878	0.08
398.083	0.08
398.289	0.05
398.494	0.12
398.7	0.05
398.905	0.02
399.111	0.15
399.316	0
399.522	0.07
399.727	0.1
399.932	0.05
400.138	0.03
400.343	0.12
400.549	0.12
400.754	0.1
400.959	0.12
401.165	0.13
401.37	0.06
401.575	0.07
401.78	0.12
401.986	0.06
402.191	0.1
402.396	0.15
402.601	0.16
402.807	0.2
403.012	0.18
403.217	0.21
403.422	0.18
403.627	0.15
403.832	0.16
404.037	0.2
404.243	0.22
404.448	0.18
404.653	0.18
404.858	0.25
405.063	0.26
405.268	0.13
405.473	0.19
405.678	0.18
405.883	0.34
406.088	0.2
406.293	0.22
406.498	0.22
406.703	0.25
406.907	0.26
407.112	0.21
407.317	0.27
407.522	0.32
407.727	0.22
407.932	0.26
408.136	0.35
408.341	0.21
408.546	0.25
408.751	0.21
408.956	0.23
409.16	0.28
409.365	0.25
409.57	0.2
409.774	0.24
409.979	0.27
410.184	0.26
410.388	0.19
410.593	0.31
410.798	0.22
411.002	0.18
411.207	0.25
411.411	0.21
411.616	0.17
411.82	0.2
412.025	0.22
412.229	0.2
412.434	0.26
412.638	0.16
412.843	0.16
413.047	0.16
413.252	0.15
413.456	0.15
413.66	0.15
413.865	0.14
414.069	0.19
414.273	0.12
414.478	0.04
414.682	0.12
414.886	0.08
415.091	0.05
415.295	0.03
415.499	0.11
415.703	0.08
415.908	0.14
416.112	0.03
416.316	0.14
416.52	0.05
416.724	-0.01
416.929	0.05
417.133	0.17
417.337	0.09
417.541	0.09
417.745	0.09
417.949	0.1
418.153	0.05
418.357	0.06
418.561	0.16
418.765	0.09
418.969	0.15
419.173	0.1
419.377	0.02
419.581	0.15
419.785	0.04
419.989	0.03
420.193	0.05
420.397	0.07
420.601	0.12
420.804	0.1
421.008	0.07
421.212	0.08
421.416	0.09
421.62	0.06
421.823	0
422.027	0.14
422.231	0.05
422.435	0.01
422.638	0.1
422.842	0.07
423.046	0.01
423.249	0.04
423.453	0.07
423.657	0.06
423.86	0.04
424.064	0.06
424.268	0.07
424.471	0.01
424.675	0.11
424.878	0.08
425.082	0.03
425.285	0.08
425.489	0.03
425.692	0.04
425.896	-0.03
426.099	0.08
426.303	-0.01
426.506	-0.02
426.71	0.02
426.913	0.07
427.116	0.08
427.32	0.02
427.523	-0
427.726	0.12
427.93	-0.03
428.133	0.02
428.336	-0.01
428.54	-0.03
428.743	0.05
428.946	0.06
429.149	-0.01
429.353	0.06
429.556	0.02
429.759	-0.01
429.962	-0.03
430.165	-0.01
430.368	0.04
430.571	-0.01
430.775	0.05
430.978	-0.02
431.181	0.02
431.384	0.04
431.587	0.02
431.79	0.01
431.993	-0.07
432.196	-0.01
432.399	-0.01
432.602	0.09
432.805	-0
433.008	0.01
433.211	-0.06
433.414	0.02
433.616	-0
433.819	-0
434.022	-0.06
434.225	0.12
434.428	0.02
434.631	0.15
434.833	0.02
435.036	-0.02
435.239	0.1
435.442	0.01
435.645	0.01
435.847	0
436.05	0.03
436.253	0.04
436.455	-0.03
436.658	-0.01
436.861	0.06
437.063	0.01
437.266	0.01
437.468	0.03
437.671	0.16
437.874	0.04
438.076	-0.06
438.279	-0.07
438.481	0.06
438.684	-0.03
438.886	0.03
439.089	-0.07
439.291	-0.02
439.494	0.06
439.696	-0.02
439.899	0.02
440.101	0.05
440.303	-0.04
440.506	0.03
440.708	0.05
440.91	0.06
441.113	-0.03
441.315	0.07
441.517	-0.03
441.72	0.06
441.922	-0.02
442.124	-0.01
442.326	0.06
442.529	0.07
442.731	0
442.933	0.11
443.135	0.03
443.337	-0.01
443.539	0.03
443.742	0.02
443.944	0.06
444.146	0.04
444.348	0.03
444.55	0.01
444.752	0.05
444.954	-0.04
445.156	0.07
445.358	0.04
445.56	0.1
445.762	0.05
445.964	0.07
446.166	0.07
446.368	-0
446.57	0.12
446.772	0.08
446.974	0.03
447.175	0.06
447.377	-0.01
447.579	0.05
447.781	0.02
447.983	0.14
448.184	0.04
448.386	0.06
448.588	0.01
448.79	0.07
448.991	0.04
449.193	0.05
449.395	0.03
449.597	0.09
449.798	0.1
450	0.09
450.202	0.04
450.403	0.04
450.605	0.14
450.806	0.04
451.008	-0
451.21	0.05
451.411	0.03
451.613	0.05
451.814	0.08
452.016	0.05
452.217	0.07
452.419	0.07
452.62	0.04
452.821	0.07
453.023	0.13
453.224	0.11
453.426	0.04
453.627	0.08
453.828	0.09
454.03	0.03
454.231	0.08
454.432	0.01
454.634	0.11
454.835	0.02
455.036	0.01
455.238	0.06
455.439	0.14
455.64	-0.03
455.841	-0
456.042	0.14
456.244	0.04
456.445	0
456.646	-0.05
456.847	-0
457.048	0.1
457.249	0.07
457.45	0.21
457.651	-0.05
457.852	0.08
458.054	0.08
458.255	0.02
458.456	0.08
458.657	0.03
458.858	0.02
459.058	0.03
459.259	0.05
459.46	-0.02
459.661	0.03
459.862	0.11
460.063	0.04
460.264	0.06
460.465	-0
460.666	0.07
460.866	-0.03
461.067	0.01
461.268	0.03
461.469	-0.01
461.67	0.03
461.87	0.01
462.071	-0.01
462.272	-0.03
462.473	-0.01
462.673	0.09
462.874	-0.05
463.075	0.03
463.275	-0.04
463.476	0.03
463.676	-0
463.877	0.05
464.078	-0.02
464.278	0.07
464.479	-0.01
464.679	0.01
464.88	0.01
465.08	0.08
465.281	-0.04
465.481	0.01
465.682	0.02
465.882	0.02
466.083	0.02
466.283	0.04
466.483	0.01
466.684	-0.04
466.884	-0.01
467.085	0.02
467.285	0.05
467.485	-0.03
467.686	0.01
467.886	-0.03
468.086	0.01
468.286	0.04
468.487	0.03
468.687	0.01
468.887	-0.02
469.087	0.07
469.287	-0.01
469.488	-0.03
469.688	0.03
469.888	0.04
470.088	0.07
470.288	0.06
470.488	0.02
470.688	-0.06
470.888	-0.04
471.088	-0.07
471.288	0.07
471.488	0.02
471.688	0.04
471.888	-0.04
472.088	0.05
472.288	0.01
472.488	-0.04
472.688	0.02
472.888	-0
473.088	0
473.288	0.02
473.488	-0
473.688	0.08
473.887	0.03
474.087	-0.04
474.287	-0
474.487	-0.02
474.687	0
474.886	0
475.086	-0.01
475.286	-0.02
475.486	0.01
475.685	0.02
475.885	-0.02
476.085	-0.03
476.284	0.01
476.484	-0.01
476.684	0.04
476.883	0.06
477.083	0.02
477.282	-0.01
477.482	0.05
477.681	0.04
477.881	0.02
478.08	-0.04
478.28	-0.07
478.479	0.02
478.679	0.08
478.878	-0.02
479.078	-0.01
479.277	-0.01
479.477	-0.01
479.676	0.05
479.875	-0.04
480.075	-0.05
480.274	0.01
480.473	0.02
480.673	-0.01
480.872	0.01
481.071	0
481.271	0.01
481.47	-0.01
481.669	-0.02
481.868	-0.04
482.067	-0.03
482.267	-0.03
482.466	-0.02
482.665	-0.05
482.864	-0.01
483.063	-0.05
483.262	0.02
483.461	0.03
483.661	0.04
483.86	-0.01
484.059	0
484.258	0.01
484.457	-0.02
484.656	-0.01
484.855	0.04
485.054	-0.03
485.253	-0.01
485.452	-0.05
485.651	-0
485.849	-0.02
486.048	-0.03
486.247	-0.04
486.446	-0.03
486.645	-0.01
486.844	-0.03
487.043	-0.01
487.241	0.01
487.44	-0.03
487.639	-0.03
487.838	0.02
488.037	-0.01
488.235	0.04
488.434	-0.01
488.633	-0.01
488.831	-0
489.03	0.04
489.229	0.02
489.427	-0.02
489.626	0.04
489.825	0.02
490.023	0.01
490.222	-0.04
490.42	0.02
490.619	0.04
490.817	0
491.016	-0.02
491.214	0.03
491.413	-0.01
491.611	-0.01
491.81	-0
492.008	0.01
492.207	0.03
492.405	-0.01
492.604	-0.07
492.802	-0.03
493	0.01
493.199	-0.01
493.397	-0.01
493.595	-0.01
493.794	-0.03
493.992	0.04
494.19	-0.01
494.388	-0
494.587	-0.01
494.785	-0.01
494.983	-0.05
495.181	0.02
495.379	-0.01
495.578	-0.02
495.776	0
495.974	-0
496.172	-0.01
496.37	-0.01
496.568	-0.05
496.766	-0.02
496.964	-0
497.162	-0.03
497.36	-0.06
497.558	0.03
497.756	-0.01
497.954	-0.01
498.152	-0.03
498.35	0.01
498.548	-0.02
498.746	-0
498.944	-0.04
499.142	0
499.34	-0.06
499.538	-0.02
499.736	-0.03
499.933	0.03
500.131	0.05
500.329	0
500.527	0.03
500.725	0.02
500.922	0.02
501.12	0.01
501.318	0
501.516	-0.03
501.713	-0.02
501.911	-0.01
502.109	-0.04
502.306	-0
502.504	0.01
502.701	-0.01
502.899	0.01
503.097	0.05
503.294	0.01
503.492	-0.02
503.689	0
503.887	0.03
504.084	0.04
504.282	-0.01
504.479	-0.04
504.677	-0.01
504.874	-0.02
505.072	0.01
505.269	-0.02
505.466	0.01
505.664	0.01
505.861	-0.02
506.059	0
506.256	0.02
506.453	-0.02
506.651	0.04
506.848	-0.01
507.045	0.01
507.242	-0.01
507.44	-0.02
507.637	-0.01
507.834	-0.03
508.031	0.03
508.229	-0.03
508.426	0.02
508.623	0.02
508.82	-0.03
509.017	-0.02
509.214	-0
509.411	0.01
509.608	-0.03
509.805	-0.01
510.003	-0.02
510.2	-0.01
510.397	0.01
510.594	-0.01
510.791	-0.02
510.988	-0.01
511.184	0.02
511.381	0.02
511.578	-0.02
511.775	0.01
511.972	-0.02
512.169	-0.02
512.366	-0.02
512.563	0.03
512.76	-0.02
512.956	0.01
513.153	-0.03
513.35	0.01
513.547	-0.01
513.744	-0.01
513.94	-0.01
514.137	0.03
514.334	-0
514.53	-0
514.727	0.01
514.924	0.03
515.12	-0.01
515.317	-0.05
515.514	-0.01
515.71	-0.04
515.907	-0.02
516.103	-0.01
516.3	0.01
516.497	0.04
516.693	0.04
516.89	-0.01
517.086	-0.04
517.283	0.03
517.479	0.01
517.676	-0
517.872	-0
518.068	-0.02
518.265	-0.01
518.461	-0.01
518.658	-0.03
518.854	-0
519.05	-0.01
519.247	-0.03
519.443	0.01
519.639	0.01
519.836	-0.01
520.032	-0
520.228	0
520.424	0.04
520.621	0.02
520.817	-0.01
521.013	0
521.209	0
521.405	0.03
521.601	0
521.798	0.02
521.994	0.02
522.19	-0.02
522.386	-0.03
522.582	-0
522.778	-0.01
522.974	-0.03
523.17	-0.01
523.366	0.01
523.562	0.03
523.758	-0
523.954	-0.02
524.15	-0.02
524.346	0.01
524.542	-0.02
524.738	-0.03
524.934	-0
525.129	-0.06
525.325	-0.01
525.521	0.02
525.717	0.02
525.913	-0.01
526.109	-0.02
526.304	-0.01
526.5	-0
526.696	0.04
526.892	-0.03
527.087	-0.01
527.283	-0.03
527.479	0.01
527.674	-0.01
527.87	-0.02
528.066	-0.03
528.261	0.02
528.457	0.01
528.653	-0
528.848	-0
529.044	-0.01
529.239	0
529.435	0.04
529.63	0.02
529.826	0.03
530.021	0
530.217	0.01
530.412	-0.02
530.608	-0.03
530.803	-0.01
530.999	-0.01
531.194	-0.04
531.389	0
531.585	-0.05
531.78	-0.01
531.975	-0.02
532.171	0.01
532.366	-0.03
532.561	-0.01
532.757	-0.04
532.952	0
533.147	0.01
533.342	-0.01
533.538	-0.02
533.733	0.02
533.928	0.01
534.123	-0.03
534.318	-0.03
534.513	-0.01
534.709	-0.01
534.904	-0.02
535.099	-0.02
535.294	-0.01
535.489	-0.01
535.684	-0.01
535.879	-0.03
536.074	-0
536.269	-0.04
536.464	0
536.659	-0.01
536.854	-0.01
537.049	0.01
537.244	-0.01
537.439	-0.02
537.634	0.03
537.828	0
538.023	-0
538.218	-0.03
538.413	-0
538.608	-0.04
538.803	-0
538.997	-0.05
539.192	0.03
539.387	-0.01
539.582	0
539.776	0
539.971	-0.04
540.166	-0.02
540.36	-0.03
540.555	-0.01
540.75	-0.02
540.944	-0.01
541.139	-0.03
541.334	-0.02
541.528	-0.01
541.723	0.02
541.917	-0
542.112	-0.07
542.306	-0.03
542.501	-0.03
542.695	-0
542.89	-0.02
543.084	0
543.279	-0.02
543.473	-0.02
543.668	-0.02
543.862	-0.02
544.056	0.03
544.251	-0.01
544.445	0.01
544.64	0
544.834	-0.02
545.028	0
545.222	-0.01
545.417	0.02
545.611	0.01
545.805	-0.04
546	-0.02
546.194	-0.01
546.388	-0.04
546.582	0
546.776	-0.01
546.97	-0.02
547.165	0.01
547.359	0.02
547.553	-0.01
547.747	-0
547.941	-0
548.135	-0.01
548.329	0.01
548.523	0.02
548.717	-0
548.911	-0.02
549.105	-0
549.299	0.01
549.493	-0
549.687	-0.01
549.881	0
550.075	0
550.269	-0.03
550.463	0.03
550.657	-0.04
550.85	-0.02
551.044	-0.01
551.238	0
551.432	-0.03
551.626	-0.04
551.82	-0.02
552.013	-0.02
552.207	-0.01
552.401	0.05
552.594	-0.01
552.788	0
552.982	-0.02
553.176	-0
553.369	0.02
553.563	-0
553.756	-0.03
553.95	-0.02
554.144	0
554.337	0.01
554.531	0
554.724	0
554.918	-0.01
555.111	0.01
555.305	-0.01
555.498	0.06
555.692	0.01
555.885	-0.02
556.079	0
556.272	-0.02
556.466	0.01
556.659	0.01
556.852	0.01
557.046	-0.01
557.239	0.01
557.432	-0.02
557.626	-0.01
557.819	-0.01
558.012	0.01
558.206	0.02
558.399	-0
558.592	0.01
558.785	-0.01
558.979	0.01
559.172	0
559.365	0.01
559.558	-0.01
559.751	0
559.944	-0.02
560.138	-0.02
560.331	-0
560.524	-0.01
560.717	-0.03
560.91	-0.02
561.103	0.02
561.296	-0.01
561.489	0
561.682	0.01
561.875	0.02
562.068	-0
562.261	0.01
562.454	0.01
562.647	0
562.84	0.02
563.032	-0
563.225	0
563.418	-0.03
563.611	-0.02
563.804	0
563.997	-0.04
564.19	-0.02
564.382	0.01
564.575	-0
564.768	0.01
564.961	-0.03
565.153	-0.01
565.346	0.02
565.539	-0
565.731	0
565.924	0.03
566.117	0.01
566.309	-0
566.502	-0.02
566.695	-0.01
566.887	-0.01
567.08	-0.03
567.272	-0.01
567.465	0
567.657	-0
567.85	-0
568.042	0
568.235	0
568.427	0.01
568.62	0.01
568.812	0.02
569.005	-0
569.197	-0.04
569.389	-0
569.582	0
569.774	-0
569.966	-0.04
570.159	-0.05
570.351	0.02
570.543	-0.01
570.736	-0.01
570.928	-0.03
571.12	0.01
571.312	-0.04
571.505	-0.03
571.697	0.04
571.889	-0.03
572.081	-0
572.273	-0.03
572.465	0.04
572.658	-0.02
572.85	-0
573.042	-0.02
573.234	-0.01
573.426	0.03
573.618	-0.04
573.81	-0.01
574.002	0.03
574.194	0.03
574.386	-0.02
574.578	-0.05
574.77	-0.03
574.962	-0.01
575.154	-0.05
575.346	-0.02
575.538	0.02
575.729	-0.03
575.921	0.01
576.113	-0.04
576.305	0.02
576.497	-0.02
576.689	-0
576.88	-0.01
577.072	0.02
577.264	-0.01
577.456	-0.02
577.647	-0.09
577.839	-0.03
578.031	0.02
578.223	-0.02
578.414	-0.05
578.606	0
578.798	0.03
578.989	-0.03
579.181	-0
579.372	-0
579.564	-0.01
579.755	-0.01
579.947	0.01
580.139	0.01
580.33	-0.06
580.522	-0.03
580.713	-0.06
580.905	0.01
581.096	0.02
581.287	-0.02
581.479	0.01
581.67	-0.01
581.862	-0.02
582.053	-0.01
582.244	-0.05
582.436	-0.01
582.627	-0.02
582.818	-0.02
583.01	-0.02
583.201	0.02
583.392	0.02
583.583	-0.01
583.775	-0.02
583.966	-0.02
584.157	-0.01
584.348	0.01
584.54	-0.05
584.731	-0.01
584.922	-0.01
585.113	-0.04
585.304	0.01
585.495	0.02
585.686	0.01
585.877	0.01
586.068	0.01
586.259	0.01
586.45	0
586.641	-0.02
586.832	-0.05
587.023	-0.02
587.214	-0.01
587.405	-0.01
587.596	-0.02
587.787	0.04
587.978	-0
588.169	-0.03
588.36	-0.02
588.551	-0
588.742	-0.03
588.932	-0
589.123	0
589.314	0.02
589.505	-0.01
589.696	-0
589.886	-0.03
590.077	-0.01
590.268	0.02
590.458	-0.04
590.649	-0.04
590.84	0.01
591.03	-0.04
591.221	-0.06
591.412	-0.03
591.602	0.01
591.793	0
591.984	-0.03
592.174	0
592.365	0.05
592.555	-0.03
592.746	-0
592.936	0.02
593.127	0.02
593.317	0.01
593.508	-0.04
593.698	-0.04
593.889	-0
594.079	-0
594.269	-0.03
594.46	-0.01
594.65	-0.02
594.84	0
595.031	-0.04
595.221	-0.05
595.411	-0.05
595.602	0.02
595.792	-0.03
595.982	-0.01
596.172	0.03
596.363	-0
596.553	-0.01
596.743	-0.02
596.933	-0
597.123	0.02
597.314	-0.04
597.504	-0.03
597.694	0.03
597.884	0.01
598.074	-0.02
598.264	-0.02
598.454	0
598.644	-0.02
598.834	0.01
599.024	-0.06
599.214	-0.02
599.404	0.01
599.594	-0.01
599.784	-0.02
599.974	0
600.164	0.01
600.354	-0.04
600.544	-0.05
600.734	-0
600.924	0.03
601.114	-0.01
601.303	0.01
601.493	-0
601.683	-0.03
601.873	-0
602.063	-0.04
602.252	0.01
602.442	-0.05
602.632	-0.04
602.821	-0.03
603.011	0.01
603.201	-0
603.39	-0.02
603.58	-0.04
603.77	0.02
603.959	0
604.149	-0.03
604.339	-0.02
604.528	0.01
604.718	-0
604.907	-0.01
605.097	-0.02
605.286	-0.06
605.476	0.01
605.665	0.01
605.855	-0
606.044	-0.02
606.234	-0.02
606.423	-0.03
606.612	-0.02
606.802	-0.01
606.991	0.01
607.181	-0.01
607.37	-0.06
607.559	-0.02
607.749	-0.05
607.938	0.01
608.127	0
608.316	-0.01
608.506	0.03
608.695	0.02
608.884	-0.03
609.073	-0.01
609.263	0.01
609.452	-0
609.641	0.01
609.83	-0.06
610.019	0.02
610.208	-0.04
610.397	0.01
610.586	-0.01
610.775	-0.03
610.965	-0.02
611.154	-0.03
611.343	0.01
611.532	-0.01
611.721	-0.04
611.91	-0.04
612.099	-0.01
612.287	-0.02
612.476	-0.05
612.665	-0
612.854	-0.04
613.043	0.06
613.232	0
613.421	-0.03
613.61	-0.03
613.798	-0.02
613.987	0.04
614.176	-0
614.365	0.01
614.554	-0
614.742	0.01
614.931	-0.03
615.12	0.03
615.309	0
615.497	0.01
615.686	-0.02
615.875	-0.01
616.063	0
616.252	-0.04
616.44	-0.01
616.629	-0.03
616.818	0.03
617.006	-0.01
617.195	-0.02
617.383	-0
617.572	0.01
617.76	-0.01
617.949	-0.02
618.137	0.03
618.326	0.04
618.514	-0.01
618.703	0
618.891	0.06
619.079	-0.06
619.268	-0.01
619.456	-0.04
619.644	0.01
619.833	-0.02
620.021	-0.02
620.209	-0.03
620.398	0.01
620.586	0.01
620.774	0
620.962	-0.01
621.151	0.03
621.339	-0.01
621.527	-0.05
621.715	-0.05
621.903	-0.03
622.092	-0.04
622.28	0.01
622.468	-0.04
622.656	-0.02
622.844	0.03
623.032	-0.04
623.22	-0.03
623.408	0.02
623.596	-0.01
623.784	0.05
623.972	-0.02
624.16	-0.01
624.348	0.05
624.536	-0.03
624.724	-0
624.912	0.03
625.1	0.03
625.288	-0.04
625.476	-0.02
625.664	0.02
625.851	-0.02
626.039	-0
626.227	0.02
626.415	-0.02
626.603	-0.07
626.79	0.01
626.978	-0.01
627.166	-0
627.354	0.02
627.541	-0.04
627.729	-0.08
627.917	0.01
628.104	0.03
628.292	-0
628.48	0.01
628.667	-0
628.855	0
629.042	0
629.23	0.02
629.418	-0.01
629.605	-0.02
629.793	-0
629.98	-0
630.168	-0.01
630.355	-0.01
630.543	0.02
630.73	-0.02
630.917	0.02
631.105	0.06
631.292	-0.02
631.48	0
631.667	0.07
631.854	0
632.042	-0
632.229	-0.03
632.416	-0
632.604	0.01
632.791	-0.03
632.978	0.04
633.165	0.02
633.353	0.07
633.54	0.02
633.727	-0.06
633.914	-0.02
634.101	-0.08
634.289	0.05
634.476	-0.02
634.663	-0.02
634.85	0.02
635.037	-0.02
635.224	-0.04
635.411	0.04
635.598	0.03
635.785	0.01
635.972	-0.01
636.159	0.05
636.346	-0.05
636.533	-0.01
636.72	0
636.907	0.01
637.094	0.05
637.281	0
637.468	0.01
637.655	0.02
637.842	0.02
638.029	-0.04
638.215	0.03
638.402	0.01
638.589	0
638.776	0
638.963	0.01
639.149	0.03
639.336	0.09
639.523	0.01
639.709	0.02
639.896	0.01
640.083	0.04
640.27	0.05
640.456	-0.03
640.643	0.03
640.829	-0.01
641.016	0.06
641.203	-0.02
641.389	0.03
641.576	0.05
641.762	0
641.949	-0
642.135	0.07
642.322	0.03
642.508	-0
642.695	0.01
642.881	0.02
643.068	0.02
643.254	0.02
643.441	0.07
643.627	0
643.813	0.01
644	0.04
644.186	-0.02
644.372	-0.04
644.559	0.03
644.745	-0.01
644.931	0.01
645.118	0.03
645.304	0.02
645.49	-0
645.676	0.01
645.862	0.04
646.049	0.09
646.235	0.02
646.421	0.1
646.607	0.06
646.793	-0.01
646.979	0
647.165	0.04
647.352	0.04
647.538	0.06
647.724	0.04
647.91	0.05
648.096	0.06
648.282	0.05
648.468	0.02
648.654	0.06
648.84	0.04
649.026	0.07
649.212	0.04
649.397	0.02
649.583	0.01
649.769	0.08
649.955	0.06
650.141	0.05
650.327	0.08
650.513	0.01
650.698	0.06
650.884	-0.03
651.07	0.08
651.256	0.06
651.442	0.05
651.627	0.06
651.813	0.06
651.999	0.07
652.184	0.1
652.37	0.06
652.556	0.04
652.741	0.1
652.927	-0.01
653.113	0.03
653.298	0.07
653.484	0.04
653.669	-0.01
653.855	0.05
654.04	0.09
654.226	0.08
654.412	0.06
654.597	0.03
654.782	0.09
654.968	0.09
655.153	0.14
655.339	0.09
655.524	0.04
655.71	0.1
655.895	0.09
656.08	0.09
656.266	0.11
656.451	0.1
656.636	0.06
656.822	0.12
657.007	0.06
657.192	0.08
657.378	0.02
657.563	0.08
657.748	0.11
657.933	0.1
658.118	0.09
658.304	0.1
658.489	0.12
658.674	0.12
658.859	0.07
659.044	0.12
659.229	0.07
659.414	0.08
659.599	0.11
659.785	0.05
659.97	0.08
660.155	0.13
660.34	0.11
660.525	0.07
660.71	0.11
660.895	0.12
661.08	0.11
661.264	0.1
661.449	0.12
661.634	0.11
661.819	0.11
662.004	0.13
662.189	0.02
662.374	0.04
662.559	0.04
662.743	-0
662.928	0.1
663.113	0.03
663.298	0.01
663.483	0.05
663.667	0.07
663.852	0.03
664.037	0.09
664.221	0.04
664.406	0.09
664.591	0.09
664.775	0.07
664.96	0.05
665.145	0.07
665.329	0.09
665.514	0.04
665.698	0.05
665.883	-0.02
666.068	0.09
666.252	0.05
666.437	0.01
666.621	0.03
666.806	0.05
666.99	0
667.174	-0.02
667.359	0.08
667.543	0.03
667.728	-0.03
667.912	-0.07
668.096	0.03
668.281	-0.01
668.465	0.01
668.649	0.01
668.834	-0.02
669.018	-0.01
669.202	-0.01
669.387	-0.03
669.571	0.09
669.755	-0.02
669.939	-0.02
670.124	0.05
670.308	0.04
670.492	-0
670.676	-0
670.86	0.02
671.044	-0.07
671.228	0
671.413	-0.06
671.597	-0.02
671.781	-0.05
671.965	0.01
672.149	0
672.333	0.02
672.517	0.01
672.701	0.03
672.885	-0
673.069	-0.1
673.253	0.04
673.437	-0.01
673.621	-0.02
673.804	-0.01
673.988	0.03
674.172	0.01
674.356	-0.08
674.54	-0.01
674.724	0.07
674.908	0
675.091	0.05
675.275	-0.08
675.459	-0
675.643	-0
675.826	-0
676.01	-0
676.194	-0.02
676.377	0.04
676.561	0
676.745	-0.01
676.928	-0.03
677.112	0.01
677.296	-0.01
677.479	-0.01
677.663	-0
677.846	0.02
678.03	-0.02
678.213	-0.04
678.397	0.04
678.58	-0.02
678.764	-0.02
678.947	-0.05
679.131	-0.03
679.314	0.08
679.498	-0.03
679.681	0.02
679.865	0.04
680.048	-0.05
680.231	0.05
680.415	-0.02
680.598	-0.05
680.781	-0.02
680.965	-0.05
681.148	0.02
681.331	0.01
681.514	0.04
681.698	-0.04
681.881	0.01
682.064	-0.02
682.247	-0.02
682.43	-0.08
682.614	0.04
682.797	0.04
682.98	0.04
683.163	-0.06
683.346	0.04
683.529	-0.04
683.712	-0.06
683.895	-0.01
684.078	-0.04
684.261	-0.03
684.444	-0.01
684.627	-0.02
684.81	-0.01
684.993	-0.04
685.176	0.04
685.359	0.02
685.542	-0.04
685.725	0.01
685.908	-0.02
686.091	-0.02
686.274	0.01
686.457	-0.01
686.639	0
686.822	0.02
687.005	0
687.188	0.01
687.371	0.05
687.553	-0.04
687.736	0
687.919	0.06
688.102	0.06
688.284	0.03
688.467	-0
688.65	-0.03
688.832	-0.02
689.015	-0.02
689.197	-0.07
689.38	0.06
689.563	0.04
689.745	-0.07
689.928	-0.05
690.11	0.02
690.293	0.03
690.475	-0.08
690.658	0.01
690.84	0.02
691.023	-0.06
691.205	-0.04
691.388	-0.01
691.57	-0.03
691.752	0.03
691.935	-0.07
692.117	-0.03
692.3	-0.01
692.482	-0.04
692.664	0.02
692.847	0.03
693.029	0.06
693.211	-0.02
693.393	-0.02
693.576	0.01
693.758	-0.01
693.94	0
694.122	-0.03
694.304	-0
694.487	0.02
694.669	0.06
694.851	-0.03
695.033	-0.01
695.215	-0.09
695.397	-0.08
695.579	0
695.761	-0.03
695.943	-0.06
696.125	0.05
696.308	0
696.49	-0.08
696.671	0.08
696.853	0.02
697.035	0.1
697.217	-0.01
697.399	0.03
697.581	-0.06
697.763	-0.02
697.945	-0.02
698.127	-0.02
698.309	0.01
698.491	-0.03
698.672	0
698.854	0.05
699.036	0.06
699.218	-0.06
699.399	0.06
699.581	0.05
699.763	-0
699.945	-0.04
700.126	-0.07
700.308	0.02
700.49	0.02
700.671	-0.08
700.853	-0.04
701.035	-0.03
701.216	0
701.398	-0.07
701.579	0.03
701.761	0.02
701.943	-0.09
702.124	-0.07
702.306	-0.04
702.487	0.08
702.669	-0.03
702.85	-0.04
703.031	-0.09
703.213	0.05
703.394	0.06
703.576	-0.05
703.757	0.06
703.938	-0.01
704.12	0.18
704.301	-0.02
704.483	-0.01
704.664	-0.02
704.845	0.11
705.026	0.01
705.208	-0.01
705.389	-0.01
705.57	-0.06
705.751	-0.05
705.933	0.01
706.114	0.07
706.295	-0.01
706.476	-0.11
706.657	0.1
706.838	0.09
707.02	0.01
707.201	-0.09
707.382	-0.02
707.563	-0.01
707.744	-0.01
707.925	-0.06
708.106	-0.02
708.287	-0
708.468	0.05
708.649	0.04
708.83	0.06
709.011	0.05
709.192	0.02
709.373	-0.09
709.554	-0.01
709.734	0.02
709.915	0.07
710.096	-0.05
710.277	-0.1
710.458	-0.02
710.639	-0
710.819	-0.12
711	0.01
711.181	0.08
711.362	0.02
711.542	-0
711.723	-0.03
711.904	0.12
712.085	0.03
712.265	-0
712.446	-0.06
712.627	-0.03
712.807	0.03
712.988	0.02
713.168	-0.08
713.349	0.04
713.53	-0.1
713.71	-0
713.891	-0.1
714.071	0.01
714.252	-0.05
714.432	-0.02
714.613	-0.08
714.793	-0.04
714.974	0.07
715.154	0.06
715.334	0.04
715.515	0.1
715.695	-0.04
715.876	-0.02
716.056	-0.02
716.236	0
716.417	-0.03
716.597	-0.02
716.777	0.09
716.957	-0.01
717.138	0
717.318	0.05
717.498	-0.02
717.678	-0.01
717.859	-0.04
718.039	-0.08
718.219	0.04
718.399	0.08
718.579	-0.04
718.759	-0.03
718.939	0.1
719.12	0.03
719.3	0.02
719.48	-0.16
719.66	-0.12
719.84	0.09
720.02	0.02
720.2	-0
720.38	0.03
720.56	0.1
720.74	0.03
720.92	0.04
721.1	0.09
721.279	0.05
721.459	0.07
721.639	-0.03
721.819	0.04
721.999	0.09
722.179	0.01
722.359	-0.02
722.538	0.05
722.718	0.07
722.898	0.04
723.078	-0.01
723.257	0.03
723.437	0.08
723.617	0.04
723.797	-0
723.976	0.03
724.156	0.09
724.336	0.09
724.515	0.2
724.695	-0.08
724.874	0
725.054	0.05
725.234	0.03
725.413	0.15
725.593	-0.04
725.772	0.05
725.952	0.08
726.131	0.01
726.311	-0.05
726.49	0.04
726.67	-0.12
726.849	0.02
727.028	0.04
727.208	-0.13
727.387	0.05
727.567	0
727.746	0.05
727.925	0.09
728.105	-0.01
728.284	0.05
728.463	0.09
728.643	0.09
728.822	-0.01
729.001	0.01
729.18	0.05
729.359	0.09
729.539	0.06
729.718	0.07
729.897	0.07
730.076	-0.05
730.255	-0.06
730.434	0.02
730.614	0.13
730.793	0.08
730.972	0.06
731.151	0.02
731.33	0.15
731.509	0.06
731.688	0.04
731.867	0.1
732.046	-0.11
732.225	0.15
732.404	-0.01
732.583	-0.01
732.762	0.08
732.941	0.13
733.12	0.05
733.298	0.09
733.477	0.02
733.656	0.04
733.835	-0.06
734.014	0.17
734.193	0.01
734.371	0.03
734.55	0.15
734.729	-0.06
734.908	0.11
735.086	0.07
735.265	0.29
735.444	-0.04
735.623	0.08
735.801	-0.01
735.98	0.22
736.159	0.06
736.337	0.12
736.516	0.03
736.694	0.12
736.873	-0
737.052	0.25
737.23	0.26
737.409	0.09
737.587	0.11
737.766	-0.08
737.944	0.06
738.123	0.13
738.301	0.15
738.479	0.05
738.658	0.09
738.836	-0.07
739.015	0.12
739.193	0.15
739.371	0.02
739.55	0.01
739.728	-0.01
739.906	0.19
740.085	0.28
740.263	0.13
740.441	-0.08
740.62	0.33
740.798	0.11
740.976	0.03
741.154	0.06
741.332	0.23
741.511	0.12
741.689	-0
741.867	0.15
742.045	0.08
742.223	0.06
742.401	-0.06
742.579	-0.05
742.757	0.05
742.935	-0.03
743.114	-0.06
743.292	0.02
743.47	0.06
743.648	0.06
743.826	0.2
744.004	0.15
744.181	0.1
744.359	0.01
744.537	-0.05
744.715	0.07
744.893	-0.07
745.071	0.09
745.249	0.01
745.427	0.01
745.605	0.09
745.782	0.07
745.96	0.03
746.138	0.04
746.316	0.1
746.493	0.07
746.671	0.06
746.849	-0.06
747.027	0.14
747.204	-0.1
747.382	0.06
747.56	-0.01
747.737	0.07
747.915	-0.09
748.093	0
748.27	-0.03
748.448	0.03
748.625	-0.19
748.803	-0.17
748.98	-0.02
749.158	0.1
749.335	0.11
749.513	0.04
749.69	-0.07
749.868	0.01
750.045	-0
750.223	-0.13
750.4	-0.17
750.578	0.25
750.755	0.01
750.932	-0.12
751.11	0.11
751.287	-0.11
751.464	0.04
751.642	-0.1
751.819	0.01
751.996	-0.04
752.173	-0.03
752.351	-0.02
752.528	-0.1
752.705	0.05
752.882	-0.07
753.06	0.03
753.237	0.09
753.414	0.12
753.591	0.09
753.768	-0.01
753.945	0.02
754.122	-0
754.299	0.1
754.476	-0.11
754.654	-0.01
754.831	0.16
755.008	-0.08
755.185	0.02
755.362	-0.12
755.539	-0.05
755.716	-0.15
755.892	-0.06
756.069	-0.04
756.246	-0.02
756.423	-0.1
756.6	0.13
756.777	0.01
756.954	-0.01
757.131	-0.02
757.307	-0.14
757.484	-0.04
757.661	0.02
757.838	-0.03
758.015	-0.18
758.191	0.05
758.368	0.02
758.545	0.1
758.721	0.05
758.898	-0.02
759.075	0.1
759.251	0.15
759.428	0.04
759.605	-0.27
759.781	0.06
759.958	0.02
760.134	0.17
760.311	-0.04
760.488	0.15
760.664	0.08
760.841	-0.02
761.017	-0.16
761.194	0.06
761.37	0.1
761.547	-0.04
761.723	-0.08
761.899	0.03
762.076	-0.07
762.252	-0.1
762.429	-0.1
762.605	0.08
762.781	-0.03
762.958	-0.01
763.134	-0.04
763.31	-0.12
763.486	0.22
763.663	-0.29
763.839	0.03
764.015	-0.11
764.191	-0.13
764.368	0.03
764.544	-0.05
764.72	-0.07
764.896	0.09
765.072	-0.04
765.248	-0.05
765.425	-0.16
765.601	0.08
765.777	-0.01
765.953	-0.29
766.129	-0.06
766.305	-0.1
766.481	-0.01
766.657	0.06
766.833	0.16
767.009	-0.12
767.185	-0.1
767.361	-0.08
767.537	-0.12
767.713	0.15
767.889	-0.18
768.065	-0.06
768.24	-0.1
768.416	0.2
768.592	-0.03
768.768	-0.15
768.944	0.05
769.12	-0.12
769.295	-0.04
769.471	-0.11
769.647	-0.01
769.823	0.1
769.998	-0.12
770.174	-0.15
770.35	0.31
770.525	0.24
770.701	-0.04
770.877	-0
771.052	-0.2
771.228	0.1
771.403	0.03
771.579	0.07
771.755	0.26
771.93	-0.05
772.106	-0.19
772.281	-0.08
772.457	-0.18
772.632	0.04
772.808	-0.26
772.983	-0.13
773.159	-0.15
773.334	0.19
773.509	0.04
773.685	0.01
773.86	0.29
774.036	0.16
774.211	0.01
774.386	-0
774.562	-0.02
774.737	0.19
774.912	-0.1
775.087	0.03
775.263	-0.11
775.438	-0.02
775.613	-0.07
775.788	-0.02
775.964	0.04
776.139	0.26
776.314	-0.22
776.489	-0.02
776.664	-0.04
776.839	-0.1
777.014	0.21
777.19	0.08
777.365	0.02
777.54	-0
777.715	-0.06
777.89	-0.06
778.065	-0.11
778.24	-0.11
778.415	0.12
778.59	-0.22
778.765	-0.13
778.94	-0.11
779.115	-0.15
779.289	-0.18
779.464	-0.07
779.639	0.02
779.814	-0.32
779.989	-0.26
780.164	0.06
780.339	0.08
780.513	-0.11
780.688	-0.05
780.863	0.07
781.038	0.01
781.212	-0.16
781.387	-0.15
781.562	0.25
781.737	0.02
781.911	0.09
782.086	-0.11
782.261	-0.06
782.435	0.14
782.61	-0.07
782.784	0.02
782.959	0.19
783.134	0.08
783.308	-0.28
783.483	-0.03
783.657	0.23
783.832	0.04
784.006	-0.22
784.181	-0.05
784.355	0.12
784.53	0.07
784.704	-0.22
784.878	0.18
785.053	0.12
785.227	-0.21
785.402	0.12
785.576	-0.14
785.75	-0.08
785.925	-0.06
786.099	-0.05
786.273	0.17
786.448	0.16
786.622	-0.02
786.796	-0.12
786.97	-0
787.145	0.5
787.319	-0.2
787.493	-0.16
787.667	-0.34
787.841	-0.06
788.015	0.19
788.19	-0.1
788.364	0.1
788.538	0.23
788.712	-0.01
788.886	0.04
789.06	0.16
789.234	0.06
789.408	-0.37
789.582	-0.19
789.756	-0.05
789.93	-0.22
790.104	0.13
790.278	-0.1
790.452	-0.23
790.626	0.17
790.8	-0.1
790.973	0.1
791.147	0.45
791.321	0.1
791.495	0.15
791.669	0.13
791.843	0.1
792.016	0.01
792.19	0.35
792.364	-0.01
792.538	0.4
792.711	0.13
792.885	-0.14
793.059	-0.2
793.233	-0.65
793.406	0
793.58	-0.14
793.754	-0.11
793.927	-0.09
794.101	0.22
794.274	0.11
794.448	0.33
794.622	-0.11
794.795	0.09
794.969	-0.16
795.142	0.08
795.316	-0.24
795.489	-0.24
795.663	0.27
795.836	-0.3
796.009	-0.2
796.183	0.42
796.356	0.19
796.53	0.08
796.703	0.02
796.876	0.56
797.05	-0.26
797.223	-0.04
797.396	0.03
797.57	0.27
797.743	0.33
797.916	-0.12
798.09	0.09
798.263	0.04
798.436	0.32
798.609	-0.13
798.782	-0.15
798.956	-0.07
799.129	0.08
799.302	-0.21
799.475	0.15
799.648	-0.1
799.821	-0.27
799.994	0.08
800.167	-0.28
800.34	0.16
800.514	-0.03
800.687	-0.4
800.86	-0.04
801.033	0.23
801.206	0.07
801.379	-0.23
801.551	0.03
801.724	0.14
801.897	0.19
802.07	-0.18
802.243	-0.2
802.416	-0.28
802.589	-0.18
802.762	0.23
802.935	0.14
803.107	0.18
803.28	0.17
803.453	0.22
803.626	-0.4
803.798	-0.27
803.971	0.03
804.144	0.38
804.317	0.16
804.489	0.12
804.662	-0.19
804.835	0.14
805.007	-0.24
805.18	0.44
805.353	-0.05
805.525	-0.39
805.698	-0.13
805.87	0.09
806.043	0.12
806.215	-0.3
806.388	-0.18
806.56	0.14
806.733	0.41
806.905	0.07
807.078	-0.41
807.25	-0.33
807.423	0.15
807.595	0.03
807.768	-0.54
807.94	0.48
808.112	-0.01
808.285	0.24
808.457	0.19
808.629	0.07
808.802	0.25
808.974	-0.01
809.146	-0.17
809.318	-0.14
809.491	-0.26
809.663	0.32
809.835	0.06
810.007	-0.04
810.18	0.05
810.352	-0.43
810.524	-0.02
810.696	0.31
810.868	0.14
811.04	-0.25
811.212	-0.37
811.384	0.22
811.556	0.04
811.728	-0.01
811.901	0.45
812.073	-0.06
812.245	0.3
812.417	-0.2
812.589	-0.77
812.76	0.13
812.932	0.11
813.104	0.32
813.276	-0.2
813.448	0.11
813.62	0
813.792	0.17
813.964	0.07
814.136	-0.06
814.307	0.04
814.479	-0.28
814.651	-0.06
814.823	0.41
814.995	-0.19
815.166	0.12
815.338	0.19
815.51	-0.47
815.681	0.86
815.853	0.11
816.025	-0.36
816.196	0.49
816.368	0.18
816.54	-0.47
816.711	0.02
816.883	0.04
817.054	0.68
817.226	-0.26
817.398	0.1
817.569	0.04
817.741	-0.22
817.912	0.25
818.084	0.09
818.255	-0.03
818.426	-0.1
818.598	-0.07
818.769	-0.58
818.941	0.17
819.112	0.52
819.283	0.13
819.455	-0.16
819.626	-0.09
819.798	0.08
819.969	-0.07
820.14	-0.07
820.311	0.03
820.483	-0.07
820.654	0.31
820.825	-0.16
820.996	-0.34
821.168	-0.6
821.339	0.29
821.51	-0.55
821.681	-0.18
821.852	-0.22
822.023	-0.75
822.195	-1.24
822.366	0.47
822.537	0
822.708	0.46
822.879	-0.27
823.05	0.51
823.221	-0.23
823.392	0.24
823.563	0.09
823.734	-0.02
823.905	0.06
824.076	-0.44
824.247	-0.73
824.418	-0.46
824.589	0.53
824.759	-1.13
824.93	0.25
825.101	-0.83
825.272	0.58
825.443	0.15
825.614	0.09
825.784	-0.92
825.955	0.67
826.126	0.3
826.297	0.16
826.467	0.48
826.638	0.15
826.809	-0.82
826.98	-0.49
827.15	0.1
827.321	0
827.492	0.65
827.662	0.41
827.833	0.37
828.003	0.58
828.174	-0.42
828.345	-0.73
828.515	0.68
828.686	0.37
828.856	-0.11
829.027	-0.01
829.197	0.42
829.368	0.01
829.538	-0.44
829.709	-0.82
829.879	-0.17
830.049	-0.16
830.22	-0.32
830.39	0.2
830.56	0.26
830.731	-0.39
830.901	-0.35
831.072	-0.27
831.242	-0.36
831.412	-0.02
831.582	-0.41
831.753	-0.62
831.923	0.29
832.093	-0.53
832.263	-0.38
832.434	-1.08
832.604	-0.27
832.774	0.33
832.944	0.08
833.114	-0.45
833.284	0.46
833.454	-0.61
833.624	-0.3
833.795	-0.46
833.965	0.89
834.135	0.08
834.305	-0.75
834.475	-0.99
834.645	-0.6
834.815	0.07
834.985	0.03
835.155	-0.63
835.325	-0.01
835.494	0.51
835.664	-0.36
835.834	-1.25
836.004	-0.22
836.174	0.87
836.344	-0.21
836.514	-0.39
836.684	-0.3
836.853	0.22
837.023	0.32
837.193	-0.38
837.363	-0.22
837.532	0.97
837.702	-0.28
837.872	-0.5
838.041	-0.38
838.211	1.04
838.381	-0.09
838.55	-0.1
838.72	1.63
838.89	0.45
839.059	0.16
839.229	-0.96
839.398	1.38
839.568	0.18
839.738	0.06
839.907	0.15
840.077	0.08
840.246	-0.75
840.416	-0.23
840.585	-0.74
840.755	0.76
840.924	0.35
841.093	-1.08
841.263	-0.39
841.432	-0.03
841.602	-1.02
841.771	-0.56
841.94	0.46
842.11	1.08
842.279	0.67
842.448	-0.35
842.617	-0.77
842.787	0.43
842.956	-1.1
843.125	0.33
843.294	0.46
843.464	0.49
843.633	-0.03
843.802	-1.19
843.971	0.12
844.14	0.41
844.309	0.79
844.479	-0.49
844.648	-0.67
844.817	-0.52
844.986	-0.19
845.155	-0.66
845.324	-0.53
845.493	-0.04
845.662	-0.67
845.831	0.35
846	-0.21
846.169	-0.46
846.338	0.46
846.507	1
846.676	0.42
846.844	0.07
847.013	-0.2
847.182	-0.42
847.351	-0.48
847.52	-0.19
847.689	0.28
847.858	-0.02
848.026	-0.9
848.195	-0.88
848.364	0.19
848.533	-0.61
848.701	-1.07
848.87	-0.49
849.039	0.2
849.207	1.1
849.376	0.35
849.545	1.14
849.713	0.17
849.882	-0.77
850.051	-0.13
850.219	0.68
850.388	0.08
850.556	-0.7
850.725	-0.44
850.893	-0.46
851.062	-0.01
851.23	-0.12
851.399	-1.31
851.567	-1.34
851.736	0.24
851.904	-1.48
852.073	0.81
852.241	0.07
852.41	-0.51
852.578	-0.3
852.746	-0.14
852.915	-0.02
853.083	-0.96
853.251	-1.15
853.42	-0.37
853.588	-0.07
853.756	-0.1
853.924	0.73
854.093	-0.09
854.261	-1.03
854.429	-0.52
854.597	0.31
854.765	-1.48
854.934	0.89
855.102	0.33
855.27	-0.99
855.438	-0.16
855.606	0.47
855.774	1.71
855.942	-1.73
856.11	-2.06
856.278	-0.02
856.446	-0.09
856.614	-0.27
856.782	-1.27
856.95	0.24
857.118	-0.1
857.286	-0.4
857.454	-1.11
857.622	1.61
857.79	0.13
857.958	-1.28
858.126	0.36
858.294	-2.2
858.462	0
858.629	0.15
858.797	-0.56
858.965	-0.38
859.133	0.71
859.301	-1.56
859.468	-0.63
859.636	-1.4
859.804	1.13
859.971	0.73
860.139	-0.96
860.307	0.44
860.474	-0.2
860.642	0.17
860.81	0.32
860.977	-0.52
861.145	1.68
861.313	-0.63
861.48	0.15
861.648	0.84
861.815	0.28
861.983	-0.6
862.15	-0.89
862.318	-0.28
862.485	0.55
862.653	-0.78
862.82	-0.98
862.988	0.57
863.155	-0.73
863.322	-1.96
863.49	-1.95
863.657	0.22
863.824	0.65
863.992	0.11
864.159	0.46
864.326	2.05
864.494	-0.48
864.661	2.12
864.828	-1.22
864.996	1.51
865.163	0.35
865.33	0.13
865.497	-3.12
865.664	0.69
865.832	-0.26
865.999	-0.34
866.166	-2.01
866.333	-1.3
866.5	-1.21
866.667	-0.15
866.834	-1.23
867.001	1.57
867.168	-2.41
867.335	-0.41
867.502	-2.16
867.669	1.23
867.836	1.31
868.003	0.27
868.17	0.42
868.337	-1.48
868.504	3.24
868.671	-1.67
868.838	-0.84
869.005	0.99
869.172	-0.05
869.339	-0.41
869.505	-0.98
869.672	-0.6
869.839	1.02
870.006	0.6
870.173	-1.59
870.339	-0.24
870.506	3.16
870.673	-1.09
870.84	0.49
871.006	-0.01
871.173	0.64
871.34	0.26
871.506	-0.75
871.673	-0.92
871.839	-2.09
872.006	-0.88
872.173	0.07
872.339	1.57
872.506	1.24
872.672	0.07
872.839	-2.03
873.005	0.8
873.172	3.89
873.338	0.17
873.505	0.6
873.671	-0.28
873.838	0.98
874.004	-2.02
874.171	-2.72
874.337	0.22
874.503	0.64
874.67	-0.82
874.836	-1.21
875.002	4.05
875.169	1.37
875.335	0.66
875.501	-0.68
875.668	1.62
875.834	1.45
876	-0.32
876.166	1.58
876.332	0.13
876.499	1.01
876.665	-1.34
876.831	-0.47
876.997	2.62
877.163	2.7
877.329	0.75
877.495	-1.22
877.662	0.99
877.828	-0.86
877.994	0.15
878.16	-2.75
878.326	-1.7
878.492	-0.22
878.658	0.19
878.824	-1.08
878.99	1.17
879.156	0.11
879.322	2.91
879.487	-0.54
879.653	1.87
879.819	0.99
879.985	-0.18
880.151	-0.73
880.317	0.62
880.483	-0.3
880.648	0.9
880.814	-5.56
880.98	0.45
881.146	-3.17
881.312	-2.17
881.477	-0.32
881.643	0.98
881.809	2.45
881.974	2.45
882.14	-3.36
882.306	0.08
882.471	1.98
882.637	-1.28
882.803	1.37
882.968	1.37
883.134	2.23
883.299	0.66
883.465	0.41
883.63	1.53
883.796	1.19
883.961	2.39
884.127	1.14
884.292	-3.15
884.458	-2.84
884.623	-2.84
