Data from Apollo_Calib_20240827__AbsoluteIrradiance__534__08-03-01-145.txt Node

Date: Wed Aug 28 08:03:01 BST 2024
User: biology
Spectrometer: FLMT08252
Trigger mode: 0
Integration Time (sec): 5.000000E-1
Scans to average: 5
Electric dark correction enabled: true
Nonlinearity correction enabled: false
Boxcar width: 0
XAxis mode: Wavelengths
Number of Pixels in Spectrum: 3648
>>>>>Begin Spectral Data<<<<<
179.588	-0
179.809	-0
180.03	-0
180.251	-0
180.473	-0
180.694	0
180.915	0
181.136	-0
181.357	0
181.578	-0
181.799	0
182.02	-0
182.241	0
182.462	-0
182.683	0
182.904	-0
183.125	-0
183.346	0
183.567	-0
183.788	-0
184.009	-0
184.23	0
184.451	0
184.672	-0
184.892	-0
185.113	-0
185.334	0
185.555	-0
185.776	-0
185.996	0
186.217	-0
186.438	-0
186.659	-0
186.879	0
187.1	-0
187.321	-0
187.541	-0
187.762	-0
187.983	-0
188.203	-0
188.424	0
188.644	-0
188.865	-0
189.086	-0
189.306	-0
189.527	0
189.747	0
189.968	-0
190.188	0
190.409	-0
190.629	0
190.849	-0
191.07	-0
191.29	-0
191.511	-0
191.731	-0
191.951	-0
192.172	-0
192.392	-0
192.612	-0
192.833	-0
193.053	0
193.273	0
193.493	-0
193.714	-0
193.934	0
194.154	0
194.374	0
194.594	-0
194.815	0
195.035	-0
195.255	0
195.475	-0
195.695	0
195.915	0
196.135	-0
196.355	0
196.575	0
196.795	0
197.015	-0
197.235	-0
197.455	-0
197.675	0
197.895	-0
198.115	-0
198.335	0
198.555	-0
198.775	-0
198.995	-0
199.214	0
199.434	-0
199.654	-0
199.874	-0
200.094	0.34
200.313	-0.5
200.533	-0.88
200.753	-1.02
200.973	0.62
201.192	0.56
201.412	-1.03
201.632	-0.42
201.851	0.55
202.071	-0.86
202.291	-0.76
202.51	-0.79
202.73	0.29
202.95	-0.54
203.169	-0.72
203.389	-0.28
203.608	-0.05
203.828	-0.79
204.047	-0.23
204.267	0.31
204.486	-0.54
204.706	0.19
204.925	-0.07
205.145	-0.46
205.364	0.08
205.583	0.45
205.803	-0.33
206.022	-0.68
206.242	-0.2
206.461	-0.41
206.68	-0.57
206.9	-0.15
207.119	0.49
207.338	0.05
207.557	-0.5
207.777	-0.5
207.996	0.02
208.215	0.14
208.434	-0.15
208.654	-0.54
208.873	-0.11
209.092	0.36
209.311	-0.24
209.53	-0.06
209.749	-0.26
209.968	-0.29
210.187	-0.46
210.407	-0.59
210.626	-0.22
210.845	-0.02
211.064	-0.23
211.283	-0.44
211.502	0.09
211.721	-0.07
211.94	-0.18
212.159	-0.06
212.377	0.09
212.596	0.26
212.815	0.08
213.034	0.18
213.253	0.1
213.472	0.27
213.691	-0.35
213.91	-0.31
214.128	-0.21
214.347	0.32
214.566	-0.4
214.785	-0.4
215.003	-0.01
215.222	-0.14
215.441	-0.05
215.66	-0.21
215.878	0.02
216.097	0.16
216.316	-0.34
216.534	-0.29
216.753	0.03
216.972	-0.17
217.19	-0.01
217.409	-0.21
217.627	-0.21
217.846	-0.25
218.064	-0.23
218.283	-0.25
218.501	0.35
218.72	0.06
218.938	-0.13
219.157	-0.27
219.375	0.11
219.594	-0.13
219.812	-0.25
220.031	-0.3
220.249	0.32
220.467	0.18
220.686	-0.07
220.904	-0.24
221.122	-0.35
221.341	0.41
221.559	0
221.777	-0.24
221.995	-0.07
222.214	-0.2
222.432	-0.14
222.65	-0.01
222.868	-0.02
223.086	-0.11
223.305	0.06
223.523	-0.19
223.741	0.2
223.959	-0.18
224.177	-0.16
224.395	-0.16
224.613	0.02
224.831	-0.04
225.049	-0.24
225.267	-0.16
225.485	-0.1
225.703	-0.15
225.921	-0.11
226.139	-0.13
226.357	0.13
226.575	0.11
226.793	-0.14
227.011	0.45
227.229	-0.01
227.447	0.02
227.665	-0.05
227.883	-0.3
228.1	-0.15
228.318	-0.02
228.536	-0.29
228.754	-0.03
228.972	0.01
229.189	-0
229.407	-0.1
229.625	-0.1
229.843	0.25
230.06	0.08
230.278	-0.23
230.496	-0.08
230.713	-0.18
230.931	0.13
231.149	-0.11
231.366	-0.16
231.584	-0.12
231.801	0.13
232.019	-0.1
232.236	-0.18
232.454	-0.15
232.671	-0.11
232.889	0
233.106	-0.12
233.324	-0.02
233.541	-0.07
233.759	-0.05
233.976	-0.13
234.194	-0.09
234.411	-0.09
234.628	-0.07
234.846	-0.08
235.063	-0.04
235.28	0.04
235.498	0.01
235.715	-0.09
235.932	-0
236.149	-0.15
236.367	-0.16
236.584	-0.03
236.801	-0.14
237.018	0.02
237.236	-0.06
237.453	-0.16
237.67	0.05
237.887	-0.01
238.104	-0.06
238.321	-0.22
238.538	-0.11
238.755	0.1
238.973	-0.23
239.19	-0.02
239.407	0.06
239.624	0.07
239.841	-0.18
240.058	-0.05
240.275	-0.01
240.492	-0.07
240.709	-0.07
240.925	-0.04
241.142	0.01
241.359	-0.15
241.576	-0.15
241.793	0.01
242.01	-0.05
242.227	0.09
242.444	-0.03
242.66	0.14
242.877	-0.06
243.094	-0.1
243.311	-0.04
243.527	-0.04
243.744	0.03
243.961	0.03
244.178	-0.06
244.394	-0.06
244.611	0.06
244.828	0.14
245.044	-0.13
245.261	-0.06
245.477	-0.04
245.694	-0.06
245.911	-0.1
246.127	0.02
246.344	0.14
246.56	-0.07
246.777	-0.01
246.993	-0.05
247.21	0.04
247.426	0.02
247.643	-0.05
247.859	-0.13
248.076	-0.07
248.292	0.14
248.508	-0.09
248.725	-0.03
248.941	0.03
249.157	0.11
249.374	-0.04
249.59	-0.05
249.806	-0.05
250.023	0.11
250.239	-0.09
250.455	-0.12
250.671	-0.01
250.888	-0.02
251.104	-0.01
251.32	-0.12
251.536	-0.04
251.752	-0.06
251.969	-0.02
252.185	-0.03
252.401	0.22
252.617	0.1
252.833	-0.06
253.049	0.03
253.265	0.01
253.481	0.03
253.697	-0.05
253.913	-0.11
254.129	0.01
254.345	0.01
254.561	0
254.777	-0.02
254.993	0.02
255.209	-0.02
255.425	-0.08
255.641	-0.06
255.857	0.15
256.073	-0.07
256.288	-0.13
256.504	-0.05
256.72	0.01
256.936	0.08
257.152	-0.09
257.367	-0.09
257.583	-0.02
257.799	0.01
258.015	-0.07
258.23	-0.12
258.446	0.07
258.662	0.01
258.877	-0.11
259.093	-0.08
259.309	0.02
259.524	-0.02
259.74	-0.08
259.955	-0.15
260.171	0.01
260.387	-0.06
260.602	0.01
260.818	-0.02
261.033	-0.07
261.249	-0.07
261.464	-0.1
261.68	-0.05
261.895	-0.03
262.11	0.08
262.326	-0.07
262.541	-0.1
262.757	0.04
262.972	-0.01
263.187	-0.03
263.403	-0.04
263.618	0.02
263.833	-0.03
264.049	-0.06
264.264	0.01
264.479	-0.02
264.694	0.07
264.91	-0.09
265.125	-0.08
265.34	0.04
265.555	0.09
265.77	-0.04
265.986	-0.04
266.201	0.02
266.416	0.07
266.631	-0.08
266.846	-0.01
267.061	0.02
267.276	-0.01
267.491	-0.19
267.706	0.02
267.921	-0.02
268.136	0.03
268.351	0.01
268.566	-0.09
268.781	0.1
268.996	0.02
269.211	-0.02
269.426	-0.13
269.641	-0.07
269.856	0.04
270.071	-0.02
270.285	-0.07
270.5	0.03
270.715	0
270.93	-0.02
271.145	-0.02
271.359	0.04
271.574	-0.05
271.789	-0.01
272.004	-0.09
272.218	-0.08
272.433	-0.01
272.648	-0.05
272.862	0.02
273.077	-0.08
273.292	-0.02
273.506	-0.07
273.721	-0.06
273.936	0.06
274.15	-0.03
274.365	-0.05
274.579	-0
274.794	0
275.008	0.06
275.223	-0.07
275.437	-0.05
275.652	-0.01
275.866	0.03
276.081	-0.06
276.295	0.07
276.509	0.01
276.724	-0.01
276.938	-0.03
277.153	0.03
277.367	0.02
277.581	-0.03
277.796	-0.03
278.01	-0.08
278.224	0.05
278.438	0.06
278.653	-0.13
278.867	-0.02
279.081	-0.15
279.295	-0.06
279.51	-0.02
279.724	-0.09
279.938	0.02
280.152	-0.01
280.366	-0.09
280.58	-0.01
280.794	0.05
281.008	-0.01
281.222	0.02
281.437	0.06
281.651	-0.04
281.865	0.05
282.079	0.01
282.293	-0.1
282.507	-0.05
282.721	0
282.935	-0.05
283.148	-0.09
283.362	-0.01
283.576	-0.1
283.79	0.01
284.004	-0.05
284.218	-0.01
284.432	-0.1
284.646	-0.03
284.859	-0.03
285.073	-0.06
285.287	-0.01
285.501	-0.06
285.714	-0.06
285.928	0.02
286.142	-0.03
286.356	-0.07
286.569	0
286.783	0.02
286.997	-0.01
287.21	-0.01
287.424	-0.05
287.637	-0.04
287.851	-0.02
288.065	0.02
288.278	-0.02
288.492	-0.01
288.705	-0.04
288.919	0.03
289.132	-0.09
289.346	0.04
289.559	-0.1
289.773	-0.06
289.986	-0.03
290.2	-0.04
290.413	0.04
290.626	-0.05
290.84	-0.03
291.053	-0.04
291.267	-0.01
291.48	0.01
291.693	-0
291.906	-0.02
292.12	-0.05
292.333	-0.04
292.546	-0.02
292.76	0.04
292.973	0
293.186	0
293.399	-0.05
293.612	0.03
293.826	-0
294.039	0.01
294.252	-0.03
294.465	-0.01
294.678	0.01
294.891	-0.03
295.104	-0.07
295.317	0.03
295.53	-0.01
295.743	-0.03
295.956	-0.04
296.169	0.04
296.382	0.03
296.595	-0
296.808	-0.04
297.021	0.01
297.234	0.07
297.447	-0.01
297.66	-0.02
297.873	0.01
298.086	0.04
298.299	-0.04
298.511	-0.06
298.724	-0.05
298.937	-0.02
299.15	-0.05
299.363	-0.02
299.575	0.04
299.788	0.05
300.001	-0.04
300.213	-0.05
300.426	-0.04
300.639	-0.03
300.852	-0.04
301.064	0.05
301.277	0.08
301.489	0.05
301.702	0.06
301.915	-0
302.127	-0.04
302.34	0
302.552	-0.01
302.765	-0
302.977	0.01
303.19	-0.05
303.402	-0.03
303.615	-0.07
303.827	0
304.04	-0.03
304.252	-0.02
304.464	0.01
304.677	0.1
304.889	0.06
305.102	-0.03
305.314	-0.05
305.526	0.07
305.739	0.02
305.951	0
306.163	-0.05
306.375	0.09
306.588	-0.04
306.8	-0.05
307.012	-0.06
307.224	0.01
307.436	0.01
307.649	-0.07
307.861	0.02
308.073	-0.01
308.285	-0.04
308.497	-0.05
308.709	-0.06
308.921	-0.01
309.133	0.03
309.346	-0.02
309.558	0
309.77	-0.02
309.982	0.1
310.194	0.02
310.406	-0.04
310.617	0.01
310.829	-0.01
311.041	-0.01
311.253	-0.04
311.465	-0.01
311.677	-0.06
311.889	0.01
312.101	-0.04
312.313	0.06
312.524	0.05
312.736	-0.06
312.948	-0.02
313.16	0.04
313.372	-0.03
313.583	-0.01
313.795	0.02
314.007	-0.06
314.218	0.03
314.43	-0.04
314.642	-0.03
314.853	-0.05
315.065	-0
315.277	-0.04
315.488	-0.04
315.7	0.03
315.912	0.04
316.123	-0.05
316.335	-0.02
316.546	0.04
316.758	-0.01
316.969	-0.05
317.181	-0.01
317.392	-0.01
317.604	0.02
317.815	-0.05
318.026	-0.05
318.238	-0.04
318.449	0.02
318.661	-0.05
318.872	-0.09
319.083	-0.06
319.295	0.02
319.506	-0.06
319.717	-0.01
319.929	0.06
320.14	-0.01
320.351	-0.02
320.562	-0.06
320.774	-0.01
320.985	0.03
321.196	-0.06
321.407	-0.09
321.618	0.07
321.829	-0.01
322.041	-0.01
322.252	-0.03
322.463	0.05
322.674	-0.02
322.885	-0.07
323.096	-0.01
323.307	-0.05
323.518	0.02
323.729	-0.05
323.94	-0.09
324.151	-0.04
324.362	0
324.573	0.02
324.784	-0.05
324.995	0.02
325.206	-0.01
325.417	-0.06
325.628	-0.03
325.838	-0.02
326.049	0.01
326.26	0.04
326.471	-0.03
326.682	0.02
326.892	-0.01
327.103	-0.05
327.314	-0.02
327.525	0.03
327.735	-0.02
327.946	-0.04
328.157	-0.01
328.368	0
328.578	-0.06
328.789	0.03
328.999	-0
329.21	-0.02
329.421	-0
329.631	-0.02
329.842	-0.01
330.052	0
330.263	0.03
330.473	0.02
330.684	-0.03
330.894	-0.02
331.105	-0
331.315	0.01
331.526	-0.09
331.736	0.03
331.947	0.02
332.157	0
332.367	-0.06
332.578	-0.02
332.788	0.03
332.999	0.02
333.209	-0.02
333.419	-0.07
333.629	0.01
333.84	0.03
334.05	0
334.26	0.07
334.47	-0.03
334.681	0.08
334.891	-0.05
335.101	-0.01
335.311	0.1
335.521	-0.05
335.732	-0.05
335.942	0.03
336.152	0
336.362	-0
336.572	-0.03
336.782	0.03
336.992	-0.03
337.202	-0.06
337.412	-0.06
337.622	0.02
337.832	0.01
338.042	-0.02
338.252	-0.08
338.462	-0.03
338.672	-0.02
338.882	-0
339.092	-0.03
339.302	0.05
339.511	-0
339.721	-0.04
339.931	-0.06
340.141	0.08
340.351	0.03
340.561	0.04
340.77	-0.01
340.98	0.05
341.19	0.01
341.4	-0.02
341.609	-0.03
341.819	0.01
342.029	-0.07
342.238	-0.01
342.448	-0.04
342.658	0.02
342.867	-0.03
343.077	-0.02
343.286	-0.02
343.496	-0.01
343.706	0
343.915	-0.05
344.125	-0.02
344.334	0
344.544	-0.07
344.753	-0.07
344.963	0
345.172	-0.06
345.381	-0.02
345.591	-0.04
345.8	0
346.01	0.07
346.219	0.01
346.428	-0.11
346.638	-0.02
346.847	-0
347.056	0.02
347.266	-0.02
347.475	-0.03
347.684	0.01
347.893	0.02
348.103	-0.03
348.312	-0.01
348.521	-0.01
348.73	0.01
348.94	0.01
349.149	-0
349.358	-0.01
349.567	-0.05
349.776	-0.05
349.985	-0.09
350.194	0
350.403	0.02
350.612	-0.05
350.821	-0.03
351.03	-0.02
351.239	-0.07
351.448	0.01
351.657	-0.04
351.866	0.03
352.075	-0.02
352.284	0.05
352.493	-0.02
352.702	0.05
352.911	0.03
353.12	0.03
353.329	-0.05
353.538	0.01
353.746	-0.08
353.955	-0.05
354.164	-0.01
354.373	-0
354.582	0.02
354.79	0.01
354.999	0.05
355.208	-0.02
355.416	0.04
355.625	-0.07
355.834	-0.04
356.042	0.01
356.251	-0.04
356.46	-0.06
356.668	-0.04
356.877	0.07
357.085	0.02
357.294	-0.09
357.503	-0.02
357.711	-0.01
357.92	0.07
358.128	-0
358.337	-0.06
358.545	-0
358.754	-0.08
358.962	0.04
359.17	0
359.379	-0.02
359.587	0
359.796	-0.03
360.004	0.03
360.212	-0.02
360.421	0.03
360.629	-0.04
360.837	-0.01
361.046	0.02
361.254	0.05
361.462	0.01
361.67	-0.04
361.879	-0
362.087	0.05
362.295	-0.01
362.503	-0.05
362.711	-0.07
362.92	-0.06
363.128	0
363.336	-0.07
363.544	-0.07
363.752	0.01
363.96	-0.06
364.168	-0.07
364.376	-0.02
364.584	0.01
364.792	0.01
365	0.04
365.208	-0.03
365.416	-0.01
365.624	0.05
365.832	-0.04
366.04	0.03
366.248	0.02
366.456	-0.01
366.664	-0.04
366.872	-0.04
367.079	-0.05
367.287	-0.01
367.495	-0
367.703	0.03
367.911	0.02
368.118	-0.02
368.326	-0.02
368.534	-0.07
368.742	0.04
368.949	-0.07
369.157	-0.04
369.365	0.01
369.572	-0.01
369.78	-0.06
369.988	-0
370.195	0.02
370.403	-0.02
370.61	-0
370.818	0.03
371.026	0.01
371.233	-0.04
371.441	0.01
371.648	-0.05
371.856	-0.01
372.063	0.01
372.271	0.01
372.478	-0.02
372.685	-0.06
372.893	0.05
373.1	-0.03
373.308	-0.05
373.515	0.09
373.722	-0.03
373.93	-0.04
374.137	0.05
374.344	0.06
374.552	-0.01
374.759	0
374.966	-0
375.173	-0.03
375.381	-0.02
375.588	0.01
375.795	-0.13
376.002	-0.07
376.209	-0.03
376.417	0.01
376.624	-0.01
376.831	-0.01
377.038	-0.01
377.245	-0.07
377.452	-0.07
377.659	-0.02
377.866	-0.07
378.073	-0.01
378.28	-0.03
378.487	0
378.694	-0
378.901	-0.07
379.108	-0.01
379.315	0.01
379.522	0.05
379.729	-0.03
379.936	-0
380.143	-0.01
380.35	0.02
380.557	-0.02
380.763	-0.02
380.97	-0.01
381.177	-0
381.384	0.02
381.591	-0.08
381.797	-0.01
382.004	0.02
382.211	0
382.418	-0.03
382.624	0.01
382.831	0.04
383.038	-0.01
383.244	-0.02
383.451	-0.03
383.658	-0.02
383.864	-0.04
384.071	-0.06
384.277	0.03
384.484	-0.04
384.69	-0.01
384.897	-0.02
385.103	-0.01
385.31	-0.03
385.516	-0.08
385.723	-0.05
385.929	-0.04
386.136	0.02
386.342	0.02
386.549	-0.04
386.755	0.01
386.961	0.01
387.168	-0.04
387.374	0.02
387.58	-0.02
387.787	-0.03
387.993	0.01
388.199	-0.06
388.406	-0.06
388.612	0.01
388.818	-0.02
389.024	-0.04
389.231	-0.01
389.437	0.04
389.643	0.02
389.849	-0.06
390.055	-0.04
390.261	0.01
390.467	-0.04
390.674	-0.1
390.88	-0.02
391.086	0.02
391.292	-0.04
391.498	0.01
391.704	-0.01
391.91	0.01
392.116	-0.03
392.322	-0.07
392.528	-0.05
392.734	-0.02
392.94	-0.02
393.146	-0.03
393.352	0.01
393.557	-0.05
393.763	-0
393.969	-0.01
394.175	-0.04
394.381	0.02
394.587	-0.03
394.792	-0.07
394.998	-0.01
395.204	0.03
395.41	-0.07
395.615	0.04
395.821	-0.01
396.027	-0.01
396.233	-0.06
396.438	-0
396.644	0.02
396.85	-0.01
397.055	-0.03
397.261	-0.03
397.466	-0.01
397.672	-0.02
397.878	0.04
398.083	-0.04
398.289	-0.01
398.494	0.01
398.7	-0.03
398.905	-0.09
399.111	0.07
399.316	-0.1
399.522	-0.02
399.727	0.02
399.932	-0.05
400.138	-0.05
400.343	0.03
400.549	0.01
400.754	0
400.959	0.02
401.165	-0.01
401.37	-0.02
401.575	0
401.78	0
401.986	-0.07
402.191	-0.03
402.396	-0.02
402.601	0.01
402.807	-0.02
403.012	0.01
403.217	0.01
403.422	0.02
403.627	-0.03
403.832	-0.05
404.037	0.02
404.243	-0.02
404.448	-0.04
404.653	-0.07
404.858	-0.03
405.063	0.01
405.268	-0.07
405.473	-0.05
405.678	-0.03
405.883	0.11
406.088	-0.01
406.293	-0.09
406.498	-0.05
406.703	0.02
406.907	-0.06
407.112	-0.07
407.317	0.03
407.522	-0.01
407.727	-0.08
407.932	-0.02
408.136	0.05
408.341	-0.05
408.546	0.01
408.751	-0.03
408.956	-0.06
409.16	0.01
409.365	-0.02
409.57	-0.05
409.774	-0.02
409.979	0.07
410.184	-0.02
410.388	-0.06
410.593	-0.04
410.798	-0.03
411.002	-0.04
411.207	-0.02
411.411	0.02
411.616	-0.04
411.82	-0.04
412.025	0.01
412.229	-0.04
412.434	0.03
412.638	0.03
412.843	-0.02
413.047	0.02
413.252	-0.04
413.456	-0.03
413.66	0.04
413.865	-0.05
414.069	0.04
414.273	-0.02
414.478	-0.04
414.682	-0.01
414.886	-0.04
415.091	-0.1
415.295	-0.09
415.499	-0.03
415.703	-0.03
415.908	0.01
416.112	-0.1
416.316	0.05
416.52	-0.05
416.724	-0.1
416.929	-0.06
417.133	0.03
417.337	-0.04
417.541	-0.07
417.745	-0.02
417.949	-0.01
418.153	-0.05
418.357	-0.1
418.561	-0.02
418.765	0.01
418.969	0.06
419.173	0.02
419.377	-0.08
419.581	0.04
419.785	-0.07
419.989	-0.07
420.193	0.01
420.397	-0.03
420.601	-0.01
420.804	0.03
421.008	-0.03
421.212	-0.05
421.416	0.03
421.62	-0.05
421.823	-0.05
422.027	0.07
422.231	-0
422.435	0
422.638	-0.04
422.842	-0.05
423.046	-0.01
423.249	0
423.453	-0
423.657	-0.02
423.86	-0.04
424.064	-0.05
424.268	-0.01
424.471	0
424.675	0.02
424.878	0.07
425.082	-0.03
425.285	-0
425.489	-0.04
425.692	0
425.896	-0.09
426.099	-0.03
426.303	-0.08
426.506	-0.11
426.71	0.03
426.913	0.05
427.116	0
427.32	-0.01
427.523	-0.05
427.726	0.05
427.93	-0.05
428.133	-0.03
428.336	-0.08
428.54	-0.12
428.743	0.01
428.946	-0.02
429.149	-0.03
429.353	-0.01
429.556	-0.02
429.759	-0.03
429.962	-0.09
430.165	-0.02
430.368	-0.05
430.571	-0.07
430.775	0
430.978	-0.02
431.181	-0.02
431.384	-0.01
431.587	-0.05
431.79	0.01
431.993	-0.01
432.196	-0.02
432.399	-0.02
432.602	0.04
432.805	-0.02
433.008	-0.02
433.211	-0.11
433.414	-0.02
433.616	-0.04
433.819	-0.09
434.022	-0.17
434.225	0.06
434.428	-0.06
434.631	0.07
434.833	-0.01
435.036	-0.03
435.239	0.05
435.442	-0.02
435.645	-0.06
435.847	-0.03
436.05	0.04
436.253	0.03
436.455	-0.07
436.658	-0.04
436.861	0.07
437.063	-0.02
437.266	-0.03
437.468	-0.01
437.671	0.1
437.874	-0.04
438.076	-0.08
438.279	-0.08
438.481	-0.03
438.684	-0.06
438.886	0.03
439.089	-0.06
439.291	-0.04
439.494	0.02
439.696	-0.04
439.899	-0.08
440.101	0
440.303	-0.1
440.506	-0.05
440.708	0.01
440.91	0.02
441.113	-0.06
441.315	-0.02
441.517	-0.08
441.72	-0
441.922	-0.07
442.124	-0.1
442.326	-0.04
442.529	0.07
442.731	-0.1
442.933	0.03
443.135	-0.02
443.337	-0.08
443.539	-0.03
443.742	-0.07
443.944	0.01
444.146	-0.08
444.348	0.01
444.55	-0.06
444.752	-0.07
444.954	-0.04
445.156	-0.02
445.358	-0.03
445.56	0.07
445.762	-0.05
445.964	-0.01
446.166	-0.03
446.368	-0.08
446.57	0.01
446.772	0
446.974	-0.03
447.175	-0.03
447.377	-0.05
447.579	-0.04
447.781	-0.14
447.983	0.03
448.184	-0.03
448.386	-0.01
448.588	-0.09
448.79	-0
448.991	-0.06
449.193	-0.04
449.395	0.01
449.597	0.02
449.798	-0.05
450	-0.01
450.202	-0.03
450.403	-0.02
450.605	0.04
450.806	-0.04
451.008	-0.08
451.21	-0.09
451.411	-0
451.613	-0.03
451.814	-0.05
452.016	-0.01
452.217	0.01
452.419	0.02
452.62	-0.02
452.821	0.03
453.023	-0
453.224	0.03
453.426	-0.03
453.627	-0.02
453.828	0
454.03	-0.01
454.231	-0.06
454.432	-0.06
454.634	0.09
454.835	-0.05
455.036	-0.06
455.238	-0.01
455.439	0.07
455.64	-0.06
455.841	-0.06
456.042	0.06
456.244	0.05
456.445	-0.06
456.646	-0.07
456.847	-0
457.048	0.02
457.249	0.02
457.45	0.15
457.651	-0.13
457.852	0.02
458.054	-0.01
458.255	-0.03
458.456	0.01
458.657	0.01
458.858	-0.09
459.058	0.01
459.259	0.02
459.46	-0.03
459.661	-0.06
459.862	0.05
460.063	-0.05
460.264	0.02
460.465	-0.05
460.666	0.05
460.866	-0.03
461.067	-0.04
461.268	-0.01
461.469	-0.05
461.67	-0.02
461.87	0.01
462.071	-0.05
462.272	-0.03
462.473	-0.04
462.673	0
462.874	-0.05
463.075	0.01
463.275	-0.04
463.476	-0.04
463.676	0
463.877	0
464.078	-0.08
464.278	0.03
464.479	-0.03
464.679	0.02
464.88	0
465.08	0.03
465.281	-0.1
465.481	0
465.682	-0.04
465.882	-0.02
466.083	0
466.283	-0.01
466.483	0.02
466.684	-0.04
466.884	-0.04
467.085	-0.02
467.285	-0
467.485	-0.04
467.686	-0.06
467.886	-0.08
468.086	-0.02
468.286	-0.02
468.487	0.02
468.687	-0.07
468.887	-0.02
469.087	0.01
469.287	-0.02
469.488	-0.07
469.688	-0.02
469.888	0
470.088	-0.01
470.288	0.07
470.488	0.03
470.688	-0.08
470.888	-0.05
471.088	-0.08
471.288	0
471.488	-0.04
471.688	-0.06
471.888	-0.03
472.088	0.01
472.288	0.03
472.488	-0.01
472.688	-0.07
472.888	-0.05
473.088	-0.02
473.288	-0.02
473.488	0.01
473.688	0.08
473.887	-0.03
474.087	-0.05
474.287	0
474.487	-0.05
474.687	0.01
474.886	-0.02
475.086	-0.01
475.286	-0.01
475.486	-0.03
475.685	-0.06
475.885	-0.05
476.085	-0.04
476.284	0.01
476.484	-0.02
476.684	-0.05
476.883	0
477.083	-0.01
477.282	-0.03
477.482	0.05
477.681	0.02
477.881	0.02
478.08	-0.03
478.28	-0.05
478.479	-0
478.679	0.05
478.878	-0.02
479.078	-0.08
479.277	-0.02
479.477	-0.01
479.676	0.01
479.875	-0.03
480.075	-0.08
480.274	-0.02
480.473	0
480.673	-0.04
480.872	0.03
481.071	-0.01
481.271	-0
481.47	-0.05
481.669	-0.01
481.868	-0.02
482.067	-0.05
482.267	-0.02
482.466	-0.05
482.665	-0.04
482.864	-0.05
483.063	-0.06
483.262	0
483.461	0.01
483.661	0
483.86	-0.02
484.059	0.01
484.258	-0
484.457	-0.03
484.656	0
484.855	0.03
485.054	-0.06
485.253	-0.03
485.452	-0.05
485.651	-0.02
485.849	0.01
486.048	-0.03
486.247	-0.04
486.446	-0.01
486.645	-0.03
486.844	-0.03
487.043	-0.01
487.241	0.01
487.44	-0.04
487.639	-0.01
487.838	0.02
488.037	0
488.235	0.03
488.434	0
488.633	-0.02
488.831	-0.03
489.03	-0
489.229	-0.02
489.427	-0.03
489.626	0.04
489.825	0.04
490.023	0.03
490.222	-0.02
490.42	0.02
490.619	0.01
490.817	-0.01
491.016	-0.02
491.214	0.01
491.413	-0.03
491.611	-0.01
491.81	-0.01
492.008	-0.01
492.207	-0.01
492.405	0.01
492.604	-0.05
492.802	-0.01
493	-0.01
493.199	-0.02
493.397	-0.01
493.595	-0
493.794	-0.03
493.992	0.04
494.19	-0.02
494.388	0
494.587	-0.02
494.785	-0.01
494.983	-0.05
495.181	-0.03
495.379	-0.02
495.578	-0.03
495.776	0
495.974	-0
496.172	-0.02
496.37	-0.04
496.568	-0.04
496.766	-0.03
496.964	0.03
497.162	-0.03
497.36	-0.04
497.558	0.01
497.756	0.01
497.954	-0.03
498.152	-0.03
498.35	-0.01
498.548	-0.03
498.746	0
498.944	-0.03
499.142	-0.01
499.34	-0.03
499.538	-0.01
499.736	-0.04
499.933	0.02
500.131	0.02
500.329	-0.01
500.527	0.02
500.725	0
500.922	0
501.12	-0
501.318	0.01
501.516	-0.04
501.713	-0.01
501.911	-0.02
502.109	-0.03
502.306	-0
502.504	0
502.701	-0.02
502.899	-0.03
503.097	0.01
503.294	0
503.492	-0
503.689	-0
503.887	0.02
504.084	0.02
504.282	-0.01
504.479	-0.03
504.677	0
504.874	-0.04
505.072	0.01
505.269	-0.01
505.466	0
505.664	0.01
505.861	-0.03
506.059	-0.04
506.256	0.01
506.453	-0.02
506.651	0.01
506.848	0
507.045	-0.01
507.242	-0.01
507.44	-0
507.637	0
507.834	-0.01
508.031	0
508.229	-0.03
508.426	-0.03
508.623	0.03
508.82	-0.02
509.017	-0.03
509.214	-0.01
509.411	-0.02
509.608	-0.04
509.805	-0.01
510.003	-0.03
510.2	-0.02
510.397	0
510.594	-0.03
510.791	-0.04
510.988	-0.02
511.184	0.03
511.381	-0.01
511.578	-0.02
511.775	0
511.972	-0.03
512.169	-0.03
512.366	-0.02
512.563	-0
512.76	-0.02
512.956	-0.02
513.153	-0.03
513.35	0
513.547	-0.01
513.744	-0.04
513.94	-0.04
514.137	0.01
514.334	0.02
514.53	-0.01
514.727	-0
514.924	0.05
515.12	-0.02
515.317	-0.04
515.514	-0.03
515.71	-0.04
515.907	-0.02
516.103	0.01
516.3	0.01
516.497	-0.01
516.693	0.02
516.89	-0.01
517.086	-0.04
517.283	-0.02
517.479	-0.02
517.676	-0.01
517.872	-0.02
518.068	-0.03
518.265	-0.01
518.461	-0.01
518.658	-0.04
518.854	-0.01
519.05	-0.01
519.247	-0.02
519.443	0.01
519.639	-0
519.836	-0.01
520.032	0.01
520.228	-0.03
520.424	0
520.621	0
520.817	-0
521.013	0
521.209	-0.01
521.405	0.03
521.601	-0
521.798	0.01
521.994	0.02
522.19	-0.04
522.386	-0.05
522.582	-0.03
522.778	-0
522.974	-0.02
523.17	0.01
523.366	-0.01
523.562	0.02
523.758	-0
523.954	-0.02
524.15	-0.02
524.346	-0.01
524.542	-0.03
524.738	-0.05
524.934	-0.01
525.129	-0.08
525.325	-0
525.521	-0.01
525.717	0.02
525.913	-0.02
526.109	-0.02
526.304	-0.04
526.5	0.01
526.696	-0
526.892	-0.01
527.087	0
527.283	-0.02
527.479	0
527.674	-0.03
527.87	-0.01
528.066	-0.03
528.261	-0.01
528.457	-0.02
528.653	-0.01
528.848	-0.03
529.044	0.01
529.239	-0.02
529.435	0.01
529.63	0.01
529.826	0.04
530.021	-0.01
530.217	0.02
530.412	-0.01
530.608	-0.02
530.803	0.01
530.999	-0
531.194	-0.04
531.389	-0.01
531.585	-0.06
531.78	-0.02
531.975	-0.02
532.171	0.01
532.366	-0.01
532.561	-0
532.757	-0.01
532.952	-0.01
533.147	-0
533.342	-0.01
533.538	-0.01
533.733	0.01
533.928	-0.02
534.123	-0
534.318	-0.03
534.513	-0.02
534.709	-0.01
534.904	-0.02
535.099	-0.04
535.294	0.01
535.489	-0
535.684	-0.03
535.879	-0.01
536.074	-0.02
536.269	-0.02
536.464	-0.01
536.659	-0.03
536.854	-0.01
537.049	0
537.244	0.01
537.439	-0.03
537.634	0.01
537.828	0.01
538.023	-0.01
538.218	-0.03
538.413	-0.02
538.608	-0.03
538.803	0.01
538.997	-0.04
539.192	0.02
539.387	0.02
539.582	-0.01
539.776	0
539.971	-0.03
540.166	-0.02
540.36	-0.04
540.555	-0.02
540.75	-0.03
540.944	-0.01
541.139	-0.04
541.334	-0.02
541.528	0
541.723	0
541.917	-0.02
542.112	-0.05
542.306	-0.01
542.501	-0.04
542.695	0
542.89	-0.03
543.084	-0.01
543.279	-0
543.473	-0.01
543.668	0
543.862	-0.02
544.056	0.02
544.251	-0.01
544.445	-0.01
544.64	-0.02
544.834	-0.02
545.028	-0.02
545.222	0.01
545.417	0.01
545.611	0
545.805	-0.01
546	-0.02
546.194	-0
546.388	-0.03
546.582	0
546.776	0
546.97	0
547.165	0.01
547.359	0
547.553	-0.03
547.747	-0.01
547.941	-0.01
548.135	-0.02
548.329	0.01
548.523	0.02
548.717	0
548.911	-0.04
549.105	-0.03
549.299	-0.01
549.493	0.01
549.687	0.01
549.881	-0.01
550.075	-0.02
550.269	-0.02
550.463	0.01
550.657	-0.03
550.85	-0.04
551.044	-0.05
551.238	0.01
551.432	-0.03
551.626	-0.05
551.82	0.01
552.013	-0.01
552.207	-0.01
552.401	0.01
552.594	-0.01
552.788	-0.03
552.982	-0.02
553.176	-0.03
553.369	0
553.563	-0
553.756	-0.06
553.95	-0.02
554.144	-0.02
554.337	0.02
554.531	-0.02
554.724	-0
554.918	-0.03
555.111	-0
555.305	-0.02
555.498	0.02
555.692	0.02
555.885	-0.03
556.079	-0
556.272	-0.03
556.466	0.02
556.659	-0
556.852	-0.01
557.046	-0.03
557.239	-0.01
557.432	-0.04
557.626	-0.03
557.819	-0.01
558.012	-0.01
558.206	0.02
558.399	-0.01
558.592	-0.01
558.785	-0.02
558.979	-0
559.172	0
559.365	0.02
559.558	0
559.751	0.01
559.944	0.01
560.138	-0.01
560.331	-0.02
560.524	-0.03
560.717	0.01
560.91	-0.01
561.103	0.02
561.296	-0.02
561.489	0.01
561.682	-0.01
561.875	0.01
562.068	-0.01
562.261	0.01
562.454	0.03
562.647	-0.01
562.84	0
563.032	-0.03
563.225	-0
563.418	-0.03
563.611	-0.03
563.804	-0.01
563.997	-0.03
564.19	-0.03
564.382	-0.04
564.575	-0.03
564.768	-0.03
564.961	0.02
565.153	-0.03
565.346	0.01
565.539	0.02
565.731	0
565.924	0.01
566.117	-0.01
566.309	-0.02
566.502	-0.02
566.695	-0.01
566.887	-0.02
567.08	-0.04
567.272	-0.02
567.465	-0.03
567.657	-0
567.85	0.01
568.042	0.03
568.235	0.02
568.427	-0.01
568.62	0
568.812	0.01
569.005	-0.01
569.197	-0.04
569.389	0
569.582	0
569.774	0.02
569.966	-0.04
570.159	-0.02
570.351	0.02
570.543	-0.01
570.736	-0.01
570.928	-0.02
571.12	-0.01
571.312	-0.01
571.505	-0.03
571.697	0.03
571.889	-0.02
572.081	-0.02
572.273	-0.02
572.465	0.03
572.658	-0.02
572.85	-0
573.042	-0.04
573.234	-0.02
573.426	0.02
573.618	-0.02
573.81	-0
574.002	0.03
574.194	0.02
574.386	-0.03
574.578	-0.07
574.77	-0.04
574.962	-0
575.154	-0.05
575.346	-0.02
575.538	-0.02
575.729	-0.03
575.921	-0.02
576.113	0
576.305	0
576.497	-0.01
576.689	-0.03
576.88	-0.03
577.072	-0
577.264	-0.02
577.456	-0.02
577.647	-0.1
577.839	-0.02
578.031	0.02
578.223	-0.05
578.414	-0.04
578.606	0.01
578.798	0
578.989	-0.05
579.181	-0.03
579.372	-0.02
579.564	-0.02
579.755	-0
579.947	0.01
580.139	-0.01
580.33	-0.06
580.522	-0.03
580.713	-0.07
580.905	-0
581.096	-0
581.287	-0.02
581.479	-0.03
581.67	-0
581.862	0
582.053	-0.03
582.244	-0.05
582.436	-0.02
582.627	0
582.818	-0.03
583.01	-0.05
583.201	0
583.392	0.01
583.583	-0.01
583.775	-0.02
583.966	-0.05
584.157	-0.01
584.348	-0.01
584.54	-0.05
584.731	-0.03
584.922	-0.02
585.113	-0.05
585.304	0.02
585.495	0.02
585.686	-0.01
585.877	0
586.068	-0.01
586.259	0
586.45	-0.02
586.641	-0.03
586.832	-0.04
587.023	-0.01
587.214	-0.04
587.405	0
587.596	-0.03
587.787	0.02
587.978	-0
588.169	-0.03
588.36	-0.03
588.551	0.02
588.742	-0.03
588.932	-0
589.123	-0.03
589.314	0
589.505	0.02
589.696	-0.02
589.886	-0.04
590.077	-0.04
590.268	0.02
590.458	-0.04
590.649	-0.06
590.84	0.02
591.03	-0.03
591.221	-0.05
591.412	-0.05
591.602	-0
591.793	0.03
591.984	-0.03
592.174	-0.03
592.365	0.05
592.555	-0.02
592.746	0.01
592.936	0
593.127	0.03
593.317	0.02
593.508	-0
593.698	-0
593.889	-0.02
594.079	-0.04
594.269	-0.04
594.46	-0.02
594.65	-0.04
594.84	0
595.031	-0.06
595.221	-0.02
595.411	-0.05
595.602	-0.01
595.792	-0
595.982	-0.02
596.172	0.02
596.363	-0.01
596.553	0
596.743	-0.01
596.933	-0
597.123	0.02
597.314	-0.02
597.504	-0.02
597.694	0.03
597.884	-0.02
598.074	-0.04
598.264	-0.05
598.454	-0
598.644	-0
598.834	-0.03
599.024	-0.08
599.214	-0.03
599.404	0.02
599.594	-0.03
599.784	-0.02
599.974	0.04
600.164	-0.01
600.354	-0.03
600.544	-0.04
600.734	-0
600.924	0.02
601.114	-0.06
601.303	-0.02
601.493	0.01
601.683	-0.03
601.873	-0.02
602.063	-0.06
602.252	0
602.442	-0.08
602.632	-0.03
602.821	-0.06
603.011	-0.01
603.201	-0.03
603.39	-0.06
603.58	-0.04
603.77	-0.01
603.959	0.01
604.149	-0.02
604.339	-0.01
604.528	0
604.718	-0
604.907	-0.02
605.097	-0.04
605.286	-0.05
605.476	0.01
605.665	0.01
605.855	0.01
606.044	0.02
606.234	0.01
606.423	-0.02
606.612	-0.06
606.802	0.01
606.991	0.01
607.181	0.01
607.37	-0.06
607.559	-0.03
607.749	-0.04
607.938	-0.01
608.127	-0.01
608.316	-0.03
608.506	-0.02
608.695	-0.04
608.884	-0.06
609.073	-0.03
609.263	0.02
609.452	-0
609.641	-0.04
609.83	-0.04
610.019	0.01
610.208	-0.03
610.397	-0.01
610.586	-0
610.775	-0.04
610.965	-0.05
611.154	-0.05
611.343	-0.03
611.532	0.01
611.721	-0.06
611.91	-0.05
612.099	-0.01
612.287	-0.02
612.476	-0.05
612.665	-0.01
612.854	-0.04
613.043	0.03
613.232	-0
613.421	-0.06
613.61	-0.01
613.798	-0.03
613.987	0.01
614.176	-0.05
614.365	0.01
614.554	-0.01
614.742	0
614.931	-0.06
615.12	-0.02
615.309	-0.03
615.497	0.01
615.686	-0.08
615.875	-0.01
616.063	-0.02
616.252	-0.02
616.44	-0.04
616.629	-0.02
616.818	0.03
617.006	-0.04
617.195	-0.01
617.383	0.02
617.572	-0.01
617.76	-0.04
617.949	-0.01
618.137	0
618.326	0
618.514	-0.05
618.703	-0.03
618.891	0.03
619.079	-0.08
619.268	-0.02
619.456	-0
619.644	0.01
619.833	-0
620.021	0
620.209	-0.07
620.398	0.02
620.586	-0.01
620.774	0.02
620.962	-0.01
621.151	-0.01
621.339	-0.02
621.527	-0.04
621.715	-0.04
621.903	-0.02
622.092	-0.07
622.28	0
622.468	-0.02
622.656	-0.02
622.844	0.02
623.032	-0.03
623.22	-0.07
623.408	0.01
623.596	0
623.784	0.01
623.972	-0.02
624.16	-0.05
624.348	0
624.536	-0.02
624.724	-0.04
624.912	0.01
625.1	0.03
625.288	-0.04
625.476	-0.04
625.664	-0
625.851	-0.02
626.039	-0.04
626.227	-0.02
626.415	-0.04
626.603	-0.07
626.79	-0.02
626.978	-0.03
627.166	0.01
627.354	-0.03
627.541	-0.03
627.729	-0.06
627.917	0
628.104	0
628.292	0.03
628.48	-0.02
628.667	0.01
628.855	0
629.042	0.04
629.23	-0.03
629.418	-0.03
629.605	-0.04
629.793	-0.03
629.98	-0.03
630.168	0.01
630.355	-0
630.543	-0.02
630.73	-0.05
630.917	0.03
631.105	0.04
631.292	-0.02
631.48	-0.02
631.667	0.03
631.854	-0.02
632.042	-0.04
632.229	-0.05
632.416	-0.02
632.604	-0.03
632.791	-0.05
632.978	0.01
633.165	0.02
633.353	0.05
633.54	-0.02
633.727	-0.07
633.914	-0.04
634.101	-0.08
634.289	0.02
634.476	-0.05
634.663	-0.08
634.85	0
635.037	-0.05
635.224	-0.05
635.411	0.01
635.598	-0
635.785	-0.03
635.972	-0.02
636.159	0.04
636.346	-0.04
636.533	0
636.72	-0.02
636.907	-0.06
637.094	0.02
637.281	-0
637.468	0.01
637.655	-0.03
637.842	-0.03
638.029	-0.08
638.215	0.01
638.402	-0.03
638.589	-0.02
638.776	-0.04
638.963	-0.05
639.149	0.01
639.336	0.04
639.523	-0.01
639.709	-0.02
639.896	-0.04
640.083	0.03
640.27	-0.04
640.456	-0.02
640.643	-0
640.829	-0.07
641.016	0
641.203	-0.05
641.389	0.02
641.576	-0.02
641.762	-0.03
641.949	-0.06
642.135	-0.01
642.322	0.01
642.508	-0.04
642.695	-0
642.881	-0.04
643.068	-0.06
643.254	-0.03
643.441	0.02
643.627	-0.05
643.813	-0.07
644	0.03
644.186	-0.03
644.372	-0.06
644.559	0.06
644.745	-0.05
644.931	-0.02
645.118	-0.02
645.304	-0.02
645.49	-0.02
645.676	-0.03
645.862	-0.02
646.049	0.01
646.235	0.01
646.421	0.05
646.607	0.05
646.793	-0.03
646.979	-0.06
647.165	-0.02
647.352	0.01
647.538	-0
647.724	-0
647.91	0
648.096	0.01
648.282	0.04
648.468	-0.01
648.654	-0
648.84	-0.01
649.026	-0.02
649.212	-0.01
649.397	-0.05
649.583	-0.04
649.769	-0.01
649.955	-0.04
650.141	-0.01
650.327	0.05
650.513	-0.06
650.698	-0.01
650.884	-0.05
651.07	0.01
651.256	-0.05
651.442	-0.01
651.627	-0.03
651.813	-0.03
651.999	-0.02
652.184	0.01
652.37	-0
652.556	-0.06
652.741	0.02
652.927	-0.08
653.113	-0.04
653.298	-0.03
653.484	-0.03
653.669	-0.07
653.855	-0.03
654.04	-0.02
654.226	-0.03
654.412	-0.03
654.597	-0.06
654.782	0.01
654.968	0.03
655.153	0
655.339	-0.06
655.524	-0.04
655.71	0.02
655.895	-0.04
656.08	-0.05
656.266	0.03
656.451	0.01
656.636	-0.04
656.822	-0.01
657.007	-0.05
657.192	-0.06
657.378	-0.05
657.563	-0.03
657.748	0.02
657.933	-0
658.118	-0.03
658.304	-0.02
658.489	0.01
658.674	0.01
658.859	-0.04
659.044	-0.03
659.229	-0.02
659.414	-0.03
659.599	-0.02
659.785	-0.06
659.97	-0.01
660.155	-0
660.34	0
660.525	-0.01
660.71	-0.03
660.895	-0
661.08	-0.02
661.264	0.01
661.449	0.01
661.634	0.01
661.819	-0.01
662.004	0
662.189	-0.08
662.374	-0.06
662.559	-0.03
662.743	-0.1
662.928	-0.05
663.113	-0.01
663.298	-0.09
663.483	-0.03
663.667	0
663.852	-0.03
664.037	0.03
664.221	-0.07
664.406	-0.01
664.591	-0.01
664.775	-0.03
664.96	-0.01
665.145	-0.01
665.329	-0
665.514	-0.05
665.698	-0.03
665.883	-0.08
666.068	0.02
666.252	-0.03
666.437	-0.05
666.621	-0.05
666.806	0.01
666.99	-0.04
667.174	0.01
667.359	0.01
667.543	-0.04
667.728	-0.03
667.912	-0.07
668.096	-0.03
668.281	0.01
668.465	-0.06
668.649	-0.02
668.834	-0.04
669.018	0.01
669.202	-0.04
669.387	-0.05
669.571	0
669.755	-0.05
669.939	0.01
670.124	-0.01
670.308	0.05
670.492	-0.03
670.676	-0.05
670.86	-0.03
671.044	-0.06
671.228	0.02
671.413	-0.06
671.597	-0.04
671.781	-0
671.965	0.01
672.149	-0.01
672.333	0.01
672.517	-0.03
672.701	-0.03
672.885	-0.01
673.069	-0.08
673.253	0
673.437	-0.02
673.621	-0.01
673.804	0.01
673.988	-0.02
674.172	-0
674.356	-0.06
674.54	0.01
674.724	0.06
674.908	-0.06
675.091	0
675.275	-0.03
675.459	0.01
675.643	0.06
675.826	-0.01
676.01	-0.04
676.194	-0.01
676.377	0.01
676.561	-0.03
676.745	-0.02
676.928	-0.06
677.112	0.04
677.296	-0.07
677.479	-0.03
677.663	-0.09
677.846	0
678.03	-0.04
678.213	-0.05
678.397	-0.02
678.58	-0.06
678.764	-0.02
678.947	-0.06
679.131	-0.08
679.314	0.01
679.498	-0.04
679.681	0
679.865	0.03
680.048	-0.02
680.231	-0.01
680.415	-0.02
680.598	-0.05
680.781	-0.05
680.965	-0.06
681.148	0.01
681.331	-0.04
681.514	-0.01
681.698	-0
681.881	0
682.064	-0.05
682.247	-0.03
682.43	-0.14
682.614	0.01
682.797	0.02
682.98	0
683.163	-0.07
683.346	-0.04
683.529	-0.05
683.712	-0.04
683.895	-0.02
684.078	-0.07
684.261	-0.06
684.444	0
684.627	-0.03
684.81	-0.04
684.993	-0.07
685.176	-0.03
685.359	-0.08
685.542	-0.04
685.725	0.03
685.908	0
686.091	-0.03
686.274	0.01
686.457	0.03
686.639	-0.02
686.822	0.02
687.005	0
687.188	-0.01
687.371	0.01
687.553	-0.04
687.736	-0.01
687.919	-0.01
688.102	0.05
688.284	-0.05
688.467	-0.01
688.65	-0.01
688.832	-0.01
689.015	-0.04
689.197	-0.05
689.38	0.06
689.563	0.08
689.745	-0.02
689.928	-0.05
690.11	-0.04
690.293	-0.04
690.475	-0.08
690.658	-0.01
690.84	-0.03
691.023	-0.01
691.205	-0.05
691.388	-0.03
691.57	-0.01
691.752	0.03
691.935	-0.08
692.117	-0.04
692.3	-0.02
692.482	-0.05
692.664	-0.02
692.847	-0.05
693.029	0.03
693.211	0.01
693.393	-0.07
693.576	-0.07
693.758	0.01
693.94	-0.09
694.122	-0.01
694.304	-0
694.487	-0.05
694.669	0.08
694.851	-0.04
695.033	-0.01
695.215	-0.03
695.397	-0.02
695.579	-0.01
695.761	-0.05
695.943	-0.11
696.125	0.07
696.308	-0.03
696.49	-0.11
696.671	0.12
696.853	-0.01
697.035	0.07
697.217	0
697.399	-0.02
697.581	-0.02
697.763	-0.02
697.945	-0.04
698.127	-0.01
698.309	0.03
698.491	0.01
698.672	0.03
698.854	0
699.036	0.07
699.218	-0.08
699.399	-0
699.581	0.01
699.763	-0.01
699.945	-0.05
700.126	-0.07
700.308	0
700.49	-0.07
700.671	-0.14
700.853	-0.05
701.035	-0.06
701.216	-0.03
701.398	-0.11
701.579	-0.01
701.761	-0
701.943	-0.04
702.124	-0.01
702.306	0.01
702.487	0.06
702.669	-0.02
702.85	-0.04
703.031	-0.07
703.213	0.08
703.394	0.06
703.576	-0.02
703.757	0.04
703.938	0.02
704.12	0.12
704.301	-0.03
704.483	-0
704.664	0.02
704.845	0.03
705.026	0.01
705.208	-0.02
705.389	-0.01
705.57	0.02
705.751	-0.05
705.933	-0.07
706.114	0.05
706.295	-0.07
706.476	-0.03
706.657	0.07
706.838	0.01
707.02	0.04
707.201	-0.06
707.382	-0.04
707.563	0.02
707.744	-0.04
707.925	-0.07
708.106	-0.1
708.287	0.01
708.468	0.05
708.649	-0.04
708.83	0
709.011	-0.05
709.192	0.05
709.373	-0.09
709.554	-0.02
709.734	-0.02
709.915	0
710.096	-0
710.277	-0.14
710.458	-0.03
710.639	-0
710.819	-0.09
711	-0.08
711.181	0.05
711.362	0.01
711.542	0.01
711.723	-0.03
711.904	0.04
712.085	0.04
712.265	0.02
712.446	-0.09
712.627	-0.06
712.807	0.02
712.988	0.03
713.168	-0.13
713.349	-0.09
713.53	-0.08
713.71	0.01
713.891	-0.09
714.071	-0.04
714.252	-0.07
714.432	-0.04
714.613	-0.09
714.793	-0.07
714.974	0.1
715.154	0.09
715.334	-0.03
715.515	0.05
715.695	-0.04
715.876	-0.01
716.056	-0.04
716.236	-0.05
716.417	-0.02
716.597	-0.06
716.777	0.16
716.957	-0.04
717.138	-0.02
717.318	-0.1
717.498	-0.11
717.678	-0.06
717.859	0.02
718.039	-0.13
718.219	0.01
718.399	0.04
718.579	-0.1
718.759	-0.13
718.939	-0.03
719.12	0.01
719.3	-0.02
719.48	-0.13
719.66	-0.15
719.84	0.04
720.02	-0.03
720.2	-0.13
720.38	-0.02
720.56	0.05
720.74	-0.08
720.92	-0.06
721.1	0.04
721.279	0.01
721.459	-0.04
721.639	-0.07
721.819	-0
721.999	-0.08
722.179	-0.02
722.359	-0.05
722.538	-0.03
722.718	-0.05
722.898	-0.06
723.078	-0.03
723.257	-0.04
723.437	-0.09
723.617	0.02
723.797	-0.02
723.976	0
724.156	0.01
724.336	0.11
724.515	0.05
724.695	-0.15
724.874	-0.03
725.054	-0.05
725.234	-0.12
725.413	0.01
725.593	-0.13
725.772	-0.09
725.952	0
726.131	0.01
726.311	0.03
726.49	-0.07
726.67	-0.18
726.849	-0.14
727.028	0.08
727.208	-0.09
727.387	-0.02
727.567	-0.1
727.746	-0.04
727.925	-0.04
728.105	-0.13
728.284	-0.06
728.463	-0.11
728.643	0.02
728.822	-0.06
729.001	-0.01
729.18	-0.03
729.359	-0.01
729.539	-0.06
729.718	0.01
729.897	-0.03
730.076	-0.08
730.255	-0.19
730.434	-0.05
730.614	-0.02
730.793	0.04
730.972	-0.03
731.151	-0.07
731.33	0.07
731.509	-0
731.688	-0.05
731.867	-0.04
732.046	-0.19
732.225	0.15
732.404	-0.09
732.583	-0.11
732.762	-0.02
732.941	0.03
733.12	-0.1
733.298	-0.03
733.477	0.01
733.656	-0.07
733.835	-0.14
734.014	0.08
734.193	0.02
734.371	0.04
734.55	-0.03
734.729	-0.15
734.908	-0.03
735.086	0
735.265	0.01
735.444	-0.15
735.623	-0.14
735.801	-0.14
735.98	-0.1
736.159	-0.04
736.337	0.13
736.516	0
736.694	-0.08
736.873	-0.12
737.052	-0.01
737.23	0.11
737.409	-0.1
737.587	0.14
737.766	-0.23
737.944	-0.08
738.123	0.04
738.301	0
738.479	-0.05
738.658	-0.07
738.836	-0.25
739.015	0.02
739.193	0.04
739.371	-0.1
739.55	-0.07
739.728	-0.12
739.906	0.03
740.085	0.05
740.263	-0.1
740.441	-0.29
740.62	0.09
740.798	0.04
740.976	-0.1
741.154	-0.15
741.332	0.09
741.511	-0.04
741.689	-0.08
741.867	-0.04
742.045	-0.03
742.223	-0.03
742.401	-0.08
742.579	-0.09
742.757	-0.09
742.935	-0.16
743.114	-0.06
743.292	-0.1
743.47	-0.01
743.648	-0.11
743.826	0.03
744.004	-0.02
744.181	-0.03
744.359	-0.14
744.537	-0.03
744.715	-0.07
744.893	0.01
745.071	-0.01
745.249	-0.11
745.427	-0.05
745.605	-0.03
745.782	-0.13
745.96	0.09
746.138	0.06
746.316	0.01
746.493	-0.08
746.671	-0.03
746.849	0.1
747.027	0.1
747.204	-0.11
747.382	0.06
747.56	-0.19
747.737	0.05
747.915	-0.21
748.093	0.02
748.27	-0.06
748.448	0.02
748.625	-0.13
748.803	-0.06
748.98	-0.13
749.158	0.05
749.335	0.06
749.513	-0.02
749.69	-0.07
749.868	0.04
750.045	0.03
750.223	-0.02
750.4	-0.18
750.578	0.19
750.755	-0.02
750.932	-0.2
751.11	0.07
751.287	-0.26
751.464	0.07
751.642	-0.15
751.819	0.07
751.996	0
752.173	-0.13
752.351	-0.17
752.528	-0.04
752.705	-0.05
752.882	-0.1
753.06	-0.03
753.237	0.04
753.414	0.13
753.591	0.04
753.768	0.07
753.945	-0.04
754.122	-0.14
754.299	0.01
754.476	-0.14
754.654	0.02
754.831	0.02
755.008	0.07
755.185	-0.1
755.362	-0.08
755.539	0.02
755.716	-0.16
755.892	0.01
756.069	-0.03
756.246	0.03
756.423	0.03
756.6	0.04
756.777	-0.1
756.954	0.06
757.131	-0.05
757.307	-0.15
757.484	-0.06
757.661	-0.06
757.838	0.02
758.015	-0.17
758.191	-0
758.368	-0.08
758.545	0.14
758.721	0.03
758.898	-0.19
759.075	-0.01
759.251	0.01
759.428	0.04
759.605	-0.21
759.781	-0.08
759.958	0.06
760.134	0.02
760.311	-0.11
760.488	0.02
760.664	0.04
760.841	-0.03
761.017	-0.11
761.194	0.02
761.37	0.01
761.547	-0.04
761.723	-0.04
761.899	0.08
762.076	-0.08
762.252	-0.25
762.429	-0.13
762.605	0.04
762.781	-0.08
762.958	-0.01
763.134	-0.03
763.31	-0.01
763.486	0.1
763.663	-0.17
763.839	-0.04
764.015	-0.24
764.191	-0.11
764.368	-0.08
764.544	-0.04
764.72	-0.08
764.896	0.1
765.072	0.07
765.248	-0.09
765.425	-0.08
765.601	-0.04
765.777	-0.09
765.953	-0.25
766.129	-0.15
766.305	-0.18
766.481	0.16
766.657	0.01
766.833	0.23
767.009	-0.16
767.185	-0.12
767.361	-0.01
767.537	-0.12
767.713	0.03
767.889	-0.1
768.065	0.01
768.24	-0.3
768.416	0.05
768.592	0.01
768.768	-0.11
768.944	-0.08
769.12	-0.14
769.295	-0.14
769.471	-0.13
769.647	-0.12
769.823	0.08
769.998	-0.06
770.174	-0.15
770.35	0.25
770.525	0.16
770.701	-0.14
770.877	-0.09
771.052	-0.14
771.228	0
771.403	-0.08
771.579	0.09
771.755	0.16
771.93	-0.03
772.106	-0.16
772.281	-0.23
772.457	-0.08
772.632	-0.06
772.808	-0.29
772.983	-0.2
773.159	-0.16
773.334	0.01
773.509	-0.2
773.685	-0.16
773.86	0.13
774.036	0.2
774.211	-0.09
774.386	-0.04
774.562	-0.18
774.737	-0.04
774.912	-0.13
775.087	-0.01
775.263	-0.1
775.438	0.04
775.613	-0.17
775.788	0.01
775.964	0.25
776.139	0.2
776.314	-0.1
776.489	0.04
776.664	0.16
776.839	-0.06
777.014	0.2
777.19	0
777.365	0.1
777.54	0.21
777.715	-0.15
777.89	-0.19
778.065	-0.07
778.24	-0.05
778.415	0.11
778.59	-0.15
778.765	-0.13
778.94	-0.07
779.115	-0.12
779.289	-0.22
779.464	-0
779.639	-0.16
779.814	-0.13
779.989	-0.15
780.164	0.01
780.339	0.03
780.513	-0.11
780.688	-0.14
780.863	-0.1
781.038	-0.02
781.212	-0.23
781.387	-0.1
781.562	0.15
781.737	-0.05
781.911	0.05
782.086	-0.24
782.261	-0.08
782.435	0.31
782.61	-0.16
782.784	-0.13
782.959	-0.12
783.134	0.04
783.308	-0.31
783.483	-0.02
783.657	0.32
783.832	0.16
784.006	-0.42
784.181	0.01
784.355	0.03
784.53	-0.36
784.704	-0.38
784.878	0.15
785.053	0.09
785.227	0.15
785.402	0.11
785.576	-0.2
785.75	0.03
785.925	-0.17
786.099	-0.06
786.273	0.07
786.448	-0.03
786.622	0.08
786.796	-0.25
786.97	-0.12
787.145	0.29
787.319	-0.51
787.493	-0.28
787.667	-0.17
787.841	-0.41
788.015	0.01
788.19	-0.05
788.364	-0.13
788.538	0.23
788.712	0.01
788.886	-0.23
789.06	0.3
789.234	0.07
789.408	-0.39
789.582	0.04
789.756	0.01
789.93	-0.18
790.104	-0.05
790.278	-0.13
790.452	-0.17
790.626	-0.02
790.8	-0.29
790.973	0.09
791.147	0.22
791.321	0.06
791.495	-0
791.669	-0.07
791.843	0.06
792.016	-0.14
792.19	0.13
792.364	-0.38
792.538	0.39
792.711	0.14
792.885	-0.02
793.059	-0.38
793.233	-0.3
793.406	0.3
793.58	-0.12
793.754	0.06
793.927	-0.15
794.101	0.17
794.274	-0.37
794.448	0.07
794.622	-0.29
794.795	0.32
794.969	-0.4
795.142	0.08
795.316	-0.18
795.489	-0.13
795.663	0.19
795.836	-0.01
796.009	-0.25
796.183	0.15
796.356	-0.12
796.53	0.06
796.703	-0.05
796.876	0.25
797.05	-0.11
797.223	-0.1
797.396	-0
797.57	-0.13
797.743	0.33
797.916	-0.07
798.09	-0.21
798.263	0.19
798.436	0.11
798.609	-0.06
798.782	-0.03
798.956	0.12
799.129	-0.16
799.302	-0.09
799.475	-0.21
799.648	-0.08
799.821	0.05
799.994	0.05
800.167	-0.62
800.34	0.05
800.514	-0.1
800.687	-0.23
800.86	-0.11
801.033	0.07
801.206	-0.05
801.379	-0.23
801.551	0.05
801.724	0
801.897	0.19
802.07	-0.3
802.243	-0.42
802.416	-0.14
802.589	0.02
802.762	-0.15
802.935	-0.09
803.107	-0.02
803.28	0.02
803.453	0.3
803.626	-0.22
803.798	-0.34
803.971	-0.22
804.144	0.07
804.317	0.11
804.489	0.15
804.662	-0.18
804.835	0.01
805.007	-0.37
805.18	0.4
805.353	0.04
805.525	-0.21
805.698	-0.23
805.87	-0.12
806.043	-0.04
806.215	-0.11
806.388	-0.29
806.56	-0.14
806.733	0.55
806.905	-0.17
807.078	-0.33
807.25	-0.25
807.423	-0.2
807.595	-0.08
807.768	0.06
807.94	0.04
808.112	-0.06
808.285	-0.2
808.457	-0.38
808.629	-0.21
808.802	0.31
808.974	-0.04
809.146	-0.29
809.318	-0.52
809.491	-0.19
809.663	0.39
809.835	-0.48
810.007	0.26
810.18	0.02
810.352	-0.53
810.524	-0.15
810.696	-0.07
810.868	-0.24
811.04	-0.23
811.212	-0.27
811.384	-0.04
811.556	0.14
811.728	-0.21
811.901	0.35
812.073	0.07
812.245	0.34
812.417	-0.02
812.589	-0.6
812.76	-0.16
812.932	-0.07
813.104	0.4
813.276	-0.22
813.448	0.13
813.62	-0.21
813.792	0.01
813.964	-0.1
814.136	-0.06
814.307	-0.44
814.479	-0.21
814.651	-0.14
814.823	0.51
814.995	-0.49
815.166	-0.16
815.338	-0.45
815.51	-0.46
815.681	0.59
815.853	-0.17
816.025	-0.15
816.196	0.28
816.368	0.2
816.54	-0.57
816.711	-0.06
816.883	0.13
817.054	0.82
817.226	-0.78
817.398	-0.3
817.569	-0.51
817.741	0.09
817.912	0.23
818.084	-0.03
818.255	-0.06
818.426	-0.12
818.598	-0.19
818.769	-0.36
818.941	0.05
819.112	0.41
819.283	-0.02
819.455	-0.23
819.626	0.01
819.798	0.32
819.969	-0.08
820.14	0
820.311	-0.12
820.483	-0.14
820.654	0.52
820.825	0.02
820.996	-0.55
821.168	-0.37
821.339	-0.12
821.51	-0.18
821.681	-0.19
821.852	-0.06
822.023	-0.62
822.195	-0.49
822.366	0.28
822.537	0.01
822.708	0.25
822.879	-0.38
823.05	0.63
823.221	-0.2
823.392	0.57
823.563	0.25
823.734	-0.01
823.905	-0.32
824.076	-0.43
824.247	-0.77
824.418	-0.35
824.589	0.55
824.759	-0.16
824.93	-0.13
825.101	-0.36
825.272	0.74
825.443	0.18
825.614	0.7
825.784	-1.61
825.955	1.28
826.126	0.37
826.297	-0.46
826.467	0.71
826.638	0.39
826.809	-0.92
826.98	0.05
827.15	0.16
827.321	-0.48
827.492	0.95
827.662	-0.01
827.833	0.69
828.003	0.43
828.174	-0.74
828.345	-0.65
828.515	0.45
828.686	0.85
828.856	-0.71
829.027	-0.38
829.197	-0.21
829.368	0.12
829.538	-0.01
829.709	-0.51
829.879	0.23
830.049	-0.25
830.22	-0.5
830.39	-0.01
830.56	0.2
830.731	-0.16
830.901	-0.13
831.072	0.45
831.242	0.14
831.412	-0.19
831.582	0.08
831.753	-1.21
831.923	0.28
832.093	0.09
832.263	-0.27
832.434	-0.34
832.604	-0.3
832.774	0.31
832.944	-0.74
833.114	-0.29
833.284	0.15
833.454	-1.14
833.624	-0.87
833.795	-0.52
833.965	0.51
834.135	0.48
834.305	-1.12
834.475	-0.96
834.645	-0.65
834.815	-0.71
834.985	-0.78
835.155	-0.58
835.325	0.28
835.494	-0.29
835.664	-0.31
835.834	-0.32
836.004	-0.31
836.174	-0.27
836.344	0.18
836.514	-0.81
836.684	-0.85
836.853	0.13
837.023	-0.07
837.193	-0.74
837.363	0.17
837.532	0.54
837.702	-0.49
837.872	-0.89
838.041	0.72
838.211	1.38
838.381	-0.86
838.55	-0.03
838.72	1.15
838.89	0.46
839.059	0.09
839.229	-0.72
839.398	0.82
839.568	0.6
839.738	0.15
839.907	0.76
840.077	-0.54
840.246	-1.15
840.416	-0.64
840.585	-0.65
840.755	1.16
840.924	0.55
841.093	-1.14
841.263	-1.08
841.432	-0.63
841.602	-0.61
841.771	-0.7
841.94	0.16
842.11	1.01
842.279	1.42
842.448	-0.71
842.617	-0.64
842.787	1.49
842.956	-1.4
843.125	-0.17
843.294	0.35
843.464	0.44
843.633	0.07
843.802	-1.28
843.971	-0.56
844.14	0.37
844.309	-0.08
844.479	-0.42
844.648	-1.1
844.817	-0.85
844.986	0.35
845.155	-0.1
845.324	-0.09
845.493	0.72
845.662	-0.6
845.831	-0.15
846	0.69
846.169	-0.77
846.338	0.96
846.507	-0.12
846.676	0.37
846.844	-0.33
847.013	0.63
847.182	0.39
847.351	-0.75
847.52	0.22
847.689	-0.31
847.858	-0.78
848.026	-0.51
848.195	-0.02
848.364	-0.51
848.533	-0.08
848.701	-0.59
848.87	0.43
849.039	0.14
849.207	0.94
849.376	0.76
849.545	0.27
849.713	-0.46
849.882	-0.4
850.051	-0.63
850.219	-0.35
850.388	0.1
850.556	-0.93
850.725	-0.78
850.893	-0.16
851.062	-1.04
851.23	0.35
851.399	-0.98
851.567	-0.34
851.736	-0.14
851.904	-0.99
852.073	0.35
852.241	0.33
852.41	0.2
852.578	-0.52
852.746	-1.08
852.915	1.51
853.083	-0.01
853.251	-0.89
853.42	-1.18
853.588	0.07
853.756	0.93
853.924	-0.24
854.093	-1.27
854.261	-0.56
854.429	-1.04
854.597	0.16
854.765	-1.85
854.934	-0.04
855.102	0.03
855.27	-0.61
855.438	-0.26
855.606	1.14
855.774	1.06
855.942	-2.16
856.11	-2.07
856.278	-0.42
856.446	0
856.614	-0.76
856.782	-0.57
856.95	0.9
857.118	0.18
857.286	0.03
857.454	-1.17
857.622	1.52
857.79	-0.25
857.958	-1.11
858.126	-0.89
858.294	-2.51
858.462	-0.17
858.629	-0.26
858.797	-0.94
858.965	-0.08
859.133	-0.59
859.301	-0.18
859.468	0.04
859.636	-1.37
859.804	1.31
859.971	-0.28
860.139	-1.06
860.307	0.88
860.474	-0.7
860.642	-0.28
860.81	-0.12
860.977	-1.08
861.145	-0.68
861.313	-1.12
861.48	-0.37
861.648	0.26
861.815	-0.5
861.983	-2.27
862.15	-0.94
862.318	0.13
862.485	1.17
862.653	-0.2
862.82	-1.32
862.988	0.39
863.155	0.2
863.322	-1.3
863.49	-0.95
863.657	-0.26
863.824	2.34
863.992	0.15
864.159	-0.26
864.326	2.01
864.494	-2.83
864.661	1.76
864.828	-0.68
864.996	0.07
865.163	0.85
865.33	-1.01
865.497	-2.9
865.664	-1.38
865.832	-2.69
865.999	0.51
866.166	-1.3
866.333	-1.34
866.5	-0.46
866.667	-0.24
866.834	-0.85
867.001	-0.03
867.168	-2.68
867.335	0.46
867.502	-1.51
867.669	0.36
867.836	0.37
868.003	-1.04
868.17	0.19
868.337	-1.66
868.504	1.73
868.671	-1.2
868.838	-0.98
869.005	-0.2
869.172	1.04
869.339	-0.86
869.505	-1.89
869.672	-0.33
869.839	0.87
870.006	-0.55
870.173	-2.35
870.339	0.3
870.506	1.61
870.673	-1.55
870.84	0.36
871.006	-1.57
871.173	-2.12
871.34	-0.11
871.506	-1.46
871.673	1.38
871.839	-2.64
872.006	-1.23
872.173	-0.13
872.339	-0.44
872.506	2.22
872.672	-1.84
872.839	-2.05
873.005	0.03
873.172	2.94
873.338	-0.02
873.505	-0.18
873.671	-1.04
873.838	1.1
874.004	-1.95
874.171	-1.37
874.337	-0.17
874.503	0.19
874.67	-1.1
874.836	-1.62
875.002	2.89
875.169	-0.47
875.335	-0.71
875.501	-0.38
875.668	-0.54
875.834	1.35
876	-0.99
876.166	0.9
876.332	1.19
876.499	3.85
876.665	-1.14
876.831	0.62
876.997	2.47
877.163	0.33
877.329	-1.3
877.495	-0.09
877.662	2.25
877.828	-1.19
877.994	-1.36
878.16	-1.68
878.326	-0.9
878.492	0.58
878.658	0.76
878.824	-0.11
878.99	1.49
879.156	0.45
879.322	2.45
879.487	-0.33
879.653	1.25
879.819	1.87
879.985	-0.98
880.151	0.9
880.317	-0.71
880.483	-0.5
880.648	1.48
880.814	-3.25
880.98	1.46
881.146	-0.66
881.312	-3.15
881.477	0.25
881.643	-0.04
881.809	1.19
881.974	1.26
882.14	-2.18
882.306	0.21
882.471	0.98
882.637	-1.05
882.803	0.11
882.968	1.98
883.134	4.85
883.299	-0.9
883.465	0.38
883.63	0.15
883.796	1.57
883.961	1.41
884.127	1.06
884.292	-3.52
884.458	-2.53
884.623	-2.52
