Data from Apollo_Calib_20240827__AbsoluteIrradiance__581__08-50-00-236.txt Node

Date: Wed Aug 28 08:50:00 BST 2024
User: biology
Spectrometer: FLMT08252
Trigger mode: 0
Integration Time (sec): 5.000000E-1
Scans to average: 5
Electric dark correction enabled: true
Nonlinearity correction enabled: false
Boxcar width: 0
XAxis mode: Wavelengths
Number of Pixels in Spectrum: 3648
>>>>>Begin Spectral Data<<<<<
179.588	-0
179.809	-0
180.03	-0
180.251	-0
180.473	-0
180.694	0
180.915	0
181.136	-0
181.357	0
181.578	-0
181.799	0
182.02	-0
182.241	-0
182.462	-0
182.683	0
182.904	-0
183.125	-0
183.346	-0
183.567	0
183.788	-0
184.009	-0
184.23	0
184.451	0
184.672	0
184.892	-0
185.113	0
185.334	0
185.555	-0
185.776	0
185.996	0
186.217	0
186.438	0
186.659	-0
186.879	0
187.1	-0
187.321	-0
187.541	-0
187.762	0
187.983	0
188.203	0
188.424	-0
188.644	-0
188.865	0
189.086	-0
189.306	0
189.527	0
189.747	-0
189.968	-0
190.188	0
190.409	0
190.629	0
190.849	-0
191.07	-0
191.29	0
191.511	0
191.731	-0
191.951	-0
192.172	0
192.392	0
192.612	-0
192.833	0
193.053	0
193.273	0
193.493	0
193.714	-0
193.934	0
194.154	0
194.374	0
194.594	0
194.815	0
195.035	0
195.255	0
195.475	0
195.695	0
195.915	0
196.135	0
196.355	0
196.575	0
196.795	0
197.015	-0
197.235	0
197.455	-0
197.675	0
197.895	-0
198.115	-0
198.335	0
198.555	-0
198.775	0
198.995	0
199.214	0
199.434	-0
199.654	-0
199.874	0
200.094	1.36
200.313	0.2
200.533	-0.18
200.753	-0.05
200.973	0.95
201.192	0.3
201.412	-0.29
201.632	-0.31
201.851	0.37
202.071	-0.51
202.291	-0.26
202.51	-0.06
202.73	0.52
202.95	0.1
203.169	-0.1
203.389	0.32
203.608	0.55
203.828	-0.22
204.047	-0.09
204.267	0.57
204.486	0.67
204.706	0.35
204.925	0.11
205.145	0.03
205.364	0.58
205.583	1.08
205.803	0.14
206.022	-0.19
206.242	0.49
206.461	0.26
206.68	-0.24
206.9	0.27
207.119	0.84
207.338	0.8
207.557	-0.05
207.777	-0.04
207.996	0.14
208.215	0.87
208.434	0.03
208.654	-0.03
208.873	0.07
209.092	0.52
209.311	-0.12
209.53	0.31
209.749	0.16
209.968	0.12
210.187	0.31
210.407	-0.11
210.626	-0.15
210.845	0.21
211.064	0.04
211.283	-0.1
211.502	0.36
211.721	-0.2
211.94	0.24
212.159	0.41
212.377	0.17
212.596	0.44
212.815	0.11
213.034	0.21
213.253	0.3
213.472	0.35
213.691	0.11
213.91	-0.02
214.128	0.21
214.347	0.65
214.566	-0.1
214.785	-0.21
215.003	0.24
215.222	0.15
215.441	-0.12
215.66	-0.03
215.878	0.1
216.097	0.2
216.316	-0.14
216.534	-0.08
216.753	0.12
216.972	0.22
217.19	0.14
217.409	-0.02
217.627	-0.08
217.846	0.04
218.064	0.13
218.283	0.09
218.501	0.51
218.72	0.27
218.938	-0.2
219.157	0.13
219.375	0.26
219.594	0.32
219.812	-0.06
220.031	-0.1
220.249	0.31
220.467	0.26
220.686	0.05
220.904	-0.08
221.122	-0.15
221.341	0.51
221.559	0.16
221.777	-0.21
221.995	0.2
222.214	0.14
222.432	-0.07
222.65	0.15
222.868	0.1
223.086	0.26
223.305	0.24
223.523	0.04
223.741	0.38
223.959	-0.01
224.177	-0.1
224.395	-0.03
224.613	0.11
224.831	0.24
225.049	0.01
225.267	0.15
225.485	0.1
225.703	0.14
225.921	0.04
226.139	0.05
226.357	0.23
226.575	0.21
226.793	0.02
227.011	0.35
227.229	0.21
227.447	0.21
227.665	0.08
227.883	-0.2
228.1	0.05
228.318	0.12
228.536	-0.16
228.754	0.01
228.972	0.09
229.189	0.12
229.407	-0.03
229.625	-0.01
229.843	0.32
230.06	0.05
230.278	-0.01
230.496	0.06
230.713	0.11
230.931	0.15
231.149	0
231.366	-0.18
231.584	0.13
231.801	0.35
232.019	0.09
232.236	-0.16
232.454	-0.05
232.671	0.04
232.889	0.06
233.106	-0.08
233.324	0.09
233.541	0.05
233.759	-0.03
233.976	0.03
234.194	0.04
234.411	-0.01
234.628	-0.05
234.846	0.09
235.063	-0
235.28	0.05
235.498	-0.04
235.715	-0.01
235.932	0.15
236.149	0.07
236.367	0.01
236.584	0.09
236.801	0.05
237.018	0.24
237.236	-0.01
237.453	-0.11
237.67	0.12
237.887	0.09
238.104	0
238.321	-0.04
238.538	-0
238.755	0.12
238.973	-0.1
239.19	-0.01
239.407	0.1
239.624	0.11
239.841	-0.07
240.058	-0.05
240.275	0.09
240.492	0.03
240.709	-0.01
240.925	-0.02
241.142	0.05
241.359	-0.05
241.576	-0.09
241.793	-0.03
242.01	-0.02
242.227	0.12
242.444	0.1
242.66	0.12
242.877	0.08
243.094	-0.05
243.311	0.07
243.527	-0.07
243.744	0.12
243.961	0.14
244.178	-0.02
244.394	0.05
244.611	0.21
244.828	0.24
245.044	-0.07
245.261	-0.02
245.477	0.04
245.694	0.08
245.911	0.02
246.127	0.03
246.344	0.18
246.56	0.14
246.777	0.05
246.993	0.05
247.21	0.09
247.426	0.12
247.643	-0.04
247.859	-0
248.076	0.07
248.292	0.18
248.508	-0.01
248.725	0.07
248.941	0.09
249.157	0.11
249.374	-0.04
249.59	0
249.806	0.08
250.023	0.14
250.239	-0.05
250.455	-0.06
250.671	-0.03
250.888	0.15
251.104	0.06
251.32	0.04
251.536	-0.04
251.752	0
251.969	0.07
252.185	0.11
252.401	0.24
252.617	0.05
252.833	-0
253.049	-0
253.265	0.08
253.481	0.05
253.697	0
253.913	-0.05
254.129	0.04
254.345	0.08
254.561	0.07
254.777	0.08
254.993	0.13
255.209	0.16
255.425	-0
255.641	0.05
255.857	0.16
256.073	0.05
256.288	-0.05
256.504	0.03
256.72	0.1
256.936	0.18
257.152	-0.01
257.367	-0.04
257.583	0.08
257.799	0.04
258.015	0.02
258.23	0.05
258.446	0.19
258.662	0.04
258.877	0.01
259.093	-0.04
259.309	0.01
259.524	0.09
259.74	0.09
259.955	-0.06
260.171	0.07
260.387	-0.03
260.602	0.06
260.818	0.05
261.033	-0.01
261.249	0.04
261.464	-0.04
261.68	-0
261.895	0.04
262.11	0.1
262.326	0.04
262.541	-0.02
262.757	0.13
262.972	0.07
263.187	0.02
263.403	0.03
263.618	0.09
263.833	0.06
264.049	-0.06
264.264	0.05
264.479	0.09
264.694	0.1
264.91	-0.01
265.125	0.04
265.34	0.07
265.555	0.2
265.77	0.09
265.986	-0
266.201	0.12
266.416	0.17
266.631	-0.02
266.846	0
267.061	0.04
267.276	0.13
267.491	-0.07
267.706	-0
267.921	0.11
268.136	0.11
268.351	0.06
268.566	-0.05
268.781	0.14
268.996	0.04
269.211	0.05
269.426	0
269.641	0.04
269.856	0.03
270.071	-0.02
270.285	-0.04
270.5	0.07
270.715	0.05
270.93	-0.05
271.145	0.04
271.359	0.13
271.574	0.04
271.789	0.07
272.004	-0.01
272.218	0.08
272.433	0.08
272.648	-0.01
272.862	0.13
273.077	0.07
273.292	-0.01
273.506	0.03
273.721	-0.07
273.936	0.12
274.15	0.1
274.365	-0.05
274.579	0.1
274.794	0.05
275.008	0.05
275.223	-0.04
275.437	0.01
275.652	0.04
275.866	0.11
276.081	-0
276.295	0.14
276.509	0.07
276.724	0.02
276.938	0.01
277.153	0.06
277.367	0.09
277.581	0.01
277.796	-0.03
278.01	-0.05
278.224	0.1
278.438	0.15
278.653	-0.06
278.867	0.01
279.081	-0.15
279.295	0.02
279.51	0.09
279.724	-0.05
279.938	0.1
280.152	0.06
280.366	-0.04
280.58	0.05
280.794	0.15
281.008	0.09
281.222	0.09
281.437	0.12
281.651	0.03
281.865	0.04
282.079	-0.03
282.293	-0.07
282.507	-0.01
282.721	0.02
282.935	0.05
283.148	-0.07
283.362	-0.02
283.576	-0.02
283.79	0.07
284.004	0
284.218	0.08
284.432	-0.01
284.646	-0.01
284.859	-0.03
285.073	0.01
285.287	0.02
285.501	0.05
285.714	0
285.928	0.09
286.142	-0.01
286.356	-0
286.569	0.07
286.783	0.09
286.997	0.06
287.21	0.05
287.424	0.08
287.637	0.05
287.851	0.02
288.065	0.08
288.278	0.07
288.492	0.02
288.705	0.04
288.919	0.06
289.132	-0.06
289.346	0.06
289.559	-0.03
289.773	0
289.986	-0.01
290.2	0.05
290.413	0.06
290.626	0.01
290.84	0.06
291.053	0.03
291.267	0.09
291.48	0.04
291.693	-0.02
291.906	-0.04
292.12	0.05
292.333	0.01
292.546	0.03
292.76	0.11
292.973	0.01
293.186	0.09
293.399	0.01
293.612	0.08
293.826	0.05
294.039	0.04
294.252	0.05
294.465	0.05
294.678	0.05
294.891	0.08
295.104	-0.03
295.317	0
295.53	0.03
295.743	0.03
295.956	0.01
296.169	0.09
296.382	0.06
296.595	0.03
296.808	-0.01
297.021	0.05
297.234	0.04
297.447	0.03
297.66	0.07
297.873	0.07
298.086	0.03
298.299	0.01
298.511	0.02
298.724	0.04
298.937	-0.07
299.15	-0.02
299.363	0.05
299.575	0.06
299.788	0.05
300.001	0.03
300.213	-0
300.426	-0.03
300.639	-0.01
300.852	0.03
301.064	0.07
301.277	0.09
301.489	0.08
301.702	0.1
301.915	0.04
302.127	0.02
302.34	0.06
302.552	0.05
302.765	0.01
302.977	0.05
303.19	-0.03
303.402	-0.02
303.615	-0.01
303.827	0
304.04	0.04
304.252	0.05
304.464	0.05
304.677	0.14
304.889	0.04
305.102	0.01
305.314	-0.03
305.526	0.07
305.739	0.09
305.951	0.01
306.163	0.02
306.375	0.14
306.588	-0.02
306.8	-0.02
307.012	-0.04
307.224	0.07
307.436	0.1
307.649	-0.07
307.861	0.04
308.073	0.04
308.285	0.03
308.497	-0.05
308.709	-0
308.921	0.03
309.133	0.02
309.346	0.03
309.558	0.05
309.77	0.12
309.982	0.07
310.194	0.04
310.406	0.02
310.617	0.09
310.829	0.05
311.041	0.05
311.253	-0.05
311.465	0.05
311.677	0.03
311.889	0.03
312.101	0.03
312.313	0.06
312.524	0.12
312.736	-0.01
312.948	-0
313.16	0.13
313.372	0.06
313.583	0.04
313.795	0.01
314.007	-0.02
314.218	0.07
314.43	0.05
314.642	-0
314.853	-0.02
315.065	0.09
315.277	0.05
315.488	0.02
315.7	0.03
315.912	0.06
316.123	-0
316.335	0.02
316.546	0.1
316.758	0.01
316.969	0
317.181	0.01
317.392	0.05
317.604	0.05
317.815	-0.02
318.026	-0.02
318.238	-0
318.449	0.02
318.661	-0.03
318.872	-0.05
319.083	-0
319.295	0.05
319.506	0.01
319.717	0.02
319.929	0.02
320.14	0.03
320.351	0.02
320.562	0.01
320.774	-0.01
320.985	0.01
321.196	0.02
321.407	-0.04
321.618	0.05
321.829	0.03
322.041	0.02
322.252	0
322.463	0.03
322.674	0.06
322.885	-0.05
323.096	0.01
323.307	0.01
323.518	0.04
323.729	0.01
323.94	0.03
324.151	0.01
324.362	0.05
324.573	0.05
324.784	-0.04
324.995	0.06
325.206	0.02
325.417	0.04
325.628	0.04
325.838	-0
326.049	0.07
326.26	0.08
326.471	-0
326.682	0.05
326.892	0.02
327.103	-0.01
327.314	-0.01
327.525	0.09
327.735	0.02
327.946	0.01
328.157	-0.02
328.368	0.01
328.578	0.02
328.789	0.03
328.999	0.03
329.21	0.02
329.421	0.1
329.631	-0.02
329.842	-0.01
330.052	-0.02
330.263	0.03
330.473	0.05
330.684	0
330.894	-0.01
331.105	0.06
331.315	0.04
331.526	-0.04
331.736	0.1
331.947	0.04
332.157	0.1
332.367	-0.02
332.578	0.05
332.788	0.09
332.999	0.02
333.209	0.04
333.419	-0.03
333.629	0.04
333.84	0.05
334.05	0.01
334.26	0.09
334.47	0.05
334.681	0.07
334.891	0.03
335.101	0.01
335.311	0.11
335.521	0.05
335.732	-0.01
335.942	0.1
336.152	0.04
336.362	0.05
336.572	0.06
336.782	0.02
336.992	0.02
337.202	-0.02
337.412	-0.03
337.622	0.05
337.832	-0.02
338.042	0.01
338.252	-0.02
338.462	0.01
338.672	0.05
338.882	0.04
339.092	0
339.302	0.07
339.511	0.03
339.721	-0
339.931	-0.04
340.141	0.04
340.351	0.06
340.561	0.03
340.77	0.04
340.98	0.02
341.19	0.08
341.4	0
341.609	-0.05
341.819	0.04
342.029	0.01
342.238	0.04
342.448	0.01
342.658	0.06
342.867	0.06
343.077	0
343.286	0.06
343.496	0.03
343.706	0.1
343.915	-0
344.125	-0.02
344.334	0.08
344.544	-0.02
344.753	0.01
344.963	0.03
345.172	0.01
345.381	-0.01
345.591	-0.02
345.8	0.01
346.01	0.09
346.219	0.09
346.428	-0.09
346.638	-0.01
346.847	0.02
347.056	0.08
347.266	-0.03
347.475	0.03
347.684	0.04
347.893	0.02
348.103	0.02
348.312	-0.02
348.521	-0
348.73	0.03
348.94	0.01
349.149	-0.01
349.358	0.03
349.567	-0.01
349.776	-0.02
349.985	-0.01
350.194	0.11
350.403	0.04
350.612	0.02
350.821	0.05
351.03	-0
351.239	-0.02
351.448	-0
351.657	-0.01
351.866	0.11
352.075	-0
352.284	0.05
352.493	-0.02
352.702	0.05
352.911	0.02
353.12	0.07
353.329	0.02
353.538	0.03
353.746	0.02
353.955	-0.02
354.164	0.02
354.373	0.02
354.582	0.1
354.79	0.07
354.999	0.05
355.208	0
355.416	0.06
355.625	-0.05
355.834	-0.03
356.042	0.04
356.251	-0.02
356.46	-0.05
356.668	0.08
356.877	0.09
357.085	0.02
357.294	-0.05
357.503	0.05
357.711	-0.01
357.92	0.13
358.128	0.06
358.337	0.02
358.545	0.02
358.754	-0.03
358.962	0.04
359.17	-0.01
359.379	0.01
359.587	0.03
359.796	0.06
360.004	0.07
360.212	0.04
360.421	0.06
360.629	0.02
360.837	0.03
361.046	0.06
361.254	0.09
361.462	0.02
361.67	0.01
361.879	0.04
362.087	0.09
362.295	0.05
362.503	0.01
362.711	-0.02
362.92	-0.01
363.128	0.02
363.336	-0.02
363.544	-0.04
363.752	-0.01
363.96	0
364.168	0.01
364.376	-0.01
364.584	0.04
364.792	0.04
365	0.03
365.208	0.02
365.416	0.02
365.624	0.01
365.832	-0.01
366.04	0.07
366.248	0.05
366.456	0.03
366.664	0.03
366.872	0.02
367.079	-0.02
367.287	0.03
367.495	0.06
367.703	0.04
367.911	-0
368.118	0
368.326	0.07
368.534	-0.05
368.742	0.06
368.949	-0.03
369.157	0.05
369.365	0.07
369.572	-0.01
369.78	0.01
369.988	0.11
370.195	0.04
370.403	0.07
370.61	0
370.818	0.04
371.026	0.06
371.233	-0.03
371.441	0.07
371.648	-0.01
371.856	0.03
372.063	0.03
372.271	-0
372.478	0.01
372.685	-0.03
372.893	0.08
373.1	0.03
373.308	0.01
373.515	0.08
373.722	0.03
373.93	0.02
374.137	0.05
374.344	0.08
374.552	0.02
374.759	0.04
374.966	0.01
375.173	-0.01
375.381	0.09
375.588	0.01
375.795	-0.06
376.002	-0.01
376.209	-0.01
376.417	0.01
376.624	0.04
376.831	-0.01
377.038	-0.03
377.245	-0.02
377.452	0.02
377.659	-0.01
377.866	-0.01
378.073	0.02
378.28	0.03
378.487	0.04
378.694	0.05
378.901	0
379.108	0
379.315	0.01
379.522	0.1
379.729	0.04
379.936	-0.03
380.143	0.03
380.35	0.03
380.557	0.04
380.763	0.01
380.97	-0
381.177	0.03
381.384	0.09
381.591	0
381.797	0.01
382.004	0.01
382.211	0
382.418	-0.02
382.624	0.03
382.831	0.05
383.038	0.02
383.244	0.01
383.451	0.01
383.658	0.04
383.864	0
384.071	-0.01
384.277	0.08
384.484	-0.02
384.69	0.02
384.897	-0.03
385.103	0.06
385.31	0.05
385.516	0
385.723	-0.01
385.929	0.01
386.136	0.04
386.342	0.01
386.549	-0.02
386.755	0.02
386.961	0.04
387.168	0.02
387.374	0.04
387.58	0.09
387.787	0.04
387.993	0.01
388.199	0.01
388.406	0.04
388.612	0.03
388.818	0.01
389.024	-0.02
389.231	0.04
389.437	0.09
389.643	0.05
389.849	0.01
390.055	0.02
390.261	0.02
390.467	0.05
390.674	-0.04
390.88	-0
391.086	0.05
391.292	-0.02
391.498	0.03
391.704	0.05
391.91	0.01
392.116	-0.03
392.322	-0.06
392.528	-0
392.734	0.03
392.94	0.02
393.146	-0
393.352	0.03
393.557	0.02
393.763	0.01
393.969	0.01
394.175	0.01
394.381	0.02
394.587	-0.04
394.792	0.01
394.998	0.06
395.204	0.06
395.41	0.02
395.615	0.02
395.821	0.02
396.027	0.02
396.233	0.01
396.438	0.02
396.644	0.08
396.85	0.06
397.055	0.01
397.261	-0.03
397.466	0.11
397.672	-0.02
397.878	0.06
398.083	0.02
398.289	-0.01
398.494	0.11
398.7	0.02
398.905	-0.02
399.111	0.14
399.316	-0.01
399.522	0.03
399.727	0.02
399.932	0
400.138	0.01
400.343	0.1
400.549	0.01
400.754	0.05
400.959	0.04
401.165	0.05
401.37	0.02
401.575	0.11
401.78	0.05
401.986	-0.03
402.191	0.01
402.396	-0.01
402.601	0.04
402.807	0.04
403.012	0.02
403.217	0.04
403.422	0.01
403.627	0.04
403.832	-0.01
404.037	0.04
404.243	0.04
404.448	0.03
404.653	0.01
404.858	-0
405.063	0.12
405.268	0.01
405.473	-0.02
405.678	0.01
405.883	0.15
406.088	0.06
406.293	-0.03
406.498	-0
406.703	0.09
406.907	0
407.112	-0.01
407.317	0.01
407.522	0.06
407.727	-0.05
407.932	-0.01
408.136	0.11
408.341	0.01
408.546	0
408.751	0
408.956	0.01
409.16	0.07
409.365	-0.01
409.57	0.01
409.774	0.03
409.979	0.02
410.184	0.02
410.388	-0.01
410.593	0.07
410.798	0.04
411.002	-0
411.207	0.03
411.411	0.03
411.616	-0.03
411.82	0.02
412.025	0.03
412.229	-0
412.434	0.07
412.638	0.04
412.843	0.02
413.047	0.05
413.252	0
413.456	-0.03
413.66	0.07
413.865	-0.09
414.069	0.03
414.273	0.01
414.478	0
414.682	0.02
414.886	-0.03
415.091	-0.02
415.295	-0.05
415.499	0.04
415.703	0.01
415.908	0.06
416.112	-0.07
416.316	0.02
416.52	0
416.724	-0.01
416.929	-0.01
417.133	0.09
417.337	0.02
417.541	-0.01
417.745	0
417.949	0.04
418.153	0.03
418.357	-0.04
418.561	0.05
418.765	0.02
418.969	0.09
419.173	0.04
419.377	-0
419.581	0.12
419.785	-0.01
419.989	-0.06
420.193	0.01
420.397	0.04
420.601	0.06
420.804	0.07
421.008	0.06
421.212	0.07
421.416	0.08
421.62	0.01
421.823	0.03
422.027	0.07
422.231	0.05
422.435	0.03
422.638	0.03
422.842	0
423.046	-0.01
423.249	0.04
423.453	0.02
423.657	0.06
423.86	-0.01
424.064	0.03
424.268	0.07
424.471	0.02
424.675	0.11
424.878	0.07
425.082	0
425.285	0.08
425.489	0.05
425.692	0.06
425.896	-0.03
426.099	0.04
426.303	-0.01
426.506	0.01
426.71	0.05
426.913	0.04
427.116	0.03
427.32	-0.05
427.523	0.02
427.726	0.16
427.93	-0
428.133	0.03
428.336	-0.06
428.54	-0.03
428.743	0.02
428.946	0.06
429.149	0.02
429.353	0.04
429.556	0.03
429.759	0.02
429.962	-0.03
430.165	0.03
430.368	0.04
430.571	-0.03
430.775	0.04
430.978	0.02
431.181	-0.02
431.384	0.11
431.587	-0.01
431.79	0.01
431.993	0.03
432.196	0.01
432.399	-0
432.602	0.07
432.805	0.01
433.008	-0.03
433.211	-0.07
433.414	0.03
433.616	0.03
433.819	0.03
434.022	-0.08
434.225	0.04
434.428	0.06
434.631	0.15
434.833	0.02
435.036	0.02
435.239	0.06
435.442	0.05
435.645	-0.02
435.847	0.02
436.05	0.03
436.253	0.05
436.455	-0.01
436.658	0.03
436.861	0.12
437.063	0.01
437.266	-0
437.468	0.02
437.671	0.14
437.874	0.03
438.076	0
438.279	-0.06
438.481	0.01
438.684	-0.03
438.886	0.03
439.089	-0.07
439.291	0.04
439.494	0.01
439.696	0
439.899	-0.02
440.101	0.02
440.303	-0.04
440.506	0.03
440.708	0
440.91	0.03
441.113	-0.05
441.315	0.04
441.517	-0.04
441.72	0.06
441.922	-0.02
442.124	-0.03
442.326	0.06
442.529	0.11
442.731	0.01
442.933	0.06
443.135	0.01
443.337	-0.01
443.539	0.05
443.742	0
443.944	0.05
444.146	0.01
444.348	-0.04
444.55	0.02
444.752	-0
444.954	-0.02
445.156	-0
445.358	0.02
445.56	0.05
445.762	-0.03
445.964	0
446.166	-0.04
446.368	-0.05
446.57	0.05
446.772	0.04
446.974	-0.01
447.175	0.07
447.377	-0.06
447.579	0
447.781	-0.05
447.983	0.08
448.184	0.04
448.386	-0
448.588	-0.06
448.79	0.01
448.991	0.01
449.193	-0
449.395	0.02
449.597	0.03
449.798	0.04
450	0.09
450.202	0.02
450.403	0.03
450.605	0.05
450.806	0.03
451.008	-0.06
451.21	0.01
451.411	0.03
451.613	0.02
451.814	0.03
452.016	0.06
452.217	0.01
452.419	0.06
452.62	0.03
452.821	0.07
453.023	0.08
453.224	0.09
453.426	0.02
453.627	0.07
453.828	0.07
454.03	0.05
454.231	0.05
454.432	-0.01
454.634	0.13
454.835	-0.02
455.036	-0.05
455.238	0.05
455.439	0.09
455.64	-0.02
455.841	-0.01
456.042	0.12
456.244	0.06
456.445	-0.01
456.646	-0.03
456.847	-0.01
457.048	0.04
457.249	0.09
457.45	0.22
457.651	0.01
457.852	0.09
458.054	0.03
458.255	0.03
458.456	0.06
458.657	0.02
458.858	0
459.058	-0
459.259	0.08
459.46	0
459.661	-0.02
459.862	0.12
460.063	-0.01
460.264	0.09
460.465	-0.03
460.666	0.1
460.866	0.02
461.067	0
461.268	0.01
461.469	-0.02
461.67	0.04
461.87	0.05
462.071	0
462.272	-0.02
462.473	0.02
462.673	0.04
462.874	-0.02
463.075	0.01
463.275	-0.01
463.476	0.07
463.676	0.03
463.877	0.01
464.078	0.01
464.278	0.06
464.479	0.01
464.679	0
464.88	0
465.08	0.08
465.281	-0.03
465.481	0.01
465.682	0.04
465.882	0.05
466.083	0.07
466.283	-0.01
466.483	0.03
466.684	-0.01
466.884	-0.03
467.085	-0.01
467.285	0.05
467.485	-0.03
467.686	0.01
467.886	-0.01
468.086	0.05
468.286	0.05
468.487	0.04
468.687	-0.07
468.887	0.03
469.087	0.07
469.287	0.01
469.488	-0.04
469.688	0.01
469.888	0.05
470.088	0.07
470.288	0.06
470.488	0.07
470.688	0
470.888	0.02
471.088	0.01
471.288	0.04
471.488	0.05
471.688	0.04
471.888	0
472.088	0.07
472.288	0.04
472.488	-0.02
472.688	0.01
472.888	0.07
473.088	0.03
473.288	-0.01
473.488	0.05
473.688	0.08
473.887	0.04
474.087	-0.05
474.287	0.06
474.487	0.01
474.687	0.09
474.886	0.01
475.086	-0.01
475.286	0.02
475.486	-0
475.685	-0.04
475.885	-0.02
476.085	0.03
476.284	0.04
476.484	-0.01
476.684	0.03
476.883	0.05
477.083	0.06
477.282	0.02
477.482	0.08
477.681	0.07
477.881	0.05
478.08	-0.01
478.28	-0.02
478.479	0.05
478.679	0.09
478.878	-0.05
479.078	0.02
479.277	0
479.477	0.02
479.676	0.02
479.875	0
480.075	-0.05
480.274	0.05
480.473	0.03
480.673	-0.01
480.872	0.04
481.071	-0.01
481.271	0.02
481.47	0
481.669	0.02
481.868	-0.02
482.067	-0.01
482.267	-0.02
482.466	-0.01
482.665	-0.03
482.864	-0.01
483.063	-0.02
483.262	0.01
483.461	0.07
483.661	0.01
483.86	0.01
484.059	0.02
484.258	0.01
484.457	0.01
484.656	0.02
484.855	0.01
485.054	-0.05
485.253	-0.01
485.452	-0.01
485.651	0
485.849	-0.01
486.048	0.01
486.247	-0.01
486.446	-0
486.645	-0.01
486.844	0.01
487.043	-0.03
487.241	0.04
487.44	-0.01
487.639	-0
487.838	0.04
488.037	0.03
488.235	0.05
488.434	0.04
488.633	0.01
488.831	0.01
489.03	0.06
489.229	0.01
489.427	0
489.626	0.06
489.825	0.07
490.023	0.01
490.222	0
490.42	0.04
490.619	0.03
490.817	0.03
491.016	0
491.214	0.05
491.413	0.01
491.611	0.01
491.81	0.02
492.008	0.05
492.207	0.02
492.405	0.01
492.604	-0.04
492.802	-0.01
493	0
493.199	0.01
493.397	0.02
493.595	-0.01
493.794	-0.02
493.992	0.06
494.19	0.03
494.388	0.01
494.587	-0.01
494.785	0.01
494.983	-0.04
495.181	-0.01
495.379	0.01
495.578	0
495.776	0.03
495.974	0.02
496.172	0.01
496.37	-0
496.568	-0.04
496.766	-0.01
496.964	0.04
497.162	-0.01
497.36	-0
497.558	0.01
497.756	0.01
497.954	0
498.152	-0.02
498.35	-0.02
498.548	0.01
498.746	-0
498.944	-0.02
499.142	0
499.34	-0.01
499.538	0.01
499.736	-0.01
499.933	0.05
500.131	0.04
500.329	0.03
500.527	0.04
500.725	0.05
500.922	0.02
501.12	0.02
501.318	0.01
501.516	-0.01
501.713	0.02
501.911	0.01
502.109	-0.02
502.306	0.02
502.504	0.02
502.701	0.01
502.899	0.02
503.097	0.06
503.294	0.01
503.492	0.02
503.689	0.04
503.887	0.02
504.084	0.06
504.282	0.01
504.479	-0.03
504.677	0.02
504.874	-0.01
505.072	0
505.269	0.01
505.466	0.03
505.664	0.03
505.861	-0.02
506.059	-0.04
506.256	0.03
506.453	-0.01
506.651	0.06
506.848	0.05
507.045	0.01
507.242	0.01
507.44	0.01
507.637	-0
507.834	-0.01
508.031	0.02
508.229	-0.03
508.426	0.02
508.623	0.05
508.82	-0.02
509.017	-0.01
509.214	-0
509.411	0.02
509.608	-0.01
509.805	-0.02
510.003	-0.01
510.2	-0
510.397	0.04
510.594	-0.02
510.791	-0
510.988	-0.02
511.184	0.03
511.381	0.03
511.578	-0
511.775	0.03
511.972	-0.02
512.169	0
512.366	0
512.563	0.02
512.76	-0.02
512.956	0.01
513.153	0.01
513.35	0.01
513.547	0.01
513.744	-0.02
513.94	-0.02
514.137	-0
514.334	0.01
514.53	0.01
514.727	0.01
514.924	0.07
515.12	0.01
515.317	-0.01
515.514	0.01
515.71	0.01
515.907	-0
516.103	0.02
516.3	0.02
516.497	0.03
516.693	0.03
516.89	0.01
517.086	-0.02
517.283	0.04
517.479	0.01
517.676	-0.01
517.872	0.02
518.068	-0
518.265	0
518.461	0.01
518.658	-0.01
518.854	-0
519.05	0
519.247	-0.01
519.443	0.02
519.639	0.03
519.836	0.01
520.032	0.02
520.228	0.03
520.424	0.04
520.621	0.02
520.817	-0
521.013	0.02
521.209	0.04
521.405	0.04
521.601	0.02
521.798	0.01
521.994	0.03
522.19	-0.02
522.386	-0.03
522.582	0.04
522.778	0.01
522.974	0
523.17	0.01
523.366	0
523.562	0.04
523.758	0.01
523.954	-0.01
524.15	0
524.346	0.03
524.542	0
524.738	-0.01
524.934	0.01
525.129	-0.06
525.325	0.03
525.521	0.02
525.717	0.02
525.913	0
526.109	0.01
526.304	0.01
526.5	0.03
526.696	0.04
526.892	-0.01
527.087	0
527.283	-0.01
527.479	0.03
527.674	0
527.87	0.01
528.066	0.02
528.261	0.03
528.457	0.01
528.653	0.01
528.848	0.01
529.044	0.01
529.239	0
529.435	0.04
529.63	0.04
529.826	0.05
530.021	0.03
530.217	0.01
530.412	-0
530.608	0
530.803	0.01
530.999	-0
531.194	-0.03
531.389	0.03
531.585	-0.03
531.78	0.01
531.975	0.01
532.171	0.02
532.366	-0.01
532.561	0
532.757	0
532.952	0.01
533.147	0
533.342	0.01
533.538	0.01
533.733	0.04
533.928	-0.02
534.123	0.02
534.318	-0.02
534.513	0
534.709	0
534.904	-0.02
535.099	-0.03
535.294	0.01
535.489	0.04
535.684	-0.01
535.879	-0.01
536.074	0.02
536.269	-0.02
536.464	0.03
536.659	-0
536.854	-0
537.049	0.02
537.244	0.02
537.439	0.01
537.634	0.03
537.828	0.01
538.023	0.01
538.218	-0.02
538.413	0.02
538.608	-0.04
538.803	0.04
538.997	-0.02
539.192	0.03
539.387	0.03
539.582	0.03
539.776	0.02
539.971	0.01
540.166	0.02
540.36	-0.01
540.555	0.03
540.75	0.01
540.944	-0
541.139	-0.02
541.334	0.02
541.528	0.02
541.723	0.03
541.917	-0.01
542.112	-0.04
542.306	0
542.501	0.01
542.695	0.02
542.89	0
543.084	0.02
543.279	-0
543.473	-0.01
543.668	0.01
543.862	0.02
544.056	0.02
544.251	0
544.445	0.03
544.64	-0.01
544.834	-0.01
545.028	0.02
545.222	0.03
545.417	0.04
545.611	-0
545.805	0.01
546	0.01
546.194	0.03
546.388	-0
546.582	0.02
546.776	0.03
546.97	0.02
547.165	0.02
547.359	0.02
547.553	-0.01
547.747	0
547.941	0.02
548.135	0.02
548.329	0.04
548.523	0.03
548.717	-0
548.911	0.01
549.105	0.04
549.299	0.02
549.493	0.04
549.687	0.04
549.881	0.03
550.075	0
550.269	-0.02
550.463	0.03
550.657	0.01
550.85	0.01
551.044	0.01
551.238	0.03
551.432	-0.02
551.626	-0
551.82	0.01
552.013	0
552.207	0.02
552.401	0.03
552.594	0.01
552.788	0.01
552.982	0.02
553.176	-0
553.369	0.04
553.563	0.02
553.756	-0.01
553.95	-0.03
554.144	0
554.337	0.04
554.531	0.02
554.724	0.02
554.918	-0.01
555.111	0
555.305	0.01
555.498	0.04
555.692	0.05
555.885	-0.01
556.079	0.03
556.272	0.01
556.466	0.05
556.659	0.01
556.852	0.01
557.046	0.01
557.239	0.02
557.432	-0.01
557.626	0
557.819	0.01
558.012	0.02
558.206	0.04
558.399	0.01
558.592	0.02
558.785	0
558.979	0.03
559.172	0.02
559.365	0.06
559.558	0.03
559.751	0
559.944	0.01
560.138	0.03
560.331	-0.01
560.524	0
560.717	-0
560.91	0.03
561.103	0.05
561.296	0.02
561.489	0.03
561.682	0.03
561.875	0.05
562.068	0.01
562.261	0.03
562.454	0.07
562.647	0.01
562.84	0.03
563.032	-0.01
563.225	0.02
563.418	-0.01
563.611	-0
563.804	0.02
563.997	-0.01
564.19	-0.01
564.382	-0.03
564.575	0.01
564.768	-0
564.961	0.01
565.153	-0.01
565.346	0.05
565.539	0.01
565.731	0.04
565.924	0.04
566.117	0.04
566.309	0.01
566.502	0.03
566.695	0.01
566.887	0.01
567.08	-0.01
567.272	0.02
567.465	-0.02
567.657	0.01
567.85	0.01
568.042	0.03
568.235	0.06
568.427	0.01
568.62	0.04
568.812	0.04
569.005	0.02
569.197	-0.01
569.389	0.02
569.582	0.04
569.774	0.03
569.966	0.02
570.159	-0.02
570.351	0.03
570.543	0.01
570.736	0.02
570.928	0.01
571.12	0
571.312	0.02
571.505	-0
571.697	0.03
571.889	-0.01
572.081	-0
572.273	0.01
572.465	0.06
572.658	0
572.85	0.02
573.042	0.02
573.234	0
573.426	0.06
573.618	-0.01
573.81	0.03
574.002	0.05
574.194	0.06
574.386	-0
574.578	-0.03
574.77	0
574.962	0.04
575.154	0.01
575.346	0.02
575.538	0.02
575.729	0
575.921	0.01
576.113	0
576.305	0.03
576.497	0.01
576.689	0.02
576.88	-0.01
577.072	0.03
577.264	0.01
577.456	0.03
577.647	-0.03
577.839	0.04
578.031	0.07
578.223	-0.01
578.414	0.01
578.606	0.03
578.798	0.03
578.989	0.02
579.181	0
579.372	0.03
579.564	0
579.755	0.04
579.947	0.05
580.139	0.03
580.33	-0.01
580.522	0.01
580.713	-0.03
580.905	0
581.096	0.04
581.287	0.04
581.479	0.02
581.67	0.07
581.862	0.03
582.053	0
582.244	-0
582.436	0.02
582.627	0.03
582.818	-0.01
583.01	0.02
583.201	0.05
583.392	0.07
583.583	0.03
583.775	0.02
583.966	0.01
584.157	0.02
584.348	0.02
584.54	-0
584.731	0.04
584.922	0.01
585.113	0.01
585.304	0.03
585.495	0.05
585.686	0.05
585.877	0.06
586.068	0.05
586.259	0.05
586.45	0.03
586.641	0.05
586.832	-0.02
587.023	0.06
587.214	0.04
587.405	0.03
587.596	0.01
587.787	0.07
587.978	0.05
588.169	0
588.36	0.03
588.551	0.05
588.742	0.02
588.932	0.03
589.123	0.04
589.314	0.06
589.505	0.04
589.696	0.04
589.886	0.03
590.077	-0.01
590.268	0.03
590.458	0.01
590.649	-0.02
590.84	0.07
591.03	0.02
591.221	-0.01
591.412	0.02
591.602	0.08
591.793	0.09
591.984	0.03
592.174	0.04
592.365	0.09
592.555	0.02
592.746	0.06
592.936	0.06
593.127	0.06
593.317	0.07
593.508	0.03
593.698	0.05
593.889	0.06
594.079	0.05
594.269	0.04
594.46	0.09
594.65	0.05
594.84	0.05
595.031	0.02
595.221	0.02
595.411	0.01
595.602	0.07
595.792	0.05
595.982	0.05
596.172	0.14
596.363	0.04
596.553	0.06
596.743	0.07
596.933	0.06
597.123	0.09
597.314	0.04
597.504	0.03
597.694	0.09
597.884	0.05
598.074	0.05
598.264	0.04
598.454	0.11
598.644	0.07
598.834	0.08
599.024	0.05
599.214	0.06
599.404	0.09
599.594	0.07
599.784	0.06
599.974	0.11
600.164	0.08
600.354	0.05
600.544	0.03
600.734	0.08
600.924	0.11
601.114	0.06
601.303	0.07
601.493	0.08
601.683	0.04
601.873	0.08
602.063	0.06
602.252	0.11
602.442	0.04
602.632	0.05
602.821	0.08
603.011	0.13
603.201	0.09
603.39	0.06
603.58	0.08
603.77	0.1
603.959	0.13
604.149	0.1
604.339	0.1
604.528	0.14
604.718	0.12
604.907	0.11
605.097	0.11
605.286	0.06
605.476	0.13
605.665	0.17
605.855	0.12
606.044	0.18
606.234	0.16
606.423	0.13
606.612	0.1
606.802	0.13
606.991	0.17
607.181	0.13
607.37	0.13
607.559	0.14
607.749	0.1
607.938	0.13
608.127	0.14
608.316	0.13
608.506	0.16
608.695	0.18
608.884	0.17
609.073	0.2
609.263	0.2
609.452	0.21
609.641	0.18
609.83	0.14
610.019	0.18
610.208	0.2
610.397	0.19
610.586	0.19
610.775	0.18
610.965	0.17
611.154	0.2
611.343	0.22
611.532	0.21
611.721	0.2
611.91	0.21
612.099	0.25
612.287	0.23
612.476	0.18
612.665	0.24
612.854	0.23
613.043	0.3
613.232	0.25
613.421	0.23
613.61	0.27
613.798	0.23
613.987	0.32
614.176	0.27
614.365	0.28
614.554	0.31
614.742	0.34
614.931	0.28
615.12	0.34
615.309	0.29
615.497	0.33
615.686	0.3
615.875	0.34
616.063	0.33
616.252	0.33
616.44	0.36
616.629	0.36
616.818	0.37
617.006	0.37
617.195	0.38
617.383	0.42
617.572	0.39
617.76	0.39
617.949	0.41
618.137	0.41
618.326	0.46
618.514	0.39
618.703	0.43
618.891	0.51
619.079	0.42
619.268	0.52
619.456	0.45
619.644	0.54
619.833	0.49
620.021	0.51
620.209	0.45
620.398	0.53
620.586	0.54
620.774	0.56
620.962	0.58
621.151	0.64
621.339	0.55
621.527	0.58
621.715	0.57
621.903	0.6
622.092	0.62
622.28	0.68
622.468	0.65
622.656	0.66
622.844	0.7
623.032	0.7
623.22	0.61
623.408	0.8
623.596	0.72
623.784	0.8
623.972	0.75
624.16	0.78
624.348	0.83
624.536	0.83
624.724	0.84
624.912	0.9
625.1	0.88
625.288	0.86
625.476	0.89
625.664	0.94
625.851	0.89
626.039	0.99
626.227	1.03
626.415	1.02
626.603	0.96
626.79	1.04
626.978	1.1
627.166	1.07
627.354	1.09
627.541	1.11
627.729	1.07
627.917	1.23
628.104	1.23
628.292	1.22
628.48	1.23
628.667	1.25
628.855	1.28
629.042	1.34
629.23	1.34
629.418	1.38
629.605	1.38
629.793	1.37
629.98	1.4
630.168	1.45
630.355	1.5
630.543	1.48
630.73	1.49
630.917	1.58
631.105	1.67
631.292	1.63
631.48	1.61
631.667	1.74
631.854	1.7
632.042	1.73
632.229	1.67
632.416	1.78
632.604	1.82
632.791	1.81
632.978	1.94
633.165	1.92
633.353	2.01
633.54	1.97
633.727	1.96
633.914	2.06
634.101	2.04
634.289	2.17
634.476	2.13
634.663	2.14
634.85	2.2
635.037	2.18
635.224	2.19
635.411	2.34
635.598	2.36
635.785	2.38
635.972	2.42
636.159	2.48
636.346	2.48
636.533	2.51
636.72	2.58
636.907	2.64
637.094	2.69
637.281	2.62
637.468	2.79
637.655	2.79
637.842	2.87
638.029	2.85
638.215	2.93
638.402	3.01
638.589	3.05
638.776	3.08
638.963	3.11
639.149	3.26
639.336	3.34
639.523	3.35
639.709	3.42
639.896	3.41
640.083	3.47
640.27	3.56
640.456	3.6
640.643	3.68
640.829	3.6
641.016	3.74
641.203	3.74
641.389	3.92
641.576	3.92
641.762	3.99
641.949	4.03
642.135	4.14
642.322	4.23
642.508	4.16
642.695	4.44
642.881	4.38
643.068	4.46
643.254	4.57
643.441	4.72
643.627	4.77
643.813	4.74
644	4.93
644.186	4.93
644.372	5.06
644.559	5.16
644.745	5.23
644.931	5.29
645.118	5.49
645.304	5.52
645.49	5.62
645.676	5.64
645.862	5.81
646.049	6.03
646.235	5.98
646.421	6.29
646.607	6.42
646.793	6.31
646.979	6.4
647.165	6.62
647.352	6.67
647.538	6.8
647.724	6.93
647.91	6.99
648.096	7.2
648.282	7.38
648.468	7.47
648.654	7.6
648.84	7.6
649.026	7.82
649.212	7.78
649.397	7.96
649.583	8.25
649.769	8.37
649.955	8.44
650.141	8.73
650.327	8.71
650.513	8.96
650.698	9.04
650.884	9
651.07	9.33
651.256	9.34
651.442	9.58
651.627	9.51
651.813	9.94
651.999	9.89
652.184	10.08
652.37	10.32
652.556	10.44
652.741	10.57
652.927	10.46
653.113	10.84
653.298	10.98
653.484	11.16
653.669	11.28
653.855	11.31
654.04	11.57
654.226	11.65
654.412	11.84
654.597	11.86
654.782	12.12
654.968	12.33
655.153	12.45
655.339	12.54
655.524	12.71
655.71	12.9
655.895	13.07
656.08	13.09
656.266	13.49
656.451	13.23
656.636	13.34
656.822	13.44
657.007	13.66
657.192	13.78
657.378	13.82
657.563	13.76
657.748	13.89
657.933	14.08
658.118	13.76
658.304	14.15
658.489	14.2
658.674	14.13
658.859	13.98
659.044	14.1
659.229	14.11
659.414	14.05
659.599	13.96
659.785	13.87
659.97	13.71
660.155	13.58
660.34	13.63
660.525	13.41
660.71	13.23
660.895	13.05
661.08	12.95
661.264	12.55
661.449	12.41
661.634	12.02
661.819	11.98
662.004	11.47
662.189	11.27
662.374	11.07
662.559	10.76
662.743	10.53
662.928	10.24
663.113	9.93
663.298	9.66
663.483	9.24
663.667	9.04
663.852	8.69
664.037	8.55
664.221	8.25
664.406	7.98
664.591	7.65
664.775	7.41
664.96	7.16
665.145	6.81
665.329	6.69
665.514	6.42
665.698	6.12
665.883	5.86
666.068	5.78
666.252	5.57
666.437	5.31
666.621	5.08
666.806	4.99
666.99	4.78
667.174	4.59
667.359	4.42
667.543	4.27
667.728	4.1
667.912	3.88
668.096	3.83
668.281	3.57
668.465	3.6
668.649	3.4
668.834	3.28
669.018	3.2
669.202	3.16
669.387	2.98
669.571	2.93
669.755	2.67
669.939	2.69
670.124	2.58
670.308	2.48
670.492	2.48
670.676	2.37
670.86	2.22
671.044	2.17
671.228	2.09
671.413	2.02
671.597	1.92
671.781	1.84
671.965	1.87
672.149	1.76
672.333	1.71
672.517	1.66
672.701	1.59
672.885	1.54
673.069	1.41
673.253	1.46
673.437	1.42
673.621	1.35
673.804	1.3
673.988	1.28
674.172	1.19
674.356	1.21
674.54	1.18
674.724	1.15
674.908	1.08
675.091	1.07
675.275	0.99
675.459	0.98
675.643	0.91
675.826	0.91
676.01	0.86
676.194	0.86
676.377	0.86
676.561	0.82
676.745	0.81
676.928	0.76
677.112	0.78
677.296	0.66
677.479	0.66
677.663	0.65
677.846	0.63
678.03	0.63
678.213	0.56
678.397	0.59
678.58	0.55
678.764	0.48
678.947	0.49
679.131	0.5
679.314	0.54
679.498	0.5
679.681	0.45
679.865	0.58
680.048	0.39
680.231	0.43
680.415	0.4
680.598	0.41
680.781	0.34
680.965	0.36
681.148	0.43
681.331	0.36
681.514	0.44
681.698	0.32
681.881	0.32
682.064	0.31
682.247	0.33
682.43	0.27
682.614	0.35
682.797	0.34
682.98	0.31
683.163	0.26
683.346	0.32
683.529	0.28
683.712	0.23
683.895	0.3
684.078	0.21
684.261	0.25
684.444	0.27
684.627	0.25
684.81	0.2
684.993	0.18
685.176	0.24
685.359	0.21
685.542	0.19
685.725	0.28
685.908	0.27
686.091	0.18
686.274	0.23
686.457	0.24
686.639	0.21
686.822	0.2
687.005	0.17
687.188	0.19
687.371	0.24
687.553	0.16
687.736	0.25
687.919	0.25
688.102	0.2
688.284	0.14
688.467	0.17
688.65	0.17
688.832	0.12
689.015	0.18
689.197	0.08
689.38	0.21
689.563	0.24
689.745	0.09
689.928	0.15
690.11	0.12
690.293	0.16
690.475	0.05
690.658	0.14
690.84	0.13
691.023	0.11
691.205	0.08
691.388	0.12
691.57	0.13
691.752	0.17
691.935	0.07
692.117	0.08
692.3	0.15
692.482	0.12
692.664	0.11
692.847	0.12
693.029	0.2
693.211	0.11
693.393	0.05
693.576	0.04
693.758	0.02
693.94	0.13
694.122	0.11
694.304	0.1
694.487	0.05
694.669	0.12
694.851	0.08
695.033	0.15
695.215	0.06
695.397	0.01
695.579	0.1
695.761	0.03
695.943	0.03
696.125	0.13
696.308	0.1
696.49	-0.03
696.671	0.18
696.853	0.06
697.035	0.19
697.217	0.05
697.399	0.11
697.581	0.05
697.763	0.04
697.945	0.02
698.127	0.08
698.309	0.18
698.491	0.1
698.672	0.14
698.854	0.18
699.036	0.15
699.218	0.04
699.399	0.08
699.581	0.1
699.763	0.1
699.945	0.03
700.126	0.02
700.308	0.1
700.49	0.05
700.671	0.02
700.853	0.02
701.035	0
701.216	0.09
701.398	0.06
701.579	0.04
701.761	0.05
701.943	0.05
702.124	0.05
702.306	0.06
702.487	0.17
702.669	0.06
702.85	0.06
703.031	-0.02
703.213	0.16
703.394	0.13
703.576	0.03
703.757	0.1
703.938	0.12
704.12	0.18
704.301	0.06
704.483	0.07
704.664	0.1
704.845	0.15
705.026	0.09
705.208	0.01
705.389	0.06
705.57	0.06
705.751	0.04
705.933	0.05
706.114	0.12
706.295	0.05
706.476	-0.04
706.657	0.11
706.838	0.1
707.02	0.11
707.201	-0.01
707.382	0.05
707.563	0.13
707.744	0.07
707.925	0.05
708.106	0.07
708.287	0.12
708.468	0.16
708.649	0.08
708.83	0.08
709.011	0.01
709.192	0.08
709.373	0
709.554	0.11
709.734	0.14
709.915	0.09
710.096	-0
710.277	-0.08
710.458	0.08
710.639	0.06
710.819	-0.05
711	0.09
711.181	0.07
711.362	0.11
711.542	0.03
711.723	0.11
711.904	0.05
712.085	0.09
712.265	0.02
712.446	-0.02
712.627	0.05
712.807	0.03
712.988	0.06
713.168	-0
713.349	0.05
713.53	-0.03
713.71	0
713.891	-0.04
714.071	0.06
714.252	0.04
714.432	0.04
714.613	-0.05
714.793	0.06
714.974	0.1
715.154	0.12
715.334	0.11
715.515	0.11
715.695	-0.04
715.876	0.05
716.056	0.1
716.236	0.07
716.417	0.06
716.597	0.01
716.777	0.16
716.957	0.02
717.138	0
717.318	0.02
717.498	-0.03
717.678	0.01
717.859	0.05
718.039	-0.09
718.219	0.09
718.399	0.12
718.579	-0
718.759	-0.05
718.939	0.09
719.12	-0.01
719.3	0.1
719.48	-0.07
719.66	-0.08
719.84	0.12
720.02	0.05
720.2	-0.04
720.38	0.04
720.56	0.16
720.74	0
720.92	0.07
721.1	0.13
721.279	0.13
721.459	0.04
721.639	-0.05
721.819	0.11
721.999	0.01
722.179	0.1
722.359	-0.06
722.538	0.08
722.718	0.12
722.898	-0.03
723.078	0.07
723.257	0.03
723.437	0.02
723.617	0.07
723.797	-0.03
723.976	-0.01
724.156	0.07
724.336	0.08
724.515	0.09
724.695	-0.02
724.874	-0.03
725.054	0.14
725.234	-0.07
725.413	0.04
725.593	-0.03
725.772	0.06
725.952	-0.01
726.131	-0.03
726.311	0.05
726.49	-0
726.67	0.04
726.849	-0.06
727.028	0.07
727.208	0
727.387	0.06
727.567	0.01
727.746	0.01
727.925	-0.07
728.105	-0.05
728.284	0.01
728.463	-0.23
728.643	0.07
728.822	-0.04
729.001	0.04
729.18	0.03
729.359	0.09
729.539	0.1
729.718	0.07
729.897	0.05
730.076	-0.06
730.255	-0.05
730.434	0.05
730.614	0.09
730.793	0.1
730.972	0.03
731.151	0
731.33	0.2
731.509	0.08
731.688	0.02
731.867	0.07
732.046	-0.17
732.225	0.21
732.404	0.12
732.583	-0.06
732.762	0.1
732.941	0.11
733.12	0.07
733.298	-0.01
733.477	0.23
733.656	0.02
733.835	-0.09
734.014	0.17
734.193	0.02
734.371	0.02
734.55	0.09
734.729	-0.09
734.908	0.1
735.086	0.15
735.265	0.16
735.444	-0.12
735.623	-0.07
735.801	-0.06
735.98	0.01
736.159	0.07
736.337	0.19
736.516	0.11
736.694	0.06
736.873	-0
737.052	0.16
737.23	0.11
737.409	0.06
737.587	0.14
737.766	-0.23
737.944	-0.08
738.123	0.11
738.301	0.06
738.479	-0.01
738.658	-0.01
738.836	-0.12
739.015	0.07
739.193	0.19
739.371	0.01
739.55	-0.03
739.728	-0.06
739.906	0.06
740.085	0.2
740.263	-0.05
740.441	-0.15
740.62	0.14
740.798	0.09
740.976	-0.11
741.154	0.04
741.332	0.14
741.511	0.01
741.689	0.22
741.867	0.08
742.045	0.07
742.223	0.06
742.401	-0.14
742.579	-0
742.757	0.04
742.935	0.01
743.114	0.04
743.292	0
743.47	0.01
743.648	-0.05
743.826	-0
744.004	0.11
744.181	0.04
744.359	-0.02
744.537	-0
744.715	0.07
744.893	-0
745.071	-0
745.249	0.02
745.427	0.05
745.605	0.05
745.782	0.02
745.96	0.03
746.138	0.09
746.316	0.1
746.493	-0.04
746.671	0.15
746.849	0.01
747.027	0.06
747.204	-0.03
747.382	0.06
747.56	-0.09
747.737	0.06
747.915	0.01
748.093	0.19
748.27	-0.07
748.448	-0.03
748.625	-0.08
748.803	-0.06
748.98	0.03
749.158	0.04
749.335	0.1
749.513	0.03
749.69	0.04
749.868	-0.03
750.045	0.15
750.223	0.02
750.4	-0.13
750.578	0.2
750.755	0.01
750.932	-0.17
751.11	0.18
751.287	-0.05
751.464	0.14
751.642	-0.03
751.819	0.08
751.996	0.1
752.173	0.03
752.351	0.02
752.528	0.12
752.705	0.05
752.882	-0.06
753.06	0.04
753.237	0.18
753.414	0.26
753.591	0.24
753.768	0.03
753.945	-0.03
754.122	0.04
754.299	0.15
754.476	-0.07
754.654	0.05
754.831	0.2
755.008	0.13
755.185	-0.01
755.362	-0.13
755.539	0.11
755.716	-0.05
755.892	-0
756.069	0.07
756.246	0
756.423	-0.01
756.6	0.08
756.777	0.07
756.954	0.06
757.131	0.02
757.307	-0.11
757.484	-0.06
757.661	0.14
757.838	-0.01
758.015	-0.05
758.191	0.06
758.368	0.04
758.545	0.22
758.721	0.01
758.898	-0.03
759.075	0.08
759.251	0.11
759.428	0.09
759.605	-0.04
759.781	0.03
759.958	0.11
760.134	0.14
760.311	0.08
760.488	-0.01
760.664	0.27
760.841	-0.06
761.017	0.03
761.194	0.16
761.37	0.16
761.547	0.17
761.723	-0
761.899	0.17
762.076	-0.02
762.252	-0.16
762.429	-0.03
762.605	0.08
762.781	0.03
762.958	0.14
763.134	0.01
763.31	-0.16
763.486	0.16
763.663	-0.16
763.839	-0.02
764.015	-0.14
764.191	-0.08
764.368	-0.02
764.544	-0.08
764.72	0.02
764.896	0.09
765.072	0.06
765.248	-0.06
765.425	-0.01
765.601	-0.05
765.777	0.1
765.953	-0.25
766.129	-0.09
766.305	-0.1
766.481	0.1
766.657	0.04
766.833	0.21
767.009	-0.12
767.185	-0.02
767.361	0.07
767.537	-0.06
767.713	0.14
767.889	0
768.065	0.09
768.24	-0.19
768.416	0.08
768.592	0.01
768.768	-0.02
768.944	0.12
769.12	-0.05
769.295	-0.12
769.471	0.06
769.647	0.01
769.823	0.19
769.998	-0.15
770.174	-0.09
770.35	0.35
770.525	0.29
770.701	0.06
770.877	-0.09
771.052	0.1
771.228	0.09
771.403	0.22
771.579	0.1
771.755	0.3
771.93	-0
772.106	-0.11
772.281	-0.24
772.457	0.02
772.632	0.12
772.808	-0.24
772.983	-0.04
773.159	-0.01
773.334	0.29
773.509	0.08
773.685	-0.1
773.86	0.34
774.036	0.21
774.211	0.13
774.386	0.02
774.562	-0.01
774.737	0.1
774.912	-0.11
775.087	0.05
775.263	-0.1
775.438	0.12
775.613	-0.11
775.788	0.01
775.964	0.06
776.139	0.19
776.314	-0.01
776.489	0.08
776.664	0.09
776.839	-0
777.014	0.16
777.19	0.05
777.365	0.12
777.54	0.25
777.715	-0.05
777.89	0.06
778.065	-0.08
778.24	-0.02
778.415	0.18
778.59	-0.1
778.765	-0.01
778.94	0.12
779.115	-0.03
779.289	0.06
779.464	-0.05
779.639	0.13
779.814	-0.18
779.989	-0.11
780.164	0.13
780.339	0.19
780.513	-0
780.688	0.01
780.863	-0.15
781.038	-0.09
781.212	-0.14
781.387	0.09
781.562	0.34
781.737	0.01
781.911	0.23
782.086	-0.05
782.261	-0.04
782.435	0.35
782.61	0.01
782.784	-0.18
782.959	0.19
783.134	0.02
783.308	-0.32
783.483	-0.03
783.657	0.53
783.832	0.14
784.006	-0.25
784.181	-0.02
784.355	0.22
784.53	-0.26
784.704	-0.14
784.878	0.25
785.053	0.13
785.227	0.28
785.402	0.36
785.576	-0.31
785.75	-0.11
785.925	0.04
786.099	-0.02
786.273	-0.03
786.448	0.08
786.622	0.22
786.796	-0.12
786.97	0.03
787.145	0.45
787.319	-0.27
787.493	-0.18
787.667	-0.32
787.841	0.1
788.015	0.11
788.19	-0.03
788.364	0.25
788.538	0.23
788.712	0.23
788.886	0.09
789.06	0.25
789.234	0.24
789.408	-0.17
789.582	-0.02
789.756	0.25
789.93	-0.02
790.104	-0.09
790.278	-0.05
790.452	-0.15
790.626	0.28
790.8	-0.02
790.973	0.06
791.147	0.24
791.321	0.1
791.495	0.24
791.669	0.1
791.843	0.17
792.016	0.13
792.19	0.31
792.364	-0.31
792.538	0.41
792.711	0.22
792.885	-0.18
793.059	-0.15
793.233	-0.31
793.406	0.08
793.58	-0.09
793.754	0
793.927	-0.12
794.101	0.17
794.274	-0.16
794.448	0.38
794.622	-0.26
794.795	0.14
794.969	0
795.142	0.6
795.316	-0.07
795.489	-0.13
795.663	0.5
795.836	0.19
796.009	-0.14
796.183	0.44
796.356	0.32
796.53	0.18
796.703	-0.11
796.876	0.54
797.05	-0.1
797.223	-0.03
797.396	0.16
797.57	0.13
797.743	0.33
797.916	0.06
798.09	0.05
798.263	0.24
798.436	0.15
798.609	0.07
798.782	0.14
798.956	0.31
799.129	-0.04
799.302	0.03
799.475	-0.12
799.648	-0.12
799.821	-0.17
799.994	0.06
800.167	-0.45
800.34	0.07
800.514	0.03
800.687	-0.05
800.86	-0.24
801.033	0.11
801.206	-0.09
801.379	-0.2
801.551	0.04
801.724	0.08
801.897	0.32
802.07	-0.37
802.243	-0.2
802.416	-0.01
802.589	-0.12
802.762	0.25
802.935	0.07
803.107	0.47
803.28	0.35
803.453	0.45
803.626	-0.11
803.798	-0.39
803.971	-0.14
804.144	0.09
804.317	0.21
804.489	0.1
804.662	-0.19
804.835	-0.22
805.007	-0.31
805.18	0.47
805.353	0.13
805.525	-0.27
805.698	-0.09
805.87	0.07
806.043	0.2
806.215	-0.36
806.388	-0.02
806.56	0.24
806.733	0.16
806.905	0.24
807.078	-0.02
807.25	-0.2
807.423	0.33
807.595	-0.11
807.768	0.25
807.94	0.37
808.112	0.29
808.285	0.28
808.457	0.05
808.629	-0.04
808.802	-0.03
808.974	0.07
809.146	-0
809.318	-0.3
809.491	0.11
809.663	0.31
809.835	0.2
810.007	0.06
810.18	-0.03
810.352	-0.11
810.524	0.07
810.696	0.41
810.868	0.62
811.04	0.27
811.212	-0.17
811.384	0.2
811.556	-0.09
811.728	0.11
811.901	0.48
812.073	0.07
812.245	0.17
812.417	0.01
812.589	-0.59
812.76	0.06
812.932	0.3
813.104	0.58
813.276	0.05
813.448	0.17
813.62	0.29
813.792	0.29
813.964	0.1
814.136	0.53
814.307	-0.4
814.479	-0.46
814.651	-0.02
814.823	0.58
814.995	-0.13
815.166	-0.13
815.338	-0.39
815.51	-0.82
815.681	0.9
815.853	-0.02
816.025	-0.02
816.196	0.52
816.368	0.46
816.54	-0.48
816.711	-0.16
816.883	-0
817.054	1.03
817.226	-0.88
817.398	0.38
817.569	-0.07
817.741	-0.01
817.912	-0.01
818.084	-0.08
818.255	0.17
818.426	-0.27
818.598	-0.41
818.769	-0.18
818.941	0.2
819.112	0.63
819.283	0.29
819.455	-0.11
819.626	0.12
819.798	0.12
819.969	0.47
820.14	0.03
820.311	0.15
820.483	0.47
820.654	0.16
820.825	0.14
820.996	-0.02
821.168	-0.23
821.339	0.18
821.51	-0.4
821.681	-0.23
821.852	-0.13
822.023	-0.38
822.195	-0.64
822.366	0.3
822.537	0.41
822.708	-0.1
822.879	-0.27
823.05	0.53
823.221	0.2
823.392	0.65
823.563	-0.1
823.734	0.21
823.905	0.27
824.076	-0.29
824.247	-0.54
824.418	-0.59
824.589	0.8
824.759	0.18
824.93	0.14
825.101	-0.36
825.272	0.69
825.443	0.73
825.614	0.7
825.784	-0.49
825.955	0.37
826.126	0.5
826.297	-0.03
826.467	0.92
826.638	0.94
826.809	-0.67
826.98	0.5
827.15	0.24
827.321	-0.34
827.492	0.29
827.662	0.16
827.833	0.73
828.003	0.19
828.174	-0.55
828.345	-0.75
828.515	0.21
828.686	-0.05
828.856	-0.02
829.027	0.16
829.197	-0.36
829.368	0.11
829.538	0.3
829.709	-0.15
829.879	0
830.049	-0.08
830.22	-0.23
830.39	0.29
830.56	0.51
830.731	0.05
830.901	-0.4
831.072	0.14
831.242	0.11
831.412	0.14
831.582	0.47
831.753	-0.11
831.923	0.28
832.093	0.11
832.263	0.7
832.434	-0.19
832.604	0.09
832.774	-0.1
832.944	-0.11
833.114	0.19
833.284	0.29
833.454	-0.7
833.624	-0.34
833.795	-0.44
833.965	0.39
834.135	0.15
834.305	-0.62
834.475	0.03
834.645	0.18
834.815	-0.57
834.985	-0.11
835.155	-0.43
835.325	0.73
835.494	0.97
835.664	-0.16
835.834	-0.57
836.004	0.46
836.174	0.34
836.344	-0.28
836.514	0.07
836.684	-0.04
836.853	0.1
837.023	0.33
837.193	0.46
837.363	0.81
837.532	0.78
837.702	0.19
837.872	-0.58
838.041	1.13
838.211	0.98
838.381	-0.84
838.55	0.79
838.72	1.35
838.89	1.19
839.059	-0.47
839.229	-0.12
839.398	1.21
839.568	-0.19
839.738	0.19
839.907	0.95
840.077	0.48
840.246	0.15
840.416	-0.69
840.585	-0.62
840.755	1.19
840.924	1.08
841.093	-0.55
841.263	0.23
841.432	0.66
841.602	-0.44
841.771	-0.57
841.94	-0.12
842.11	2.26
842.279	1.47
842.448	-0.2
842.617	-0.52
842.787	0.33
842.956	-0.6
843.125	0.16
843.294	0.06
843.464	0.73
843.633	0.42
843.802	-0.77
843.971	-0.83
844.14	0.62
844.309	0.8
844.479	-0.54
844.648	-0.05
844.817	-0.29
844.986	0.25
845.155	-0.69
845.324	-0.25
845.493	0.61
845.662	-0.7
845.831	1.07
846	0.83
846.169	-0.08
846.338	1.33
846.507	-0.1
846.676	1
846.844	-0.04
847.013	1.12
847.182	-0
847.351	-0.1
847.52	0.42
847.689	0.49
847.858	-0.24
848.026	-0.05
848.195	-0.13
848.364	0.58
848.533	-0.68
848.701	0.34
848.87	0.74
849.039	0.97
849.207	-0.22
849.376	0.45
849.545	1.67
849.713	-0.29
849.882	0.8
850.051	0.18
850.219	-0.06
850.388	0.6
850.556	-1.19
850.725	-0.2
850.893	0.96
851.062	-0.3
851.23	0.86
851.399	-0.78
851.567	-0.29
851.736	0.1
851.904	0.13
852.073	0.96
852.241	1.42
852.41	1.05
852.578	-0.1
852.746	0.34
852.915	0.99
853.083	0.53
853.251	-0.84
853.42	0.17
853.588	-0.62
853.756	0.62
853.924	0.38
854.093	0.64
854.261	-1.1
854.429	-1.26
854.597	0.47
854.765	-0.08
854.934	0.36
855.102	0.48
855.27	0.83
855.438	1.03
855.606	0.61
855.774	0.77
855.942	-1.91
856.11	-0.66
856.278	-0.4
856.446	0.54
856.614	0.13
856.782	-0.35
856.95	0.97
857.118	1.2
857.286	0.48
857.454	-0.13
857.622	0.73
857.79	-0.04
857.958	-0.67
858.126	-0.39
858.294	-2.53
858.462	-0.21
858.629	-0.72
858.797	-1.01
858.965	-0.04
859.133	0.7
859.301	-0.37
859.468	1.43
859.636	-1.09
859.804	0.76
859.971	0.94
860.139	-0.31
860.307	1.38
860.474	0.84
860.642	-1.13
860.81	-0.32
860.977	-0.11
861.145	0.28
861.313	0.28
861.48	0.83
861.648	0.39
861.815	-0.15
861.983	-0.65
862.15	1.48
862.318	1.14
862.485	0.32
862.653	-0.13
862.82	0.19
862.988	1.58
863.155	1.6
863.322	-0.46
863.49	-0.94
863.657	-1
863.824	1.66
863.992	1.06
864.159	0.74
864.326	2.1
864.494	-0.25
864.661	2.91
864.828	-1.28
864.996	1.14
865.163	1.7
865.33	-1.07
865.497	-2.92
865.664	-0.16
865.832	-1.94
865.999	-0.12
866.166	-1.97
866.333	1.23
866.5	0.67
866.667	1
866.834	-0.2
867.001	2.65
867.168	-1.51
867.335	0.11
867.502	-3.02
867.669	1.4
867.836	2.01
868.003	1
868.17	-0.12
868.337	2.78
868.504	3.14
868.671	-2.02
868.838	-1.12
869.005	0.74
869.172	2.01
869.339	1.11
869.505	0.97
869.672	-1.6
869.839	2.65
870.006	1
870.173	-1.64
870.339	1.05
870.506	2.66
870.673	-1.74
870.84	0.86
871.006	0.79
871.173	-0.15
871.34	-0.59
871.506	-0.95
871.673	-0.41
871.839	-1.74
872.006	0.8
872.173	-0.14
872.339	0.52
872.506	3.14
872.672	-0.2
872.839	-1.12
873.005	-0.62
873.172	2.75
873.338	2.58
873.505	1.99
873.671	-0.05
873.838	2.1
874.004	-0.09
874.171	-0.52
874.337	0.97
874.503	-0.4
874.67	-1.07
874.836	-0.69
875.002	2.12
875.169	1.77
875.335	1.16
875.501	-1.34
875.668	2.41
875.834	1.02
876	1.19
876.166	0.75
876.332	-0.06
876.499	1.84
876.665	-0.84
876.831	0.73
876.997	2.69
877.163	1.78
877.329	-0.72
877.495	-0.59
877.662	0.34
877.828	-0.52
877.994	0.25
878.16	-3.13
878.326	-2.28
878.492	2.18
878.658	-0.54
878.824	0.46
878.99	1.89
879.156	-1.57
879.322	2.87
879.487	0.33
879.653	0.33
879.819	1
879.985	-0.49
880.151	0.74
880.317	0.76
880.483	-0.08
880.648	1.56
880.814	-2.51
880.98	0.03
881.146	-1.17
881.312	-2.84
881.477	0.97
881.643	-0.44
881.809	2.09
881.974	1.61
882.14	-0.21
882.306	1.82
882.471	2.27
882.637	-0.96
882.803	2.02
882.968	3.25
883.134	3.04
883.299	0.87
883.465	-0.02
883.63	0.91
883.796	0.98
883.961	1.73
884.127	0.13
884.292	-2.58
884.458	-0.19
884.623	-0.19
