Data from Apollo_Calib_20240827__AbsoluteIrradiance__538__08-07-01-135.txt Node

Date: Wed Aug 28 08:07:01 BST 2024
User: biology
Spectrometer: FLMT08252
Trigger mode: 0
Integration Time (sec): 5.000000E-1
Scans to average: 5
Electric dark correction enabled: true
Nonlinearity correction enabled: false
Boxcar width: 0
XAxis mode: Wavelengths
Number of Pixels in Spectrum: 3648
>>>>>Begin Spectral Data<<<<<
179.588	-0
179.809	-0
180.03	-0
180.251	-0
180.473	-0
180.694	0
180.915	0
181.136	-0
181.357	0
181.578	-0
181.799	-0
182.02	-0
182.241	0
182.462	-0
182.683	0
182.904	-0
183.125	-0
183.346	0
183.567	0
183.788	-0
184.009	-0
184.23	-0
184.451	-0
184.672	-0
184.892	-0
185.113	-0
185.334	-0
185.555	-0
185.776	-0
185.996	0
186.217	-0
186.438	-0
186.659	-0
186.879	0
187.1	-0
187.321	-0
187.541	-0
187.762	-0
187.983	-0
188.203	-0
188.424	-0
188.644	-0
188.865	0
189.086	-0
189.306	-0
189.527	-0
189.747	-0
189.968	-0
190.188	0
190.409	-0
190.629	0
190.849	-0
191.07	-0
191.29	0
191.511	-0
191.731	-0
191.951	-0
192.172	-0
192.392	-0
192.612	-0
192.833	-0
193.053	-0
193.273	-0
193.493	-0
193.714	-0
193.934	0
194.154	0
194.374	-0
194.594	0
194.815	0
195.035	-0
195.255	-0
195.475	-0
195.695	0
195.915	0
196.135	-0
196.355	0
196.575	0
196.795	-0
197.015	-0
197.235	-0
197.455	-0
197.675	-0
197.895	-0
198.115	-0
198.335	0
198.555	-0
198.775	-0
198.995	0
199.214	0
199.434	0
199.654	-0
199.874	-0
200.094	0.47
200.313	-0.56
200.533	-1.37
200.753	-1.08
200.973	0.07
201.192	0.43
201.412	-0.8
201.632	-0.84
201.851	0.88
202.071	-1.1
202.291	-0.57
202.51	-0.9
202.73	0.13
202.95	-0.67
203.169	-0.69
203.389	-0.15
203.608	-0.25
203.828	-0.5
204.047	-0.35
204.267	0.38
204.486	-0.04
204.706	0
204.925	-0.18
205.145	-0.3
205.364	0.25
205.583	0.25
205.803	-0.43
206.022	-0.79
206.242	-0.34
206.461	-0.15
206.68	-0.44
206.9	-0.15
207.119	0.53
207.338	0.38
207.557	-0.24
207.777	-0.22
207.996	-0.21
208.215	0.22
208.434	-0.36
208.654	-0.27
208.873	0
209.092	0.35
209.311	-0.34
209.53	0.02
209.749	-0.27
209.968	-0.41
210.187	-0.13
210.407	-0.67
210.626	-0.2
210.845	0.18
211.064	-0.1
211.283	-0.29
211.502	-0.02
211.721	-0.2
211.94	-0.25
212.159	0.01
212.377	0.06
212.596	0.32
212.815	-0.07
213.034	-0.14
213.253	0.06
213.472	-0.09
213.691	-0.25
213.91	-0.39
214.128	-0.18
214.347	0.03
214.566	-0.54
214.785	-0.46
215.003	0.19
215.222	0.08
215.441	-0.15
215.66	-0.47
215.878	-0.16
216.097	0.2
216.316	-0.35
216.534	-0.18
216.753	-0.1
216.972	-0.08
217.19	-0.27
217.409	-0.26
217.627	-0.19
217.846	-0.05
218.064	-0.26
218.283	-0.27
218.501	0.36
218.72	-0.01
218.938	-0.35
219.157	-0.21
219.375	0.13
219.594	0.12
219.812	-0.25
220.031	-0.2
220.249	0.14
220.467	0.27
220.686	-0.3
220.904	-0.23
221.122	-0.26
221.341	0.18
221.559	-0.1
221.777	-0.28
221.995	-0.26
222.214	-0.07
222.432	-0.13
222.65	0.05
222.868	-0.04
223.086	0.04
223.305	-0.03
223.523	-0.12
223.741	0.05
223.959	-0.24
224.177	-0.31
224.395	-0.12
224.613	-0.1
224.831	-0.12
225.049	-0.24
225.267	-0.14
225.485	-0.13
225.703	-0.14
225.921	-0.09
226.139	-0.14
226.357	-0.01
226.575	-0.08
226.793	-0.16
227.011	0.47
227.229	-0.1
227.447	0.11
227.665	-0.07
227.883	-0.33
228.1	-0.09
228.318	0.04
228.536	-0.34
228.754	-0.21
228.972	0.07
229.189	-0.06
229.407	-0.1
229.625	-0.15
229.843	0.09
230.06	-0.07
230.278	-0.14
230.496	-0.04
230.713	-0.02
230.931	0.15
231.149	-0.18
231.366	-0.31
231.584	-0.03
231.801	0.3
232.019	-0.06
232.236	-0.14
232.454	-0.16
232.671	0.03
232.889	-0.07
233.106	-0.13
233.324	-0.12
233.541	-0.02
233.759	-0.07
233.976	-0.02
234.194	0.07
234.411	-0.14
234.628	-0.17
234.846	-0.05
235.063	0.03
235.28	-0.06
235.498	-0.07
235.715	-0.18
235.932	0.05
236.149	-0.01
236.367	-0.16
236.584	-0.11
236.801	-0.03
237.018	0.1
237.236	-0.1
237.453	-0.14
237.67	0.09
237.887	-0.04
238.104	-0.13
238.321	-0.23
238.538	-0.05
238.755	-0.01
238.973	-0.25
239.19	-0.1
239.407	-0
239.624	-0.05
239.841	-0.18
240.058	-0.14
240.275	0.01
240.492	-0.09
240.709	-0.03
240.925	-0.13
241.142	0.02
241.359	-0.16
241.576	-0.09
241.793	-0.09
242.01	-0.02
242.227	0.04
242.444	0.07
242.66	0.07
242.877	0.01
243.094	-0.13
243.311	-0.03
243.527	-0.06
243.744	0
243.961	-0
244.178	-0.11
244.394	-0.11
244.611	0.03
244.828	0.16
245.044	-0.07
245.261	-0.03
245.477	-0.05
245.694	-0.02
245.911	-0.12
246.127	-0.01
246.344	0.12
246.56	-0.01
246.777	-0.03
246.993	-0.08
247.21	-0.08
247.426	-0
247.643	-0.06
247.859	-0.11
248.076	-0.06
248.292	0.12
248.508	-0.03
248.725	-0.03
248.941	-0.07
249.157	0.1
249.374	-0.09
249.59	0.01
249.806	-0.08
250.023	0.11
250.239	-0.13
250.455	-0.05
250.671	-0.05
250.888	0.07
251.104	-0
251.32	-0.06
251.536	-0.04
251.752	-0.05
251.969	-0.06
252.185	-0.07
252.401	0.1
252.617	-0.04
252.833	-0.04
253.049	-0.05
253.265	-0.06
253.481	-0.01
253.697	-0.06
253.913	-0.07
254.129	-0.05
254.345	-0.02
254.561	-0.04
254.777	-0.04
254.993	0.06
255.209	-0.06
255.425	-0.06
255.641	-0.06
255.857	0
256.073	-0.04
256.288	-0.16
256.504	-0.03
256.72	0.02
256.936	0.01
257.152	-0.06
257.367	-0.1
257.583	0.01
257.799	0.07
258.015	-0.09
258.23	-0.1
258.446	0.09
258.662	-0.06
258.877	-0.1
259.093	-0.08
259.309	-0.13
259.524	-0.01
259.74	-0.1
259.955	-0.17
260.171	-0.02
260.387	-0.08
260.602	0.03
260.818	-0.03
261.033	-0.12
261.249	-0.07
261.464	-0.04
261.68	-0.15
261.895	-0
262.11	-0.02
262.326	-0.04
262.541	-0.14
262.757	0.01
262.972	-0.04
263.187	0.02
263.403	-0.05
263.618	0.05
263.833	0.02
264.049	-0.12
264.264	-0.05
264.479	0.04
264.694	-0.01
264.91	-0.1
265.125	-0.03
265.34	0.02
265.555	0.08
265.77	0
265.986	-0.02
266.201	0.03
266.416	0.05
266.631	0.01
266.846	-0.03
267.061	-0.03
267.276	-0.04
267.491	-0.2
267.706	-0.02
267.921	-0.01
268.136	-0.02
268.351	-0.11
268.566	-0.13
268.781	0.09
268.996	0.07
269.211	-0.05
269.426	-0.06
269.641	-0.09
269.856	0.03
270.071	-0.08
270.285	-0.15
270.5	0.02
270.715	-0.01
270.93	-0.05
271.145	0.05
271.359	0.04
271.574	-0.09
271.789	-0.07
272.004	-0.05
272.218	-0.11
272.433	0.01
272.648	-0.1
272.862	0.08
273.077	-0.06
273.292	-0.02
273.506	-0.07
273.721	-0.02
273.936	-0
274.15	0.01
274.365	-0.06
274.579	0.02
274.794	-0
275.008	0.08
275.223	-0.08
275.437	-0.02
275.652	-0.03
275.866	0.04
276.081	-0.01
276.295	0.04
276.509	-0.01
276.724	-0.05
276.938	0.03
277.153	0.01
277.367	0.07
277.581	-0.03
277.796	-0.08
278.01	-0.04
278.224	-0
278.438	0.04
278.653	-0.1
278.867	-0.08
279.081	-0.21
279.295	-0.07
279.51	-0.06
279.724	-0.11
279.938	-0
280.152	0.02
280.366	-0.04
280.58	-0.01
280.794	0.01
281.008	-0.03
281.222	0.02
281.437	0.04
281.651	-0
281.865	0.02
282.079	-0.07
282.293	-0.1
282.507	-0.05
282.721	-0.03
282.935	-0.03
283.148	-0.13
283.362	-0.06
283.576	-0.08
283.79	0.02
284.004	-0.03
284.218	0.02
284.432	-0
284.646	-0.03
284.859	-0.05
285.073	-0.02
285.287	0.02
285.501	-0.06
285.714	-0.02
285.928	-0.01
286.142	-0
286.356	-0.08
286.569	-0.09
286.783	0.03
286.997	0
287.21	0.01
287.424	-0.01
287.637	-0.01
287.851	-0.04
288.065	0
288.278	-0.04
288.492	0
288.705	-0.02
288.919	-0.03
289.132	-0.09
289.346	0.02
289.559	-0.07
289.773	-0.09
289.986	-0.03
290.2	-0.02
290.413	-0.01
290.626	-0.07
290.84	-0.03
291.053	-0.03
291.267	0.05
291.48	-0.02
291.693	0
291.906	-0.05
292.12	-0.02
292.333	-0.03
292.546	-0.09
292.76	-0
292.973	-0.04
293.186	-0.03
293.399	-0.08
293.612	0.04
293.826	-0.04
294.039	-0.01
294.252	-0.02
294.465	-0.02
294.678	0.01
294.891	-0.02
295.104	-0.05
295.317	-0.01
295.53	-0.02
295.743	-0.05
295.956	-0.02
296.169	0.02
296.382	-0
296.595	-0.01
296.808	-0.05
297.021	0.02
297.234	0.01
297.447	-0.04
297.66	-0.03
297.873	0.05
298.086	0.01
298.299	-0.08
298.511	-0.06
298.724	-0.04
298.937	-0.04
299.15	-0.06
299.363	-0
299.575	0.01
299.788	0.02
300.001	-0.02
300.213	-0.1
300.426	0.01
300.639	0.02
300.852	-0.03
301.064	-0.01
301.277	0.06
301.489	0.01
301.702	0.04
301.915	-0.01
302.127	-0.05
302.34	-0.04
302.552	0.01
302.765	-0.04
302.977	0.02
303.19	-0.03
303.402	-0.04
303.615	-0.02
303.827	-0.03
304.04	-0.03
304.252	0.02
304.464	-0.02
304.677	0.05
304.889	0.05
305.102	-0.04
305.314	-0.04
305.526	-0
305.739	0.01
305.951	-0.08
306.163	-0.05
306.375	0.06
306.588	-0.03
306.8	-0.02
307.012	-0.02
307.224	-0.01
307.436	0.05
307.649	-0.06
307.861	-0.04
308.073	0.01
308.285	-0.04
308.497	-0.07
308.709	-0.02
308.921	-0.05
309.133	0.01
309.346	-0.02
309.558	-0.01
309.77	0.02
309.982	0.05
310.194	0.01
310.406	-0.05
310.617	0.05
310.829	-0.04
311.041	0.02
311.253	-0.05
311.465	-0.02
311.677	0.01
311.889	-0.05
312.101	-0.02
312.313	0.03
312.524	0.04
312.736	-0.09
312.948	-0.05
313.16	0.05
313.372	0.02
313.583	0.02
313.795	-0.02
314.007	-0.02
314.218	0.03
314.43	-0.03
314.642	-0.03
314.853	-0.04
315.065	0.03
315.277	-0.04
315.488	-0
315.7	0.04
315.912	-0.02
316.123	-0.03
316.335	-0.04
316.546	0.1
316.758	-0.02
316.969	-0.01
317.181	-0.03
317.392	-0.04
317.604	0.01
317.815	-0.05
318.026	-0.03
318.238	-0
318.449	0.02
318.661	-0.07
318.872	-0.02
319.083	-0.03
319.295	0.02
319.506	-0.02
319.717	0.03
319.929	0.01
320.14	0
320.351	-0.01
320.562	-0.05
320.774	0.01
320.985	-0.01
321.196	-0.04
321.407	-0.1
321.618	0.03
321.829	-0.02
322.041	0.04
322.252	0.01
322.463	0.01
322.674	0.01
322.885	-0.08
323.096	-0.04
323.307	-0.03
323.518	-0
323.729	-0.06
323.94	-0.04
324.151	-0.07
324.362	0.01
324.573	-0.04
324.784	-0.06
324.995	0.05
325.206	0
325.417	-0.04
325.628	-0.01
325.838	-0.01
326.049	0
326.26	0.01
326.471	0
326.682	0.06
326.892	-0.04
327.103	-0.11
327.314	-0.04
327.525	0.03
327.735	-0.04
327.946	-0.01
328.157	-0.02
328.368	0.02
328.578	-0.04
328.789	-0
328.999	-0.04
329.21	-0.01
329.421	0.01
329.631	-0.06
329.842	-0.06
330.052	0
330.263	-0
330.473	-0.02
330.684	-0.03
330.894	-0
331.105	-0.03
331.315	-0.03
331.526	-0.08
331.736	0.1
331.947	0.01
332.157	0.01
332.367	-0.02
332.578	-0.01
332.788	-0.03
332.999	-0.04
333.209	0.01
333.419	-0.07
333.629	-0.03
333.84	0.03
334.05	-0.03
334.26	0.02
334.47	-0.02
334.681	0.03
334.891	-0.03
335.101	0.04
335.311	0.04
335.521	-0.02
335.732	-0.1
335.942	0.03
336.152	-0
336.362	-0.01
336.572	-0.01
336.782	-0.02
336.992	-0.02
337.202	-0
337.412	-0.04
337.622	0
337.832	-0.02
338.042	-0.05
338.252	-0
338.462	0.01
338.672	-0.01
338.882	-0.11
339.092	-0.03
339.302	0.03
339.511	0.01
339.721	-0.04
339.931	-0.04
340.141	0.02
340.351	0.02
340.561	-0.02
340.77	-0.03
340.98	-0.02
341.19	0.01
341.4	-0.04
341.609	-0.04
341.819	-0.04
342.029	-0.03
342.238	-0.04
342.448	-0.05
342.658	0.03
342.867	0.04
343.077	0.01
343.286	-0.01
343.496	-0.03
343.706	0.06
343.915	-0.07
344.125	-0.05
344.334	-0
344.544	-0.07
344.753	-0.05
344.963	-0.06
345.172	-0.05
345.381	-0.06
345.591	-0.06
345.8	0.02
346.01	0
346.219	0.04
346.428	-0.16
346.638	0
346.847	-0.03
347.056	0.04
347.266	-0.05
347.475	-0
347.684	0.02
347.893	0.02
348.103	0.01
348.312	-0.05
348.521	-0.06
348.73	-0.02
348.94	0.02
349.149	-0
349.358	-0.01
349.567	-0.05
349.776	-0.08
349.985	-0.03
350.194	0.04
350.403	0.02
350.612	-0.05
350.821	-0.06
351.03	-0.03
351.239	-0.04
351.448	-0.01
351.657	-0.05
351.866	0.01
352.075	-0.02
352.284	0.02
352.493	-0.03
352.702	-0.01
352.911	0.02
353.12	-0.02
353.329	-0.04
353.538	0.01
353.746	-0.01
353.955	-0.03
354.164	0.03
354.373	-0.01
354.582	0.03
354.79	0.01
354.999	-0.01
355.208	-0.04
355.416	0.02
355.625	-0.06
355.834	-0.06
356.042	0.01
356.251	-0.04
356.46	-0.06
356.668	0.01
356.877	0.09
357.085	0
357.294	-0.08
357.503	0
357.711	-0.04
357.92	0.08
358.128	-0.02
358.337	-0.02
358.545	-0.01
358.754	-0.02
358.962	0.02
359.17	-0.04
359.379	-0.01
359.587	-0.01
359.796	-0.01
360.004	0.01
360.212	-0.01
360.421	0.01
360.629	-0.05
360.837	-0.06
361.046	0.01
361.254	0.04
361.462	-0
361.67	-0.03
361.879	-0.03
362.087	0.05
362.295	-0.01
362.503	-0.02
362.711	-0.05
362.92	-0.05
363.128	-0.06
363.336	-0.07
363.544	-0.08
363.752	-0.02
363.96	-0.05
364.168	-0.04
364.376	-0.01
364.584	0
364.792	0.02
365	-0.03
365.208	-0.02
365.416	-0.03
365.624	0.03
365.832	-0
366.04	0.04
366.248	-0.01
366.456	-0.01
366.664	-0.02
366.872	-0.02
367.079	-0.02
367.287	-0.02
367.495	-0.03
367.703	-0.01
367.911	-0.02
368.118	-0.01
368.326	-0.05
368.534	-0.07
368.742	0.03
368.949	-0.07
369.157	0
369.365	0.01
369.572	-0.04
369.78	-0.07
369.988	0.03
370.195	0.02
370.403	0.02
370.61	-0.02
370.818	-0.03
371.026	0.01
371.233	-0.06
371.441	0.03
371.648	-0.02
371.856	-0.01
372.063	-0.01
372.271	-0.04
372.478	-0.04
372.685	-0.03
372.893	0.02
373.1	-0.03
373.308	-0.04
373.515	0.01
373.722	-0.01
373.93	-0
374.137	0.01
374.344	0.07
374.552	-0.03
374.759	-0.02
374.966	0
375.173	-0.05
375.381	0.05
375.588	-0.01
375.795	-0.06
376.002	-0.05
376.209	-0.04
376.417	-0.04
376.624	0.01
376.831	-0.03
377.038	-0.01
377.245	-0.11
377.452	-0
377.659	0.01
377.866	-0.07
378.073	-0.04
378.28	-0.01
378.487	0
378.694	-0
378.901	-0.03
379.108	-0.02
379.315	-0
379.522	0.07
379.729	-0.03
379.936	-0.04
380.143	-0
380.35	-0
380.557	-0.01
380.763	0.02
380.97	0.02
381.177	-0.02
381.384	0.01
381.591	-0.05
381.797	-0.04
382.004	-0.03
382.211	-0.01
382.418	-0.05
382.624	-0
382.831	0.03
383.038	-0.02
383.244	0.01
383.451	-0.02
383.658	-0.01
383.864	-0.01
384.071	-0.02
384.277	0.06
384.484	-0.07
384.69	0.02
384.897	-0.01
385.103	-0.06
385.31	-0.02
385.516	-0.03
385.723	-0.04
385.929	0
386.136	-0.01
386.342	-0.01
386.549	-0.05
386.755	0
386.961	-0.01
387.168	-0.04
387.374	-0.01
387.58	0.03
387.787	0.02
387.993	-0.01
388.199	-0.06
388.406	-0.04
388.612	-0.01
388.818	-0.05
389.024	-0.03
389.231	-0.03
389.437	0.04
389.643	0
389.849	-0.01
390.055	-0.02
390.261	-0.04
390.467	-0.02
390.674	-0.06
390.88	-0.06
391.086	-0.01
391.292	-0.07
391.498	-0.04
391.704	-0.01
391.91	-0.07
392.116	-0.03
392.322	-0.05
392.528	-0
392.734	-0.02
392.94	-0.01
393.146	-0.04
393.352	-0.01
393.557	-0.02
393.763	-0.02
393.969	-0.02
394.175	-0.01
394.381	-0.02
394.587	-0.05
394.792	-0.01
394.998	0.01
395.204	0.01
395.41	-0.01
395.615	-0.05
395.821	-0.04
396.027	0.01
396.233	-0.06
396.438	-0.02
396.644	0.04
396.85	-0
397.055	-0.04
397.261	0.01
397.466	0.03
397.672	-0
397.878	0.04
398.083	-0.01
398.289	-0.04
398.494	0.04
398.7	0.02
398.905	-0.1
399.111	0
399.316	-0.05
399.522	-0.05
399.727	-0.02
399.932	-0.02
400.138	-0.06
400.343	0.02
400.549	-0.02
400.754	-0.02
400.959	0.02
401.165	-0.05
401.37	0
401.575	0.03
401.78	0.01
401.986	-0.03
402.191	-0.01
402.396	-0.03
402.601	0.05
402.807	-0.04
403.012	-0.03
403.217	0.05
403.422	-0.04
403.627	-0.08
403.832	-0.03
404.037	0.01
404.243	-0.03
404.448	-0.01
404.653	-0.03
404.858	-0.02
405.063	0.03
405.268	-0.04
405.473	-0.07
405.678	-0.03
405.883	0.1
406.088	0
406.293	-0.06
406.498	-0.04
406.703	0
406.907	-0.05
407.112	-0.07
407.317	-0.04
407.522	0.02
407.727	-0.12
407.932	0.02
408.136	0.05
408.341	-0.02
408.546	-0.05
408.751	-0.01
408.956	-0.01
409.16	-0.01
409.365	-0.01
409.57	-0.04
409.774	-0.04
409.979	0.02
410.184	-0.02
410.388	-0.04
410.593	0.05
410.798	0.02
411.002	-0.07
411.207	-0.02
411.411	-0.02
411.616	-0.06
411.82	-0.03
412.025	-0.03
412.229	-0.05
412.434	0.02
412.638	-0.01
412.843	-0.04
413.047	-0.01
413.252	-0.07
413.456	-0.04
413.66	0.03
413.865	-0.04
414.069	0.04
414.273	-0.03
414.478	-0.02
414.682	-0.04
414.886	-0.04
415.091	-0.08
415.295	-0.13
415.499	-0.02
415.703	-0.03
415.908	-0.01
416.112	-0.11
416.316	0.03
416.52	-0.03
416.724	-0.08
416.929	0.01
417.133	0.06
417.337	-0.09
417.541	-0.04
417.745	-0.04
417.949	0.01
418.153	-0.02
418.357	-0.03
418.561	0.06
418.765	-0.01
418.969	0.09
419.173	-0.03
419.377	-0.07
419.581	0.06
419.785	-0.03
419.989	-0.07
420.193	-0.05
420.397	-0.02
420.601	0
420.804	-0.02
421.008	-0.04
421.212	-0.04
421.416	-0.03
421.62	-0.07
421.823	-0.06
422.027	0.06
422.231	-0.01
422.435	-0.05
422.638	-0.02
422.842	-0.01
423.046	-0.05
423.249	-0.02
423.453	0.06
423.657	0.02
423.86	-0.02
424.064	-0.03
424.268	0.03
424.471	0
424.675	0.09
424.878	0.03
425.082	-0.01
425.285	0.02
425.489	-0.02
425.692	-0.04
425.896	-0.05
426.099	0.06
426.303	-0.08
426.506	-0.1
426.71	0
426.913	-0.02
427.116	0.03
427.32	-0.06
427.523	0
427.726	0.01
427.93	-0.06
428.133	-0.07
428.336	-0.04
428.54	-0.04
428.743	-0.01
428.946	0.03
429.149	-0.07
429.353	-0.04
429.556	-0.06
429.759	-0.07
429.962	-0.07
430.165	-0.03
430.368	0
430.571	-0.03
430.775	-0.01
430.978	-0.06
431.181	-0
431.384	0.02
431.587	-0.04
431.79	-0.03
431.993	0.02
432.196	-0.04
432.399	-0.08
432.602	0.09
432.805	-0.07
433.008	-0.04
433.211	-0.08
433.414	0.03
433.616	-0.04
433.819	-0
434.022	-0.14
434.225	0.07
434.428	0
434.631	0.06
434.833	-0.03
435.036	0
435.239	-0.03
435.442	-0.01
435.645	-0.05
435.847	-0
436.05	0.06
436.253	-0.03
436.455	-0.03
436.658	-0.02
436.861	0.05
437.063	-0.04
437.266	-0
437.468	-0.01
437.671	0.04
437.874	0.01
438.076	-0.06
438.279	-0.09
438.481	-0.03
438.684	-0.02
438.886	0
439.089	-0.06
439.291	-0.04
439.494	-0.01
439.696	-0.07
439.899	-0.05
440.101	-0.01
440.303	-0.07
440.506	0.01
440.708	-0.04
440.91	0.02
441.113	-0.06
441.315	-0.01
441.517	-0.1
441.72	-0.03
441.922	-0.05
442.124	-0.08
442.326	-0.01
442.529	0.05
442.731	-0.07
442.933	0.05
443.135	-0.06
443.337	-0.05
443.539	-0.06
443.742	-0.07
443.944	-0.04
444.146	-0.04
444.348	-0.05
444.55	-0.05
444.752	-0.01
444.954	-0.06
445.156	-0.03
445.358	-0.05
445.56	0.02
445.762	-0.04
445.964	-0.02
446.166	-0.03
446.368	-0.06
446.57	-0.02
446.772	-0.05
446.974	-0.03
447.175	-0.02
447.377	-0.07
447.579	-0.08
447.781	-0.13
447.983	0.03
448.184	-0.05
448.386	-0.03
448.588	-0.08
448.79	0.02
448.991	-0.05
449.193	-0.03
449.395	-0.03
449.597	0.04
449.798	-0.04
450	0.01
450.202	-0.03
450.403	-0.04
450.605	-0.03
450.806	-0.05
451.008	-0.11
451.21	-0.01
451.411	0.01
451.613	-0.04
451.814	-0.02
452.016	0.01
452.217	-0.02
452.419	0.03
452.62	-0.03
452.821	0.02
453.023	0.03
453.224	0.02
453.426	-0.06
453.627	0.03
453.828	0.03
454.03	0.02
454.231	-0.05
454.432	-0.02
454.634	0.02
454.835	-0.06
455.036	-0.09
455.238	0.01
455.439	0.06
455.64	-0.07
455.841	-0.04
456.042	0.1
456.244	0.03
456.445	-0.09
456.646	-0.13
456.847	-0.06
457.048	-0.01
457.249	-0.01
457.45	0.17
457.651	-0.07
457.852	0.02
458.054	-0.02
458.255	0.01
458.456	0
458.657	-0.03
458.858	-0.07
459.058	0.02
459.259	0.05
459.46	-0.01
459.661	-0.05
459.862	0.04
460.063	-0.09
460.264	-0.02
460.465	-0.1
460.666	0.09
460.866	-0.04
461.067	-0.01
461.268	-0.02
461.469	-0.04
461.67	0.01
461.87	-0.06
462.071	-0.05
462.272	-0.09
462.473	-0.05
462.673	0.03
462.874	-0.06
463.075	-0.02
463.275	-0.08
463.476	-0.04
463.676	-0.03
463.877	-0
464.078	-0.05
464.278	0.03
464.479	-0.05
464.679	-0.02
464.88	0.03
465.08	0.03
465.281	-0.09
465.481	-0.06
465.682	-0.05
465.882	-0.01
466.083	-0.02
466.283	-0.02
466.483	-0.02
466.684	-0.07
466.884	0
467.085	-0.01
467.285	0.04
467.485	-0.08
467.686	-0.06
467.886	-0.03
468.086	-0.04
468.286	-0.05
468.487	0.02
468.687	-0.05
468.887	-0.06
469.087	0.01
469.287	0.01
469.488	-0.11
469.688	-0.02
469.888	0.04
470.088	-0.01
470.288	0.03
470.488	0
470.688	-0.04
470.888	-0.04
471.088	-0.07
471.288	0.02
471.488	-0.02
471.688	-0.05
471.888	-0.06
472.088	0
472.288	0.01
472.488	-0.06
472.688	-0.06
472.888	-0.02
473.088	-0.01
473.288	-0.02
473.488	0.02
473.688	0.04
473.887	-0.03
474.087	-0.02
474.287	-0.01
474.487	-0.01
474.687	-0.01
474.886	-0.04
475.086	-0.03
475.286	0.01
475.486	-0.02
475.685	-0.01
475.885	-0.01
476.085	-0.06
476.284	0.01
476.484	-0.03
476.684	-0.01
476.883	0.05
477.083	-0
477.282	-0.04
477.482	0.03
477.681	0.02
477.881	-0.02
478.08	-0.08
478.28	-0.03
478.479	-0.01
478.679	0.04
478.878	-0.01
479.078	-0.05
479.277	-0.01
479.477	-0.04
479.676	0.02
479.875	0.02
480.075	-0.06
480.274	-0
480.473	-0
480.673	-0.04
480.872	-0
481.071	-0.01
481.271	-0.03
481.47	-0.02
481.669	-0.02
481.868	-0.04
482.067	-0.04
482.267	-0.02
482.466	-0.03
482.665	-0.03
482.864	-0.07
483.063	-0.08
483.262	0.01
483.461	0.03
483.661	0
483.86	0.01
484.059	-0.03
484.258	-0.02
484.457	-0
484.656	-0.03
484.855	0.01
485.054	-0.07
485.253	-0.03
485.452	-0.05
485.651	-0.03
485.849	-0.03
486.048	-0.05
486.247	-0.02
486.446	-0.03
486.645	-0.04
486.844	-0.03
487.043	-0.03
487.241	-0.01
487.44	-0.04
487.639	-0.01
487.838	0.01
488.037	0.01
488.235	0.02
488.434	0.01
488.633	-0.03
488.831	-0
489.03	0
489.229	0
489.427	-0.02
489.626	0.01
489.825	0.04
490.023	-0.03
490.222	-0.03
490.42	0
490.619	0
490.817	-0.02
491.016	-0.04
491.214	0.02
491.413	-0.02
491.611	-0.01
491.81	-0.02
492.008	-0.01
492.207	-0.02
492.405	-0.01
492.604	-0.05
492.802	-0
493	-0.01
493.199	-0.02
493.397	-0.01
493.595	-0.02
493.794	-0.03
493.992	0.01
494.19	-0.05
494.388	0
494.587	-0.02
494.785	0
494.983	-0.04
495.181	-0.01
495.379	-0
495.578	-0.03
495.776	-0
495.974	-0.01
496.172	-0.01
496.37	-0.03
496.568	-0.04
496.766	-0.03
496.964	0.01
497.162	-0.01
497.36	-0.04
497.558	-0.03
497.756	-0.01
497.954	-0
498.152	-0.02
498.35	0
498.548	-0.02
498.746	-0.01
498.944	-0.04
499.142	-0.03
499.34	-0.05
499.538	-0
499.736	-0.02
499.933	0.02
500.131	0.03
500.329	0.02
500.527	0.03
500.725	0
500.922	0.01
501.12	-0
501.318	0.01
501.516	-0.04
501.713	-0.02
501.911	-0.03
502.109	-0.05
502.306	-0.01
502.504	-0.01
502.701	-0.03
502.899	-0.01
503.097	0.03
503.294	0.01
503.492	-0.02
503.689	0.01
503.887	-0.01
504.084	0.02
504.282	-0.02
504.479	-0.06
504.677	0
504.874	-0.04
505.072	-0.03
505.269	-0
505.466	-0.01
505.664	-0.01
505.861	-0.03
506.059	-0.05
506.256	-0
506.453	-0.02
506.651	0.03
506.848	0.01
507.045	0.01
507.242	-0.03
507.44	-0.01
507.637	-0
507.834	-0.02
508.031	-0.02
508.229	-0.03
508.426	-0.04
508.623	-0.01
508.82	-0.03
509.017	-0.03
509.214	-0.02
509.411	0
509.608	-0.04
509.805	-0.03
510.003	0.01
510.2	-0.03
510.397	0.02
510.594	-0.02
510.791	-0.02
510.988	-0.03
511.184	0.01
511.381	-0.02
511.578	-0.03
511.775	0.02
511.972	-0.03
512.169	-0.02
512.366	-0.02
512.563	0.02
512.76	-0.03
512.956	0.02
513.153	-0.03
513.35	-0.01
513.547	-0
513.744	-0.03
513.94	-0.04
514.137	0
514.334	-0.01
514.53	-0.01
514.727	-0
514.924	0.04
515.12	-0.01
515.317	-0.04
515.514	-0.02
515.71	-0.02
515.907	-0.01
516.103	-0.02
516.3	0.02
516.497	0.01
516.693	0.04
516.89	-0.01
517.086	-0.04
517.283	0.04
517.479	0.03
517.676	-0.01
517.872	-0.01
518.068	-0.03
518.265	-0.03
518.461	-0.03
518.658	-0.03
518.854	-0.01
519.05	-0.01
519.247	-0.06
519.443	-0.01
519.639	-0.01
519.836	-0.01
520.032	0
520.228	-0.02
520.424	0.02
520.621	-0
520.817	-0.02
521.013	0.01
521.209	0.02
521.405	-0
521.601	0.01
521.798	-0.01
521.994	0.04
522.19	-0.01
522.386	-0.06
522.582	-0.02
522.778	-0.01
522.974	-0.02
523.17	-0.01
523.366	-0.01
523.562	0.01
523.758	-0
523.954	-0.03
524.15	-0.02
524.346	0
524.542	-0.01
524.738	-0.03
524.934	-0.02
525.129	-0.1
525.325	-0.01
525.521	-0.02
525.717	0.01
525.913	-0
526.109	-0.04
526.304	-0.02
526.5	-0.01
526.696	0.01
526.892	-0.01
527.087	-0.01
527.283	-0.03
527.479	-0.01
527.674	-0.02
527.87	-0.02
528.066	-0.02
528.261	-0.01
528.457	-0.01
528.653	-0
528.848	-0.03
529.044	-0.01
529.239	-0.01
529.435	0.01
529.63	0.01
529.826	0.03
530.021	-0
530.217	-0
530.412	-0.04
530.608	-0.02
530.803	-0.03
530.999	-0.03
531.194	-0.03
531.389	-0
531.585	-0.05
531.78	-0.02
531.975	-0.01
532.171	0
532.366	-0.03
532.561	-0.03
532.757	-0.03
532.952	-0.02
533.147	0.01
533.342	-0.02
533.538	-0.01
533.733	0.02
533.928	-0
534.123	-0.02
534.318	-0.03
534.513	-0.02
534.709	0
534.904	-0.02
535.099	-0.01
535.294	-0.02
535.489	0.01
535.684	-0.03
535.879	-0.03
536.074	-0.01
536.269	-0.02
536.464	-0
536.659	-0.04
536.854	-0
537.049	0
537.244	-0
537.439	-0.03
537.634	0.03
537.828	0
538.023	-0.01
538.218	-0.04
538.413	-0.01
538.608	-0.03
538.803	0.01
538.997	-0.04
539.192	-0
539.387	0.01
539.582	-0.01
539.776	-0.01
539.971	-0
540.166	-0.02
540.36	-0.06
540.555	-0.01
540.75	-0.01
540.944	-0.03
541.139	-0.05
541.334	-0.02
541.528	-0.01
541.723	-0
541.917	-0.01
542.112	-0.04
542.306	-0.02
542.501	-0.03
542.695	0.01
542.89	-0.02
543.084	-0.01
543.279	-0.03
543.473	-0.01
543.668	-0.01
543.862	-0
544.056	0.01
544.251	-0.01
544.445	-0.01
544.64	-0.02
544.834	-0.02
545.028	-0
545.222	-0.01
545.417	-0
545.611	-0.01
545.805	-0.02
546	-0.01
546.194	-0.02
546.388	-0.03
546.582	0.01
546.776	-0.01
546.97	-0.02
547.165	-0.01
547.359	0.04
547.553	-0.02
547.747	-0
547.941	-0.03
548.135	-0.03
548.329	-0
548.523	0.02
548.717	-0.01
548.911	-0.03
549.105	-0.03
549.299	-0.01
549.493	0.01
549.687	-0
549.881	-0.01
550.075	-0.02
550.269	-0.04
550.463	0.01
550.657	-0.04
550.85	0.01
551.044	-0.04
551.238	-0.02
551.432	-0.02
551.626	-0.03
551.82	-0.02
552.013	-0.02
552.207	-0
552.401	0
552.594	-0.01
552.788	-0.03
552.982	-0.01
553.176	-0.03
553.369	0.02
553.563	0.01
553.756	-0.05
553.95	-0.03
554.144	-0.01
554.337	0.02
554.531	-0.01
554.724	-0.01
554.918	-0.02
555.111	0
555.305	-0.01
555.498	0.01
555.692	0.01
555.885	-0.02
556.079	-0.01
556.272	-0
556.466	-0.01
556.659	-0.01
556.852	-0.02
557.046	-0.03
557.239	0.01
557.432	-0.04
557.626	-0.04
557.819	0
558.012	-0
558.206	-0
558.399	-0.02
558.592	-0.01
558.785	-0.03
558.979	-0.01
559.172	0.01
559.365	0.01
559.558	-0
559.751	-0.03
559.944	-0
560.138	-0.03
560.331	-0
560.524	-0.02
560.717	-0.02
560.91	-0
561.103	0.01
561.296	0.01
561.489	0.01
561.682	0
561.875	0.02
562.068	-0
562.261	-0.01
562.454	0.04
562.647	-0
562.84	-0.02
563.032	-0.03
563.225	-0.01
563.418	-0.01
563.611	-0.03
563.804	-0.02
563.997	-0.03
564.19	-0.03
564.382	-0.09
564.575	-0.03
564.768	-0.03
564.961	-0.01
565.153	-0.04
565.346	0.02
565.539	0.01
565.731	0.02
565.924	0
566.117	-0.01
566.309	-0.01
566.502	-0.04
566.695	-0.02
566.887	0.01
567.08	-0.05
567.272	-0.03
567.465	-0.03
567.657	-0.02
567.85	-0.02
568.042	0
568.235	0.01
568.427	-0.02
568.62	-0.01
568.812	-0.01
569.005	0
569.197	-0.04
569.389	-0.01
569.582	-0.03
569.774	-0.01
569.966	-0.01
570.159	-0.05
570.351	0
570.543	-0.03
570.736	0.01
570.928	-0.04
571.12	-0.01
571.312	-0.02
571.505	-0.04
571.697	0.02
571.889	-0.03
572.081	-0.01
572.273	-0.04
572.465	0
572.658	-0.04
572.85	0.01
573.042	-0.02
573.234	-0.02
573.426	0.03
573.618	-0.03
573.81	0.01
574.002	0.03
574.194	0.01
574.386	-0.06
574.578	-0.07
574.77	-0.02
574.962	-0.02
575.154	-0.03
575.346	-0
575.538	-0.01
575.729	-0.03
575.921	-0.03
576.113	-0.01
576.305	0.01
576.497	-0.03
576.689	-0.02
576.88	-0.04
577.072	0
577.264	-0.02
577.456	-0.01
577.647	-0.08
577.839	-0.02
578.031	0.04
578.223	-0.04
578.414	-0.05
578.606	-0.02
578.798	-0.01
578.989	-0.02
579.181	-0.02
579.372	-0
579.564	-0.02
579.755	0.01
579.947	-0
580.139	0.02
580.33	-0.05
580.522	-0.02
580.713	-0.07
580.905	0.01
581.096	-0.03
581.287	-0.01
581.479	-0.02
581.67	0.01
581.862	-0.01
582.053	-0.04
582.244	-0.06
582.436	-0.04
582.627	-0.01
582.818	-0.01
583.01	-0.05
583.201	0.02
583.392	0.04
583.583	-0.01
583.775	-0.01
583.966	-0.05
584.157	-0.02
584.348	-0.02
584.54	-0.06
584.731	-0.02
584.922	-0.03
585.113	-0.04
585.304	0
585.495	-0.01
585.686	-0.04
585.877	0.01
586.068	-0.01
586.259	0
586.45	-0.04
586.641	-0.04
586.832	-0.07
587.023	-0
587.214	-0.02
587.405	-0.01
587.596	-0.04
587.787	0.02
587.978	-0
588.169	-0.01
588.36	-0.03
588.551	0
588.742	-0.04
588.932	-0
589.123	-0
589.314	0.02
589.505	0
589.696	-0.01
589.886	-0.02
590.077	-0.04
590.268	0.01
590.458	-0.04
590.649	-0.03
590.84	0.01
591.03	-0.04
591.221	-0.05
591.412	-0.04
591.602	0.02
591.793	0.02
591.984	-0.05
592.174	-0.04
592.365	0.02
592.555	-0.01
592.746	-0
592.936	0.01
593.127	-0.01
593.317	-0
593.508	-0.03
593.698	-0.05
593.889	-0.01
594.079	-0.03
594.269	-0.05
594.46	-0.01
594.65	-0.01
594.84	0.02
595.031	-0.02
595.221	-0.03
595.411	-0.08
595.602	-0.02
595.792	-0.03
595.982	-0.05
596.172	0.05
596.363	-0.01
596.553	-0.03
596.743	-0.01
596.933	-0.02
597.123	0.02
597.314	-0.05
597.504	-0.03
597.694	0.02
597.884	-0.02
598.074	-0.01
598.264	-0.03
598.454	0.02
598.644	-0.03
598.834	-0.02
599.024	-0.07
599.214	-0.02
599.404	0.01
599.594	-0.03
599.784	-0.04
599.974	0.03
600.164	-0.01
600.354	-0.02
600.544	-0.06
600.734	-0.01
600.924	0.03
601.114	-0.03
601.303	-0.02
601.493	-0.03
601.683	-0.01
601.873	0.01
602.063	-0.04
602.252	0.01
602.442	-0.07
602.632	-0.03
602.821	-0.04
603.011	0.01
603.201	-0.02
603.39	-0.02
603.58	-0.03
603.77	-0.03
603.959	0.04
604.149	-0.01
604.339	-0.02
604.528	0.01
604.718	0.01
604.907	-0.03
605.097	-0.01
605.286	-0.08
605.476	0
605.665	-0.01
605.855	-0.03
606.044	0.02
606.234	-0.02
606.423	-0.03
606.612	-0.04
606.802	0.02
606.991	-0.01
607.181	-0
607.37	-0.07
607.559	-0.04
607.749	-0.05
607.938	-0.02
608.127	-0.02
608.316	-0.05
608.506	-0.02
608.695	-0.01
608.884	-0.05
609.073	-0.01
609.263	-0.02
609.452	0.02
609.641	-0.01
609.83	-0.03
610.019	-0.05
610.208	-0.04
610.397	-0.02
610.586	-0.01
610.775	-0.05
610.965	-0.05
611.154	-0.04
611.343	-0
611.532	-0.01
611.721	-0.05
611.91	-0.04
612.099	-0.01
612.287	-0.02
612.476	-0.06
612.665	-0.01
612.854	-0.06
613.043	0.01
613.232	-0.03
613.421	-0.04
613.61	-0.01
613.798	-0.05
613.987	0.03
614.176	-0.01
614.365	-0.01
614.554	-0.03
614.742	0.01
614.931	-0.03
615.12	0.02
615.309	-0.03
615.497	-0
615.686	-0.05
615.875	-0.02
616.063	-0.01
616.252	-0.02
616.44	-0.04
616.629	-0.02
616.818	-0
617.006	-0.02
617.195	-0.02
617.383	-0.01
617.572	-0.04
617.76	-0.03
617.949	-0.07
618.137	-0.01
618.326	0.01
618.514	-0.05
618.703	-0.03
618.891	0.04
619.079	-0.07
619.268	-0.01
619.456	-0.06
619.644	0.03
619.833	-0.04
620.021	-0.03
620.209	-0.05
620.398	-0.01
620.586	-0.05
620.774	0
620.962	-0.04
621.151	0.03
621.339	-0.03
621.527	-0.06
621.715	-0.03
621.903	-0.05
622.092	-0.06
622.28	-0.04
622.468	-0.01
622.656	-0.02
622.844	0.01
623.032	-0.04
623.22	-0.08
623.408	0.04
623.596	-0.01
623.784	0.02
623.972	-0.05
624.16	-0.05
624.348	0.04
624.536	-0.03
624.724	-0.03
624.912	0.02
625.1	-0.01
625.288	-0.03
625.476	-0.06
625.664	-0.02
625.851	-0.03
626.039	-0.01
626.227	-0.01
626.415	-0.01
626.603	-0.09
626.79	-0
626.978	-0.03
627.166	-0.01
627.354	-0.01
627.541	-0.03
627.729	-0.09
627.917	0.03
628.104	0.01
628.292	0.03
628.48	-0.03
628.667	-0.02
628.855	0.01
629.042	-0.02
629.23	-0.03
629.418	-0.02
629.605	-0.02
629.793	-0.02
629.98	-0.04
630.168	-0.04
630.355	-0.04
630.543	-0.02
630.73	-0.04
630.917	-0
631.105	0.05
631.292	-0.04
631.48	-0.01
631.667	0.06
631.854	-0.02
632.042	-0.04
632.229	-0.05
632.416	-0.03
632.604	-0.02
632.791	-0.06
632.978	-0
633.165	0
633.353	0.05
633.54	0.01
633.727	-0.08
633.914	-0.04
634.101	-0.07
634.289	0.03
634.476	-0.05
634.663	-0.06
634.85	0
635.037	-0.06
635.224	-0.04
635.411	0.03
635.598	0.01
635.785	-0.04
635.972	-0.03
636.159	-0.01
636.346	-0.05
636.533	-0.03
636.72	-0.03
636.907	-0.03
637.094	0.01
637.281	-0.03
637.468	0.01
637.655	-0.01
637.842	-0.02
638.029	-0.05
638.215	0.02
638.402	0.02
638.589	-0.05
638.776	-0.02
638.963	-0.03
639.149	0.02
639.336	0.02
639.523	-0.03
639.709	-0.01
639.896	-0.01
640.083	0.03
640.27	0.01
640.456	-0.04
640.643	0.02
640.829	-0.1
641.016	-0.05
641.203	-0.06
641.389	0
641.576	0
641.762	-0.01
641.949	-0.04
642.135	0.01
642.322	-0
642.508	-0.06
642.695	-0.02
642.881	-0.02
643.068	-0.02
643.254	0.02
643.441	0.01
643.627	-0.02
643.813	-0.02
644	0.02
644.186	-0.04
644.372	-0.06
644.559	0
644.745	-0.01
644.931	-0.04
645.118	-0.04
645.304	-0.01
645.49	-0.04
645.676	-0.01
645.862	-0.04
646.049	0.04
646.235	-0.04
646.421	0.07
646.607	0.06
646.793	-0
646.979	-0.04
647.165	0.04
647.352	0.02
647.538	0.03
647.724	-0.01
647.91	0.01
648.096	0.01
648.282	0.04
648.468	-0.01
648.654	0
648.84	-0.02
649.026	0.02
649.212	-0.01
649.397	0.01
649.583	-0.03
649.769	0.02
649.955	0.01
650.141	-0.01
650.327	0.07
650.513	-0
650.698	0.03
650.884	-0.05
651.07	-0
651.256	0
651.442	0.02
651.627	-0.01
651.813	-0.01
651.999	-0.03
652.184	0.02
652.37	-0
652.556	-0.03
652.741	0.07
652.927	-0.06
653.113	0.01
653.298	0.03
653.484	-0.01
653.669	-0.06
653.855	0.01
654.04	0.05
654.226	0.02
654.412	0
654.597	-0.03
654.782	0.01
654.968	0.01
655.153	0.02
655.339	-0.01
655.524	-0.03
655.71	0.02
655.895	-0.02
656.08	-0.02
656.266	0.03
656.451	0.02
656.636	-0.04
656.822	0.01
657.007	-0.03
657.192	-0.03
657.378	-0.03
657.563	0.02
657.748	0.01
657.933	0.03
658.118	-0.04
658.304	0
658.489	0.06
658.674	0.05
658.859	-0.06
659.044	0.06
659.229	-0
659.414	0
659.599	-0.01
659.785	-0.07
659.97	0.01
660.155	0.02
660.34	0.02
660.525	-0
660.71	-0.02
660.895	0.03
661.08	-0.03
661.264	0
661.449	0.07
661.634	0.05
661.819	0.04
662.004	0.01
662.189	-0.07
662.374	-0.03
662.559	-0.03
662.743	-0.08
662.928	-0.01
663.113	-0.01
663.298	-0.06
663.483	-0.05
663.667	-0.02
663.852	-0.06
664.037	0.04
664.221	-0.06
664.406	-0.02
664.591	-0.01
664.775	-0.01
664.96	-0.04
665.145	0.01
665.329	0.02
665.514	-0.06
665.698	0.02
665.883	-0.1
666.068	0.04
666.252	0.02
666.437	-0.06
666.621	0.01
666.806	0.02
666.99	-0.02
667.174	-0.06
667.359	0.04
667.543	-0.03
667.728	-0.03
667.912	-0.1
668.096	0.01
668.281	-0.06
668.465	-0.04
668.649	-0
668.834	-0.06
669.018	-0.04
669.202	-0.06
669.387	-0.07
669.571	0.01
669.755	-0.06
669.939	-0.03
670.124	-0.02
670.308	0.03
670.492	-0.01
670.676	-0.04
670.86	-0.02
671.044	-0.09
671.228	0.01
671.413	-0.01
671.597	-0.04
671.781	-0.03
671.965	0.01
672.149	-0.03
672.333	-0.02
672.517	-0.05
672.701	-0.02
672.885	-0.07
673.069	-0.06
673.253	0.02
673.437	-0.02
673.621	-0.01
673.804	-0.06
673.988	-0
674.172	-0.02
674.356	-0.09
674.54	-0.02
674.724	0.06
674.908	0.01
675.091	-0
675.275	-0.03
675.459	0
675.643	0.02
675.826	-0.04
676.01	-0.04
676.194	-0.06
676.377	0.01
676.561	0.02
676.745	0.02
676.928	-0.01
677.112	0.06
677.296	-0.04
677.479	-0.06
677.663	-0.03
677.846	0.03
678.03	-0.03
678.213	-0.03
678.397	0.03
678.58	-0.05
678.764	-0.07
678.947	-0.05
679.131	-0.09
679.314	-0.06
679.498	-0.02
679.681	0.04
679.865	-0.01
680.048	-0
680.231	-0.03
680.415	0.02
680.598	-0.06
680.781	-0.03
680.965	-0.09
681.148	-0.01
681.331	-0.02
681.514	-0.02
681.698	-0.01
681.881	0.01
682.064	0.02
682.247	-0.04
682.43	-0.08
682.614	0.01
682.797	0.01
682.98	-0
683.163	-0.04
683.346	-0
683.529	-0.05
683.712	0
683.895	-0
684.078	-0.06
684.261	0
684.444	-0.05
684.627	-0.01
684.81	-0.04
684.993	-0.03
685.176	-0
685.359	-0.05
685.542	-0.05
685.725	0
685.908	-0
686.091	-0.07
686.274	0.01
686.457	-0.01
686.639	-0.02
686.822	-0.01
687.005	-0.01
687.188	-0
687.371	0.07
687.553	-0.02
687.736	0.03
687.919	0.05
688.102	0.04
688.284	-0.05
688.467	-0.04
688.65	-0.01
688.832	-0.02
689.015	0.01
689.197	-0.07
689.38	0.02
689.563	0.01
689.745	-0.01
689.928	-0.06
690.11	-0.05
690.293	0.01
690.475	-0.06
690.658	-0.02
690.84	-0.02
691.023	-0.02
691.205	-0.05
691.388	-0.03
691.57	0.01
691.752	-0.01
691.935	-0.17
692.117	-0.04
692.3	0.01
692.482	-0.04
692.664	-0.05
692.847	-0
693.029	0.07
693.211	-0.01
693.393	-0.02
693.576	-0.06
693.758	-0.02
693.94	0.02
694.122	-0.04
694.304	-0.04
694.487	-0.02
694.669	0.03
694.851	-0.06
695.033	-0.02
695.215	-0.06
695.397	-0.08
695.579	-0.02
695.761	-0.11
695.943	-0.07
696.125	0.08
696.308	0
696.49	-0.12
696.671	0.06
696.853	-0.05
697.035	0.08
697.217	-0.02
697.399	0.03
697.581	-0.06
697.763	-0.05
697.945	-0.06
698.127	0.01
698.309	0.03
698.491	-0.02
698.672	-0.04
698.854	-0.01
699.036	0.09
699.218	-0.04
699.399	0.03
699.581	0.01
699.763	0.01
699.945	-0.05
700.126	-0.1
700.308	-0
700.49	-0.05
700.671	-0.11
700.853	-0.07
701.035	-0.01
701.216	-0
701.398	-0.12
701.579	-0.01
701.761	0.05
701.943	-0.06
702.124	-0.08
702.306	-0.04
702.487	0.09
702.669	-0.03
702.85	-0.09
703.031	-0.1
703.213	0.06
703.394	0.03
703.576	-0.05
703.757	0.04
703.938	-0
704.12	0.1
704.301	0.02
704.483	-0.12
704.664	-0.01
704.845	0.03
705.026	-0.02
705.208	-0.07
705.389	-0.02
705.57	0.04
705.751	-0.06
705.933	-0.01
706.114	0.09
706.295	0.02
706.476	-0.05
706.657	0.06
706.838	0.01
707.02	-0.02
707.201	-0.07
707.382	-0.03
707.563	0
707.744	-0.09
707.925	-0.08
708.106	-0.11
708.287	-0.02
708.468	0.02
708.649	-0.03
708.83	-0.05
709.011	-0.06
709.192	0.01
709.373	-0.06
709.554	-0.02
709.734	0.03
709.915	0.05
710.096	-0.01
710.277	-0.11
710.458	-0.05
710.639	-0.08
710.819	-0.13
711	-0.02
711.181	0.02
711.362	0.08
711.542	0.03
711.723	-0.02
711.904	0.03
712.085	0.01
712.265	-0.02
712.446	-0.14
712.627	-0.09
712.807	-0.07
712.988	-0.04
713.168	-0.13
713.349	-0.02
713.53	-0.12
713.71	-0.06
713.891	-0.09
714.071	-0.02
714.252	-0.05
714.432	-0.07
714.613	-0.14
714.793	-0.02
714.974	0.05
715.154	0.05
715.334	0.04
715.515	-0.02
715.695	-0.14
715.876	-0.01
716.056	-0.01
716.236	-0.04
716.417	-0.01
716.597	-0.04
716.777	0.05
716.957	-0.05
717.138	-0.07
717.318	-0.03
717.498	-0.06
717.678	-0.06
717.859	-0.03
718.039	-0.06
718.219	-0.04
718.399	0.05
718.579	-0.09
718.759	-0.13
718.939	-0.01
719.12	-0.07
719.3	-0.05
719.48	-0.16
719.66	-0.12
719.84	0.04
720.02	-0.04
720.2	-0.07
720.38	-0.07
720.56	0.1
720.74	-0.08
720.92	-0.02
721.1	-0.02
721.279	0.06
721.459	-0.07
721.639	-0.09
721.819	0.02
721.999	0.02
722.179	-0.02
722.359	-0.06
722.538	-0.04
722.718	-0.02
722.898	-0.05
723.078	-0.08
723.257	-0.03
723.437	-0.05
723.617	-0.02
723.797	-0.06
723.976	-0.04
724.156	-0.01
724.336	0.05
724.515	0.1
724.695	-0.07
724.874	-0.12
725.054	-0.02
725.234	-0.13
725.413	0.01
725.593	-0.02
725.772	-0.04
725.952	-0.03
726.131	-0.04
726.311	-0.05
726.49	-0.02
726.67	-0.1
726.849	-0.06
727.028	-0.02
727.208	-0.06
727.387	0
727.567	-0.13
727.746	0.04
727.925	-0.03
728.105	-0.04
728.284	-0.06
728.463	-0.06
728.643	-0
728.822	-0.14
729.001	-0.05
729.18	-0.12
729.359	-0.04
729.539	-0.08
729.718	-0.04
729.897	0.08
730.076	-0.07
730.255	-0.19
730.434	-0.05
730.614	0.04
730.793	-0.04
730.972	-0
731.151	-0.11
731.33	0.03
731.509	-0.02
731.688	0.02
731.867	-0.08
732.046	-0.14
732.225	0.22
732.404	-0.13
732.583	-0.08
732.762	-0.02
732.941	0.12
733.12	-0.09
733.298	-0.12
733.477	0.14
733.656	-0.06
733.835	-0.17
734.014	0.01
734.193	-0.08
734.371	-0
734.55	-0.04
734.729	-0.09
734.908	-0.01
735.086	0.01
735.265	-0.09
735.444	-0.18
735.623	-0.13
735.801	-0.12
735.98	-0.05
736.159	0.01
736.337	0.02
736.516	-0.04
736.694	0.05
736.873	-0.11
737.052	0.09
737.23	0.1
737.409	-0.14
737.587	-0.04
737.766	-0.11
737.944	-0.12
738.123	0.01
738.301	-0.03
738.479	-0.13
738.658	0.07
738.836	-0.1
739.015	0.09
739.193	-0.05
739.371	-0.21
739.55	-0.16
739.728	-0.19
739.906	0.01
740.085	0.1
740.263	-0.1
740.441	-0.24
740.62	0.19
740.798	0.06
740.976	-0.17
741.154	-0.1
741.332	0.18
741.511	-0.11
741.689	0.07
741.867	0.1
742.045	-0.02
742.223	-0.04
742.401	-0.14
742.579	-0.12
742.757	-0.02
742.935	-0.09
743.114	-0.06
743.292	-0.11
743.47	-0.1
743.648	0.01
743.826	-0.03
744.004	-0.05
744.181	0.06
744.359	-0.09
744.537	-0.02
744.715	-0.05
744.893	-0.08
745.071	-0.01
745.249	-0.07
745.427	-0.12
745.605	0.03
745.782	-0.21
745.96	0.05
746.138	-0.06
746.316	-0
746.493	-0.07
746.671	-0.01
746.849	-0.13
747.027	0.1
747.204	-0.02
747.382	-0.05
747.56	-0.12
747.737	-0.02
747.915	-0.08
748.093	0.06
748.27	-0.09
748.448	-0.13
748.625	-0.18
748.803	-0.14
748.98	-0.16
749.158	-0.05
749.335	0.09
749.513	-0.03
749.69	-0.1
749.868	-0.02
750.045	0.04
750.223	-0.05
750.4	-0.32
750.578	0.05
750.755	-0.04
750.932	-0.2
751.11	0.08
751.287	-0.11
751.464	0.03
751.642	-0.07
751.819	-0
751.996	-0.13
752.173	-0.16
752.351	-0.12
752.528	0
752.705	-0.09
752.882	-0.14
753.06	-0.03
753.237	0.01
753.414	0.08
753.591	0.16
753.768	-0.04
753.945	-0.05
754.122	-0.11
754.299	0.12
754.476	-0.1
754.654	-0.08
754.831	0.06
755.008	-0.1
755.185	0
755.362	-0.07
755.539	-0.07
755.716	-0.04
755.892	-0.07
756.069	-0.07
756.246	-0.09
756.423	-0.04
756.6	0.05
756.777	0.01
756.954	-0.01
757.131	-0.08
757.307	-0.14
757.484	-0.13
757.661	0.03
757.838	0.01
758.015	-0.17
758.191	0.01
758.368	0.02
758.545	0.09
758.721	0.06
758.898	-0.04
759.075	0.05
759.251	-0.03
759.428	0.07
759.605	-0.11
759.781	-0.1
759.958	-0.09
760.134	-0.08
760.311	-0.07
760.488	0.09
760.664	0.09
760.841	-0.14
761.017	-0.11
761.194	0.03
761.37	0.09
761.547	-0.06
761.723	0.02
761.899	0.04
762.076	-0.11
762.252	-0.19
762.429	0
762.605	-0.02
762.781	0.02
762.958	0.01
763.134	-0.02
763.31	-0.13
763.486	0.08
763.663	-0.17
763.839	-0.06
764.015	-0.11
764.191	-0.19
764.368	-0
764.544	-0.15
764.72	-0.05
764.896	0.14
765.072	0.03
765.248	-0.05
765.425	-0.09
765.601	0.04
765.777	0.01
765.953	-0.2
766.129	0.02
766.305	-0.16
766.481	0.04
766.657	-0.1
766.833	0.05
767.009	-0.14
767.185	-0.1
767.361	0.04
767.537	-0.13
767.713	0.04
767.889	-0.12
768.065	-0.06
768.24	-0.01
768.416	0.09
768.592	-0.02
768.768	-0.02
768.944	-0.04
769.12	-0.13
769.295	-0.12
769.471	-0.09
769.647	-0.18
769.823	0.11
769.998	-0.07
770.174	-0.2
770.35	0.22
770.525	0.09
770.701	0.01
770.877	-0.06
771.052	-0.15
771.228	-0.01
771.403	-0.08
771.579	-0.04
771.755	0.27
771.93	-0.27
772.106	-0.06
772.281	-0.13
772.457	-0.09
772.632	0.09
772.808	-0.17
772.983	-0.12
773.159	-0.13
773.334	-0.01
773.509	-0.02
773.685	-0.1
773.86	0.25
774.036	0.16
774.211	-0.18
774.386	-0.15
774.562	0.07
774.737	0.08
774.912	-0.19
775.087	0.07
775.263	-0.02
775.438	0.07
775.613	-0.11
775.788	-0.08
775.964	0.06
776.139	0.03
776.314	-0.21
776.489	-0.04
776.664	-0.18
776.839	-0.01
777.014	0.11
777.19	0.15
777.365	0.02
777.54	0.08
777.715	-0.24
777.89	0.11
778.065	-0.07
778.24	-0.03
778.415	0.04
778.59	-0.21
778.765	-0.19
778.94	-0.05
779.115	-0.12
779.289	-0.09
779.464	0.02
779.639	0.01
779.814	-0.33
779.989	-0.18
780.164	0.12
780.339	0.06
780.513	-0.16
780.688	-0.28
780.863	-0.1
781.038	-0.01
781.212	-0.28
781.387	-0.08
781.562	0.2
781.737	-0.1
781.911	0.05
782.086	-0.15
782.261	-0.06
782.435	0.13
782.61	-0.1
782.784	-0.15
782.959	0.06
783.134	-0.16
783.308	-0.34
783.483	-0.09
783.657	0.2
783.832	0.09
784.006	-0.45
784.181	-0.05
784.355	0.19
784.53	-0.2
784.704	-0.28
784.878	0.16
785.053	-0.04
785.227	0.18
785.402	0.44
785.576	-0.33
785.75	-0.14
785.925	-0.16
786.099	0.03
786.273	0.01
786.448	0.2
786.622	0.13
786.796	-0.11
786.97	-0.15
787.145	0.51
787.319	-0.42
787.493	0.01
787.667	-0.24
787.841	-0.01
788.015	-0.11
788.19	-0.34
788.364	-0.08
788.538	0.14
788.712	0.03
788.886	-0.2
789.06	0.07
789.234	-0.11
789.408	-0.24
789.582	0.02
789.756	-0.07
789.93	-0.27
790.104	-0.38
790.278	-0.13
790.452	-0.17
790.626	-0.16
790.8	-0.25
790.973	0.22
791.147	0.04
791.321	0.12
791.495	0
791.669	-0.2
791.843	-0.04
792.016	0.04
792.19	0.35
792.364	-0.35
792.538	0.24
792.711	0.17
792.885	-0.09
793.059	-0.32
793.233	-0.54
793.406	0.02
793.58	-0.13
793.754	-0.08
793.927	-0.08
794.101	0.32
794.274	-0.19
794.448	0.21
794.622	-0.13
794.795	0.27
794.969	-0.2
795.142	0.26
795.316	-0.05
795.489	-0.28
795.663	0.44
795.836	-0.07
796.009	-0.15
796.183	0.3
796.356	-0.06
796.53	-0.02
796.703	-0.29
796.876	0.47
797.05	-0.04
797.223	-0.23
797.396	0.06
797.57	-0.03
797.743	0.46
797.916	-0.07
798.09	0.21
798.263	0.28
798.436	-0.05
798.609	-0.14
798.782	0.02
798.956	0.01
799.129	0.2
799.302	0.02
799.475	-0.32
799.648	-0.28
799.821	-0.27
799.994	-0.09
800.167	-0.55
800.34	0.11
800.514	0.06
800.687	-0.28
800.86	-0.27
801.033	-0.11
801.206	0.03
801.379	-0.1
801.551	-0.01
801.724	0.14
801.897	0.14
802.07	-0.06
802.243	-0.69
802.416	-0.22
802.589	-0.28
802.762	0.02
802.935	0.25
803.107	0.05
803.28	0.27
803.453	0.13
803.626	-0
803.798	-0.32
803.971	-0.42
804.144	-0.2
804.317	-0.23
804.489	0.07
804.662	-0.12
804.835	-0.26
805.007	-0.47
805.18	0.4
805.353	-0.23
805.525	-0.37
805.698	-0.4
805.87	0.16
806.043	0.1
806.215	-0.01
806.388	-0.42
806.56	0.4
806.733	0.55
806.905	0.16
807.078	-0.3
807.25	-0.45
807.423	0.1
807.595	-0.45
807.768	-0.17
807.94	0.29
808.112	0.42
808.285	0.08
808.457	-0.31
808.629	-0.02
808.802	0.07
808.974	-0.28
809.146	-0.11
809.318	-0.77
809.491	0.02
809.663	-0.01
809.835	-0.37
810.007	-0.08
810.18	0.12
810.352	-0.39
810.524	-0.59
810.696	-0.07
810.868	0.36
811.04	-0.33
811.212	0.12
811.384	0.37
811.556	0.09
811.728	0.17
811.901	0.25
812.073	-0.39
812.245	0.15
812.417	-0.03
812.589	-0.45
812.76	-0.35
812.932	0.09
813.104	0.23
813.276	-0.27
813.448	0.34
813.62	-0.26
813.792	0.06
813.964	0.01
814.136	0.18
814.307	-0.14
814.479	-0.09
814.651	-0.11
814.823	0.97
814.995	-0.16
815.166	0.07
815.338	-0.68
815.51	-0.58
815.681	0.57
815.853	-0.09
816.025	-0.12
816.196	0.06
816.368	0.13
816.54	-1.11
816.711	-0.19
816.883	0.14
817.054	0.42
817.226	-0.46
817.398	0
817.569	-0.37
817.741	0.24
817.912	-0.28
818.084	-0.02
818.255	0.39
818.426	-0.39
818.598	-0.22
818.769	-0.41
818.941	-0.08
819.112	0.64
819.283	-0.34
819.455	-0.52
819.626	0.16
819.798	0.24
819.969	-0.21
820.14	-0.15
820.311	-0.32
820.483	-0.1
820.654	-0.31
820.825	0.11
820.996	-0.44
821.168	-0.49
821.339	0.26
821.51	-0.41
821.681	-0.52
821.852	-0
822.023	-0.05
822.195	-0.02
822.366	0.18
822.537	-0.12
822.708	-0.19
822.879	-0.06
823.05	0.04
823.221	-0.33
823.392	0.05
823.563	-0.3
823.734	0.03
823.905	0.19
824.076	-0.27
824.247	-0.47
824.418	-0.47
824.589	0.79
824.759	-0.12
824.93	-0.22
825.101	-0.8
825.272	0.76
825.443	0.58
825.614	0.56
825.784	-1.31
825.955	0.81
826.126	0.27
826.297	-0
826.467	0.5
826.638	0.66
826.809	-1.07
826.98	-0.94
827.15	0.17
827.321	-0.26
827.492	0.77
827.662	0.02
827.833	0.75
828.003	-0.07
828.174	-1.1
828.345	-0.62
828.515	0.29
828.686	0.07
828.856	-0.35
829.027	0.12
829.197	-0.09
829.368	0.2
829.538	-0.18
829.709	-0.92
829.879	0.09
830.049	0.07
830.22	-0.85
830.39	-0.13
830.56	-0.26
830.731	0.22
830.901	-0.41
831.072	-0.65
831.242	0.19
831.412	-0.1
831.582	-0.25
831.753	-0.49
831.923	0.29
832.093	-0.07
832.263	-0.48
832.434	-0.77
832.604	-0.61
832.774	-0.21
832.944	-0.02
833.114	-0.8
833.284	-0.15
833.454	-0.95
833.624	-0.76
833.795	-0.39
833.965	0.59
834.135	0.19
834.305	-1.01
834.475	0.02
834.645	-0.96
834.815	-0.38
834.985	-0.71
835.155	-0.15
835.325	0.01
835.494	-0.27
835.664	-0.51
835.834	-0.7
836.004	-0.09
836.174	0.51
836.344	0.21
836.514	-0.81
836.684	0.09
836.853	-0.56
837.023	-0.25
837.193	-0.54
837.363	0.44
837.532	0.63
837.702	-0
837.872	-0.73
838.041	-0.31
838.211	0.88
838.381	-0.51
838.55	-0.17
838.72	1.37
838.89	1.16
839.059	-0.52
839.229	-0.35
839.398	1.03
839.568	0.49
839.738	-0.67
839.907	0.3
840.077	0.17
840.246	-0.19
840.416	-1.47
840.585	-0.64
840.755	1.26
840.924	1.5
841.093	-1.22
841.263	-0.56
841.432	0.43
841.602	-0.87
841.771	-1.49
841.94	0.5
842.11	1.38
842.279	1.02
842.448	-0.88
842.617	-0.64
842.787	1.48
842.956	-1.25
843.125	-0.63
843.294	0.33
843.464	0.03
843.633	-0.29
843.802	-1.54
843.971	-0.1
844.14	0.72
844.309	0.61
844.479	-0.87
844.648	-0.23
844.817	-0.85
844.986	-0.27
845.155	0.02
845.324	0.03
845.493	-0.86
845.662	-0.48
845.831	0.6
846	0.27
846.169	-0.05
846.338	1.38
846.507	-0.75
846.676	-0.24
846.844	0.03
847.013	0.06
847.182	-0.25
847.351	-0.49
847.52	0.01
847.689	0.72
847.858	0.27
848.026	-0.88
848.195	-0.94
848.364	-0.48
848.533	-1.18
848.701	-1.14
848.87	-0.48
849.039	1.01
849.207	1.28
849.376	0.38
849.545	0.59
849.713	-0.63
849.882	-0.75
850.051	-0.02
850.219	0.04
850.388	0.49
850.556	-0.84
850.725	-0.96
850.893	-0.64
851.062	-0.78
851.23	0.37
851.399	-1.92
851.567	-1.2
851.736	-0.71
851.904	-1.27
852.073	-0.45
852.241	0.04
852.41	-0.31
852.578	-0.49
852.746	-0.56
852.915	-0.03
853.083	-0.37
853.251	-1.65
853.42	-1.32
853.588	0.14
853.756	0.3
853.924	-0.26
854.093	-1.14
854.261	-0.6
854.429	-1.89
854.597	0.49
854.765	-0.34
854.934	0.35
855.102	1.34
855.27	-1.19
855.438	-0.32
855.606	-0.26
855.774	1.54
855.942	-0.96
856.11	-2.96
856.278	-0.22
856.446	0.49
856.614	0.32
856.782	-0.32
856.95	0.67
857.118	0.03
857.286	0.83
857.454	-1.06
857.622	0.78
857.79	1.28
857.958	-0.66
858.126	-0.42
858.294	-2.41
858.462	-0.53
858.629	-0.02
858.797	-1.78
858.965	-1.1
859.133	-0.47
859.301	-0.66
859.468	0.2
859.636	-1.18
859.804	0.91
859.971	1.1
860.139	-0.89
860.307	0.07
860.474	0.18
860.642	-0.46
860.81	-1.39
860.977	-0.77
861.145	-0.1
861.313	-0.32
861.48	-1.16
861.648	0.45
861.815	-1.16
861.983	-1.3
862.15	-1.71
862.318	0.58
862.485	1.06
862.653	-0.89
862.82	-0.48
862.988	1.66
863.155	0.76
863.322	-1.13
863.49	-1.02
863.657	-0.63
863.824	1.55
863.992	-0.65
864.159	-0.19
864.326	0.11
864.494	-2.17
864.661	1.53
864.828	-1.88
864.996	0.46
865.163	0.83
865.33	-1.39
865.497	-2.86
865.664	-1.65
865.832	-0.93
865.999	-0.69
866.166	-2.9
866.333	-0.42
866.5	0.91
866.667	0.43
866.834	-0.68
867.001	0.92
867.168	-1.49
867.335	0.55
867.502	-1.26
867.669	0.68
867.836	0.03
868.003	-0.73
868.17	1.49
868.337	-1.54
868.504	2.09
868.671	-1.39
868.838	-1.04
869.005	-0.29
869.172	0.17
869.339	-0.82
869.505	-1.61
869.672	-0.68
869.839	0.05
870.006	0.72
870.173	-2.43
870.339	1.53
870.506	3.2
870.673	-0.46
870.84	-0.81
871.006	-0.38
871.173	-1.04
871.34	-0.77
871.506	-1.62
871.673	0.88
871.839	-2.26
872.006	0.44
872.173	-0.46
872.339	-0.89
872.506	1.24
872.672	-0.8
872.839	-2.78
873.005	-0.73
873.172	2.42
873.338	-0.27
873.505	-0.62
873.671	-0.41
873.838	-0.53
874.004	-1.74
874.171	-2
874.337	-1.83
874.503	0.93
874.67	-1.29
874.836	-1.07
875.002	1.29
875.169	-0.26
875.335	0.43
875.501	0.38
875.668	1.48
875.834	-0.71
876	-0.93
876.166	1.82
876.332	-0.32
876.499	2.18
876.665	-1.62
876.831	-1.12
876.997	1.74
877.163	0.24
877.329	-1.52
877.495	-1.19
877.662	-0.17
877.828	-0.31
877.994	-0.77
878.16	-2.66
878.326	-2.63
878.492	-0.39
878.658	-1.98
878.824	-0.45
878.99	0.24
879.156	-0.69
879.322	1.96
879.487	-1.1
879.653	1.31
879.819	-0.86
879.985	-1.64
880.151	0.84
880.317	-0.58
880.483	0.8
880.648	-0
880.814	-3.1
880.98	0.11
881.146	-3.23
881.312	-1.54
881.477	0.9
881.643	1.03
881.809	1.56
881.974	1.07
882.14	-1
882.306	-0.55
882.471	1.43
882.637	-3.12
882.803	1.27
882.968	0.5
883.134	4.45
883.299	0.24
883.465	-0.95
883.63	1.06
883.796	1.96
883.961	-0.06
884.127	-0.32
884.292	-3.55
884.458	-1.79
884.623	-1.79
