Data from Apollo_Calib_20240827__AbsoluteIrradiance__62__00-11-01-730.txt Node

Date: Wed Aug 28 00:11:01 BST 2024
User: biology
Spectrometer: FLMT08252
Trigger mode: 0
Integration Time (sec): 5.000000E-1
Scans to average: 5
Electric dark correction enabled: true
Nonlinearity correction enabled: false
Boxcar width: 0
XAxis mode: Wavelengths
Number of Pixels in Spectrum: 3648
>>>>>Begin Spectral Data<<<<<
179.588	-0
179.809	-0
180.03	-0
180.251	-0
180.473	-0
180.694	0
180.915	0
181.136	-0
181.357	0
181.578	-0
181.799	-0
182.02	-0
182.241	0
182.462	-0
182.683	0
182.904	-0
183.125	0
183.346	0
183.567	0
183.788	-0
184.009	-0
184.23	0
184.451	0
184.672	-0
184.892	-0
185.113	0
185.334	0
185.555	-0
185.776	-0
185.996	0
186.217	0
186.438	-0
186.659	-0
186.879	0
187.1	-0
187.321	-0
187.541	-0
187.762	-0
187.983	0
188.203	-0
188.424	0
188.644	-0
188.865	-0
189.086	-0
189.306	-0
189.527	-0
189.747	0
189.968	-0
190.188	0
190.409	0
190.629	0
190.849	-0
191.07	-0
191.29	0
191.511	0
191.731	-0
191.951	-0
192.172	-0
192.392	-0
192.612	-0
192.833	-0
193.053	0
193.273	0
193.493	-0
193.714	-0
193.934	0
194.154	0
194.374	-0
194.594	0
194.815	-0
195.035	0
195.255	0
195.475	-0
195.695	0
195.915	0
196.135	-0
196.355	0
196.575	0
196.795	0
197.015	-0
197.235	-0
197.455	-0
197.675	0
197.895	-0
198.115	-0
198.335	0
198.555	-0
198.775	0
198.995	0
199.214	0
199.434	-0
199.654	-0
199.874	-0
200.094	1.3
200.313	-0.47
200.533	-0.61
200.753	-0.43
200.973	0.62
201.192	0.08
201.412	-1
201.632	-0.52
201.851	1.13
202.071	-0.36
202.291	-0.52
202.51	-0.71
202.73	0.31
202.95	-0.56
203.169	-0.88
203.389	-0.04
203.608	-0.1
203.828	-0.57
204.047	-0.33
204.267	0.44
204.486	-0.02
204.706	0.28
204.925	-0.11
205.145	-0.43
205.364	0.18
205.583	0.56
205.803	-0.25
206.022	-0.49
206.242	0.21
206.461	-0.21
206.68	-0.31
206.9	0.04
207.119	0.23
207.338	0.19
207.557	-0.51
207.777	-0.2
207.996	-0.09
208.215	0.26
208.434	-0.19
208.654	-0.59
208.873	0.1
209.092	0.3
209.311	-0.11
209.53	-0.23
209.749	-0.28
209.968	-0.3
210.187	-0.12
210.407	-0.64
210.626	-0.12
210.845	0.04
211.064	-0.26
211.283	-0.22
211.502	0.38
211.721	-0.02
211.94	-0.3
212.159	-0.07
212.377	0.11
212.596	0.43
212.815	0.31
213.034	-0.13
213.253	0.25
213.472	-0.07
213.691	-0.1
213.91	-0.23
214.128	-0.11
214.347	0.14
214.566	-0.44
214.785	-0.46
215.003	0.21
215.222	0.14
215.441	-0.16
215.66	-0.34
215.878	-0.04
216.097	0.19
216.316	-0.31
216.534	-0.11
216.753	0.05
216.972	-0.16
217.19	-0.13
217.409	-0.28
217.627	-0.12
217.846	0.08
218.064	0.11
218.283	-0.24
218.501	0.47
218.72	0.1
218.938	-0.25
219.157	-0.28
219.375	0.05
219.594	0.05
219.812	-0.33
220.031	-0.22
220.249	0.13
220.467	0.21
220.686	-0.22
220.904	-0.33
221.122	-0.08
221.341	0.23
221.559	-0.01
221.777	-0.04
221.995	-0.11
222.214	0.19
222.432	-0.06
222.65	0.15
222.868	-0.07
223.086	-0.09
223.305	0.06
223.523	-0.08
223.741	0.24
223.959	-0.09
224.177	-0.32
224.395	-0.11
224.613	0.15
224.831	0.09
225.049	-0.23
225.267	-0.19
225.485	0.11
225.703	-0.06
225.921	-0.07
226.139	-0.18
226.357	0.27
226.575	0.04
226.793	-0.08
227.011	0.38
227.229	-0.07
227.447	0.06
227.665	-0.04
227.883	-0.28
228.1	-0.04
228.318	0.04
228.536	-0.29
228.754	-0.19
228.972	-0.03
229.189	0.02
229.407	-0.1
229.625	-0.13
229.843	0.14
230.06	0.23
230.278	-0.15
230.496	0.02
230.713	0.03
230.931	0.13
231.149	-0.15
231.366	-0.22
231.584	-0.03
231.801	0.34
232.019	-0.08
232.236	-0.27
232.454	-0.09
232.671	-0.07
232.889	-0.14
233.106	-0.19
233.324	0.04
233.541	0.04
233.759	0
233.976	-0.08
234.194	-0.05
234.411	-0.05
234.628	-0.16
234.846	-0.06
235.063	-0.04
235.28	-0.06
235.498	-0.09
235.715	-0.24
235.932	0.14
236.149	-0.01
236.367	-0.08
236.584	-0.07
236.801	-0.18
237.018	0.09
237.236	0.03
237.453	-0.18
237.67	0.07
237.887	-0.05
238.104	-0.04
238.321	-0.09
238.538	-0.13
238.755	0.18
238.973	-0.23
239.19	0.03
239.407	0.06
239.624	0.04
239.841	-0.18
240.058	-0.19
240.275	0.01
240.492	-0.02
240.709	-0.03
240.925	0.01
241.142	-0.01
241.359	-0.13
241.576	-0.1
241.793	-0.09
242.01	-0.08
242.227	0.12
242.444	0.04
242.66	0.06
242.877	0.02
243.094	-0.13
243.311	0.02
243.527	-0.07
243.744	-0.01
243.961	0.07
244.178	-0.03
244.394	-0.02
244.611	0.05
244.828	0.05
245.044	-0.12
245.261	-0.05
245.477	0.04
245.694	0.08
245.911	-0.09
246.127	0.01
246.344	0.16
246.56	0.02
246.777	-0.06
246.993	-0.06
247.21	-0.02
247.426	-0.02
247.643	-0.12
247.859	-0.04
248.076	-0.01
248.292	0.16
248.508	-0.07
248.725	-0
248.941	-0.01
249.157	0.14
249.374	-0.03
249.59	-0.01
249.806	-0.03
250.023	-0.01
250.239	-0.1
250.455	-0.11
250.671	-0.03
250.888	0.01
251.104	0.13
251.32	-0.16
251.536	-0.02
251.752	-0.09
251.969	-0.07
252.185	0.01
252.401	0.15
252.617	-0.03
252.833	-0.14
253.049	-0.08
253.265	0.01
253.481	0.01
253.697	0.02
253.913	-0.1
254.129	-0.03
254.345	-0.02
254.561	-0.05
254.777	0.04
254.993	-0.02
255.209	0.03
255.425	-0.06
255.641	-0.06
255.857	0.05
256.073	-0.05
256.288	-0.08
256.504	-0.09
256.72	0.07
256.936	0.06
257.152	0.01
257.367	-0.06
257.583	-0
257.799	0.11
258.015	-0.1
258.23	-0.12
258.446	0.1
258.662	0.02
258.877	-0.12
259.093	-0.11
259.309	-0.06
259.524	-0
259.74	-0.04
259.955	-0.15
260.171	0.01
260.387	-0.01
260.602	0.01
260.818	0.01
261.033	-0.1
261.249	-0.01
261.464	-0.05
261.68	-0.08
261.895	0.08
262.11	0.07
262.326	-0.06
262.541	-0.1
262.757	0.07
262.972	0.04
263.187	0.01
263.403	-0.03
263.618	0.08
263.833	0.04
264.049	-0.05
264.264	-0.03
264.479	0.11
264.694	0.12
264.91	-0.1
265.125	-0.09
265.34	0.01
265.555	0.09
265.77	0.07
265.986	-0.04
266.201	-0.01
266.416	0.05
266.631	-0.03
266.846	-0.06
267.061	-0.02
267.276	0.01
267.491	-0.13
267.706	0.08
267.921	-0.03
268.136	-0.01
268.351	0.01
268.566	-0.04
268.781	0.06
268.996	0.03
269.211	-0.03
269.426	-0.13
269.641	0.01
269.856	0.04
270.071	-0.07
270.285	-0.1
270.5	0.03
270.715	0.07
270.93	-0.02
271.145	-0.05
271.359	0.02
271.574	-0.07
271.789	-0.01
272.004	-0
272.218	-0.04
272.433	0.03
272.648	-0.06
272.862	0.03
273.077	0.02
273.292	-0.03
273.506	-0.1
273.721	-0.07
273.936	0.06
274.15	0.07
274.365	-0.04
274.579	0.04
274.794	0.03
275.008	0.05
275.223	-0.07
275.437	-0
275.652	0.09
275.866	0.08
276.081	0.04
276.295	0.04
276.509	-0.04
276.724	-0.02
276.938	0.03
277.153	-0
277.367	-0.02
277.581	-0.07
277.796	-0.03
278.01	-0.08
278.224	0.05
278.438	0.09
278.653	-0.05
278.867	-0.09
279.081	-0.18
279.295	-0.03
279.51	-0.02
279.724	-0.11
279.938	0.07
280.152	-0.01
280.366	-0.07
280.58	0.04
280.794	0.05
281.008	0
281.222	0.04
281.437	0.11
281.651	0.01
281.865	0.04
282.079	-0.01
282.293	-0.12
282.507	-0.02
282.721	-0.02
282.935	-0.03
283.148	-0.11
283.362	-0.04
283.576	-0.05
283.79	-0.02
284.004	-0.07
284.218	0.04
284.432	-0.03
284.646	-0
284.859	-0.05
285.073	-0.01
285.287	0.03
285.501	-0
285.714	-0.06
285.928	0.02
286.142	0.02
286.356	-0.02
286.569	-0.07
286.783	0.09
286.997	0.01
287.21	0.03
287.424	-0.01
287.637	-0.03
287.851	-0.03
288.065	-0
288.278	-0.03
288.492	0.02
288.705	-0.04
288.919	0.01
289.132	-0.05
289.346	0.08
289.559	-0.04
289.773	-0.07
289.986	-0.03
290.2	-0.06
290.413	0.03
290.626	-0.05
290.84	-0.02
291.053	-0.01
291.267	0.08
291.48	-0
291.693	-0.01
291.906	0
292.12	-0.04
292.333	-0.05
292.546	-0.06
292.76	0.11
292.973	0.03
293.186	0.01
293.399	-0.04
293.612	0.08
293.826	-0.01
294.039	-0.05
294.252	-0.03
294.465	0.02
294.678	0
294.891	0.01
295.104	-0.06
295.317	0.01
295.53	-0.01
295.743	-0.03
295.956	-0.02
296.169	0.04
296.382	0.04
296.595	-0.03
296.808	-0.05
297.021	0.05
297.234	0.08
297.447	-0
297.66	0.01
297.873	0.04
298.086	-0.02
298.299	-0.03
298.511	-0.02
298.724	0.07
298.937	-0.05
299.15	-0.04
299.363	-0
299.575	0.02
299.788	0.02
300.001	-0.02
300.213	-0.03
300.426	0
300.639	-0.05
300.852	-0.04
301.064	0.06
301.277	0.05
301.489	0.02
301.702	0.01
301.915	0.01
302.127	-0
302.34	0.01
302.552	0.02
302.765	-0.05
302.977	0.01
303.19	-0.03
303.402	0.01
303.615	0.02
303.827	-0.02
304.04	-0.03
304.252	-0
304.464	0.01
304.677	0.14
304.889	0.06
305.102	-0.02
305.314	-0.05
305.526	0.06
305.739	0.03
305.951	-0.01
306.163	-0.01
306.375	0.09
306.588	-0.03
306.8	-0.03
307.012	-0.06
307.224	0.02
307.436	0.03
307.649	-0.07
307.861	-0.01
308.073	0.03
308.285	-0
308.497	-0.02
308.709	-0.02
308.921	0.03
309.133	0.06
309.346	0.01
309.558	-0
309.77	0.03
309.982	0.09
310.194	0.03
310.406	-0.04
310.617	0.06
310.829	-0.01
311.041	-0.03
311.253	-0.03
311.465	-0.03
311.677	-0.04
311.889	-0.02
312.101	-0.04
312.313	0.06
312.524	0.03
312.736	-0.05
312.948	-0.03
313.16	0.07
313.372	0.01
313.583	0.01
313.795	-0.03
314.007	-0.04
314.218	0.01
314.43	-0.02
314.642	-0.01
314.853	-0.03
315.065	-0.02
315.277	-0.03
315.488	0.01
315.7	0.05
315.912	0.06
316.123	-0.02
316.335	-0
316.546	0.08
316.758	-0.01
316.969	-0.08
317.181	0
317.392	-0.06
317.604	0.07
317.815	-0.03
318.026	-0.07
318.238	-0.03
318.449	0.02
318.661	-0.09
318.872	-0.07
319.083	-0.05
319.295	0.04
319.506	-0.03
319.717	0.01
319.929	0
320.14	-0.01
320.351	0
320.562	-0
320.774	-0.04
320.985	-0.01
321.196	-0.04
321.407	-0.05
321.618	-0
321.829	0
322.041	0.01
322.252	0
322.463	0.02
322.674	-0.01
322.885	-0.05
323.096	-0.04
323.307	0.02
323.518	-0.01
323.729	-0.03
323.94	0.01
324.151	-0.02
324.362	-0.02
324.573	-0.01
324.784	-0.06
324.995	0.06
325.206	-0.01
325.417	-0.04
325.628	-0.01
325.838	-0.06
326.049	0.03
326.26	-0.02
326.471	-0.05
326.682	0.03
326.892	0.05
327.103	-0.09
327.314	-0.04
327.525	0.06
327.735	-0.02
327.946	-0.04
328.157	-0.04
328.368	0.08
328.578	-0.03
328.789	-0
328.999	-0.03
329.21	-0.03
329.421	0.03
329.631	-0.06
329.842	-0.05
330.052	-0.02
330.263	0.03
330.473	0.04
330.684	-0.01
330.894	-0.06
331.105	0.02
331.315	0
331.526	-0.08
331.736	0.08
331.947	0
332.157	-0
332.367	-0.05
332.578	0.03
332.788	0.04
332.999	0
333.209	0.03
333.419	-0.05
333.629	0.02
333.84	0.04
334.05	-0.03
334.26	0.02
334.47	-0.03
334.681	0.04
334.891	-0.03
335.101	0.04
335.311	0.07
335.521	-0.02
335.732	-0.06
335.942	0.06
336.152	-0.02
336.362	-0
336.572	-0.02
336.782	0.03
336.992	-0.04
337.202	-0.08
337.412	-0.03
337.622	0.02
337.832	0.01
338.042	0
338.252	-0.04
338.462	-0.01
338.672	0.01
338.882	-0.04
339.092	-0.02
339.302	0.07
339.511	0.03
339.721	-0.02
339.931	-0.04
340.141	0.05
340.351	0.05
340.561	0.02
340.77	-0
340.98	0.02
341.19	0.03
341.4	-0.04
341.609	-0.05
341.819	-0.01
342.029	-0.08
342.238	0.02
342.448	-0.03
342.658	0.02
342.867	0.01
343.077	0.02
343.286	0.03
343.496	0
343.706	0.04
343.915	-0.06
344.125	-0.05
344.334	0.01
344.544	-0.04
344.753	-0
344.963	-0.04
345.172	-0.04
345.381	0.03
345.591	-0.02
345.8	-0.03
346.01	0.05
346.219	0.07
346.428	-0.1
346.638	-0.03
346.847	0.02
347.056	0.07
347.266	-0.03
347.475	0.01
347.684	-0
347.893	0.01
348.103	0.01
348.312	-0.02
348.521	0.01
348.73	0
348.94	0.02
349.149	-0.04
349.358	-0.01
349.567	-0.01
349.776	-0.09
349.985	-0
350.194	0.01
350.403	0.07
350.612	-0.05
350.821	-0.01
351.03	0.01
351.239	-0.04
351.448	-0.02
351.657	-0.01
351.866	0.05
352.075	-0.01
352.284	0.01
352.493	-0.1
352.702	0.03
352.911	0.02
353.12	-0
353.329	-0.02
353.538	0.02
353.746	0
353.955	-0.04
354.164	-0.02
354.373	-0.02
354.582	0.05
354.79	0.01
354.999	0.05
355.208	0
355.416	0.1
355.625	-0.04
355.834	-0.04
356.042	0
356.251	0.02
356.46	-0.05
356.668	0.02
356.877	0.07
357.085	0.03
357.294	-0.1
357.503	0.02
357.711	-0.03
357.92	0.11
358.128	0.01
358.337	-0.04
358.545	-0.01
358.754	-0.02
358.962	-0.01
359.17	-0.03
359.379	0.01
359.587	0.02
359.796	-0.02
360.004	0.06
360.212	0
360.421	0.06
360.629	-0
360.837	-0.02
361.046	0.01
361.254	0.1
361.462	0.02
361.67	-0.02
361.879	-0.02
362.087	0.07
362.295	-0.04
362.503	0
362.711	-0.06
362.92	-0.03
363.128	-0.03
363.336	-0.04
363.544	-0.08
363.752	-0.01
363.96	-0.03
364.168	-0.04
364.376	-0.01
364.584	-0.02
364.792	0.03
365	0.05
365.208	0.01
365.416	0
365.624	0.01
365.832	-0.03
366.04	0.07
366.248	0.01
366.456	-0.02
366.664	-0
366.872	0
367.079	0.01
367.287	-0.01
367.495	0.03
367.703	-0
367.911	0.02
368.118	0.01
368.326	-0.05
368.534	-0.03
368.742	0.08
368.949	-0.06
369.157	-0.04
369.365	0.04
369.572	0.01
369.78	-0.06
369.988	0.05
370.195	0.01
370.403	-0
370.61	-0.02
370.818	0.01
371.026	0.04
371.233	-0.05
371.441	0.02
371.648	0
371.856	0.01
372.063	0
372.271	-0.06
372.478	-0.02
372.685	-0.02
372.893	0.09
373.1	-0.04
373.308	-0.01
373.515	0.05
373.722	0.02
373.93	0.01
374.137	0.03
374.344	0.05
374.552	0.07
374.759	0.02
374.966	0.04
375.173	-0.02
375.381	0.05
375.588	0.01
375.795	0.01
376.002	0
376.209	-0.02
376.417	0.03
376.624	0.02
376.831	0.04
377.038	0.02
377.245	-0.08
377.452	0.01
377.659	0.03
377.866	0.01
378.073	0.03
378.28	-0
378.487	0.06
378.694	0.04
378.901	0.03
379.108	0.03
379.315	0.07
379.522	0.12
379.729	0.06
379.936	-0.02
380.143	0.04
380.35	0.02
380.557	0
380.763	0.06
380.97	0.04
381.177	0.06
381.384	0.08
381.591	0.06
381.797	0.07
382.004	0.1
382.211	0.08
382.418	0.05
382.624	0.11
382.831	0.1
383.038	0.02
383.244	0.05
383.451	0.03
383.658	0.05
383.864	0
384.071	-0
384.277	0.1
384.484	-0.02
384.69	0.07
384.897	-0.04
385.103	0.01
385.31	0.03
385.516	0.03
385.723	-0
385.929	0.04
386.136	-0.03
386.342	0.03
386.549	-0
386.755	0.08
386.961	0.04
387.168	-0.01
387.374	-0
387.58	0.04
387.787	0.05
387.993	0
388.199	-0.03
388.406	0.02
388.612	0.02
388.818	0
389.024	0.01
389.231	0
389.437	0.06
389.643	0.04
389.849	-0
390.055	0
390.261	-0
390.467	-0.02
390.674	-0.02
390.88	-0.02
391.086	0.01
391.292	-0.08
391.498	0.02
391.704	0.01
391.91	-0.02
392.116	0.01
392.322	-0.13
392.528	0.03
392.734	0.02
392.94	0.01
393.146	-0.02
393.352	0.01
393.557	-0.03
393.763	0.01
393.969	0
394.175	-0.01
394.381	0.02
394.587	-0.02
394.792	-0
394.998	0.05
395.204	0.07
395.41	-0.04
395.615	0.02
395.821	0.03
396.027	0.04
396.233	-0.02
396.438	0.06
396.644	0.06
396.85	0.03
397.055	-0.07
397.261	-0.02
397.466	0.14
397.672	-0.01
397.878	0.02
398.083	-0.02
398.289	-0.02
398.494	0.04
398.7	-0.01
398.905	-0.06
399.111	0.02
399.316	-0.03
399.522	0.02
399.727	-0.01
399.932	0.01
400.138	0.02
400.343	0.03
400.549	0.02
400.754	0.01
400.959	-0.02
401.165	0.03
401.37	0.01
401.575	0.03
401.78	-0.01
401.986	-0.02
402.191	0.03
402.396	0.01
402.601	0.06
402.807	-0.02
403.012	-0.01
403.217	0.01
403.422	-0.03
403.627	-0.02
403.832	-0.01
404.037	0.05
404.243	0.05
404.448	0
404.653	-0
404.858	-0.03
405.063	0.04
405.268	-0.03
405.473	-0.06
405.678	-0.04
405.883	0.13
406.088	0.06
406.293	-0.05
406.498	0.01
406.703	0.01
406.907	0.02
407.112	-0.04
407.317	0
407.522	0.03
407.727	-0.06
407.932	0.02
408.136	0.03
408.341	-0
408.546	-0
408.751	0.02
408.956	-0.04
409.16	-0.01
409.365	-0.03
409.57	-0.01
409.774	0.02
409.979	0.01
410.184	-0.01
410.388	-0.02
410.593	0.04
410.798	-0.01
411.002	-0.04
411.207	0
411.411	-0.01
411.616	-0.07
411.82	-0.03
412.025	-0.03
412.229	-0.01
412.434	0.02
412.638	0
412.843	-0.03
413.047	-0
413.252	-0.06
413.456	-0.04
413.66	0.07
413.865	-0.05
414.069	0.08
414.273	-0.05
414.478	-0.01
414.682	-0.03
414.886	-0.05
415.091	-0.09
415.295	-0.07
415.499	0.02
415.703	-0.01
415.908	0
416.112	-0.08
416.316	0.02
416.52	-0.01
416.724	-0.08
416.929	-0.04
417.133	0.08
417.337	-0.06
417.541	-0.04
417.745	-0
417.949	-0.03
418.153	0.01
418.357	-0.08
418.561	0.08
418.765	-0.02
418.969	0.08
419.173	0.05
419.377	-0.05
419.581	0.08
419.785	-0.05
419.989	-0.03
420.193	-0.11
420.397	-0.03
420.601	0.06
420.804	0.04
421.008	-0.02
421.212	0.03
421.416	0.03
421.62	-0.01
421.823	0
422.027	0.08
422.231	0.06
422.435	-0.03
422.638	0
422.842	0.01
423.046	-0.07
423.249	0
423.453	0.03
423.657	0.05
423.86	-0.02
424.064	-0.01
424.268	0.07
424.471	-0.04
424.675	0.07
424.878	0.05
425.082	-0.02
425.285	0.05
425.489	-0.02
425.692	-0.03
425.896	-0.04
426.099	0.04
426.303	-0.04
426.506	-0.03
426.71	0.05
426.913	0.07
427.116	0.09
427.32	-0.01
427.523	0
427.726	0.05
427.93	-0.03
428.133	0
428.336	-0.09
428.54	-0.08
428.743	-0.02
428.946	0.02
429.149	-0.09
429.353	0.04
429.556	-0.03
429.759	-0.01
429.962	-0.08
430.165	-0.02
430.368	-0.01
430.571	-0
430.775	0
430.978	-0.01
431.181	-0.01
431.384	0.01
431.587	0
431.79	-0.02
431.993	-0.02
432.196	0
432.399	-0.01
432.602	0.05
432.805	-0.03
433.008	-0
433.211	-0.09
433.414	0.06
433.616	0.05
433.819	-0.06
434.022	-0.07
434.225	0.09
434.428	0.01
434.631	0.12
434.833	-0.02
435.036	-0.01
435.239	0.06
435.442	0.02
435.645	-0
435.847	0.05
436.05	0.05
436.253	0.02
436.455	-0.03
436.658	0.01
436.861	0.08
437.063	-0.03
437.266	-0
437.468	0.03
437.671	0.16
437.874	-0.01
438.076	-0.03
438.279	-0.01
438.481	0.02
438.684	-0
438.886	0.03
439.089	-0.04
439.291	-0.03
439.494	0.01
439.696	-0.05
439.899	0.02
440.101	0.05
440.303	-0.06
440.506	0.07
440.708	0.01
440.91	0.07
441.113	-0.01
441.315	0.04
441.517	-0.05
441.72	0.08
441.922	0.01
442.124	-0.05
442.326	0.03
442.529	0.14
442.731	-0
442.933	0.08
443.135	0.02
443.337	0
443.539	0.02
443.742	-0.02
443.944	0.05
444.146	0.06
444.348	0.01
444.55	0.03
444.752	-0.01
444.954	0.07
445.156	0.04
445.358	0.04
445.56	0.06
445.762	-0
445.964	0.1
446.166	0.06
446.368	0.03
446.57	0.08
446.772	0.06
446.974	0.02
447.175	0.05
447.377	0.05
447.579	0.03
447.781	-0.01
447.983	0.13
448.184	0.08
448.386	0.07
448.588	-0.03
448.79	0.05
448.991	0
449.193	0.05
449.395	0.04
449.597	0.08
449.798	0.06
450	0.11
450.202	0.05
450.403	0.06
450.605	0.13
450.806	0.03
451.008	-0.03
451.21	0.08
451.411	0.05
451.613	0
451.814	0.09
452.016	0.09
452.217	0.07
452.419	0.11
452.62	0.03
452.821	0.08
453.023	0.11
453.224	0.13
453.426	0.01
453.627	0.04
453.828	0.06
454.03	0.03
454.231	0.08
454.432	-0.01
454.634	0.08
454.835	-0.02
455.036	-0.01
455.238	0.08
455.439	0.15
455.64	0.03
455.841	-0.02
456.042	0.13
456.244	0.06
456.445	-0.03
456.646	-0.03
456.847	0.02
457.048	0.08
457.249	0.07
457.45	0.25
457.651	-0.05
457.852	0.08
458.054	0.02
458.255	-0
458.456	0.03
458.657	0.03
458.858	-0.01
459.058	0.06
459.259	0.09
459.46	0.02
459.661	-0.04
459.862	0.13
460.063	0.01
460.264	0.11
460.465	-0.05
460.666	0.12
460.866	0.01
461.067	-0.02
461.268	-0.01
461.469	0
461.67	0.04
461.87	0.01
462.071	-0.03
462.272	-0.04
462.473	0
462.673	0.06
462.874	-0.03
463.075	-0
463.275	-0.06
463.476	-0.02
463.676	0.05
463.877	0.01
464.078	0.03
464.278	0.05
464.479	-0.01
464.679	0.02
464.88	-0.02
465.08	0.05
465.281	-0.06
465.481	-0.03
465.682	0.03
465.882	-0.01
466.083	0.02
466.283	0.01
466.483	0.03
466.684	-0.03
466.884	-0.01
467.085	0.01
467.285	0.07
467.485	-0.04
467.686	-0
467.886	-0.02
468.086	0.03
468.286	-0.01
468.487	0.03
468.687	-0.08
468.887	0.04
469.087	0.05
469.287	0.04
469.488	-0.06
469.688	0
469.888	0.06
470.088	0.04
470.288	0.04
470.488	0.04
470.688	-0.03
470.888	-0.04
471.088	-0.03
471.288	0
471.488	0.05
471.688	-0.01
471.888	0
472.088	0.06
472.288	0.02
472.488	-0.02
472.688	-0.02
472.888	0.04
473.088	0.01
473.288	0.01
473.488	-0.02
473.688	0.05
473.887	-0.03
474.087	-0.04
474.287	0.03
474.487	-0.02
474.687	0.02
474.886	-0.03
475.086	-0.01
475.286	0.01
475.486	0.02
475.685	0.01
475.885	-0.07
476.085	0.04
476.284	0.05
476.484	-0.02
476.684	0
476.883	0.07
477.083	-0
477.282	-0.02
477.482	0.07
477.681	0.05
477.881	0.01
478.08	-0.04
478.28	-0.04
478.479	0.01
478.679	0.07
478.878	-0.02
479.078	0.02
479.277	-0.01
479.477	-0
479.676	0.06
479.875	0.01
480.075	-0.06
480.274	0.04
480.473	0.05
480.673	-0.04
480.872	0.01
481.071	-0
481.271	-0.01
481.47	-0.02
481.669	-0.01
481.868	-0.03
482.067	-0.03
482.267	-0.01
482.466	-0.01
482.665	-0.06
482.864	-0.04
483.063	-0.05
483.262	0.02
483.461	0.06
483.661	0.04
483.86	-0.01
484.059	0.02
484.258	-0.02
484.457	-0.02
484.656	-0.01
484.855	0.05
485.054	-0.04
485.253	-0.01
485.452	-0.04
485.651	-0.02
485.849	0.01
486.048	-0.04
486.247	-0.02
486.446	-0.01
486.645	-0.04
486.844	-0.02
487.043	-0.04
487.241	0.01
487.44	-0.05
487.639	-0.01
487.838	0.03
488.037	0.01
488.235	0.05
488.434	0.01
488.633	-0.02
488.831	-0.01
489.03	0.04
489.229	0.01
489.427	0.01
489.626	0.04
489.825	0.05
490.023	0.01
490.222	-0.02
490.42	0.02
490.619	0.04
490.817	0.01
491.016	-0
491.214	0.03
491.413	-0.01
491.611	-0.02
491.81	-0
492.008	0.02
492.207	0.01
492.405	0.03
492.604	-0.04
492.802	-0.01
493	-0.01
493.199	-0.02
493.397	-0.02
493.595	-0.01
493.794	-0.01
493.992	0.05
494.19	-0
494.388	-0.01
494.587	-0.03
494.785	0
494.983	-0.03
495.181	0
495.379	-0
495.578	-0
495.776	0.02
495.974	0
496.172	-0.01
496.37	-0.03
496.568	-0.03
496.766	-0.04
496.964	0.03
497.162	-0.01
497.36	-0.04
497.558	0.01
497.756	0.01
497.954	0.01
498.152	-0.05
498.35	-0
498.548	-0.02
498.746	0.01
498.944	-0.02
499.142	-0.02
499.34	-0.04
499.538	-0.01
499.736	-0.04
499.933	0.02
500.131	0.02
500.329	0
500.527	0.01
500.725	0.04
500.922	0.01
501.12	0
501.318	-0.01
501.516	-0.03
501.713	0.01
501.911	0
502.109	-0.03
502.306	0.02
502.504	0
502.701	-0.01
502.899	-0.02
503.097	0.04
503.294	-0
503.492	0
503.689	0.01
503.887	0.04
504.084	0.03
504.282	-0.02
504.479	-0.04
504.677	0.01
504.874	-0.02
505.072	-0.01
505.269	-0.02
505.466	0.01
505.664	-0.02
505.861	-0.05
506.059	-0.02
506.256	-0
506.453	-0
506.651	0.02
506.848	0.01
507.045	-0
507.242	0.01
507.44	-0.01
507.637	-0.01
507.834	0
508.031	0.03
508.229	-0.02
508.426	0.02
508.623	-0.04
508.82	-0.02
509.017	-0.03
509.214	0
509.411	-0.01
509.608	-0.03
509.805	0
510.003	-0.03
510.2	-0.03
510.397	0
510.594	-0.02
510.791	-0.03
510.988	-0.01
511.184	0.02
511.381	0
511.578	-0.04
511.775	0.01
511.972	-0.01
512.169	-0.01
512.366	-0.01
512.563	0.04
512.76	-0.02
512.956	0
513.153	-0.01
513.35	-0.01
513.547	-0.02
513.744	-0.02
513.94	-0.03
514.137	-0
514.334	-0.01
514.53	-0.01
514.727	-0.01
514.924	0.02
515.12	-0
515.317	-0.04
515.514	-0
515.71	-0.03
515.907	0
516.103	-0.01
516.3	0.02
516.497	0.02
516.693	0.01
516.89	-0.01
517.086	-0.02
517.283	0.04
517.479	-0
517.676	0
517.872	-0.02
518.068	-0.01
518.265	-0.02
518.461	0
518.658	-0.03
518.854	0
519.05	-0.02
519.247	-0.03
519.443	0.01
519.639	0
519.836	0
520.032	-0.01
520.228	-0.01
520.424	0.03
520.621	-0
520.817	-0.01
521.013	0.02
521.209	-0.01
521.405	0.04
521.601	0.02
521.798	-0.01
521.994	0.03
522.19	-0.03
522.386	-0.04
522.582	-0.01
522.778	0.02
522.974	-0.02
523.17	0
523.366	0
523.562	0.01
523.758	-0.02
523.954	-0.01
524.15	-0.01
524.346	0.02
524.542	-0.02
524.738	-0.03
524.934	-0.01
525.129	-0.01
525.325	-0.01
525.521	-0.01
525.717	0.03
525.913	-0
526.109	0.02
526.304	-0.01
526.5	0.02
526.696	0.01
526.892	-0
527.087	0.03
527.283	-0.04
527.479	0.01
527.674	-0.02
527.87	-0.02
528.066	-0.04
528.261	0.02
528.457	0.01
528.653	0
528.848	-0.02
529.044	0
529.239	0
529.435	0.02
529.63	0.02
529.826	0.04
530.021	0.01
530.217	0.02
530.412	-0.01
530.608	-0.02
530.803	-0.01
530.999	-0
531.194	-0.03
531.389	-0.01
531.585	-0.04
531.78	-0
531.975	0
532.171	0.01
532.366	-0
532.561	-0
532.757	-0.02
532.952	0.01
533.147	0.03
533.342	-0
533.538	-0.03
533.733	0.02
533.928	0
534.123	-0.02
534.318	-0.03
534.513	-0.03
534.709	0
534.904	-0.02
535.099	0
535.294	-0.02
535.489	0.02
535.684	-0.01
535.879	-0.01
536.074	0.01
536.269	-0.02
536.464	-0.01
536.659	0
536.854	-0
537.049	0
537.244	-0.01
537.439	-0
537.634	0.01
537.828	0
538.023	-0.01
538.218	-0.03
538.413	0.01
538.608	-0.04
538.803	-0
538.997	-0.02
539.192	0.01
539.387	-0
539.582	0
539.776	-0
539.971	-0.02
540.166	-0
540.36	-0.03
540.555	-0
540.75	-0.01
540.944	0.02
541.139	-0.05
541.334	-0.01
541.528	0.01
541.723	0.02
541.917	-0.01
542.112	-0.05
542.306	0.02
542.501	-0.03
542.695	0
542.89	-0.02
543.084	0
543.279	-0.02
543.473	-0.03
543.668	-0
543.862	-0
544.056	0
544.251	-0.01
544.445	-0.01
544.64	-0.02
544.834	-0.03
545.028	-0.01
545.222	0.01
545.417	0.01
545.611	-0.03
545.805	-0
546	-0.02
546.194	-0.01
546.388	-0.02
546.582	0.02
546.776	-0.03
546.97	0.01
547.165	0.03
547.359	0
547.553	-0.01
547.747	-0.01
547.941	-0
548.135	0.01
548.329	0.01
548.523	0.02
548.717	-0.01
548.911	-0.02
549.105	0.01
549.299	-0
549.493	0.01
549.687	0.01
549.881	0.02
550.075	-0.01
550.269	-0.04
550.463	0.02
550.657	-0.02
550.85	0.01
551.044	-0.02
551.238	0.02
551.432	-0.02
551.626	-0.03
551.82	0.02
552.013	-0.02
552.207	0.01
552.401	-0.01
552.594	0
552.788	0
552.982	0.01
553.176	-0.01
553.369	0
553.563	0.01
553.756	-0.03
553.95	-0.04
554.144	0
554.337	0.02
554.531	0.02
554.724	-0.01
554.918	-0.04
555.111	-0
555.305	-0.02
555.498	0.06
555.692	0.02
555.885	-0.04
556.079	0.01
556.272	-0.03
556.466	0.02
556.659	-0.01
556.852	-0
557.046	-0.03
557.239	0.02
557.432	-0.04
557.626	-0.01
557.819	0.01
558.012	0.01
558.206	0.02
558.399	-0.01
558.592	-0.01
558.785	-0.02
558.979	0.02
559.172	-0
559.365	-0.01
559.558	0.01
559.751	-0.04
559.944	-0.01
560.138	-0.03
560.331	-0.03
560.524	-0.03
560.717	-0.01
560.91	-0.02
561.103	0.01
561.296	-0.01
561.489	0.01
561.682	-0
561.875	0.06
562.068	0.01
562.261	0.02
562.454	0.05
562.647	0.02
562.84	-0.02
563.032	-0.01
563.225	0
563.418	-0
563.611	-0.01
563.804	0.01
563.997	-0.03
564.19	-0.03
564.382	-0
564.575	0
564.768	-0.01
564.961	-0
565.153	-0.01
565.346	0.02
565.539	0.01
565.731	0.01
565.924	0.03
566.117	0.02
566.309	-0
566.502	-0.01
566.695	0.01
566.887	0
567.08	0
567.272	0
567.465	-0.02
567.657	0
567.85	0.01
568.042	0.01
568.235	0.02
568.427	-0.01
568.62	0
568.812	-0
569.005	-0.01
569.197	-0.04
569.389	0
569.582	0.01
569.774	-0
569.966	-0.03
570.159	-0.05
570.351	-0.01
570.543	-0.02
570.736	-0.01
570.928	-0.03
571.12	0
571.312	-0.01
571.505	-0.03
571.697	0.01
571.889	-0.02
572.081	-0.02
572.273	-0.04
572.465	0.01
572.658	0
572.85	-0.01
573.042	-0.02
573.234	-0.01
573.426	0
573.618	-0.02
573.81	-0.01
574.002	0.01
574.194	0.06
574.386	-0.03
574.578	-0.07
574.77	-0.03
574.962	-0.01
575.154	-0.05
575.346	-0.02
575.538	0.02
575.729	-0.03
575.921	-0.03
576.113	-0
576.305	0.01
576.497	-0.01
576.689	-0.01
576.88	-0.03
577.072	0.02
577.264	0.01
577.456	-0.01
577.647	-0.08
577.839	0
578.031	0.04
578.223	-0.04
578.414	-0.05
578.606	0
578.798	-0
578.989	-0.01
579.181	-0.01
579.372	-0.02
579.564	-0.01
579.755	-0.02
579.947	0.01
580.139	0.02
580.33	-0.05
580.522	-0.03
580.713	-0.07
580.905	0.01
581.096	0
581.287	0
581.479	-0.01
581.67	0.01
581.862	-0.02
582.053	-0.02
582.244	-0.06
582.436	-0.01
582.627	0.01
582.818	-0
583.01	-0.03
583.201	0.02
583.392	0.01
583.583	-0
583.775	-0.02
583.966	-0.03
584.157	-0.03
584.348	-0.01
584.54	-0.04
584.731	0.03
584.922	0.02
585.113	-0.05
585.304	0.02
585.495	0.01
585.686	-0.01
585.877	0
586.068	0.01
586.259	-0.01
586.45	-0.02
586.641	-0.04
586.832	-0.07
587.023	0.02
587.214	-0.01
587.405	-0.01
587.596	-0.02
587.787	-0.01
587.978	0.02
588.169	-0.02
588.36	-0.03
588.551	0.02
588.742	-0.03
588.932	0.01
589.123	0
589.314	0.05
589.505	0.01
589.696	0.01
589.886	-0.05
590.077	-0.04
590.268	-0.02
590.458	-0.04
590.649	-0.04
590.84	0.01
591.03	-0.01
591.221	-0.05
591.412	-0.06
591.602	0.01
591.793	0.03
591.984	-0.05
592.174	0
592.365	0.06
592.555	-0.03
592.746	0.01
592.936	0.02
593.127	0.02
593.317	0.02
593.508	-0.05
593.698	0
593.889	-0
594.079	0
594.269	-0.04
594.46	-0.01
594.65	-0.04
594.84	-0.02
595.031	-0.03
595.221	-0.01
595.411	-0.06
595.602	0.03
595.792	-0.01
595.982	-0.01
596.172	0.06
596.363	0.01
596.553	0.02
596.743	-0.03
596.933	-0.03
597.123	0.02
597.314	-0.03
597.504	-0.04
597.694	0.04
597.884	0.04
598.074	-0.02
598.264	-0.06
598.454	0.02
598.644	-0.03
598.834	0
599.024	-0.07
599.214	-0.01
599.404	0.03
599.594	-0.04
599.784	-0.03
599.974	0.04
600.164	0.01
600.354	-0.05
600.544	-0.05
600.734	0.02
600.924	0.03
601.114	-0.02
601.303	-0.02
601.493	0.01
601.683	-0.01
601.873	0.01
602.063	-0.05
602.252	0.03
602.442	-0.06
602.632	-0.03
602.821	-0.04
603.011	0.03
603.201	-0.02
603.39	-0.05
603.58	-0.04
603.77	0
603.959	0.03
604.149	-0.02
604.339	0.01
604.528	0.02
604.718	0
604.907	-0.02
605.097	-0.03
605.286	0.04
605.476	-0.02
605.665	0.01
605.855	-0.03
606.044	-0.02
606.234	0.02
606.423	-0
606.612	-0.07
606.802	-0
606.991	0
607.181	-0.01
607.37	-0.06
607.559	-0
607.749	-0.04
607.938	0
608.127	-0.02
608.316	-0.01
608.506	-0
608.695	-0.01
608.884	-0.03
609.073	-0.02
609.263	0.01
609.452	0
609.641	-0.01
609.83	-0.05
610.019	-0.04
610.208	-0.03
610.397	-0.02
610.586	-0
610.775	-0.04
610.965	-0.03
611.154	-0.04
611.343	-0
611.532	0
611.721	-0.04
611.91	-0.04
612.099	0
612.287	-0.02
612.476	-0.03
612.665	-0.01
612.854	-0.01
613.043	0.04
613.232	-0.01
613.421	-0.08
613.61	0.02
613.798	-0.06
613.987	0.02
614.176	0.01
614.365	0.01
614.554	0
614.742	-0
614.931	-0.02
615.12	0.03
615.309	0
615.497	-0
615.686	-0.05
615.875	0.01
616.063	-0.04
616.252	-0.03
616.44	-0.02
616.629	-0.02
616.818	0.01
617.006	-0.01
617.195	-0.01
617.383	0
617.572	0.01
617.76	-0.01
617.949	0
618.137	0.01
618.326	0.01
618.514	-0.03
618.703	-0.04
618.891	0.03
619.079	-0.06
619.268	0.02
619.456	-0.02
619.644	0.05
619.833	-0.02
620.021	-0.05
620.209	-0.06
620.398	0.01
620.586	-0
620.774	0.02
620.962	-0.03
621.151	0.06
621.339	-0.01
621.527	-0.04
621.715	-0.04
621.903	-0.02
622.092	-0.06
622.28	0.02
622.468	-0.03
622.656	-0
622.844	0.01
623.032	-0.03
623.22	-0.08
623.408	0.05
623.596	0
623.784	0.01
623.972	-0.02
624.16	-0.01
624.348	0.06
624.536	-0.01
624.724	-0.02
624.912	0.02
625.1	0.06
625.288	-0.04
625.476	-0.01
625.664	0.02
625.851	-0.04
626.039	-0.02
626.227	-0.02
626.415	-0.02
626.603	-0.08
626.79	-0.01
626.978	-0.03
627.166	0.03
627.354	-0.01
627.541	-0.02
627.729	-0.08
627.917	0.02
628.104	0.04
628.292	0.01
628.48	-0.01
628.667	0.02
628.855	0.04
629.042	0
629.23	-0.04
629.418	-0.01
629.605	-0.02
629.793	-0.03
629.98	-0.04
630.168	-0.02
630.355	0.01
630.543	0.02
630.73	-0.02
630.917	0.04
631.105	0.07
631.292	-0.02
631.48	-0.01
631.667	0.06
631.854	0
632.042	-0.03
632.229	-0.05
632.416	0
632.604	-0.03
632.791	-0.04
632.978	0.03
633.165	0.04
633.353	0.07
633.54	0.07
633.727	-0.04
633.914	-0.04
634.101	-0.07
634.289	0.08
634.476	-0.01
634.663	-0.06
634.85	0.03
635.037	-0
635.224	-0.04
635.411	0.05
635.598	0.02
635.785	0.01
635.972	-0
636.159	0.04
636.346	-0.02
636.533	0.02
636.72	-0.01
636.907	-0.02
637.094	0.03
637.281	-0
637.468	0.01
637.655	0.03
637.842	0.01
638.029	-0.04
638.215	0.04
638.402	0.03
638.589	-0.01
638.776	0
638.963	0.01
639.149	0.05
639.336	0.09
639.523	0.01
639.709	0.01
639.896	-0
640.083	0.05
640.27	0.05
640.456	0.01
640.643	0.03
640.829	-0.01
641.016	-0.01
641.203	-0.06
641.389	0.05
641.576	0.02
641.762	0.01
641.949	-0.01
642.135	0.04
642.322	0.02
642.508	-0.05
642.695	0.02
642.881	0.02
643.068	0.01
643.254	0.02
643.441	0.05
643.627	0.02
643.813	0.02
644	0.07
644.186	0.01
644.372	0.01
644.559	0.07
644.745	0.04
644.931	-0.01
645.118	0.03
645.304	0.03
645.49	0.01
645.676	0.04
645.862	0.05
646.049	0.07
646.235	0.02
646.421	0.1
646.607	0.09
646.793	0.03
646.979	0.02
647.165	0.06
647.352	0.03
647.538	0.09
647.724	0
647.91	0.07
648.096	0.05
648.282	0.12
648.468	0.04
648.654	0.06
648.84	0.11
649.026	0.07
649.212	0.04
649.397	0.01
649.583	0.03
649.769	0.06
649.955	0.06
650.141	0.08
650.327	0.13
650.513	0.02
650.698	0.09
650.884	-0
651.07	0.07
651.256	0.08
651.442	0.07
651.627	0.07
651.813	0.07
651.999	0.07
652.184	0.05
652.37	0.06
652.556	0.06
652.741	0.12
652.927	-0.01
653.113	0.06
653.298	0.1
653.484	0.06
653.669	0.01
653.855	0.11
654.04	0.09
654.226	0.11
654.412	0.06
654.597	0.04
654.782	0.08
654.968	0.09
655.153	0.1
655.339	0.08
655.524	0.04
655.71	0.11
655.895	0.07
656.08	0.08
656.266	0.14
656.451	0.13
656.636	0.08
656.822	0.1
657.007	0.06
657.192	0.07
657.378	0.07
657.563	0.12
657.748	0.11
657.933	0.11
658.118	0.11
658.304	0.07
658.489	0.13
658.674	0.11
658.859	0.06
659.044	0.13
659.229	0.13
659.414	0.09
659.599	0.07
659.785	0.05
659.97	0.1
660.155	0.1
660.34	0.08
660.525	0.13
660.71	0.08
660.895	0.13
661.08	0.07
661.264	0.04
661.449	0.11
661.634	0.12
661.819	0.09
662.004	0.12
662.189	0.02
662.374	0.07
662.559	0
662.743	0.03
662.928	0.07
663.113	0.06
663.298	0
663.483	0.04
663.667	0.07
663.852	0.03
664.037	0.11
664.221	0.03
664.406	0.07
664.591	0.08
664.775	0.06
664.96	0.05
665.145	0.05
665.329	0.09
665.514	-0.02
665.698	0.05
665.883	0.01
666.068	0.06
666.252	0.05
666.437	-0
666.621	0.01
666.806	0.05
666.99	0.01
667.174	-0
667.359	0.06
667.543	0.03
667.728	0.02
667.912	-0.04
668.096	0.05
668.281	-0.02
668.465	-0
668.649	-0.03
668.834	-0.02
669.018	-0.01
669.202	0.03
669.387	-0.04
669.571	0.04
669.755	-0.01
669.939	-0
670.124	0.01
670.308	0.06
670.492	0.04
670.676	0.01
670.86	0
671.044	-0.02
671.228	0.06
671.413	-0
671.597	-0.01
671.781	-0.06
671.965	0
672.149	-0.01
672.333	-0.01
672.517	-0.03
672.701	-0
672.885	-0.02
673.069	-0.04
673.253	0.03
673.437	-0
673.621	-0.05
673.804	0.01
673.988	0.02
674.172	0.03
674.356	-0.09
674.54	-0
674.724	0.07
674.908	-0
675.091	0.04
675.275	-0.01
675.459	0.03
675.643	-0.01
675.826	0
676.01	-0.02
676.194	-0.03
676.377	0.02
676.561	0.08
676.745	0.04
676.928	0
677.112	0.08
677.296	-0.04
677.479	-0.03
677.663	-0.01
677.846	0.02
678.03	-0.01
678.213	-0.05
678.397	0.01
678.58	-0.01
678.764	-0.03
678.947	-0.02
679.131	0
679.314	0.06
679.498	-0.02
679.681	-0.03
679.865	0.02
680.048	-0.01
680.231	0.01
680.415	-0.04
680.598	-0.01
680.781	-0.05
680.965	-0.02
681.148	0
681.331	-0.01
681.514	-0.05
681.698	-0.04
681.881	0
682.064	0.02
682.247	-0.01
682.43	-0.1
682.614	0.02
682.797	0.04
682.98	0.04
683.163	-0.05
683.346	0.01
683.529	-0.01
683.712	-0.08
683.895	0.03
684.078	-0.07
684.261	0
684.444	-0.04
684.627	-0.01
684.81	-0.04
684.993	-0.03
685.176	0.03
685.359	-0.08
685.542	-0
685.725	0.05
685.908	0.01
686.091	-0.03
686.274	0.02
686.457	0.02
686.639	0.01
686.822	-0
687.005	-0.02
687.188	0.02
687.371	0.05
687.553	0
687.736	0.01
687.919	0.05
688.102	0.05
688.284	-0.02
688.467	0.03
688.65	-0.03
688.832	-0.05
689.015	-0.01
689.197	-0.04
689.38	0.08
689.563	0.13
689.745	-0.05
689.928	-0.04
690.11	0
690.293	0.01
690.475	-0.07
690.658	0.05
690.84	0.02
691.023	-0.03
691.205	-0.01
691.388	-0.01
691.57	0.07
691.752	-0
691.935	-0.11
692.117	0.01
692.3	0.02
692.482	-0.02
692.664	-0.03
692.847	0.02
693.029	0.07
693.211	0.01
693.393	-0.01
693.576	-0
693.758	0.02
693.94	-0.03
694.122	-0.03
694.304	-0.02
694.487	-0.02
694.669	0.09
694.851	-0.07
695.033	-0.01
695.215	-0.03
695.397	-0.06
695.579	0.02
695.761	-0.03
695.943	-0.09
696.125	0.07
696.308	0.05
696.49	-0.16
696.671	0.06
696.853	0.05
697.035	0.09
697.217	-0.01
697.399	0.07
697.581	-0.06
697.763	0.01
697.945	-0.03
698.127	-0
698.309	0.06
698.491	0
698.672	0.02
698.854	0.01
699.036	0.11
699.218	-0.02
699.399	0.08
699.581	0.05
699.763	-0.04
699.945	-0
700.126	-0.03
700.308	0.02
700.49	-0.03
700.671	-0.08
700.853	-0.02
701.035	-0.04
701.216	0
701.398	-0.04
701.579	-0.08
701.761	0.04
701.943	-0.07
702.124	-0.05
702.306	-0.01
702.487	0.13
702.669	0.01
702.85	-0.07
703.031	-0.08
703.213	0.12
703.394	0.02
703.576	-0.07
703.757	0.09
703.938	0.03
704.12	0.16
704.301	-0.03
704.483	-0.05
704.664	0.03
704.845	0.1
705.026	0.07
705.208	0
705.389	-0
705.57	0.02
705.751	0.01
705.933	-0.01
706.114	0.09
706.295	0.02
706.476	-0.05
706.657	0.07
706.838	0.06
707.02	0.02
707.201	-0.01
707.382	-0.03
707.563	0.08
707.744	-0.01
707.925	-0.04
708.106	-0.07
708.287	0.06
708.468	0.06
708.649	0.02
708.83	0.02
709.011	-0
709.192	0.07
709.373	-0.08
709.554	-0
709.734	0.07
709.915	0.04
710.096	0
710.277	-0.1
710.458	0
710.639	0.03
710.819	-0.06
711	0.03
711.181	0.08
711.362	0.06
711.542	0.04
711.723	-0.01
711.904	0.04
712.085	0.04
712.265	0
712.446	-0.07
712.627	-0.03
712.807	-0.04
712.988	0.01
713.168	-0.06
713.349	0.08
713.53	-0.09
713.71	-0.03
713.891	-0.05
714.071	0.03
714.252	0.05
714.432	-0.03
714.613	-0.13
714.793	0.06
714.974	0.15
715.154	0.13
715.334	0.13
715.515	0.14
715.695	-0
715.876	0.03
716.056	0.03
716.236	0.05
716.417	-0.01
716.597	0.04
716.777	0.12
716.957	-0.04
717.138	-0.02
717.318	0.01
717.498	-0.05
717.678	-0.01
717.859	0.03
718.039	-0.09
718.219	0.07
718.399	0.1
718.579	-0.05
718.759	-0
718.939	0.03
719.12	0.06
719.3	0.08
719.48	-0.06
719.66	-0.1
719.84	0.07
720.02	0.02
720.2	-0.05
720.38	0.04
720.56	0.15
720.74	0.09
720.92	0.05
721.1	0.12
721.279	0.09
721.459	0
721.639	-0.07
721.819	0.06
721.999	0.04
722.179	0.05
722.359	0.03
722.538	0.03
722.718	0.12
722.898	0.08
723.078	0.05
723.257	0.01
723.437	0.04
723.617	0.04
723.797	-0
723.976	0.02
724.156	0.07
724.336	0.06
724.515	0.24
724.695	-0.05
724.874	0.09
725.054	0.1
725.234	0.08
725.413	0.1
725.593	-0.01
725.772	-0.01
725.952	-0.01
726.131	-0.05
726.311	-0.01
726.49	0.05
726.67	-0
726.849	0.02
727.028	0.05
727.208	0.02
727.387	0.07
727.567	0.01
727.746	0.01
727.925	0
728.105	-0.04
728.284	0
728.463	-0.02
728.643	0.07
728.822	-0.07
729.001	-0.03
729.18	0.02
729.359	0.04
729.539	0.03
729.718	0.08
729.897	0.09
730.076	0.06
730.255	0.05
730.434	0.08
730.614	0.14
730.793	0.15
730.972	-0
731.151	-0.02
731.33	0.1
731.509	0.19
731.688	0.1
731.867	0.04
732.046	-0.12
732.225	0.19
732.404	0.01
732.583	-0.04
732.762	0.02
732.941	0.15
733.12	0.15
733.298	0.13
733.477	0.11
733.656	0.12
733.835	-0.02
734.014	0.15
734.193	0.17
734.371	0.15
734.55	0.16
734.729	0.01
734.908	0.16
735.086	0.12
735.265	0.13
735.444	-0.03
735.623	-0.01
735.801	-0.01
735.98	0.08
736.159	0.03
736.337	0.19
736.516	0.09
736.694	0.01
736.873	-0.03
737.052	0.14
737.23	0.22
737.409	0.09
737.587	0.19
737.766	0.04
737.944	-0
738.123	0.05
738.301	0.12
738.479	-0
738.658	0
738.836	-0.04
739.015	0.1
739.193	0.23
739.371	-0.03
739.55	0.04
739.728	0.02
739.906	0.18
740.085	0.32
740.263	0.02
740.441	-0.14
740.62	0.22
740.798	0.11
740.976	-0.03
741.154	0.07
741.332	0.18
741.511	0
741.689	0.07
741.867	0.08
742.045	0.05
742.223	-0.03
742.401	-0.01
742.579	-0.05
742.757	0.11
742.935	-0.05
743.114	-0.09
743.292	-0.01
743.47	0.02
743.648	0.12
743.826	-0.14
744.004	0.11
744.181	0.07
744.359	-0.03
744.537	0.06
744.715	0.07
744.893	0.11
745.071	0.01
745.249	-0.09
745.427	0.01
745.605	0.1
745.782	0.03
745.96	-0.07
746.138	0.02
746.316	0.14
746.493	0.04
746.671	0.04
746.849	-0.06
747.027	0.14
747.204	-0.12
747.382	0.1
747.56	-0.12
747.737	0.04
747.915	-0.04
748.093	0
748.27	0.01
748.448	-0.01
748.625	-0.06
748.803	-0.1
748.98	-0.03
749.158	0.08
749.335	0.11
749.513	-0
749.69	0.04
749.868	-0
750.045	0.12
750.223	-0.02
750.4	-0.21
750.578	0.13
750.755	0.03
750.932	-0.16
751.11	0.13
751.287	-0.22
751.464	0.06
751.642	-0.02
751.819	0.07
751.996	-0.05
752.173	0
752.351	-0.08
752.528	0.02
752.705	-0.1
752.882	0.06
753.06	-0.1
753.237	0.07
753.414	0.16
753.591	0.21
753.768	-0
753.945	-0.05
754.122	-0.02
754.299	0.03
754.476	-0.07
754.654	-0.02
754.831	0.15
755.008	-0.01
755.185	-0.08
755.362	-0.11
755.539	0.1
755.716	-0.17
755.892	-0.03
756.069	-0.01
756.246	0.04
756.423	-0.02
756.6	0.12
756.777	-0.03
756.954	0.14
757.131	-0.04
757.307	-0.16
757.484	-0.16
757.661	0.08
757.838	0.14
758.015	-0.18
758.191	-0.01
758.368	0.1
758.545	0.18
758.721	-0.01
758.898	-0.02
759.075	0.03
759.251	-0.02
759.428	0.03
759.605	-0.08
759.781	-0.06
759.958	0.03
760.134	-0
760.311	-0.08
760.488	0.16
760.664	0.16
760.841	-0.06
761.017	0.04
761.194	0.05
761.37	0.1
761.547	0.07
761.723	-0.02
761.899	0.06
762.076	0.01
762.252	-0.12
762.429	-0.13
762.605	0.04
762.781	0.03
762.958	0.05
763.134	0.09
763.31	-0.08
763.486	0.09
763.663	-0.2
763.839	0.11
764.015	-0.21
764.191	-0.03
764.368	-0.09
764.544	-0.13
764.72	0.06
764.896	0.13
765.072	0.09
765.248	-0.15
765.425	0.08
765.601	-0.08
765.777	-0.08
765.953	-0.21
766.129	-0.14
766.305	-0.05
766.481	-0
766.657	-0.05
766.833	0.2
767.009	-0.1
767.185	-0.1
767.361	-0.04
767.537	-0.23
767.713	0.06
767.889	-0
768.065	-0.11
768.24	0.2
768.416	0.07
768.592	-0.04
768.768	-0.17
768.944	-0.03
769.12	-0.13
769.295	-0.13
769.471	-0.12
769.647	-0.05
769.823	0.13
769.998	-0.2
770.174	-0.14
770.35	0.33
770.525	0.35
770.701	-0.08
770.877	-0.05
771.052	-0.12
771.228	0.06
771.403	0.06
771.579	-0.03
771.755	0.18
771.93	-0.15
772.106	-0.33
772.281	-0.25
772.457	-0.01
772.632	0.1
772.808	-0.05
772.983	-0.04
773.159	-0.2
773.334	0.07
773.509	-0.08
773.685	-0.06
773.86	0.32
774.036	0.18
774.211	-0.12
774.386	-0.17
774.562	0.04
774.737	-0.1
774.912	-0.19
775.087	-0.01
775.263	0.04
775.438	0.02
775.613	-0.22
775.788	-0.01
775.964	0.08
776.139	0.33
776.314	-0.29
776.489	0
776.664	-0.06
776.839	-0.08
777.014	0.14
777.19	0.09
777.365	0.32
777.54	0.18
777.715	0.01
777.89	0
778.065	-0.11
778.24	0.12
778.415	0.06
778.59	-0.08
778.765	-0.04
778.94	0.02
779.115	0.06
779.289	-0.07
779.464	0.03
779.639	0.06
779.814	-0.25
779.989	-0.29
780.164	0.27
780.339	0.03
780.513	-0.14
780.688	-0.19
780.863	-0.07
781.038	0.26
781.212	-0.15
781.387	0.07
781.562	0.12
781.737	0.1
781.911	0.16
782.086	-0.17
782.261	0.03
782.435	0.26
782.61	-0.15
782.784	-0.04
782.959	0.26
783.134	-0.11
783.308	-0.13
783.483	-0.14
783.657	0.28
783.832	0.13
784.006	-0.35
784.181	0.07
784.355	0.37
784.53	0.17
784.704	-0.14
784.878	0.15
785.053	0.07
785.227	-0.07
785.402	0.09
785.576	-0.39
785.75	-0.14
785.925	-0.05
786.099	0.06
786.273	0.01
786.448	0.13
786.622	0.07
786.796	-0.03
786.97	0.17
787.145	0.6
787.319	-0.25
787.493	-0.13
787.667	-0.16
787.841	-0.03
788.015	0.26
788.19	-0.07
788.364	0.05
788.538	0.11
788.712	0.32
788.886	-0.07
789.06	0.1
789.234	0.15
789.408	-0.12
789.582	-0.14
789.756	0.05
789.93	-0.15
790.104	-0.14
790.278	-0.11
790.452	-0.16
790.626	0.09
790.8	-0.07
790.973	0.15
791.147	0.15
791.321	0.29
791.495	0.03
791.669	-0.03
791.843	0.02
792.016	0.2
792.19	0.34
792.364	-0.08
792.538	0.35
792.711	0.09
792.885	-0.32
793.059	-0.26
793.233	-0.57
793.406	0.24
793.58	0
793.754	0.04
793.927	0.1
794.101	0.19
794.274	0.12
794.448	-0.06
794.622	-0.17
794.795	0.53
794.969	-0.3
795.142	0.41
795.316	0.02
795.489	-0.25
795.663	0.27
795.836	0.05
796.009	-0.31
796.183	0.24
796.356	-0.08
796.53	0.07
796.703	-0.2
796.876	0.37
797.05	0.13
797.223	0.09
797.396	0.12
797.57	-0.18
797.743	0.29
797.916	0.11
798.09	-0.05
798.263	0.3
798.436	-0.06
798.609	-0.08
798.782	-0.2
798.956	0.04
799.129	-0.11
799.302	-0.14
799.475	-0.13
799.648	-0.21
799.821	-0.3
799.994	-0.15
800.167	-0.46
800.34	-0.12
800.514	-0.06
800.687	-0.2
800.86	-0.08
801.033	-0.08
801.206	0.27
801.379	-0.27
801.551	0.2
801.724	0.15
801.897	0.39
802.07	0.03
802.243	-0.49
802.416	-0.17
802.589	-0.28
802.762	0.29
802.935	0.21
803.107	0.04
803.28	0.13
803.453	0.14
803.626	-0.36
803.798	0.17
803.971	-0.17
804.144	0.32
804.317	0.08
804.489	0.2
804.662	0.42
804.835	-0.01
805.007	-0.04
805.18	0.49
805.353	0.05
805.525	-0.35
805.698	-0.3
805.87	0
806.043	0.26
806.215	-0.19
806.388	-0.26
806.56	0.52
806.733	0.48
806.905	0.32
807.078	-0.37
807.25	-0.24
807.423	0.08
807.595	0.21
807.768	0.17
807.94	0.55
808.112	-0.19
808.285	0.15
808.457	-0.22
808.629	0.22
808.802	0.43
808.974	-0.06
809.146	-0.29
809.318	-0.43
809.491	-0.12
809.663	0.48
809.835	-0.24
810.007	0.06
810.18	-0.02
810.352	-0.58
810.524	-0.32
810.696	0.07
810.868	0.52
811.04	-0.06
811.212	0.17
811.384	-0.13
811.556	-0.07
811.728	0.01
811.901	0.64
812.073	0.03
812.245	0.04
812.417	-0.03
812.589	-0.43
812.76	0.2
812.932	0.31
813.104	0.15
813.276	-0.44
813.448	0.21
813.62	-0.35
813.792	0.12
813.964	0
814.136	0.33
814.307	-0.28
814.479	-0.07
814.651	-0.47
814.823	0.61
814.995	0.03
815.166	0.14
815.338	-0.22
815.51	-0.52
815.681	1.13
815.853	0.28
816.025	-0.11
816.196	0.58
816.368	-0.16
816.54	-0.6
816.711	-0.15
816.883	0.22
817.054	0.99
817.226	-0.51
817.398	0.08
817.569	-0.19
817.741	-0.24
817.912	0.04
818.084	-0.39
818.255	0.19
818.426	-0.54
818.598	-0.01
818.769	-0.28
818.941	0.06
819.112	0.64
819.283	-0.27
819.455	-0.31
819.626	-0.12
819.798	0.73
819.969	0.13
820.14	0.21
820.311	-0.09
820.483	-0.02
820.654	0.38
820.825	0.18
820.996	-0.2
821.168	-0.5
821.339	-0.35
821.51	-0.47
821.681	0.15
821.852	0.37
822.023	-0.19
822.195	-1.1
822.366	0.09
822.537	-0.04
822.708	-0.55
822.879	-0.03
823.05	0.58
823.221	-0.58
823.392	0.38
823.563	-0.32
823.734	-0.03
823.905	-0.13
824.076	0.2
824.247	-0.79
824.418	0.09
824.589	0.79
824.759	-0.59
824.93	-0.28
825.101	-0.94
825.272	0.64
825.443	0.43
825.614	0.35
825.784	-0.58
825.955	0.96
826.126	0.53
826.297	-0.24
826.467	1.01
826.638	0.85
826.809	-0.54
826.98	0.87
827.15	-0.31
827.321	-0.71
827.492	0.88
827.662	-0.2
827.833	0.91
828.003	0.31
828.174	-0.45
828.345	-0.78
828.515	0.27
828.686	0.3
828.856	0.03
829.027	0.63
829.197	0.14
829.368	-0.04
829.538	-0.59
829.709	-0.33
829.879	0.15
830.049	-0.09
830.22	-0.48
830.39	0.15
830.56	0.33
830.731	-0.11
830.901	-0.07
831.072	-0.06
831.242	0.57
831.412	-0.38
831.582	-0.32
831.753	-0.73
831.923	0.44
832.093	0.16
832.263	-0.25
832.434	-0.8
832.604	0.26
832.774	0.52
832.944	-0.02
833.114	-0.11
833.284	-0.24
833.454	-0.99
833.624	-0.1
833.795	-0.75
833.965	0.35
834.135	1.14
834.305	-1.59
834.475	-0.64
834.645	-0.16
834.815	0.47
834.985	-0.57
835.155	-0.34
835.325	0.54
835.494	0.6
835.664	-0.43
835.834	-1.19
836.004	-0.41
836.174	0.02
836.344	0.06
836.514	-0.59
836.684	-0.32
836.853	-0.42
837.023	0.2
837.193	-0.81
837.363	0.63
837.532	0.67
837.702	-0.4
837.872	-0.47
838.041	0.47
838.211	0.82
838.381	-0.6
838.55	0.26
838.72	1.89
838.89	1.26
839.059	-0.46
839.229	-0.9
839.398	1
839.568	0.11
839.738	-1.12
839.907	0.83
840.077	-0
840.246	0.15
840.416	-0.57
840.585	-0.48
840.755	0.91
840.924	-0.21
841.093	-0.78
841.263	0.12
841.432	-0.2
841.602	-1.04
841.771	-0.17
841.94	0.84
842.11	1.89
842.279	1.2
842.448	-0.69
842.617	-0.27
842.787	0.43
842.956	-0.84
843.125	0.81
843.294	-0.14
843.464	1.01
843.633	-1.19
843.802	-1.2
843.971	0.41
844.14	0.31
844.309	1.22
844.479	-0.77
844.648	-0.68
844.817	-0.21
844.986	-0.39
845.155	-0.82
845.324	0.13
845.493	-0.1
845.662	-0.67
845.831	0.18
846	-0.66
846.169	-0.45
846.338	1.18
846.507	0.37
846.676	-0.06
846.844	-0.14
847.013	0.39
847.182	0.05
847.351	-1.01
847.52	0.07
847.689	0.38
847.858	0.32
848.026	-0.43
848.195	-0.42
848.364	-0.32
848.533	-0.3
848.701	-1.2
848.87	0.16
849.039	2.44
849.207	1.32
849.376	0.6
849.545	1.44
849.713	-1.28
849.882	-1
850.051	-0.17
850.219	-0.04
850.388	0.38
850.556	-0.67
850.725	0.25
850.893	0.18
851.062	-0.46
851.23	0.68
851.399	-2.43
851.567	-0.25
851.736	-0.21
851.904	-0.24
852.073	-0.14
852.241	0.51
852.41	0.56
852.578	0.31
852.746	-0.8
852.915	0.11
853.083	-0.19
853.251	-0.8
853.42	0.16
853.588	-0.07
853.756	0.71
853.924	0.51
854.093	-0.82
854.261	0.08
854.429	-1.5
854.597	0.27
854.765	-1.77
854.934	1.21
855.102	0.08
855.27	0.38
855.438	-0.22
855.606	1.79
855.774	1.34
855.942	-1.97
856.11	-1.55
856.278	0.34
856.446	0.42
856.614	-1
856.782	-1.07
856.95	1.47
857.118	1.63
857.286	0.3
857.454	-1.03
857.622	0.48
857.79	0.98
857.958	-1.57
858.126	-0.36
858.294	-0.09
858.462	0.68
858.629	-1.3
858.797	-1.53
858.965	0.87
859.133	0.54
859.301	-1.66
859.468	0.74
859.636	-0.33
859.804	0.43
859.971	1.55
860.139	-1.27
860.307	1.62
860.474	0.04
860.642	-0.29
860.81	-0.37
860.977	0.24
861.145	0.76
861.313	-0.41
861.48	-0.87
861.648	0.64
861.815	-0.35
861.983	-1.24
862.15	0.26
862.318	1.89
862.485	0.99
862.653	-0.87
862.82	-0.06
862.988	2.22
863.155	0.7
863.322	-1.21
863.49	-0.43
863.657	-0.24
863.824	0.68
863.992	0.13
864.159	0.9
864.326	1.73
864.494	-0.71
864.661	2.02
864.828	-1.48
864.996	1.08
865.163	0.47
865.33	-1.27
865.497	-3.5
865.664	-0.71
865.832	-2.73
865.999	0.08
866.166	-1.95
866.333	-1.05
866.5	-0.95
866.667	-0.28
866.834	-0.01
867.001	2.85
867.168	-2.42
867.335	-0.02
867.502	-1.85
867.669	0.2
867.836	2.54
868.003	0.39
868.17	0.59
868.337	-0.73
868.504	1.21
868.671	-2.07
868.838	-0.29
869.005	-0.63
869.172	1.28
869.339	0.08
869.505	-0.26
869.672	-0.66
869.839	3.15
870.006	0.01
870.173	-2.03
870.339	0.27
870.506	1.02
870.673	-1.87
870.84	1.36
871.006	-0.77
871.173	-1.62
871.34	-0.41
871.506	-0.52
871.673	0.22
871.839	-0.91
872.006	-0.06
872.173	-0.62
872.339	-0.85
872.506	2.75
872.672	-0.54
872.839	-2.11
873.005	-0.03
873.172	3.27
873.338	1.01
873.505	0.76
873.671	0.73
873.838	0.5
874.004	-3
874.171	-1.36
874.337	0.62
874.503	1.23
874.67	0.61
874.836	-1.15
875.002	1.01
875.169	0.28
875.335	0.16
875.501	-0.38
875.668	0.13
875.834	-0.72
876	-0.39
876.166	2.04
876.332	1.21
876.499	3.49
876.665	-0.14
876.831	-0.01
876.997	4.71
877.163	1.46
877.329	-0.16
877.495	1.09
877.662	1.21
877.828	2.19
877.994	-0.75
878.16	-2.65
878.326	-1.79
878.492	0.06
878.658	-0.86
878.824	0.21
878.99	0.68
879.156	-2.04
879.322	0.66
879.487	-0.44
879.653	-0.44
879.819	-0.76
879.985	-1.48
880.151	0.96
880.317	0.27
880.483	-0.07
880.648	1.54
880.814	-2.48
880.98	-0.41
881.146	-3.18
881.312	-0.69
881.477	-1.05
881.643	0.34
881.809	0.68
881.974	1.1
882.14	-2.74
882.306	-1.03
882.471	2.57
882.637	-1.85
882.803	0.66
882.968	3.19
883.134	0.94
883.299	-1.08
883.465	0.72
883.63	1.8
883.796	0.32
883.961	0.67
884.127	0.97
884.292	-3.84
884.458	-2.41
884.623	-2.41
