Data from Apollo_Calib_20240827__AbsoluteIrradiance__527__07-56-01-960.txt Node

Date: Wed Aug 28 07:56:01 BST 2024
User: biology
Spectrometer: FLMT08252
Trigger mode: 0
Integration Time (sec): 5.000000E-1
Scans to average: 5
Electric dark correction enabled: true
Nonlinearity correction enabled: false
Boxcar width: 0
XAxis mode: Wavelengths
Number of Pixels in Spectrum: 3648
>>>>>Begin Spectral Data<<<<<
179.588	-0
179.809	-0
180.03	-0
180.251	-0
180.473	-0
180.694	0
180.915	0
181.136	-0
181.357	0
181.578	-0
181.799	-0
182.02	-0
182.241	0
182.462	-0
182.683	0
182.904	-0
183.125	0
183.346	0
183.567	-0
183.788	-0
184.009	-0
184.23	0
184.451	0
184.672	-0
184.892	-0
185.113	0
185.334	0
185.555	-0
185.776	-0
185.996	-0
186.217	0
186.438	0
186.659	-0
186.879	0
187.1	-0
187.321	-0
187.541	-0
187.762	-0
187.983	-0
188.203	0
188.424	-0
188.644	-0
188.865	0
189.086	-0
189.306	-0
189.527	-0
189.747	-0
189.968	-0
190.188	0
190.409	-0
190.629	0
190.849	-0
191.07	-0
191.29	0
191.511	0
191.731	-0
191.951	-0
192.172	-0
192.392	-0
192.612	-0
192.833	0
193.053	0
193.273	0
193.493	-0
193.714	-0
193.934	0
194.154	0
194.374	-0
194.594	-0
194.815	-0
195.035	0
195.255	-0
195.475	-0
195.695	0
195.915	0
196.135	-0
196.355	0
196.575	0
196.795	0
197.015	-0
197.235	-0
197.455	-0
197.675	0
197.895	-0
198.115	-0
198.335	0
198.555	-0
198.775	0
198.995	-0
199.214	0
199.434	-0
199.654	-0
199.874	0
200.094	0.22
200.313	0.06
200.533	-0.44
200.753	-1.17
200.973	0.82
201.192	0.34
201.412	-0.88
201.632	-0.53
201.851	1
202.071	-0.42
202.291	0.19
202.51	-1.08
202.73	0.79
202.95	0
203.169	-0.92
203.389	-0.24
203.608	0.29
203.828	-0.58
204.047	0.2
204.267	0.43
204.486	-0.07
204.706	0.12
204.925	-0.09
205.145	-0.21
205.364	0.29
205.583	0.78
205.803	-0.45
206.022	-0.58
206.242	-0.08
206.461	-0.1
206.68	-0.51
206.9	0.31
207.119	0.19
207.338	0.31
207.557	-0.16
207.777	-0.24
207.996	0.05
208.215	0.48
208.434	-0.44
208.654	-0.46
208.873	0.05
209.092	0.39
209.311	-0.27
209.53	-0.29
209.749	0.02
209.968	-0.22
210.187	-0.04
210.407	-0.34
210.626	-0.27
210.845	0.33
211.064	-0.08
211.283	-0.12
211.502	0.35
211.721	-0.31
211.94	0.07
212.159	0.03
212.377	0.19
212.596	0.33
212.815	0.02
213.034	0.18
213.253	0.29
213.472	0.14
213.691	-0.34
213.91	-0.41
214.128	-0.27
214.347	0.13
214.566	-0.43
214.785	-0.36
215.003	-0.06
215.222	-0.06
215.441	-0.16
215.66	-0.2
215.878	0
216.097	0.37
216.316	-0.41
216.534	-0.21
216.753	-0.11
216.972	-0.08
217.19	-0.07
217.409	-0.07
217.627	-0.14
217.846	-0.11
218.064	-0.03
218.283	-0.18
218.501	0.29
218.72	0.25
218.938	-0.18
219.157	-0.03
219.375	0.12
219.594	-0.02
219.812	-0.25
220.031	-0.27
220.249	0.17
220.467	0.21
220.686	-0.06
220.904	-0.18
221.122	-0.12
221.341	0.37
221.559	0.17
221.777	-0.16
221.995	-0.05
222.214	0
222.432	-0.17
222.65	0.21
222.868	-0.09
223.086	0.06
223.305	0.09
223.523	-0.11
223.741	0.16
223.959	-0.07
224.177	-0.26
224.395	-0.04
224.613	0.1
224.831	0.08
225.049	-0.01
225.267	-0.21
225.485	0.14
225.703	-0.05
225.921	-0.04
226.139	0.06
226.357	0.17
226.575	-0.08
226.793	-0.19
227.011	0.57
227.229	0.06
227.447	0.23
227.665	-0.16
227.883	-0.17
228.1	0
228.318	0.06
228.536	-0.3
228.754	-0.2
228.972	0
229.189	0.18
229.407	-0.08
229.625	0.05
229.843	0.2
230.06	0.13
230.278	-0.16
230.496	0.09
230.713	0.03
230.931	0.14
231.149	-0.09
231.366	-0.23
231.584	-0.09
231.801	0.28
232.019	-0.03
232.236	-0.14
232.454	-0.04
232.671	-0.05
232.889	-0.04
233.106	-0.06
233.324	0
233.541	-0.02
233.759	0.02
233.976	-0.08
234.194	-0.1
234.411	-0.14
234.628	-0.11
234.846	-0.06
235.063	-0.03
235.28	-0.03
235.498	-0.07
235.715	-0.14
235.932	0.13
236.149	-0.01
236.367	-0.15
236.584	0.04
236.801	-0.08
237.018	0.07
237.236	0.05
237.453	-0.18
237.67	0.13
237.887	-0.02
238.104	-0.01
238.321	-0.12
238.538	-0.1
238.755	0.15
238.973	-0.17
239.19	0.06
239.407	0.07
239.624	-0.04
239.841	-0.18
240.058	-0.22
240.275	-0
240.492	0.01
240.709	-0.08
240.925	-0
241.142	-0.04
241.359	-0.2
241.576	-0.1
241.793	-0.01
242.01	-0.06
242.227	0.05
242.444	0.06
242.66	0.09
242.877	-0.03
243.094	-0.03
243.311	0.09
243.527	-0.04
243.744	0.03
243.961	0.05
244.178	-0.07
244.394	-0.07
244.611	-0.01
244.828	0.12
245.044	-0.02
245.261	-0.11
245.477	-0.01
245.694	-0.02
245.911	-0.03
246.127	0.05
246.344	0.1
246.56	0.06
246.777	-0.03
246.993	-0.01
247.21	0.03
247.426	-0
247.643	-0.08
247.859	-0.11
248.076	0.01
248.292	0.14
248.508	-0.03
248.725	0.01
248.941	0.04
249.157	0.12
249.374	-0.07
249.59	-0.05
249.806	0
250.023	-0.01
250.239	-0.04
250.455	-0.03
250.671	-0
250.888	0.04
251.104	0.05
251.32	-0.06
251.536	-0.06
251.752	0.01
251.969	-0.02
252.185	-0
252.401	0.19
252.617	0.04
252.833	-0.01
253.049	0.03
253.265	-0
253.481	0.04
253.697	0.01
253.913	-0.06
254.129	-0
254.345	0.07
254.561	-0.04
254.777	-0.02
254.993	0.06
255.209	0.02
255.425	-0.04
255.641	-0.08
255.857	0.06
256.073	-0.02
256.288	-0.1
256.504	-0.06
256.72	-0.04
256.936	0.12
257.152	-0.02
257.367	-0.08
257.583	0.03
257.799	0.01
258.015	-0.07
258.23	-0.04
258.446	0.13
258.662	-0
258.877	-0.03
259.093	-0.02
259.309	-0.04
259.524	0.07
259.74	-0.02
259.955	-0.14
260.171	0.01
260.387	-0.05
260.602	0.03
260.818	0.03
261.033	-0.1
261.249	-0.06
261.464	-0.08
261.68	-0.08
261.895	0.03
262.11	0.05
262.326	-0.01
262.541	-0.13
262.757	0.1
262.972	0.01
263.187	-0.03
263.403	0.02
263.618	0.01
263.833	-0.02
264.049	-0.05
264.264	0.02
264.479	0.03
264.694	0.17
264.91	-0.08
265.125	-0.07
265.34	0.03
265.555	0.11
265.77	-0.01
265.986	-0.04
266.201	-0.01
266.416	0.06
266.631	-0.02
266.846	-0.04
267.061	0.07
267.276	0.04
267.491	-0.1
267.706	0.02
267.921	-0.01
268.136	0.05
268.351	-0.01
268.566	-0.05
268.781	0.03
268.996	0.07
269.211	0.05
269.426	-0.12
269.641	-0.12
269.856	0.03
270.071	-0.04
270.285	-0.06
270.5	0.02
270.715	0.04
270.93	-0.04
271.145	0.05
271.359	0.03
271.574	-0.06
271.789	-0
272.004	-0.08
272.218	-0.04
272.433	0.03
272.648	-0.1
272.862	0.06
273.077	-0.02
273.292	-0.04
273.506	-0.05
273.721	0.01
273.936	0
274.15	0.06
274.365	-0
274.579	0.01
274.794	0.04
275.008	0.06
275.223	-0.07
275.437	0.01
275.652	0.02
275.866	0.07
276.081	0.02
276.295	0.03
276.509	0.01
276.724	-0.02
276.938	-0
277.153	0.05
277.367	-0.06
277.581	-0.06
277.796	-0.02
278.01	-0.06
278.224	-0
278.438	0.12
278.653	-0.11
278.867	-0.03
279.081	0.03
279.295	-0.03
279.51	0.03
279.724	-0.11
279.938	0.02
280.152	-0.02
280.366	-0.04
280.58	0.02
280.794	0.06
281.008	0.03
281.222	0.07
281.437	0.11
281.651	-0.01
281.865	0.07
282.079	-0.01
282.293	-0.1
282.507	0.01
282.721	-0
282.935	0.03
283.148	-0.07
283.362	-0.07
283.576	-0.03
283.79	-0.09
284.004	-0.03
284.218	0.02
284.432	-0.07
284.646	0.02
284.859	-0.04
285.073	-0.05
285.287	-0.01
285.501	-0.05
285.714	-0.02
285.928	0
286.142	-0.01
286.356	-0.01
286.569	0
286.783	0.07
286.997	0.01
287.21	-0.02
287.424	0.01
287.637	0.02
287.851	-0.03
288.065	0.06
288.278	-0.03
288.492	-0.05
288.705	-0.04
288.919	0.06
289.132	-0.05
289.346	0.07
289.559	-0.06
289.773	-0.08
289.986	0.01
290.2	-0.01
290.413	0.04
290.626	-0.01
290.84	-0.07
291.053	0.01
291.267	0.05
291.48	-0.04
291.693	-0.02
291.906	-0.08
292.12	0.01
292.333	-0.04
292.546	-0
292.76	0.05
292.973	0
293.186	0.03
293.399	-0.06
293.612	0.04
293.826	0.01
294.039	-0
294.252	-0.01
294.465	0.06
294.678	0.03
294.891	-0
295.104	-0.07
295.317	-0.01
295.53	0.03
295.743	-0.03
295.956	0.01
296.169	0.07
296.382	0.04
296.595	0.01
296.808	-0.01
297.021	0.05
297.234	0.03
297.447	-0.05
297.66	0.01
297.873	0.07
298.086	0.03
298.299	0.02
298.511	-0.04
298.724	-0.02
298.937	-0.01
299.15	-0
299.363	0.05
299.575	0.03
299.788	0.02
300.001	-0.02
300.213	-0.06
300.426	-0.04
300.639	-0.04
300.852	-0.03
301.064	0.05
301.277	0.07
301.489	0.06
301.702	0.05
301.915	0.01
302.127	-0.01
302.34	0.03
302.552	0.03
302.765	-0.03
302.977	0.02
303.19	-0.02
303.402	-0.02
303.615	-0.03
303.827	-0.03
304.04	-0.01
304.252	0.03
304.464	-0.01
304.677	0.1
304.889	0.04
305.102	-0.03
305.314	-0.02
305.526	0.1
305.739	0.02
305.951	-0.03
306.163	-0.04
306.375	0.07
306.588	-0.02
306.8	-0.01
307.012	-0
307.224	0
307.436	0.06
307.649	-0.07
307.861	0.03
308.073	-0
308.285	-0
308.497	-0.05
308.709	-0.02
308.921	0.06
309.133	0.06
309.346	0
309.558	-0.01
309.77	0.04
309.982	0.04
310.194	0.05
310.406	-0.01
310.617	0.08
310.829	-0
311.041	-0.01
311.253	-0.04
311.465	-0.01
311.677	0.02
311.889	0.03
312.101	-0.03
312.313	0.06
312.524	0.03
312.736	-0.01
312.948	0.01
313.16	0.08
313.372	0.08
313.583	0
313.795	0
314.007	0.03
314.218	0.02
314.43	-0.02
314.642	-0.05
314.853	-0.04
315.065	0.04
315.277	0
315.488	-0.02
315.7	0.04
315.912	-0.01
316.123	0.01
316.335	-0.02
316.546	0.07
316.758	0.01
316.969	-0.01
317.181	-0
317.392	0.03
317.604	0.02
317.815	-0.02
318.026	-0.01
318.238	-0.02
318.449	-0.02
318.661	-0.05
318.872	-0.03
319.083	-0.06
319.295	0.03
319.506	-0.03
319.717	0
319.929	-0
320.14	0.03
320.351	-0
320.562	-0.03
320.774	0.01
320.985	0.01
321.196	-0.05
321.407	-0.1
321.618	-0
321.829	0.01
322.041	0.03
322.252	-0
322.463	0.04
322.674	0.02
322.885	-0
323.096	-0.03
323.307	-0.02
323.518	0.03
323.729	-0.01
323.94	0.02
324.151	-0.05
324.362	0.01
324.573	0.04
324.784	-0.03
324.995	0.05
325.206	0.02
325.417	0.01
325.628	-0.02
325.838	-0.02
326.049	0.04
326.26	0.03
326.471	0
326.682	0.02
326.892	-0.02
327.103	-0.1
327.314	-0.07
327.525	0.09
327.735	-0.01
327.946	-0.04
328.157	0.01
328.368	0.03
328.578	-0.04
328.789	0.02
328.999	-0
329.21	0.01
329.421	0.02
329.631	-0.04
329.842	-0.03
330.052	0.03
330.263	0.01
330.473	0.05
330.684	0.02
330.894	-0.04
331.105	0
331.315	0
331.526	-0.03
331.736	0.05
331.947	0.01
332.157	0.07
332.367	-0.01
332.578	0.03
332.788	0.03
332.999	0.03
333.209	-0.02
333.419	-0.03
333.629	0.04
333.84	0.05
334.05	-0.03
334.26	0.03
334.47	0
334.681	0
334.891	0.01
335.101	0.01
335.311	0.06
335.521	0.02
335.732	-0.05
335.942	0.04
336.152	0.03
336.362	0.03
336.572	0.03
336.782	0.06
336.992	-0.03
337.202	-0
337.412	-0.07
337.622	0.05
337.832	0.01
338.042	-0.02
338.252	-0
338.462	-0.02
338.672	-0.01
338.882	-0.08
339.092	0
339.302	0.06
339.511	0.01
339.721	-0.01
339.931	-0.02
340.141	0.06
340.351	0.05
340.561	0.01
340.77	0.03
340.98	0.02
341.19	0.04
341.4	-0.03
341.609	-0.05
341.819	-0
342.029	-0.01
342.238	0.02
342.448	-0.02
342.658	0.04
342.867	0.04
343.077	-0.01
343.286	0.06
343.496	-0.02
343.706	0.06
343.915	-0.04
344.125	-0.02
344.334	0.02
344.544	-0.04
344.753	-0.02
344.963	-0.03
345.172	-0
345.381	-0.02
345.591	-0.02
345.8	0
346.01	0.04
346.219	0.04
346.428	-0.06
346.638	0.02
346.847	0.02
347.056	0.06
347.266	-0.03
347.475	-0.03
347.684	0.02
347.893	0.05
348.103	0.02
348.312	-0.03
348.521	-0
348.73	0.02
348.94	-0.04
349.149	-0.07
349.358	0.01
349.567	-0.03
349.776	-0.03
349.985	-0.02
350.194	0.03
350.403	0.03
350.612	-0.05
350.821	-0.01
351.03	0.01
351.239	-0.04
351.448	0.01
351.657	-0.02
351.866	0.02
352.075	-0.01
352.284	0.02
352.493	-0.07
352.702	0.07
352.911	0.01
353.12	-0.02
353.329	0
353.538	-0
353.746	0.01
353.955	-0
354.164	0.05
354.373	-0.02
354.582	0.03
354.79	0
354.999	0.06
355.208	-0
355.416	0.04
355.625	-0.01
355.834	0.01
356.042	-0.01
356.251	-0.02
356.46	-0.04
356.668	0.04
356.877	0.07
357.085	0.07
357.294	-0.09
357.503	0.02
357.711	-0.01
357.92	0.14
358.128	0
358.337	0
358.545	0.04
358.754	-0.04
358.962	0.02
359.17	-0.01
359.379	-0.01
359.587	0.01
359.796	-0.03
360.004	0
360.212	0.02
360.421	0.04
360.629	-0.04
360.837	0
361.046	0.02
361.254	0.07
361.462	-0.01
361.67	-0.06
361.879	-0
362.087	0.11
362.295	-0.02
362.503	-0.03
362.711	-0.03
362.92	-0.03
363.128	-0.03
363.336	-0.03
363.544	-0.03
363.752	-0.01
363.96	-0.02
364.168	-0.02
364.376	-0.02
364.584	0.01
364.792	-0
365	0.02
365.208	-0.03
365.416	0.02
365.624	0.03
365.832	-0.04
366.04	0.03
366.248	0
366.456	0.01
366.664	0.03
366.872	0.03
367.079	-0.01
367.287	-0.02
367.495	0.03
367.703	0.03
367.911	-0
368.118	-0.05
368.326	0.02
368.534	-0.02
368.742	0.08
368.949	-0.07
369.157	-0.07
369.365	0.04
369.572	-0.02
369.78	-0
369.988	0.03
370.195	0.02
370.403	-0
370.61	-0.02
370.818	-0.01
371.026	0.06
371.233	-0.05
371.441	0.02
371.648	-0.02
371.856	-0.01
372.063	0.01
372.271	-0.02
372.478	0
372.685	-0.02
372.893	0.05
373.1	-0.01
373.308	-0.01
373.515	0.06
373.722	0.03
373.93	-0.04
374.137	0.07
374.344	0.1
374.552	0.01
374.759	0.02
374.966	0.06
375.173	-0.01
375.381	0.01
375.588	-0.03
375.795	-0.09
376.002	-0.04
376.209	-0.03
376.417	-0
376.624	0
376.831	-0
377.038	-0.01
377.245	-0.13
377.452	0.03
377.659	-0
377.866	0.01
378.073	0.03
378.28	0.01
378.487	0.02
378.694	0.01
378.901	0.02
379.108	-0.02
379.315	0.06
379.522	0.05
379.729	-0.02
379.936	-0.01
380.143	-0
380.35	0.04
380.557	-0.03
380.763	0.03
380.97	0
381.177	0.02
381.384	0.03
381.591	0.01
381.797	0.01
382.004	0.01
382.211	-0.01
382.418	0.03
382.624	0.04
382.831	0.04
383.038	-0.01
383.244	-0.01
383.451	0.01
383.658	-0.03
383.864	-0
384.071	-0.01
384.277	0.05
384.484	-0.05
384.69	0.03
384.897	-0.02
385.103	-0
385.31	-0.03
385.516	-0.03
385.723	-0.02
385.929	-0.02
386.136	-0.01
386.342	-0.01
386.549	-0.01
386.755	0.05
386.961	0.01
387.168	-0.07
387.374	-0.01
387.58	0.01
387.787	0.01
387.993	0
388.199	-0
388.406	-0.01
388.612	0.02
388.818	-0.02
389.024	0
389.231	-0.02
389.437	0.07
389.643	0.05
389.849	0.02
390.055	-0.01
390.261	-0.02
390.467	0.01
390.674	-0.04
390.88	-0.01
391.086	0.02
391.292	-0.03
391.498	0.03
391.704	-0.01
391.91	-0.03
392.116	0
392.322	-0.11
392.528	0.01
392.734	-0.01
392.94	0.04
393.146	-0.01
393.352	-0
393.557	0.03
393.763	-0.03
393.969	-0
394.175	0.01
394.381	-0.02
394.587	-0.01
394.792	-0
394.998	0.02
395.204	0.06
395.41	-0.04
395.615	-0.01
395.821	0.03
396.027	0.01
396.233	-0.07
396.438	0.01
396.644	0.08
396.85	0.07
397.055	-0.03
397.261	0.04
397.466	0.01
397.672	-0.02
397.878	0.03
398.083	0.01
398.289	0
398.494	0.03
398.7	0.02
398.905	-0.06
399.111	0.07
399.316	-0.05
399.522	0.01
399.727	-0
399.932	-0.04
400.138	0
400.343	0.03
400.549	0.03
400.754	0.01
400.959	0.04
401.165	0.03
401.37	0.03
401.575	0.07
401.78	-0.03
401.986	-0.03
402.191	-0.01
402.396	-0.03
402.601	0.02
402.807	-0.02
403.012	-0.01
403.217	0
403.422	0.02
403.627	0.01
403.832	-0.02
404.037	-0.01
404.243	0.02
404.448	-0.02
404.653	-0.02
404.858	0
405.063	0.05
405.268	-0.03
405.473	-0.07
405.678	-0.03
405.883	0.13
406.088	0
406.293	-0.03
406.498	-0.06
406.703	0.02
406.907	-0.01
407.112	0.02
407.317	0.02
407.522	0.01
407.727	-0.09
407.932	-0.05
408.136	0.04
408.341	-0.02
408.546	0.01
408.751	-0.02
408.956	-0.06
409.16	0.03
409.365	-0.04
409.57	-0.01
409.774	0.01
409.979	0.05
410.184	-0
410.388	-0.08
410.593	0.03
410.798	0
411.002	-0.03
411.207	0.02
411.411	0.02
411.616	-0.03
411.82	-0.02
412.025	0.02
412.229	-0.04
412.434	0.03
412.638	0.03
412.843	0.01
413.047	0.01
413.252	-0.02
413.456	0
413.66	-0
413.865	-0.04
414.069	-0
414.273	-0.02
414.478	-0.01
414.682	0.02
414.886	-0.04
415.091	-0.07
415.295	-0.09
415.499	-0.04
415.703	-0.05
415.908	-0.01
416.112	-0.1
416.316	-0.02
416.52	-0
416.724	-0.08
416.929	-0.07
417.133	0.07
417.337	-0.01
417.541	-0.03
417.745	0.03
417.949	0.01
418.153	0
418.357	-0.05
418.561	0.07
418.765	-0.04
418.969	0.07
419.173	0.05
419.377	0.01
419.581	0.07
419.785	-0.04
419.989	-0.03
420.193	0.01
420.397	-0.04
420.601	0.05
420.804	0.02
421.008	-0.05
421.212	0
421.416	0.03
421.62	-0.06
421.823	0.02
422.027	0.03
422.231	-0.02
422.435	-0.05
422.638	0.03
422.842	-0.01
423.046	-0.01
423.249	-0
423.453	0.01
423.657	-0.01
423.86	-0.01
424.064	0.05
424.268	0.03
424.471	-0.01
424.675	0.07
424.878	0.09
425.082	-0.01
425.285	-0
425.489	0.03
425.692	0.03
425.896	-0.03
426.099	0
426.303	-0.05
426.506	-0.09
426.71	-0
426.913	0.02
427.116	0.05
427.32	0
427.523	-0.01
427.726	0.09
427.93	-0.09
428.133	-0.01
428.336	-0.04
428.54	-0.02
428.743	0.02
428.946	-0.08
429.149	-0.04
429.353	0.01
429.556	-0.01
429.759	-0.01
429.962	-0.06
430.165	0.01
430.368	-0.03
430.571	-0.01
430.775	0.02
430.978	-0
431.181	0.05
431.384	0.01
431.587	-0.01
431.79	0.02
431.993	0.01
432.196	0.01
432.399	-0.02
432.602	0.04
432.805	-0.03
433.008	-0.05
433.211	-0.07
433.414	0.05
433.616	0.02
433.819	0.02
434.022	-0.12
434.225	0.04
434.428	0.02
434.631	0.09
434.833	-0.04
435.036	-0.04
435.239	0.04
435.442	0.04
435.645	-0.06
435.847	0.02
436.05	0.05
436.253	0.05
436.455	-0.08
436.658	-0.03
436.861	0.08
437.063	-0.03
437.266	0
437.468	0.04
437.671	0.11
437.874	-0.01
438.076	-0.06
438.279	-0.04
438.481	-0.05
438.684	-0.01
438.886	0.01
439.089	-0.08
439.291	-0.02
439.494	0.01
439.696	-0.03
439.899	-0.01
440.101	-0.01
440.303	-0.08
440.506	0.05
440.708	0.02
440.91	0.05
441.113	-0
441.315	0.06
441.517	-0.05
441.72	0.04
441.922	-0.05
442.124	-0.04
442.326	0.01
442.529	0.03
442.731	-0.05
442.933	0.06
443.135	0
443.337	-0.05
443.539	-0.03
443.742	-0.05
443.944	0.04
444.146	-0.01
444.348	0.02
444.55	-0
444.752	-0.03
444.954	-0.05
445.156	0
445.358	-0.06
445.56	0.05
445.762	-0.03
445.964	-0.07
446.166	-0.06
446.368	-0.02
446.57	0.01
446.772	-0.03
446.974	-0.07
447.175	-0.01
447.377	-0.05
447.579	-0.08
447.781	-0.1
447.983	0.05
448.184	-0.06
448.386	0.02
448.588	-0.05
448.79	-0
448.991	-0.06
449.193	-0.05
449.395	0.01
449.597	0.08
449.798	-0.02
450	-0.01
450.202	-0.05
450.403	-0.03
450.605	0.02
450.806	0
451.008	-0.09
451.21	-0.02
451.411	0.02
451.613	-0.02
451.814	0.04
452.016	0.05
452.217	-0.01
452.419	0.03
452.62	0.01
452.821	-0.01
453.023	0.04
453.224	0.03
453.426	-0.03
453.627	0.01
453.828	-0
454.03	-0.01
454.231	0
454.432	-0.08
454.634	0.11
454.835	-0.06
455.036	-0.05
455.238	0.01
455.439	0.05
455.64	-0.08
455.841	-0.05
456.042	0.13
456.244	0.05
456.445	-0.04
456.646	-0.01
456.847	-0.03
457.048	0.04
457.249	0.05
457.45	0.15
457.651	-0.03
457.852	0.06
458.054	0.02
458.255	0
458.456	0.01
458.657	-0.02
458.858	-0.06
459.058	0
459.259	0.02
459.46	-0.01
459.661	0
459.862	0.09
460.063	-0.05
460.264	0.07
460.465	-0.06
460.666	0.12
460.866	0.03
461.067	-0.01
461.268	-0.01
461.469	-0.08
461.67	-0.02
461.87	-0.02
462.071	-0.05
462.272	-0.03
462.473	-0
462.673	0.03
462.874	-0.05
463.075	-0.05
463.275	-0.03
463.476	0.01
463.676	-0.01
463.877	-0
464.078	-0.04
464.278	0.04
464.479	-0.01
464.679	-0
464.88	-0.01
465.08	0.06
465.281	-0.06
465.481	-0.05
465.682	0
465.882	-0.01
466.083	-0.03
466.283	0
466.483	-0
466.684	-0.04
466.884	-0.04
467.085	-0.02
467.285	0
467.485	-0.02
467.686	-0.03
467.886	-0.07
468.086	0
468.286	-0.01
468.487	-0.03
468.687	-0.02
468.887	-0.01
469.087	0.03
469.287	-0.01
469.488	-0.08
469.688	0.03
469.888	0.04
470.088	0.03
470.288	0.02
470.488	0.02
470.688	-0.04
470.888	-0
471.088	-0.01
471.288	0.04
471.488	-0
471.688	0
471.888	-0.01
472.088	0.05
472.288	0.03
472.488	-0.03
472.688	-0.03
472.888	-0.04
473.088	-0.05
473.288	0.04
473.488	-0.01
473.688	0.09
473.887	0.02
474.087	-0.05
474.287	0.02
474.487	-0.03
474.687	-0.02
474.886	0.01
475.086	-0
475.286	0.04
475.486	0.01
475.685	0.01
475.885	0
476.085	0
476.284	0.01
476.484	-0.02
476.684	-0.05
476.883	0.06
477.083	0.03
477.282	-0.03
477.482	0.01
477.681	0.04
477.881	0
478.08	-0.02
478.28	-0.04
478.479	0.01
478.679	0.06
478.878	-0.04
479.078	-0.01
479.277	-0.01
479.477	-0.01
479.676	0.01
479.875	0.01
480.075	-0.03
480.274	0.01
480.473	0.04
480.673	-0.02
480.872	0.04
481.071	-0.01
481.271	-0.01
481.47	-0.02
481.669	-0.01
481.868	-0.03
482.067	-0.02
482.267	-0.01
482.466	-0.03
482.665	-0.03
482.864	-0.04
483.063	-0.06
483.262	0.02
483.461	0.04
483.661	0.02
483.86	-0.01
484.059	0.03
484.258	0.01
484.457	-0.02
484.656	-0
484.855	0.03
485.054	-0.04
485.253	-0.04
485.452	-0.03
485.651	-0.01
485.849	0.01
486.048	-0.01
486.247	-0.02
486.446	-0.02
486.645	-0.02
486.844	-0.03
487.043	-0.03
487.241	0.02
487.44	-0.03
487.639	-0.01
487.838	0
488.037	0
488.235	0.04
488.434	-0.03
488.633	-0.02
488.831	0.02
489.03	0.04
489.229	0.02
489.427	-0.01
489.626	0.04
489.825	0.06
490.023	-0.01
490.222	0.01
490.42	0
490.619	0.02
490.817	0.01
491.016	-0.03
491.214	0.06
491.413	-0.01
491.611	-0
491.81	-0
492.008	0.02
492.207	-0
492.405	0
492.604	-0.05
492.802	-0.02
493	-0.01
493.199	-0.03
493.397	-0.01
493.595	-0.02
493.794	-0.01
493.992	0.04
494.19	0
494.388	0.01
494.587	-0
494.785	-0.02
494.983	-0.02
495.181	-0
495.379	-0.01
495.578	-0.01
495.776	0
495.974	0.02
496.172	-0.02
496.37	0.01
496.568	-0.05
496.766	-0.01
496.964	0.04
497.162	0.01
497.36	-0.03
497.558	0.02
497.756	0.02
497.954	0.01
498.152	-0.01
498.35	-0
498.548	-0.01
498.746	0.01
498.944	-0.02
499.142	-0.02
499.34	-0.02
499.538	0
499.736	-0.03
499.933	0.02
500.131	0.04
500.329	-0
500.527	0.03
500.725	0.02
500.922	0.02
501.12	0.02
501.318	0
501.516	-0.02
501.713	0
501.911	-0.01
502.109	-0.03
502.306	0.01
502.504	0
502.701	0
502.899	-0.02
503.097	0.03
503.294	-0.01
503.492	-0.01
503.689	0.03
503.887	0.01
504.084	0.04
504.282	-0.02
504.479	-0.02
504.677	0.01
504.874	-0.05
505.072	0
505.269	0
505.466	0.04
505.664	-0.02
505.861	-0.06
506.059	-0.04
506.256	0.04
506.453	-0.01
506.651	0.04
506.848	-0
507.045	0
507.242	-0.01
507.44	-0.01
507.637	-0.01
507.834	0
508.031	0.02
508.229	-0.01
508.426	-0.01
508.623	-0
508.82	-0.01
509.017	-0.01
509.214	0
509.411	0.01
509.608	-0.02
509.805	-0.01
510.003	0.01
510.2	-0.01
510.397	0.03
510.594	-0.02
510.791	-0.01
510.988	-0.01
511.184	0.02
511.381	0
511.578	-0.02
511.775	0.02
511.972	-0.03
512.169	-0.01
512.366	-0.01
512.563	0
512.76	-0
512.956	0.02
513.153	0.01
513.35	0
513.547	-0.02
513.744	-0.03
513.94	-0.02
514.137	0.02
514.334	0.01
514.53	0.02
514.727	-0.01
514.924	0.05
515.12	-0.02
515.317	-0.01
515.514	-0.02
515.71	-0.04
515.907	-0.01
516.103	0.01
516.3	0.02
516.497	0.01
516.693	0.02
516.89	0.01
517.086	-0.03
517.283	0.03
517.479	0.01
517.676	-0
517.872	-0.03
518.068	-0.01
518.265	0
518.461	-0.01
518.658	-0.04
518.854	0
519.05	-0.01
519.247	-0.03
519.443	0.01
519.639	0.02
519.836	0.02
520.032	-0.03
520.228	-0
520.424	0.04
520.621	0.02
520.817	-0.01
521.013	0
521.209	0.01
521.405	0.05
521.601	0
521.798	0.02
521.994	0.01
522.19	-0.02
522.386	-0.02
522.582	0
522.778	-0.01
522.974	-0.02
523.17	0.01
523.366	-0.01
523.562	0
523.758	0
523.954	-0.01
524.15	-0
524.346	-0
524.542	-0.02
524.738	-0.02
524.934	-0.01
525.129	-0.07
525.325	0.01
525.521	-0
525.717	0.03
525.913	-0
526.109	-0.01
526.304	0.01
526.5	0.01
526.696	0.01
526.892	-0.02
527.087	-0.02
527.283	-0.04
527.479	0.02
527.674	-0.03
527.87	-0
528.066	-0.02
528.261	0
528.457	0.01
528.653	-0.01
528.848	0
529.044	0.01
529.239	0
529.435	0.02
529.63	0.01
529.826	0.03
530.021	-0
530.217	0
530.412	-0
530.608	-0
530.803	-0.02
530.999	-0.01
531.194	-0.04
531.389	-0.01
531.585	-0.03
531.78	0.01
531.975	0.01
532.171	0.03
532.366	-0.01
532.561	-0.02
532.757	-0.04
532.952	0.02
533.147	0.02
533.342	0
533.538	0.01
533.733	0.03
533.928	0.01
534.123	-0.01
534.318	-0.03
534.513	0.01
534.709	-0.01
534.904	-0.03
535.099	-0.01
535.294	0.01
535.489	-0
535.684	-0.01
535.879	-0.02
536.074	0.02
536.269	-0.03
536.464	0.01
536.659	-0.01
536.854	-0.01
537.049	0.03
537.244	0.01
537.439	-0.01
537.634	0.01
537.828	0
538.023	-0.01
538.218	-0.02
538.413	-0.01
538.608	-0.03
538.803	0.02
538.997	-0.01
539.192	0.02
539.387	0.01
539.582	-0
539.776	0.02
539.971	0.01
540.166	0
540.36	-0.02
540.555	-0.01
540.75	-0.01
540.944	0
541.139	-0.03
541.334	-0.01
541.528	0.03
541.723	0.02
541.917	-0.01
542.112	-0.03
542.306	-0.01
542.501	-0.02
542.695	0
542.89	-0.01
543.084	-0
543.279	0
543.473	-0
543.668	0.02
543.862	0
544.056	0.02
544.251	-0.01
544.445	0.01
544.64	-0.03
544.834	-0.01
545.028	0
545.222	0.02
545.417	0.04
545.611	0.01
545.805	0
546	-0.01
546.194	-0.01
546.388	-0.01
546.582	0.03
546.776	-0.01
546.97	-0.01
547.165	0.01
547.359	0.02
547.553	-0.02
547.747	0.01
547.941	-0.02
548.135	0
548.329	0.03
548.523	0.01
548.717	-0.02
548.911	-0.03
549.105	-0
549.299	0
549.493	0.03
549.687	0.01
549.881	0.03
550.075	-0.02
550.269	-0.03
550.463	0.01
550.657	-0
550.85	0.01
551.044	-0.02
551.238	0.01
551.432	-0.01
551.626	-0.02
551.82	0
552.013	-0.01
552.207	0.01
552.401	0
552.594	0.01
552.788	-0.01
552.982	0.01
553.176	-0.02
553.369	0
553.563	-0
553.756	-0.01
553.95	-0.03
554.144	-0.01
554.337	0.04
554.531	0
554.724	0.02
554.918	-0.02
555.111	0.02
555.305	0.02
555.498	0.04
555.692	0.03
555.885	-0.01
556.079	0
556.272	-0
556.466	0.02
556.659	0.01
556.852	-0.01
557.046	-0
557.239	0.01
557.432	-0.02
557.626	-0.01
557.819	0
558.012	0.01
558.206	0.02
558.399	-0.01
558.592	0.01
558.785	-0.01
558.979	0.02
559.172	0.01
559.365	0.02
559.558	-0.01
559.751	-0.02
559.944	0.02
560.138	-0.03
560.331	-0
560.524	-0.01
560.717	0.01
560.91	0.02
561.103	0.03
561.296	0.02
561.489	0.01
561.682	0
561.875	0.05
562.068	0.03
562.261	0
562.454	0.04
562.647	0.01
562.84	0.04
563.032	-0.01
563.225	0.03
563.418	0
563.611	0
563.804	0.03
563.997	-0.03
564.19	-0.01
564.382	-0.06
564.575	0.01
564.768	0.01
564.961	-0
565.153	-0.01
565.346	0.04
565.539	0.02
565.731	0.02
565.924	0.03
566.117	0.02
566.309	0.01
566.502	0
566.695	-0
566.887	0.02
567.08	-0.02
567.272	-0.01
567.465	0
567.657	0.01
567.85	0.04
568.042	0.02
568.235	0.05
568.427	0.01
568.62	0.02
568.812	0.03
569.005	0
569.197	-0
569.389	0.02
569.582	0.01
569.774	0.03
569.966	-0.01
570.159	-0.01
570.351	0.04
570.543	-0.01
570.736	0
570.928	0.01
571.12	0.01
571.312	0.01
571.505	-0.02
571.697	0.05
571.889	0.03
572.081	0.03
572.273	0.01
572.465	0.07
572.658	-0.03
572.85	0.06
573.042	-0.01
573.234	0.01
573.426	0.05
573.618	-0
573.81	0.03
574.002	0.04
574.194	0.05
574.386	-0.02
574.578	-0.04
574.77	-0.01
574.962	0.03
575.154	-0.01
575.346	0.02
575.538	0.02
575.729	-0
575.921	0.02
576.113	0
576.305	0.07
576.497	0.01
576.689	0.02
576.88	0.02
577.072	0.06
577.264	0.03
577.456	0.03
577.647	-0.02
577.839	0.06
578.031	0.08
578.223	0.02
578.414	-0
578.606	0.05
578.798	0.05
578.989	0.03
579.181	0.05
579.372	0.05
579.564	0.05
579.755	0.06
579.947	0.08
580.139	0.06
580.33	0.03
580.522	0.05
580.713	0
580.905	0.04
581.096	0.07
581.287	0.08
581.479	0.06
581.67	0.09
581.862	0.09
582.053	0.05
582.244	0.01
582.436	0.06
582.627	0.08
582.818	0.06
583.01	0.04
583.201	0.11
583.392	0.09
583.583	0.09
583.775	0.07
583.966	0.05
584.157	0.06
584.348	0.06
584.54	0.05
584.731	0.11
584.922	0.11
585.113	0.06
585.304	0.11
585.495	0.13
585.686	0.13
585.877	0.12
586.068	0.13
586.259	0.11
586.45	0.13
586.641	0.11
586.832	0.09
587.023	0.15
587.214	0.12
587.405	0.13
587.596	0.11
587.787	0.17
587.978	0.15
588.169	0.11
588.36	0.12
588.551	0.15
588.742	0.15
588.932	0.16
589.123	0.16
589.314	0.19
589.505	0.14
589.696	0.17
589.886	0.18
590.077	0.15
590.268	0.19
590.458	0.15
590.649	0.15
590.84	0.24
591.03	0.17
591.221	0.16
591.412	0.17
591.602	0.23
591.793	0.2
591.984	0.19
592.174	0.22
592.365	0.31
592.555	0.21
592.746	0.25
592.936	0.25
593.127	0.27
593.317	0.27
593.508	0.25
593.698	0.23
593.889	0.25
594.079	0.26
594.269	0.26
594.46	0.3
594.65	0.29
594.84	0.31
595.031	0.23
595.221	0.29
595.411	0.28
595.602	0.35
595.792	0.32
595.982	0.28
596.172	0.36
596.363	0.32
596.553	0.36
596.743	0.37
596.933	0.37
597.123	0.38
597.314	0.38
597.504	0.37
597.694	0.45
597.884	0.41
598.074	0.4
598.264	0.39
598.454	0.42
598.644	0.42
598.834	0.45
599.024	0.41
599.214	0.45
599.404	0.48
599.594	0.45
599.784	0.44
599.974	0.5
600.164	0.5
600.354	0.45
600.544	0.47
600.734	0.55
600.924	0.58
601.114	0.51
601.303	0.58
601.493	0.58
601.683	0.52
601.873	0.57
602.063	0.56
602.252	0.6
602.442	0.54
602.632	0.6
602.821	0.61
603.011	0.63
603.201	0.63
603.39	0.64
603.58	0.66
603.77	0.71
603.959	0.71
604.149	0.69
604.339	0.69
604.528	0.78
604.718	0.78
604.907	0.77
605.097	0.75
605.286	0.75
605.476	0.83
605.665	0.81
605.855	0.79
606.044	0.86
606.234	0.84
606.423	0.88
606.612	0.84
606.802	0.9
606.991	0.95
607.181	0.92
607.37	0.9
607.559	0.9
607.749	0.93
607.938	0.95
608.127	0.97
608.316	0.99
608.506	1.03
608.695	1.05
608.884	1.03
609.073	1.06
609.263	1.14
609.452	1.16
609.641	1.12
609.83	1.09
610.019	1.14
610.208	1.14
610.397	1.19
610.586	1.24
610.775	1.19
610.965	1.19
611.154	1.21
611.343	1.31
611.532	1.28
611.721	1.3
611.91	1.35
612.099	1.35
612.287	1.34
612.476	1.34
612.665	1.4
612.854	1.39
613.043	1.43
613.232	1.42
613.421	1.46
613.61	1.51
613.798	1.54
613.987	1.61
614.176	1.58
614.365	1.65
614.554	1.64
614.742	1.7
614.931	1.63
615.12	1.75
615.309	1.71
615.497	1.74
615.686	1.71
615.875	1.82
616.063	1.78
616.252	1.85
616.44	1.88
616.629	1.93
616.818	1.94
617.006	1.98
617.195	2.04
617.383	2.04
617.572	2.05
617.76	2.08
617.949	2.13
618.137	2.19
618.326	2.22
618.514	2.17
618.703	2.24
618.891	2.33
619.079	2.33
619.268	2.49
619.456	2.37
619.644	2.49
619.833	2.49
620.021	2.54
620.209	2.49
620.398	2.55
620.586	2.68
620.774	2.75
620.962	2.73
621.151	2.85
621.339	2.81
621.527	2.88
621.715	2.89
621.903	2.91
622.092	2.92
622.28	3.07
622.468	3.04
622.656	3.15
622.844	3.16
623.032	3.24
623.22	3.28
623.408	3.38
623.596	3.4
623.784	3.46
623.972	3.4
624.16	3.45
624.348	3.58
624.536	3.69
624.724	3.62
624.912	3.75
625.1	3.8
625.288	3.86
625.476	3.81
625.664	3.97
625.851	3.9
626.039	3.96
626.227	4.05
626.415	4.03
626.603	3.99
626.79	4.13
626.978	4.19
627.166	4.23
627.354	4.2
627.541	4.24
627.729	4.18
627.917	4.41
628.104	4.43
628.292	4.41
628.48	4.48
628.667	4.42
628.855	4.6
629.042	4.64
629.23	4.51
629.418	4.53
629.605	4.62
629.793	4.55
629.98	4.66
630.168	4.61
630.355	4.69
630.543	4.63
630.73	4.62
630.917	4.66
631.105	4.73
631.292	4.67
631.48	4.64
631.667	4.69
631.854	4.58
632.042	4.62
632.229	4.57
632.416	4.68
632.604	4.6
632.791	4.43
632.978	4.54
633.165	4.45
633.353	4.49
633.54	4.41
633.727	4.29
633.914	4.24
634.101	4.21
634.289	4.27
634.476	4.14
634.663	4.12
634.85	4.05
635.037	3.94
635.224	3.87
635.411	3.9
635.598	3.73
635.785	3.7
635.972	3.67
636.159	3.61
636.346	3.53
636.533	3.36
636.72	3.34
636.907	3.25
637.094	3.17
637.281	3.08
637.468	3.04
637.655	3.02
637.842	2.91
638.029	2.81
638.215	2.79
638.402	2.64
638.589	2.57
638.776	2.5
638.963	2.37
639.149	2.39
639.336	2.36
639.523	2.26
639.709	2.16
639.896	2.13
640.083	2.04
640.27	2.02
640.456	1.87
640.643	1.87
640.829	1.72
641.016	1.73
641.203	1.64
641.389	1.64
641.576	1.59
641.762	1.49
641.949	1.44
642.135	1.43
642.322	1.39
642.508	1.26
642.695	1.28
642.881	1.18
643.068	1.15
643.254	1.14
643.441	1.16
643.627	1.09
643.813	1.02
644	1.05
644.186	0.91
644.372	0.93
644.559	0.97
644.745	0.89
644.931	0.81
645.118	0.85
645.304	0.81
645.49	0.8
645.676	0.73
645.862	0.73
646.049	0.73
646.235	0.71
646.421	0.76
646.607	0.68
646.793	0.6
646.979	0.57
647.165	0.58
647.352	0.59
647.538	0.6
647.724	0.52
647.91	0.5
648.096	0.54
648.282	0.5
648.468	0.46
648.654	0.45
648.84	0.45
649.026	0.44
649.212	0.41
649.397	0.37
649.583	0.35
649.769	0.36
649.955	0.39
650.141	0.37
650.327	0.4
650.513	0.32
650.698	0.34
650.884	0.25
651.07	0.29
651.256	0.3
651.442	0.28
651.627	0.26
651.813	0.28
651.999	0.24
652.184	0.27
652.37	0.24
652.556	0.17
652.741	0.28
652.927	0.14
653.113	0.2
653.298	0.21
653.484	0.19
653.669	0.13
653.855	0.16
654.04	0.2
654.226	0.19
654.412	0.17
654.597	0.15
654.782	0.18
654.968	0.24
655.153	0.18
655.339	0.15
655.524	0.09
655.71	0.19
655.895	0.12
656.08	0.14
656.266	0.17
656.451	0.15
656.636	0.11
656.822	0.12
657.007	0.08
657.192	0.09
657.378	0.08
657.563	0.15
657.748	0.12
657.933	0.11
658.118	0.1
658.304	0.07
658.489	0.11
658.674	0.12
658.859	0.03
659.044	0.12
659.229	0.1
659.414	0.06
659.599	0.07
659.785	0.01
659.97	0.07
660.155	0.1
660.34	0.07
660.525	0.09
660.71	0.08
660.895	0.11
661.08	0.05
661.264	0.03
661.449	0.12
661.634	0.1
661.819	0.08
662.004	0.09
662.189	-0
662.374	0.05
662.559	0.03
662.743	-0.01
662.928	0.05
663.113	0.06
663.298	0
663.483	0.04
663.667	0.08
663.852	-0
664.037	0.06
664.221	0.01
664.406	0.06
664.591	0.07
664.775	-0
664.96	-0.01
665.145	0.03
665.329	0.08
665.514	0.01
665.698	0.04
665.883	-0
666.068	0.09
666.252	-0.03
666.437	-0.01
666.621	-0
666.806	0.08
666.99	0
667.174	-0.03
667.359	0.08
667.543	0.03
667.728	0.01
667.912	-0.03
668.096	0.06
668.281	0.01
668.465	0.05
668.649	0.02
668.834	-0.02
669.018	-0.01
669.202	-0.03
669.387	0.03
669.571	0.06
669.755	-0.02
669.939	0.05
670.124	0.05
670.308	0.08
670.492	0.06
670.676	0.03
670.86	0.03
671.044	-0.03
671.228	0.04
671.413	0
671.597	-0.01
671.781	-0.02
671.965	0.06
672.149	-0.01
672.333	0.02
672.517	-0.03
672.701	0.05
672.885	-0.02
673.069	-0.07
673.253	0.04
673.437	-0.01
673.621	0.02
673.804	-0.01
673.988	-0.01
674.172	-0
674.356	-0.07
674.54	-0.04
674.724	0.09
674.908	0.01
675.091	0.07
675.275	0
675.459	0.06
675.643	0.09
675.826	0.04
676.01	0.02
676.194	0
676.377	0.03
676.561	0.06
676.745	0.04
676.928	0.05
677.112	0.05
677.296	-0.01
677.479	-0.03
677.663	-0.01
677.846	0.01
678.03	0.01
678.213	0.01
678.397	0.06
678.58	-0.02
678.764	-0.03
678.947	-0.03
679.131	0
679.314	0.04
679.498	0
679.681	0.02
679.865	0.07
680.048	0.03
680.231	0
680.415	0.03
680.598	0.01
680.781	0.04
680.965	-0.02
681.148	0.03
681.331	0.02
681.514	0.04
681.698	-0.02
681.881	0.04
682.064	-0.03
682.247	0.01
682.43	-0.07
682.614	0.03
682.797	0.07
682.98	0.01
683.163	-0.05
683.346	0.03
683.529	0.05
683.712	-0.04
683.895	0.03
684.078	-0.02
684.261	-0
684.444	-0.04
684.627	-0.02
684.81	-0.03
684.993	-0.02
685.176	0.01
685.359	-0.01
685.542	-0.01
685.725	0.05
685.908	0.01
686.091	-0.01
686.274	0.05
686.457	0.04
686.639	-0.01
686.822	0.04
687.005	0.02
687.188	0.03
687.371	0.06
687.553	-0.02
687.736	0.03
687.919	0.05
688.102	0.03
688.284	-0.01
688.467	0.01
688.65	0.01
688.832	-0.05
689.015	0.02
689.197	-0.09
689.38	0.11
689.563	0.07
689.745	-0.02
689.928	-0.02
690.11	-0.02
690.293	0.04
690.475	-0.03
690.658	0.04
690.84	-0
691.023	-0.06
691.205	-0.04
691.388	0.01
691.57	0
691.752	0.06
691.935	-0.06
692.117	-0.06
692.3	-0
692.482	-0.03
692.664	-0.04
692.847	-0.02
693.029	0.06
693.211	0.01
693.393	-0
693.576	-0.03
693.758	0.01
693.94	-0.06
694.122	-0.01
694.304	-0.02
694.487	-0.03
694.669	0.07
694.851	-0.06
695.033	-0.01
695.215	-0.1
695.397	-0.01
695.579	0.01
695.761	-0.03
695.943	-0.08
696.125	0.03
696.308	0.01
696.49	-0.06
696.671	0.12
696.853	-0
697.035	0.09
697.217	0.01
697.399	0.05
697.581	-0.04
697.763	0.03
697.945	-0.09
698.127	-0.02
698.309	0.06
698.491	0
698.672	0.07
698.854	0.04
699.036	0.04
699.218	-0.02
699.399	0.09
699.581	0.06
699.763	-0
699.945	-0.02
700.126	-0.02
700.308	-0.02
700.49	0
700.671	-0.1
700.853	-0.06
701.035	0.01
701.216	0
701.398	-0
701.579	-0.03
701.761	0.03
701.943	-0.07
702.124	-0.03
702.306	-0.01
702.487	0.11
702.669	-0.02
702.85	-0.01
703.031	0
703.213	0.11
703.394	0.05
703.576	-0.04
703.757	0.02
703.938	0.03
704.12	0.11
704.301	-0.08
704.483	-0.03
704.664	-0.01
704.845	0.06
705.026	0.02
705.208	0.03
705.389	0
705.57	-0
705.751	-0.04
705.933	-0.03
706.114	0.04
706.295	-0
706.476	0.02
706.657	0.04
706.838	0.05
707.02	0.05
707.201	-0
707.382	-0.03
707.563	0.01
707.744	-0
707.925	-0.05
708.106	-0.05
708.287	0.01
708.468	0.05
708.649	-0
708.83	0.01
709.011	-0.03
709.192	-0.02
709.373	-0.06
709.554	-0.04
709.734	0.04
709.915	0.04
710.096	-0.01
710.277	-0.1
710.458	-0.04
710.639	0.03
710.819	-0.11
711	0.05
711.181	0.08
711.362	0.1
711.542	0.02
711.723	0
711.904	0.03
712.085	-0.04
712.265	0.09
712.446	-0.08
712.627	-0.04
712.807	0.01
712.988	0.03
713.168	-0.1
713.349	0
713.53	-0.12
713.71	-0.06
713.891	-0.09
714.071	0.02
714.252	-0.01
714.432	-0.08
714.613	-0.03
714.793	-0
714.974	0.05
715.154	0.09
715.334	0.01
715.515	0.07
715.695	-0.13
715.876	0.07
716.056	-0
716.236	-0.01
716.417	-0.01
716.597	-0.08
716.777	0.16
716.957	-0.03
717.138	0.02
717.318	0
717.498	-0.09
717.678	-0.01
717.859	0.04
718.039	-0.12
718.219	0.03
718.399	0.03
718.579	-0.1
718.759	-0.09
718.939	0.04
719.12	-0.07
719.3	-0.02
719.48	-0.18
719.66	-0.09
719.84	0.06
720.02	-0.03
720.2	-0.04
720.38	-0.06
720.56	0.08
720.74	0
720.92	0.01
721.1	0.06
721.279	0.16
721.459	-0.03
721.639	-0.09
721.819	0.08
721.999	-0
722.179	0.03
722.359	-0.15
722.538	0.05
722.718	-0
722.898	-0.01
723.078	-0
723.257	-0.06
723.437	-0.01
723.617	0.04
723.797	-0.04
723.976	0.01
724.156	0.04
724.336	0.04
724.515	0.15
724.695	-0.07
724.874	-0.06
725.054	0.05
725.234	-0.03
725.413	-0.07
725.593	-0.03
725.772	-0.07
725.952	-0.04
726.131	-0.02
726.311	-0.03
726.49	-0.01
726.67	-0.04
726.849	-0.09
727.028	0.02
727.208	-0.02
727.387	0.12
727.567	-0.06
727.746	-0.05
727.925	-0.1
728.105	-0.11
728.284	-0.08
728.463	-0.12
728.643	0.14
728.822	-0.09
729.001	-0.02
729.18	-0.03
729.359	0.04
729.539	-0.07
729.718	-0.08
729.897	0.1
730.076	-0.07
730.255	-0.09
730.434	-0.08
730.614	-0.03
730.793	0.03
730.972	-0.05
731.151	-0.04
731.33	0.07
731.509	-0.01
731.688	-0.03
731.867	-0.04
732.046	-0.09
732.225	0.13
732.404	-0.09
732.583	-0.09
732.762	0.03
732.941	0.03
733.12	0.13
733.298	-0.04
733.477	0.01
733.656	-0.11
733.835	-0.17
734.014	0.11
734.193	-0.01
734.371	0.09
734.55	-0.03
734.729	-0
734.908	0.03
735.086	0.08
735.265	0.06
735.444	-0.11
735.623	-0.09
735.801	-0.13
735.98	0.02
736.159	-0.13
736.337	0.01
736.516	0.02
736.694	0.04
736.873	-0.02
737.052	0.07
737.23	0.08
737.409	-0.06
737.587	0.14
737.766	-0.17
737.944	-0.09
738.123	0.02
738.301	-0.05
738.479	-0.1
738.658	-0.02
738.836	-0.23
739.015	-0.03
739.193	0.04
739.371	-0.17
739.55	-0.03
739.728	-0.11
739.906	0.01
740.085	0.06
740.263	-0.12
740.441	-0.13
740.62	0.2
740.798	0
740.976	-0.15
741.154	-0.07
741.332	0.09
741.511	-0.01
741.689	-0.02
741.867	0.01
742.045	-0.04
742.223	-0.07
742.401	-0.15
742.579	-0.03
742.757	-0.01
742.935	-0.09
743.114	-0.08
743.292	-0.03
743.47	-0.05
743.648	0
743.826	-0.03
744.004	0.05
744.181	-0.03
744.359	-0.06
744.537	-0.01
744.715	0.04
744.893	-0.07
745.071	-0.03
745.249	-0.06
745.427	-0.07
745.605	0.05
745.782	-0.13
745.96	0.1
746.138	0.08
746.316	0.01
746.493	0.04
746.671	-0.02
746.849	-0.03
747.027	0.07
747.204	-0.15
747.382	0
747.56	-0.14
747.737	-0.1
747.915	-0.06
748.093	0.06
748.27	-0.06
748.448	-0.06
748.625	-0.04
748.803	-0.14
748.98	-0.05
749.158	-0.05
749.335	0.05
749.513	0.04
749.69	-0.16
749.868	-0.03
750.045	-0.12
750.223	-0.06
750.4	-0.26
750.578	0.2
750.755	0.03
750.932	-0.13
751.11	0.08
751.287	-0.27
751.464	0.11
751.642	-0.07
751.819	0.11
751.996	-0.06
752.173	-0.04
752.351	-0.04
752.528	0
752.705	0.11
752.882	-0.12
753.06	-0
753.237	-0.03
753.414	0.08
753.591	0.08
753.768	-0.04
753.945	-0.05
754.122	-0.03
754.299	0.01
754.476	-0.21
754.654	-0.03
754.831	-0.02
755.008	-0.08
755.185	-0.1
755.362	-0.1
755.539	-0.03
755.716	-0.13
755.892	-0.07
756.069	-0.07
756.246	0.07
756.423	-0.09
756.6	0.08
756.777	0.03
756.954	-0.02
757.131	-0.04
757.307	-0.05
757.484	-0.18
757.661	0.01
757.838	0.07
758.015	-0.2
758.191	0.14
758.368	-0.02
758.545	0.09
758.721	0.04
758.898	-0.1
759.075	-0.02
759.251	0.01
759.428	0.04
759.605	-0.19
759.781	-0.09
759.958	-0.02
760.134	0.07
760.311	-0.13
760.488	0.04
760.664	0.05
760.841	0
761.017	-0.15
761.194	0.04
761.37	0.08
761.547	-0.03
761.723	-0.05
761.899	0.06
762.076	-0.08
762.252	-0.13
762.429	-0.07
762.605	-0.06
762.781	0.04
762.958	0.02
763.134	-0.09
763.31	-0.13
763.486	0.03
763.663	-0.12
763.839	-0.05
764.015	-0.16
764.191	-0.1
764.368	-0.05
764.544	-0.05
764.72	0.03
764.896	0.14
765.072	-0.08
765.248	-0.11
765.425	-0.02
765.601	0.03
765.777	0.05
765.953	-0.21
766.129	-0.08
766.305	-0.19
766.481	-0.06
766.657	-0.03
766.833	0.17
767.009	-0.12
767.185	-0.23
767.361	-0.03
767.537	-0.09
767.713	0.09
767.889	-0.12
768.065	0.06
768.24	-0.05
768.416	0.06
768.592	-0.05
768.768	-0.16
768.944	-0.01
769.12	-0.11
769.295	-0.08
769.471	-0
769.647	-0.11
769.823	-0.04
769.998	-0.13
770.174	-0.07
770.35	0.2
770.525	0.29
770.701	-0.05
770.877	0.02
771.052	-0.07
771.228	-0.02
771.403	0.04
771.579	0.21
771.755	0.3
771.93	-0.11
772.106	-0.19
772.281	-0.12
772.457	-0.02
772.632	0.09
772.808	-0.26
772.983	-0.1
773.159	-0.16
773.334	0.05
773.509	-0.03
773.685	-0.12
773.86	0.2
774.036	0.12
774.211	0.07
774.386	-0.07
774.562	-0.14
774.737	0.01
774.912	-0.15
775.087	0.05
775.263	-0.07
775.438	-0.16
775.613	-0.07
775.788	-0.02
775.964	0.07
776.139	0.14
776.314	-0.1
776.489	0.1
776.664	0.04
776.839	-0.23
777.014	0.08
777.19	0.16
777.365	0.31
777.54	0.27
777.715	-0.07
777.89	0.03
778.065	-0.15
778.24	-0.09
778.415	-0.01
778.59	-0.12
778.765	-0.11
778.94	-0.04
779.115	0.03
779.289	-0.03
779.464	-0.02
779.639	0.05
779.814	-0.4
779.989	-0.26
780.164	0.15
780.339	-0.05
780.513	-0.24
780.688	-0.12
780.863	-0.08
781.038	0.11
781.212	-0.09
781.387	0.06
781.562	0.25
781.737	-0.18
781.911	0.16
782.086	-0.04
782.261	-0.1
782.435	0.14
782.61	0.05
782.784	-0.13
782.959	0.14
783.134	-0.19
783.308	-0.18
783.483	-0.04
783.657	0.39
783.832	-0.02
784.006	-0.32
784.181	-0.03
784.355	0.08
784.53	-0.2
784.704	-0.15
784.878	0.13
785.053	0.16
785.227	0.1
785.402	0.2
785.576	-0.25
785.75	-0.03
785.925	-0.16
786.099	0.06
786.273	0.19
786.448	-0.05
786.622	-0.04
786.796	-0.19
786.97	-0.16
787.145	0.52
787.319	-0.31
787.493	-0.34
787.667	-0.34
787.841	0.07
788.015	0.07
788.19	-0.11
788.364	0.01
788.538	0.11
788.712	0.33
788.886	0.15
789.06	0.08
789.234	0.17
789.408	-0.47
789.582	-0.21
789.756	0.03
789.93	-0.3
790.104	-0.15
790.278	-0.14
790.452	-0.01
790.626	0.09
790.8	-0.12
790.973	0.04
791.147	0.19
791.321	0.22
791.495	0.03
791.669	0.19
791.843	0.21
792.016	0.04
792.19	0.33
792.364	-0.25
792.538	0.26
792.711	0.1
792.885	0.01
793.059	-0.15
793.233	-0.73
793.406	0.07
793.58	0.22
793.754	-0.09
793.927	-0.05
794.101	0.38
794.274	0.04
794.448	0.18
794.622	-0.18
794.795	0.28
794.969	-0.11
795.142	0.16
795.316	-0.12
795.489	-0.39
795.663	0.53
795.836	-0.05
796.009	-0.07
796.183	0.14
796.356	0.04
796.53	0.03
796.703	-0.12
796.876	0.4
797.05	-0.19
797.223	-0.07
797.396	0.08
797.57	0.08
797.743	0.4
797.916	0.08
798.09	-0.14
798.263	0.31
798.436	0.11
798.609	-0.3
798.782	-0.15
798.956	0.02
799.129	-0.27
799.302	0.05
799.475	-0.11
799.648	-0.23
799.821	-0.2
799.994	-0.1
800.167	-0.36
800.34	-0.13
800.514	-0.02
800.687	-0.07
800.86	-0.17
801.033	0.04
801.206	-0.1
801.379	-0.3
801.551	0.14
801.724	0.29
801.897	0.52
802.07	-0.03
802.243	-0.24
802.416	0.17
802.589	-0.15
802.762	-0.23
802.935	0.06
803.107	0.33
803.28	0.11
803.453	0.12
803.626	-0.27
803.798	-0.13
803.971	-0.12
804.144	-0.16
804.317	-0.33
804.489	0.18
804.662	-0.07
804.835	0.07
805.007	-0.11
805.18	0.25
805.353	-0.03
805.525	-0.49
805.698	-0.46
805.87	-0.01
806.043	0.11
806.215	0
806.388	-0.29
806.56	0.11
806.733	0.17
806.905	0.32
807.078	-0.04
807.25	-0.3
807.423	0.22
807.595	0.14
807.768	0.06
807.94	0.09
808.112	0.01
808.285	0.11
808.457	-0.09
808.629	-0.25
808.802	-0.05
808.974	-0.1
809.146	0.03
809.318	-0.32
809.491	0.07
809.663	0.04
809.835	-0.08
810.007	0.38
810.18	-0.29
810.352	-0.47
810.524	-0.23
810.696	-0.05
810.868	0.32
811.04	-0.22
811.212	-0.52
811.384	0.22
811.556	-0
811.728	-0.18
811.901	0.82
812.073	-0.16
812.245	0.01
812.417	0.16
812.589	-0.68
812.76	0.31
812.932	-0
813.104	0.28
813.276	0.05
813.448	0
813.62	0.22
813.792	0.31
813.964	0.02
814.136	-0.19
814.307	0.06
814.479	-0.25
814.651	-0.04
814.823	0.72
814.995	-0.08
815.166	-0.01
815.338	-0.04
815.51	-0.47
815.681	0.53
815.853	0.01
816.025	-0.05
816.196	0.17
816.368	0.12
816.54	-0.14
816.711	-0.25
816.883	0.06
817.054	0.6
817.226	-0.4
817.398	-0.27
817.569	-0.37
817.741	0.21
817.912	-0.13
818.084	-0.11
818.255	-0.07
818.426	-0.08
818.598	0.03
818.769	-0.43
818.941	0.16
819.112	0.14
819.283	0.23
819.455	-0.32
819.626	0.02
819.798	0.07
819.969	-0.05
820.14	-0.29
820.311	-0.1
820.483	0.05
820.654	0.23
820.825	-0.01
820.996	-0.22
821.168	-0.35
821.339	-0.22
821.51	-0.33
821.681	-0.37
821.852	0.02
822.023	-0.34
822.195	-0.69
822.366	0.06
822.537	-0.15
822.708	0.39
822.879	-0.08
823.05	0.43
823.221	0.32
823.392	0.71
823.563	-0.27
823.734	-0.04
823.905	-0.37
824.076	-0.68
824.247	-0.19
824.418	0.04
824.589	0.47
824.759	-0.03
824.93	0.18
825.101	-1.62
825.272	-0.08
825.443	0.93
825.614	0.25
825.784	-0.77
825.955	1.22
826.126	0.19
826.297	0.13
826.467	-0.14
826.638	0.47
826.809	-0.87
826.98	-0.1
827.15	0.11
827.321	-0.19
827.492	0.46
827.662	-0.3
827.833	0.53
828.003	0.23
828.174	-0.31
828.345	-0.84
828.515	0.62
828.686	-0.23
828.856	-0.1
829.027	0.1
829.197	0.38
829.368	0.42
829.538	-0.29
829.709	-0.18
829.879	-0.33
830.049	-0.15
830.22	-0.5
830.39	0.32
830.56	0.59
830.731	0.04
830.901	-0.52
831.072	0.33
831.242	0.19
831.412	0.08
831.582	0.15
831.753	-0.23
831.923	0.55
832.093	-0.14
832.263	-0.44
832.434	-0.92
832.604	-0.25
832.774	0.82
832.944	-0.33
833.114	0.14
833.284	0.28
833.454	0.08
833.624	-0.08
833.795	-0.6
833.965	0.05
834.135	0.27
834.305	-0.54
834.475	-0.8
834.645	-0.28
834.815	-0.64
834.985	-0.45
835.155	-0.62
835.325	0.05
835.494	0.3
835.664	0.4
835.834	-0.51
836.004	0.76
836.174	-0.18
836.344	-0.17
836.514	-1.29
836.684	-1
836.853	0.23
837.023	0.03
837.193	-0.67
837.363	0.47
837.532	0.14
837.702	-0.29
837.872	-0.3
838.041	0.84
838.211	0.93
838.381	-1.08
838.55	-0.46
838.72	1.29
838.89	1.09
839.059	-0.3
839.229	-0.08
839.398	0.85
839.568	0.07
839.738	-0.14
839.907	0.41
840.077	-0.74
840.246	-0.25
840.416	-0.37
840.585	-0.35
840.755	1.25
840.924	0.32
841.093	-0.76
841.263	-0.06
841.432	0.28
841.602	-0.25
841.771	-0.59
841.94	0.58
842.11	1.71
842.279	1.31
842.448	-0.87
842.617	-1.05
842.787	1.13
842.956	-0.87
843.125	-0.12
843.294	-0.09
843.464	0.08
843.633	0.3
843.802	-0.96
843.971	-0.04
844.14	0.66
844.309	0.5
844.479	-0.68
844.648	-0.93
844.817	-0.57
844.986	-0.37
845.155	-0.89
845.324	-0.42
845.493	-0.28
845.662	-0.44
845.831	1.41
846	1.02
846.169	0.14
846.338	1.38
846.507	-0.53
846.676	0.38
846.844	-0.53
847.013	0.45
847.182	-0.04
847.351	-0.25
847.52	-0.66
847.689	0.56
847.858	0.07
848.026	-0.51
848.195	-0.97
848.364	-0.21
848.533	-0.86
848.701	-0.4
848.87	0.2
849.039	0.32
849.207	0.12
849.376	-0.17
849.545	0.99
849.713	-0.9
849.882	-0.31
850.051	0.32
850.219	0.15
850.388	0.64
850.556	-0.51
850.725	-0.89
850.893	-0.33
851.062	-0.98
851.23	0.97
851.399	-0.89
851.567	-0.69
851.736	-0.75
851.904	-0.34
852.073	0.02
852.241	0.48
852.41	0.22
852.578	-0.91
852.746	-0.11
852.915	0.71
853.083	0.32
853.251	-0.09
853.42	-0.52
853.588	-0.17
853.756	0.27
853.924	-0.5
854.093	-0.82
854.261	-0.18
854.429	-2.15
854.597	-0.26
854.765	-1
854.934	0.34
855.102	0.85
855.27	0.64
855.438	-0.01
855.606	-0.43
855.774	0.62
855.942	-1.93
856.11	-0.8
856.278	-0.14
856.446	0.22
856.614	-0.07
856.782	-0.93
856.95	0.94
857.118	0.01
857.286	0.34
857.454	-1.32
857.622	0.58
857.79	1.11
857.958	-1.17
858.126	-0.36
858.294	-3.48
858.462	-0.13
858.629	-1.07
858.797	-0.36
858.965	0.39
859.133	1.03
859.301	-1.29
859.468	0.38
859.636	-1.88
859.804	1.43
859.971	-0.42
860.139	-1.33
860.307	0.95
860.474	-0.67
860.642	-0.11
860.81	-1.17
860.977	-0.06
861.145	-0.16
861.313	-0.42
861.48	-1.25
861.648	0.55
861.815	0.26
861.983	-1.74
862.15	-0.03
862.318	1.22
862.485	0.52
862.653	-0.68
862.82	-0.65
862.988	2.26
863.155	1.06
863.322	-1.71
863.49	-1.58
863.657	0.12
863.824	1.73
863.992	0.39
864.159	0.3
864.326	0.72
864.494	-0.68
864.661	2.18
864.828	-1.89
864.996	0.91
865.163	1.76
865.33	-1.26
865.497	-1.79
865.664	-0.3
865.832	-0.69
865.999	-1.81
866.166	-0.69
866.333	-0.54
866.5	-0.42
866.667	0.54
866.834	-1.66
867.001	0.66
867.168	-2.16
867.335	0.36
867.502	-1.02
867.669	-0.1
867.836	1.76
868.003	0.36
868.17	-0.34
868.337	-2
868.504	2.53
868.671	-0.97
868.838	0.2
869.005	-0.11
869.172	1.03
869.339	-0.16
869.505	-1.69
869.672	-1.25
869.839	2.55
870.006	-0.91
870.173	-1.83
870.339	0.84
870.506	0.58
870.673	-1.71
870.84	0.3
871.006	-0.4
871.173	-0.75
871.34	0.35
871.506	0.34
871.673	-0.08
871.839	-1.31
872.006	-0.31
872.173	-1.15
872.339	-1.01
872.506	1.71
872.672	-0.22
872.839	-2.2
873.005	-0.68
873.172	2.3
873.338	1.68
873.505	-0.64
873.671	-0.25
873.838	0.97
874.004	-2.74
874.171	-1.83
874.337	-0.41
874.503	0.69
874.67	1.07
874.836	-0.05
875.002	1.3
875.169	1.98
875.335	0.31
875.501	0.42
875.668	0.53
875.834	-0.16
876	-0.62
876.166	0.61
876.332	1.09
876.499	1.64
876.665	-1.45
876.831	0.53
876.997	2.18
877.163	1.05
877.329	-0.05
877.495	0.44
877.662	0.05
877.828	-0.99
877.994	-0.79
878.16	-2.2
878.326	-1.64
878.492	0.09
878.658	-2.13
878.824	-0.48
878.99	1.36
879.156	-0.13
879.322	2.2
879.487	-1.14
879.653	0.43
879.819	-0.11
879.985	0.45
880.151	2.24
880.317	1.05
880.483	-0.71
880.648	1.23
880.814	-2.11
880.98	-0.64
881.146	-1.97
881.312	-2.25
881.477	-0.47
881.643	-0.92
881.809	1.85
881.974	1
882.14	-3.23
882.306	-0.04
882.471	1.71
882.637	-1.24
882.803	2.02
882.968	-0.11
883.134	1.08
883.299	0.41
883.465	0.26
883.63	0.06
883.796	-0.43
883.961	1.54
884.127	1.26
884.292	-3.01
884.458	-4.12
884.623	-4.11
