Data from Apollo_Calib_20240827__AbsoluteIrradiance__590__08-59-01-016.txt Node

Date: Wed Aug 28 08:59:01 BST 2024
User: biology
Spectrometer: FLMT08252
Trigger mode: 0
Integration Time (sec): 5.000000E-1
Scans to average: 5
Electric dark correction enabled: true
Nonlinearity correction enabled: false
Boxcar width: 0
XAxis mode: Wavelengths
Number of Pixels in Spectrum: 3648
>>>>>Begin Spectral Data<<<<<
179.588	-0
179.809	-0
180.03	-0
180.251	-0
180.473	-0
180.694	0
180.915	0
181.136	-0
181.357	0
181.578	-0
181.799	-0
182.02	-0
182.241	0
182.462	-0
182.683	0
182.904	-0
183.125	0
183.346	0
183.567	0
183.788	-0
184.009	-0
184.23	0
184.451	0
184.672	-0
184.892	-0
185.113	0
185.334	0
185.555	0
185.776	-0
185.996	0
186.217	0
186.438	0
186.659	-0
186.879	0
187.1	0
187.321	0
187.541	-0
187.762	0
187.983	0
188.203	0
188.424	0
188.644	0
188.865	0
189.086	0
189.306	0
189.527	0
189.747	0
189.968	0
190.188	0
190.409	0
190.629	0
190.849	0
191.07	0
191.29	0
191.511	0
191.731	-0
191.951	0
192.172	0
192.392	0
192.612	0
192.833	0
193.053	0
193.273	0
193.493	0
193.714	0
193.934	0
194.154	0
194.374	0
194.594	0
194.815	0
195.035	0
195.255	0
195.475	0
195.695	0
195.915	0
196.135	0
196.355	0
196.575	0
196.795	0
197.015	-0
197.235	-0
197.455	-0
197.675	0
197.895	0
198.115	0
198.335	0
198.555	-0
198.775	0
198.995	0
199.214	0
199.434	0
199.654	0
199.874	0
200.094	1.26
200.313	0.92
200.533	-0.42
200.753	-0.22
200.973	1.53
201.192	0.4
201.412	-0
201.632	0.2
201.851	1.48
202.071	0.07
202.291	0.34
202.51	-0.01
202.73	0.58
202.95	0.34
203.169	-0.24
203.389	0.5
203.608	0.93
203.828	0.01
204.047	0.16
204.267	0.47
204.486	0.26
204.706	0.61
204.925	0.2
205.145	0.22
205.364	0.7
205.583	0.89
205.803	0.35
206.022	0.05
206.242	0.35
206.461	0.35
206.68	0.22
206.9	0.28
207.119	0.77
207.338	0.98
207.557	0.24
207.777	0.1
207.996	0.07
208.215	0.72
208.434	0.32
208.654	-0.26
208.873	0.19
209.092	1.09
209.311	0.08
209.53	0.14
209.749	0.36
209.968	-0.12
210.187	0.3
210.407	-0.04
210.626	0.22
210.845	0.61
211.064	0.19
211.283	0.07
211.502	0.41
211.721	0.36
211.94	0.09
212.159	0.52
212.377	0.41
212.596	0.52
212.815	0.47
213.034	0.4
213.253	0.6
213.472	0.39
213.691	-0.03
213.91	0.09
214.128	0.19
214.347	0.53
214.566	-0.26
214.785	0.02
215.003	0.2
215.222	0.2
215.441	0.16
215.66	-0.05
215.878	0.25
216.097	0.5
216.316	-0.01
216.534	-0.05
216.753	0.02
216.972	0.36
217.19	-0.01
217.409	0.06
217.627	0.05
217.846	0.14
218.064	0.09
218.283	-0.07
218.501	0.76
218.72	0.37
218.938	0.15
219.157	0
219.375	0.17
219.594	0
219.812	-0.03
220.031	-0.03
220.249	0.4
220.467	0.56
220.686	0.19
220.904	-0.1
221.122	0.05
221.341	0.32
221.559	0.18
221.777	-0.03
221.995	0.19
222.214	0.27
222.432	0.02
222.65	0.27
222.868	0.22
223.086	0.24
223.305	0.27
223.523	0.07
223.741	0.47
223.959	0.05
224.177	0.02
224.395	0.09
224.613	0.13
224.831	0.23
225.049	0.09
225.267	0.01
225.485	0.19
225.703	0.03
225.921	0
226.139	-0.06
226.357	0.26
226.575	0.22
226.793	0.06
227.011	0.55
227.229	0.14
227.447	0.31
227.665	0.05
227.883	-0.22
228.1	0.16
228.318	0.19
228.536	-0.1
228.754	0.02
228.972	0.19
229.189	0.24
229.407	0.01
229.625	0.08
229.843	0.21
230.06	0.19
230.278	0
230.496	0.1
230.713	0.18
230.931	0.26
231.149	0.07
231.366	-0.06
231.584	0.09
231.801	0.44
232.019	0.02
232.236	-0.02
232.454	-0.05
232.671	0.05
232.889	0.06
233.106	-0.01
233.324	0.08
233.541	0.06
233.759	0.04
233.976	0.07
234.194	0.09
234.411	0.01
234.628	-0.05
234.846	0.01
235.063	0.11
235.28	-0.05
235.498	0.04
235.715	-0.06
235.932	0.12
236.149	0.1
236.367	-0.05
236.584	0.2
236.801	0.05
237.018	0.18
237.236	0.17
237.453	-0.08
237.67	0.24
237.887	0.12
238.104	0.14
238.321	-0.02
238.538	0.06
238.755	0.21
238.973	-0.12
239.19	0.11
239.407	0.08
239.624	0.14
239.841	0.01
240.058	0.05
240.275	0.17
240.492	0.05
240.709	0.11
240.925	0.04
241.142	0.1
241.359	0.02
241.576	-0
241.793	0.05
242.01	0.08
242.227	0.17
242.444	0.17
242.66	0.19
242.877	0.11
243.094	0.06
243.311	0.11
243.527	0.06
243.744	0.15
243.961	0.17
244.178	-0.04
244.394	0.03
244.611	0.17
244.828	0.18
245.044	-0.07
245.261	0.04
245.477	0.2
245.694	0.15
245.911	0.01
246.127	0.13
246.344	0.2
246.56	0.13
246.777	0.05
246.993	0.1
247.21	0.16
247.426	0.22
247.643	-0.02
247.859	-0.02
248.076	0.04
248.292	0.19
248.508	0.01
248.725	0.1
248.941	0.12
249.157	0.21
249.374	0.01
249.59	0.05
249.806	0.1
250.023	0.13
250.239	-0.01
250.455	0.05
250.671	0.09
250.888	0.13
251.104	0.16
251.32	0.05
251.536	0.07
251.752	0.02
251.969	0.06
252.185	0.08
252.401	0.24
252.617	0.13
252.833	0.01
253.049	0.13
253.265	0.03
253.481	0.17
253.697	0.03
253.913	0.02
254.129	0.06
254.345	0.04
254.561	0.07
254.777	0.11
254.993	0.19
255.209	0.07
255.425	0.02
255.641	0.03
255.857	0.2
256.073	0.02
256.288	0.02
256.504	0.02
256.72	0.07
256.936	0.14
257.152	0.05
257.367	-0
257.583	0.04
257.799	0.11
258.015	0.01
258.23	0.04
258.446	0.23
258.662	0.04
258.877	-0
259.093	0.01
259.309	0.02
259.524	0.08
259.74	0.01
259.955	-0.03
260.171	0.05
260.387	0.08
260.602	0.21
260.818	0.11
261.033	-0.03
261.249	0.1
261.464	-0.01
261.68	-0.04
261.895	0.04
262.11	0.13
262.326	-0.01
262.541	-0.06
262.757	0.08
262.972	0.12
263.187	0.12
263.403	0.11
263.618	0.12
263.833	0.09
264.049	-0.02
264.264	0
264.479	0.15
264.694	0.11
264.91	-0.01
265.125	0.05
265.34	0.17
265.555	0.16
265.77	0.11
265.986	0.05
266.201	0.12
266.416	0.19
266.631	0.02
266.846	0.04
267.061	0.09
267.276	0.11
267.491	-0.09
267.706	0.05
267.921	0.06
268.136	0.11
268.351	0.11
268.566	0.04
268.781	0.09
268.996	0.09
269.211	0.05
269.426	0.01
269.641	0.02
269.856	0.11
270.071	0
270.285	-0.03
270.5	0.17
270.715	0.06
270.93	0.08
271.145	0.12
271.359	0.14
271.574	0.03
271.789	0.12
272.004	-0.06
272.218	0.07
272.433	0.07
272.648	0.03
272.862	0.12
273.077	0.07
273.292	0.06
273.506	0.01
273.721	0.04
273.936	0.13
274.15	0.1
274.365	0.03
274.579	0.07
274.794	0.04
275.008	0.11
275.223	0.02
275.437	0.05
275.652	0.05
275.866	0.08
276.081	0.01
276.295	0.08
276.509	0.11
276.724	0.02
276.938	0.02
277.153	0.09
277.367	0.12
277.581	0.02
277.796	-0.02
278.01	-0.03
278.224	0.1
278.438	0.19
278.653	-0.03
278.867	-0.01
279.081	-0.13
279.295	0.05
279.51	0.08
279.724	-0.02
279.938	0.03
280.152	0.08
280.366	0.02
280.58	0.04
280.794	0.16
281.008	0.06
281.222	0.07
281.437	0.15
281.651	0.07
281.865	0.14
282.079	0.07
282.293	-0.03
282.507	-0
282.721	0.05
282.935	0.02
283.148	-0.05
283.362	0.03
283.576	0.03
283.79	0.05
284.004	0.02
284.218	0.1
284.432	0.05
284.646	0.07
284.859	0.04
285.073	0.03
285.287	0.06
285.501	0.02
285.714	0.04
285.928	0.04
286.142	0.06
286.356	0
286.569	0.03
286.783	0.15
286.997	0.06
287.21	0.06
287.424	0.04
287.637	0.05
287.851	0.06
288.065	0.08
288.278	0.06
288.492	0.09
288.705	0.03
288.919	0.11
289.132	0
289.346	0.09
289.559	-0.02
289.773	-0.01
289.986	0.03
290.2	0.05
290.413	0.05
290.626	-0.01
290.84	0.03
291.053	0.04
291.267	0.11
291.48	0.08
291.693	0.02
291.906	0.02
292.12	0.06
292.333	-0.02
292.546	0.03
292.76	0.15
292.973	0.07
293.186	0.08
293.399	0.05
293.612	0.07
293.826	0.06
294.039	0.03
294.252	0.01
294.465	0.06
294.678	0.07
294.891	0.06
295.104	-0.01
295.317	0.04
295.53	0.06
295.743	0.06
295.956	0.06
296.169	0.15
296.382	0.14
296.595	0.02
296.808	-0.02
297.021	0.09
297.234	0.07
297.447	0.04
297.66	0.08
297.873	0.09
298.086	0.11
298.299	0.04
298.511	-0.01
298.724	0.03
298.937	0.03
299.15	0.03
299.363	0.05
299.575	0.07
299.788	0.05
300.001	0.04
300.213	0.01
300.426	0.01
300.639	0.02
300.852	0.05
301.064	0.08
301.277	0.12
301.489	0.05
301.702	0.06
301.915	0.04
302.127	0.07
302.34	0.06
302.552	0.04
302.765	0.03
302.977	0.02
303.19	0
303.402	0.06
303.615	0.01
303.827	0.01
304.04	0
304.252	0.05
304.464	0.02
304.677	0.11
304.889	0.04
305.102	-0.03
305.314	0.03
305.526	0.1
305.739	0.03
305.951	-0.01
306.163	0.02
306.375	0.11
306.588	0.01
306.8	-0.02
307.012	-0
307.224	0.05
307.436	0.08
307.649	-0.04
307.861	0.05
308.073	0.07
308.285	0.03
308.497	0.02
308.709	0.01
308.921	0.07
309.133	0.08
309.346	0.01
309.558	0.06
309.77	0.06
309.982	0.11
310.194	0.06
310.406	0
310.617	0.12
310.829	0.04
311.041	0.05
311.253	0
311.465	0.01
311.677	0.04
311.889	0.09
312.101	0.03
312.313	0.09
312.524	0.06
312.736	-0.01
312.948	0.04
313.16	0.15
313.372	0.06
313.583	0.02
313.795	0.01
314.007	0.02
314.218	0.09
314.43	0.03
314.642	0.03
314.853	0.02
315.065	0.11
315.277	0.02
315.488	0.08
315.7	0.01
315.912	0.06
316.123	-0
316.335	0.04
316.546	0.14
316.758	0.05
316.969	0.01
317.181	0.01
317.392	0.06
317.604	0.09
317.815	0.03
318.026	0.01
318.238	0.03
318.449	0.06
318.661	-0.01
318.872	0.01
319.083	-0.03
319.295	0.03
319.506	0.02
319.717	0.05
319.929	0.09
320.14	0.01
320.351	0.06
320.562	0.01
320.774	0.08
320.985	0.03
321.196	0.01
321.407	0.02
321.618	0.14
321.829	0.08
322.041	0.08
322.252	0.03
322.463	0.09
322.674	0.07
322.885	0
323.096	-0.01
323.307	0.07
323.518	0.05
323.729	-0.01
323.94	0.02
324.151	-0.01
324.362	0.05
324.573	0.11
324.784	0.01
324.995	0.06
325.206	0.05
325.417	0.01
325.628	0.03
325.838	0.02
326.049	0.05
326.26	0.08
326.471	0.03
326.682	0.08
326.892	0.06
327.103	-0.01
327.314	-0
327.525	0.12
327.735	0.01
327.946	-0.01
328.157	0.03
328.368	0.03
328.578	-0.01
328.789	0.05
328.999	0.03
329.21	0.03
329.421	0.06
329.631	-0.04
329.842	0.04
330.052	0.08
330.263	0.1
330.473	0.07
330.684	0.06
330.894	0.06
331.105	0.06
331.315	0.08
331.526	-0.04
331.736	0.13
331.947	0.11
332.157	0.06
332.367	-0
332.578	0.07
332.788	0.1
332.999	0.06
333.209	0.05
333.419	-0.01
333.629	0.04
333.84	0.05
334.05	0.04
334.26	0.07
334.47	0
334.681	0.1
334.891	0.02
335.101	0.09
335.311	0.09
335.521	0.02
335.732	-0.01
335.942	0.09
336.152	0.11
336.362	0.04
336.572	0.04
336.782	0.05
336.992	0.05
337.202	0
337.412	-0.02
337.622	0.07
337.832	0.05
338.042	0.05
338.252	0.02
338.462	0.02
338.672	0.03
338.882	0.05
339.092	0
339.302	0.1
339.511	0.04
339.721	-0.01
339.931	-0.01
340.141	0.08
340.351	0.09
340.561	0.07
340.77	0.07
340.98	0.04
341.19	0.06
341.4	0.05
341.609	-0
341.819	0.03
342.029	-0.02
342.238	0.06
342.448	0.01
342.658	0.03
342.867	0.04
343.077	-0.02
343.286	0.03
343.496	0
343.706	0.12
343.915	-0.01
344.125	0.04
344.334	0.06
344.544	-0.04
344.753	0.03
344.963	-0.01
345.172	0.04
345.381	-0
345.591	0.02
345.8	0.06
346.01	0.09
346.219	0.05
346.428	-0.11
346.638	0.03
346.847	0.04
347.056	0.1
347.266	-0.01
347.475	0.05
347.684	0.06
347.893	0.04
348.103	0.06
348.312	0.01
348.521	0.03
348.73	0.05
348.94	0.03
349.149	0.05
349.358	0.06
349.567	0.02
349.776	-0.03
349.985	0.01
350.194	0.06
350.403	0.09
350.612	-0.04
350.821	0.03
351.03	0.01
351.239	0.03
351.448	-0.03
351.657	-0.02
351.866	0.09
352.075	0.04
352.284	0.07
352.493	-0.01
352.702	0.07
352.911	0.02
353.12	0.03
353.329	0.01
353.538	0.07
353.746	0.03
353.955	0.01
354.164	0.08
354.373	0.04
354.582	0.03
354.79	0.05
354.999	0.07
355.208	-0.01
355.416	0.11
355.625	-0.02
355.834	-0
356.042	0.05
356.251	0.04
356.46	0.02
356.668	0.06
356.877	0.1
357.085	0.09
357.294	-0.05
357.503	0.05
357.711	0.04
357.92	0.15
358.128	-0
358.337	0.01
358.545	0.02
358.754	-0
358.962	0.04
359.17	0.03
359.379	0.02
359.587	0.08
359.796	0.06
360.004	0.06
360.212	0.06
360.421	0.06
360.629	0.04
360.837	0.01
361.046	0.05
361.254	0.1
361.462	0.03
361.67	-0.02
361.879	0.04
362.087	0.1
362.295	0.02
362.503	0.02
362.711	-0.02
362.92	0
363.128	-0.01
363.336	0
363.544	-0.02
363.752	-0.01
363.96	0.01
364.168	0
364.376	0.05
364.584	0.03
364.792	0.1
365	0.05
365.208	0.04
365.416	0.04
365.624	0.09
365.832	0
366.04	0.06
366.248	0.07
366.456	0.06
366.664	0.04
366.872	0.03
367.079	0.05
367.287	0.03
367.495	0.05
367.703	0.06
367.911	0.05
368.118	0.02
368.326	0.02
368.534	-0.01
368.742	0.12
368.949	0.02
369.157	0.01
369.365	0.04
369.572	0.02
369.78	-0.01
369.988	0.06
370.195	0.07
370.403	0.04
370.61	-0.02
370.818	0.04
371.026	0.11
371.233	0.01
371.441	0.03
371.648	0.03
371.856	0.05
372.063	0.07
372.271	-0
372.478	-0.01
372.685	-0
372.893	0.1
373.1	0.02
373.308	-0.01
373.515	0.05
373.722	0.06
373.93	0.02
374.137	0.08
374.344	0.1
374.552	0.07
374.759	0.02
374.966	0.04
375.173	0
375.381	0.1
375.588	0.04
375.795	-0.03
376.002	0.02
376.209	0.01
376.417	0.01
376.624	0.04
376.831	0.09
377.038	0.01
377.245	-0.03
377.452	0.02
377.659	0.01
377.866	-0.01
378.073	0.01
378.28	0.04
378.487	0.09
378.694	0.06
378.901	0.03
379.108	0.06
379.315	0.04
379.522	0.08
379.729	0.03
379.936	0.06
380.143	0.03
380.35	0.05
380.557	0.03
380.763	0.03
380.97	0.02
381.177	0.03
381.384	0.09
381.591	0.04
381.797	0.08
382.004	0.04
382.211	0.03
382.418	-0.03
382.624	0.05
382.831	0.08
383.038	0.05
383.244	0.02
383.451	0.03
383.658	0.08
383.864	0
384.071	0.02
384.277	0.06
384.484	0
384.69	0.08
384.897	0.02
385.103	0.02
385.31	0.01
385.516	0.03
385.723	-0.02
385.929	0.04
386.136	0.04
386.342	0.03
386.549	0.01
386.755	0.08
386.961	0.05
387.168	-0.01
387.374	0.05
387.58	0.07
387.787	0.05
387.993	0.05
388.199	0
388.406	0.02
388.612	0
388.818	0.04
389.024	0.02
389.231	0.04
389.437	0.12
389.643	0.06
389.849	0.03
390.055	0.04
390.261	0.05
390.467	0.05
390.674	-0.01
390.88	0.04
391.086	0.04
391.292	-0.03
391.498	0.05
391.704	0.04
391.91	0.05
392.116	-0.02
392.322	-0.04
392.528	0.05
392.734	0.01
392.94	0.04
393.146	0
393.352	0.01
393.557	0.01
393.763	0.03
393.969	0.03
394.175	0.02
394.381	0.03
394.587	0
394.792	0.03
394.998	0.1
395.204	0.02
395.41	0.02
395.615	0.07
395.821	0.06
396.027	0.05
396.233	-0.04
396.438	0.06
396.644	0.1
396.85	0.05
397.055	0.01
397.261	0.04
397.466	0.12
397.672	0.04
397.878	0.06
398.083	0.09
398.289	-0.01
398.494	0.07
398.7	0.02
398.905	-0.04
399.111	0.11
399.316	0.01
399.522	0
399.727	0.02
399.932	0.03
400.138	0.02
400.343	0.07
400.549	0.05
400.754	0.02
400.959	0.02
401.165	0.06
401.37	0.02
401.575	0.14
401.78	0.01
401.986	0.01
402.191	0.01
402.396	0.04
402.601	0.07
402.807	0.03
403.012	0.08
403.217	0.06
403.422	0.03
403.627	0
403.832	0.05
404.037	0.05
404.243	0.05
404.448	0.02
404.653	0.01
404.858	0.05
405.063	0.09
405.268	0.04
405.473	-0.01
405.678	0.04
405.883	0.12
406.088	0.07
406.293	0.01
406.498	0.01
406.703	0.03
406.907	0.04
407.112	-0.01
407.317	0.05
407.522	0.08
407.727	-0.04
407.932	0.03
408.136	0.1
408.341	0.09
408.546	0.05
408.751	0.05
408.956	0.01
409.16	0.07
409.365	-0.01
409.57	0.04
409.774	0
409.979	0.07
410.184	0.08
410.388	-0.02
410.593	0.09
410.798	-0
411.002	0.02
411.207	0.01
411.411	0.05
411.616	0.02
411.82	0.02
412.025	0.06
412.229	-0.03
412.434	0.11
412.638	0.02
412.843	0.05
413.047	0.02
413.252	-0.01
413.456	-0.01
413.66	0.06
413.865	-0.06
414.069	0.1
414.273	0.01
414.478	0.04
414.682	-0.01
414.886	-0.02
415.091	-0.05
415.295	-0.07
415.499	0.08
415.703	0.02
415.908	0
416.112	-0.08
416.316	0.07
416.52	0.02
416.724	-0.06
416.929	0.02
417.133	0.13
417.337	-0.01
417.541	0.03
417.745	0.04
417.949	0.06
418.153	0.02
418.357	0
418.561	0.1
418.765	0
418.969	0.14
419.173	0.05
419.377	0.02
419.581	0.12
419.785	0.03
419.989	-0.01
420.193	0.06
420.397	-0.01
420.601	0.08
420.804	0.04
421.008	0.06
421.212	0.04
421.416	0.04
421.62	-0.01
421.823	0.01
422.027	0.19
422.231	0.05
422.435	-0.03
422.638	0.03
422.842	0.04
423.046	0.01
423.249	0.04
423.453	0.07
423.657	0.04
423.86	-0.02
424.064	0.05
424.268	0.09
424.471	-0
424.675	0.12
424.878	0.05
425.082	0.06
425.285	0.04
425.489	0.02
425.692	0.05
425.896	0
426.099	0.06
426.303	-0.01
426.506	-0.02
426.71	0.08
426.913	0.07
427.116	0.07
427.32	0.06
427.523	0.03
427.726	0.1
427.93	-0.03
428.133	0.01
428.336	-0.02
428.54	0
428.743	0.06
428.946	0.07
429.149	-0
429.353	0.01
429.556	0.02
429.759	0.03
429.962	0.04
430.165	0.03
430.368	0.02
430.571	0
430.775	0.07
430.978	0
431.181	0.1
431.384	0.07
431.587	0.04
431.79	0.03
431.993	0.07
432.196	0.01
432.399	-0.01
432.602	0.09
432.805	0
433.008	-0.03
433.211	-0.03
433.414	0.09
433.616	0.03
433.819	0.01
434.022	-0.02
434.225	0.11
434.428	0.04
434.631	0.15
434.833	0.01
435.036	0.03
435.239	0.06
435.442	0.03
435.645	0.02
435.847	0.02
436.05	0.1
436.253	0.08
436.455	-0.04
436.658	0.03
436.861	0.1
437.063	-0.04
437.266	0.03
437.468	0.05
437.671	0.16
437.874	0.03
438.076	-0.05
438.279	-0.04
438.481	0.01
438.684	-0.02
438.886	0.08
439.089	-0.04
439.291	0.01
439.494	0.04
439.696	-0
439.899	0.04
440.101	0.02
440.303	-0.02
440.506	0.04
440.708	0.03
440.91	0.04
441.113	-0.02
441.315	0.06
441.517	-0.02
441.72	0.05
441.922	-0.02
442.124	-0.02
442.326	0.05
442.529	0.05
442.731	0.02
442.933	0.12
443.135	0.01
443.337	0.01
443.539	0.05
443.742	0.06
443.944	0.02
444.146	0.01
444.348	0.02
444.55	0.01
444.752	0.03
444.954	-0.04
445.156	0.04
445.358	0.03
445.56	0.08
445.762	0.02
445.964	-0.01
446.166	0.02
446.368	0.01
446.57	0.05
446.772	0.04
446.974	0.05
447.175	0.06
447.377	-0.03
447.579	0
447.781	-0.03
447.983	0.09
448.184	0.02
448.386	0.07
448.588	-0.03
448.79	0.04
448.991	-0.01
449.193	-0
449.395	0.06
449.597	0.07
449.798	0.05
450	0.06
450.202	0.04
450.403	0.01
450.605	0.1
450.806	0.05
451.008	-0.01
451.21	0.04
451.411	0.05
451.613	0.04
451.814	-0.01
452.016	0.06
452.217	0.03
452.419	0.08
452.62	0.02
452.821	0.08
453.023	0.07
453.224	0.13
453.426	0.01
453.627	0.05
453.828	0.08
454.03	-0.01
454.231	0.07
454.432	-0.04
454.634	0.12
454.835	-0.03
455.036	-0.02
455.238	0.08
455.439	0.1
455.64	-0.03
455.841	-0
456.042	0.11
456.244	0.09
456.445	0.04
456.646	-0.01
456.847	0.01
457.048	0.08
457.249	0.08
457.45	0.22
457.651	0.02
457.852	0.09
458.054	0.07
458.255	0.02
458.456	0.06
458.657	0.06
458.858	-0.02
459.058	0.07
459.259	0.08
459.46	0.02
459.661	0.07
459.862	0.13
460.063	0.01
460.264	0.11
460.465	0.03
460.666	0.12
460.866	0.02
461.067	0.02
461.268	0.06
461.469	0.04
461.67	0.01
461.87	0
462.071	0.06
462.272	-0.02
462.473	0.03
462.673	0.06
462.874	0
463.075	0.08
463.275	0.08
463.476	0.01
463.676	0.01
463.877	0.05
464.078	-0
464.278	0.11
464.479	0.04
464.679	0.03
464.88	0.05
465.08	0.12
465.281	-0.02
465.481	-0.01
465.682	0.02
465.882	0.08
466.083	0.04
466.283	0.04
466.483	0.06
466.684	-0.02
466.884	-0.01
467.085	-0
467.285	0.06
467.485	-0.04
467.686	0.04
467.886	-0.04
468.086	0.03
468.286	0.03
468.487	0.06
468.687	-0
468.887	0.03
469.087	0.06
469.287	0.05
469.488	-0.04
469.688	0.05
469.888	0.07
470.088	0.06
470.288	0.12
470.488	0.09
470.688	-0.01
470.888	0.04
471.088	-0.03
471.288	0.09
471.488	0.02
471.688	0.02
471.888	0.02
472.088	0.09
472.288	0.01
472.488	-0.02
472.688	0.04
472.888	-0.02
473.088	0.04
473.288	0.03
473.488	0.03
473.688	0.07
473.887	0.03
474.087	0
474.287	0.07
474.487	-0.03
474.687	0.06
474.886	0
475.086	0.01
475.286	0.04
475.486	0.03
475.685	0.01
475.885	0.05
476.085	0.02
476.284	0.03
476.484	-0.01
476.684	0.04
476.883	0.09
477.083	0.07
477.282	-0.01
477.482	0.1
477.681	0.09
477.881	0.02
478.08	-0.01
478.28	-0.01
478.479	0.07
478.679	0.08
478.878	-0
479.078	0.01
479.277	0.02
479.477	0.03
479.676	0.05
479.875	0.03
480.075	-0.02
480.274	0.05
480.473	0.04
480.673	0.02
480.872	0.06
481.071	0.05
481.271	0.03
481.47	-0.01
481.669	0.03
481.868	0.02
482.067	-0.03
482.267	-0
482.466	-0.01
482.665	0.01
482.864	-0
483.063	-0.02
483.262	0.03
483.461	0.07
483.661	0.04
483.86	0.03
484.059	0.03
484.258	0.03
484.457	0
484.656	0.03
484.855	0.07
485.054	-0.01
485.253	-0
485.452	-0.01
485.651	0.02
485.849	0.01
486.048	0.01
486.247	0.01
486.446	0.01
486.645	-0.02
486.844	0
487.043	0.01
487.241	0.04
487.44	-0.03
487.639	0.01
487.838	0.04
488.037	0.02
488.235	0.07
488.434	0.03
488.633	-0
488.831	0.03
489.03	0.04
489.229	0.03
489.427	0.01
489.626	0.05
489.825	0.08
490.023	0.01
490.222	0.01
490.42	0.04
490.619	0.06
490.817	0.05
491.016	0.01
491.214	0.05
491.413	0.01
491.611	-0
491.81	0.03
492.008	0.04
492.207	0.03
492.405	0
492.604	-0.03
492.802	-0.01
493	0.02
493.199	-0
493.397	0.02
493.595	0.01
493.794	-0.01
493.992	0.06
494.19	0
494.388	0.04
494.587	0
494.785	0
494.983	-0.02
495.181	0.02
495.379	0.02
495.578	0.02
495.776	0.04
495.974	0.04
496.172	0.01
496.37	-0.01
496.568	-0
496.766	-0.02
496.964	0.04
497.162	0.02
497.36	-0.01
497.558	0.04
497.756	0.01
497.954	-0.01
498.152	-0.02
498.35	-0
498.548	0.02
498.746	0.02
498.944	-0.01
499.142	0
499.34	-0.02
499.538	-0
499.736	-0
499.933	0.05
500.131	0.04
500.329	0.03
500.527	0.05
500.725	0.05
500.922	0.04
501.12	0.01
501.318	0.04
501.516	-0.02
501.713	0.02
501.911	0.01
502.109	0
502.306	0.02
502.504	0.03
502.701	0.01
502.899	-0
503.097	0.05
503.294	0.03
503.492	0
503.689	0.03
503.887	0.03
504.084	0.02
504.282	0.02
504.479	-0.02
504.677	0.02
504.874	-0.02
505.072	0.02
505.269	0.01
505.466	0.02
505.664	0.02
505.861	-0.05
506.059	-0.02
506.256	0.04
506.453	-0.02
506.651	0.05
506.848	0.05
507.045	0.03
507.242	0.03
507.44	0.02
507.637	0.01
507.834	0.01
508.031	0.05
508.229	-0
508.426	0.02
508.623	0.03
508.82	0.02
509.017	-0
509.214	0.02
509.411	0.01
509.608	-0.02
509.805	0.01
510.003	-0.02
510.2	0.01
510.397	0.05
510.594	0.02
510.791	0
510.988	0.02
511.184	0.04
511.381	0.01
511.578	-0.01
511.775	0.03
511.972	0.01
512.169	0.01
512.366	0.03
512.563	0.03
512.76	-0.01
512.956	0
513.153	0.01
513.35	0.03
513.547	0.02
513.744	-0.01
513.94	-0.02
514.137	0.03
514.334	0.03
514.53	0.02
514.727	0.02
514.924	0.07
515.12	0
515.317	-0.04
515.514	0.03
515.71	0.01
515.907	0
516.103	0.01
516.3	0.03
516.497	0.04
516.693	0.04
516.89	0.02
517.086	-0.01
517.283	0.03
517.479	0.01
517.676	0
517.872	0.02
518.068	0
518.265	0.02
518.461	0
518.658	-0.01
518.854	0.02
519.05	0.02
519.247	-0
519.443	0.02
519.639	0.03
519.836	0.01
520.032	0.01
520.228	0.01
520.424	0.05
520.621	0.02
520.817	0.01
521.013	0.03
521.209	0.02
521.405	0.04
521.601	0
521.798	0.02
521.994	0.05
522.19	0
522.386	0
522.582	0.02
522.778	-0.01
522.974	0.02
523.17	0.02
523.366	-0.01
523.562	0.02
523.758	0
523.954	-0.01
524.15	-0.01
524.346	0.05
524.542	-0.01
524.738	0.01
524.934	0
525.129	-0.06
525.325	0.02
525.521	-0
525.717	0.02
525.913	0.04
526.109	0.01
526.304	0.02
526.5	0.03
526.696	0.04
526.892	0.02
527.087	0.04
527.283	0.01
527.479	0.03
527.674	0.01
527.87	0.02
528.066	0.03
528.261	0.04
528.457	0.01
528.653	0.03
528.848	0.01
529.044	0.03
529.239	0.03
529.435	0.04
529.63	0.02
529.826	0.06
530.021	0.02
530.217	0.03
530.412	0.02
530.608	0
530.803	0.03
530.999	0.01
531.194	-0.02
531.389	0.01
531.585	-0.02
531.78	-0
531.975	0.02
532.171	0.04
532.366	-0.01
532.561	0.02
532.757	-0.01
532.952	0.02
533.147	0.05
533.342	0
533.538	-0.01
533.733	0.04
533.928	0.03
534.123	-0
534.318	0
534.513	-0
534.709	0.01
534.904	0.02
535.099	0
535.294	0.02
535.489	0.02
535.684	0
535.879	-0.02
536.074	0.04
536.269	0.01
536.464	0.01
536.659	0.04
536.854	0.02
537.049	0.02
537.244	0.02
537.439	0.01
537.634	0.04
537.828	0.03
538.023	0.02
538.218	-0.01
538.413	0.01
538.608	-0.02
538.803	0.05
538.997	-0.03
539.192	0.03
539.387	-0
539.582	0.03
539.776	0.04
539.971	0.02
540.166	0.02
540.36	-0.01
540.555	0.02
540.75	0
540.944	0.02
541.139	-0.01
541.334	0.02
541.528	0.04
541.723	0.05
541.917	0.01
542.112	-0.01
542.306	-0.02
542.501	0.01
542.695	0.03
542.89	-0
543.084	0.02
543.279	0.02
543.473	0.03
543.668	0.02
543.862	0.01
544.056	0.04
544.251	-0
544.445	0.03
544.64	0.01
544.834	-0.02
545.028	0
545.222	0.02
545.417	0.05
545.611	0.03
545.805	0.01
546	-0.01
546.194	0.03
546.388	0
546.582	0.04
546.776	0.01
546.97	0.01
547.165	0.04
547.359	0.04
547.553	-0.01
547.747	0
547.941	0.02
548.135	0.01
548.329	0.04
548.523	0.05
548.717	0.04
548.911	0.01
549.105	0.03
549.299	0.01
549.493	0.04
549.687	0.02
549.881	0.04
550.075	0.02
550.269	-0
550.463	0.04
550.657	0.01
550.85	0.03
551.044	0.02
551.238	0.02
551.432	-0
551.626	-0.02
551.82	0.02
552.013	0.01
552.207	0.02
552.401	0.03
552.594	0.03
552.788	0.02
552.982	0.01
553.176	-0
553.369	0.03
553.563	0.04
553.756	-0.01
553.95	0
554.144	0.02
554.337	0.05
554.531	0.03
554.724	0.01
554.918	0.02
555.111	0.04
555.305	0.03
555.498	0.06
555.692	0.03
555.885	0.02
556.079	0.03
556.272	0.02
556.466	0.03
556.659	0.03
556.852	0.02
557.046	0.02
557.239	0.04
557.432	-0.02
557.626	0.02
557.819	0.02
558.012	0.05
558.206	0.05
558.399	0.02
558.592	0.03
558.785	0.02
558.979	0.03
559.172	0.03
559.365	0.03
559.558	0.03
559.751	0.03
559.944	0.04
560.138	-0.01
560.331	0.02
560.524	0.01
560.717	0.04
560.91	0.02
561.103	0.05
561.296	0.03
561.489	0.04
561.682	0.03
561.875	0.06
562.068	0.05
562.261	0.02
562.454	0.05
562.647	0.03
562.84	0.03
563.032	0.03
563.225	0.03
563.418	0.03
563.611	0.01
563.804	0.03
563.997	-0.01
564.19	-0
564.382	-0.03
564.575	0.01
564.768	0.03
564.961	-0.01
565.153	0.02
565.346	0.05
565.539	0.06
565.731	0.03
565.924	0.05
566.117	0.06
566.309	0.03
566.502	0.02
566.695	0.03
566.887	0.04
567.08	0.01
567.272	0
567.465	-0.01
567.657	0.04
567.85	0.04
568.042	0.06
568.235	0.03
568.427	0.02
568.62	0.03
568.812	0.06
569.005	0.04
569.197	0
569.389	0.02
569.582	0.04
569.774	0.04
569.966	0.02
570.159	0.01
570.351	0.03
570.543	0.02
570.736	0.04
570.928	0.02
571.12	0.04
571.312	0.01
571.505	0.01
571.697	0.09
571.889	0.01
572.081	0.01
572.273	0
572.465	0.06
572.658	0.03
572.85	0.03
573.042	0.03
573.234	0.02
573.426	0.09
573.618	0
573.81	0.03
574.002	0.06
574.194	0.07
574.386	-0.01
574.578	-0
574.77	-0.01
574.962	0.03
575.154	0.01
575.346	0.02
575.538	0.04
575.729	0.02
575.921	0.02
576.113	0.04
576.305	0.06
576.497	0.04
576.689	0.04
576.88	-0
577.072	0.07
577.264	0.03
577.456	0.03
577.647	-0.03
577.839	0.03
578.031	0.06
578.223	0.01
578.414	0.02
578.606	0.06
578.798	0.06
578.989	0.03
579.181	0.03
579.372	0.03
579.564	0.03
579.755	0.06
579.947	0.04
580.139	0.06
580.33	-0.01
580.522	0.02
580.713	-0.01
580.905	0.02
581.096	0.05
581.287	0.03
581.479	0.05
581.67	0.04
581.862	0.06
582.053	0.02
582.244	-0.02
582.436	0.05
582.627	0.03
582.818	0.04
583.01	0
583.201	0.07
583.392	0.06
583.583	0.06
583.775	0.02
583.966	0
584.157	0.03
584.348	0.04
584.54	0.02
584.731	0.07
584.922	0.04
585.113	0.05
585.304	0.07
585.495	0.04
585.686	0.04
585.877	0.07
586.068	0.04
586.259	0.05
586.45	0.05
586.641	0.02
586.832	0.02
587.023	0.08
587.214	0.06
587.405	0.01
587.596	0.02
587.787	0.08
587.978	0.07
588.169	0.04
588.36	0.02
588.551	0.04
588.742	0.04
588.932	0.06
589.123	0.03
589.314	0.07
589.505	0.07
589.696	0.07
589.886	0.03
590.077	0.02
590.268	0.06
590.458	-0.01
590.649	0.02
590.84	0.07
591.03	0.04
591.221	-0.01
591.412	0.03
591.602	0.1
591.793	0.08
591.984	0.03
592.174	0.04
592.365	0.13
592.555	0.05
592.746	0.08
592.936	0.08
593.127	0.08
593.317	0.1
593.508	0.05
593.698	0.06
593.889	0.05
594.079	0.06
594.269	0.05
594.46	0.05
594.65	0.09
594.84	0.09
595.031	0.04
595.221	0.05
595.411	0.06
595.602	0.09
595.792	0.07
595.982	0.05
596.172	0.12
596.363	0.11
596.553	0.12
596.743	0.09
596.933	0.1
597.123	0.09
597.314	0.06
597.504	0.07
597.694	0.12
597.884	0.09
598.074	0.09
598.264	0.08
598.454	0.11
598.644	0.11
598.834	0.1
599.024	0.08
599.214	0.09
599.404	0.14
599.594	0.09
599.784	0.08
599.974	0.17
600.164	0.14
600.354	0.08
600.544	0.09
600.734	0.1
600.924	0.15
601.114	0.12
601.303	0.12
601.493	0.12
601.683	0.11
601.873	0.12
602.063	0.07
602.252	0.14
602.442	0.09
602.632	0.08
602.821	0.1
603.011	0.16
603.201	0.12
603.39	0.12
603.58	0.13
603.77	0.17
603.959	0.19
604.149	0.15
604.339	0.13
604.528	0.2
604.718	0.18
604.907	0.14
605.097	0.15
605.286	0.12
605.476	0.19
605.665	0.16
605.855	0.16
606.044	0.22
606.234	0.19
606.423	0.19
606.612	0.14
606.802	0.2
606.991	0.19
607.181	0.21
607.37	0.15
607.559	0.19
607.749	0.19
607.938	0.21
608.127	0.2
608.316	0.22
608.506	0.22
608.695	0.24
608.884	0.23
609.073	0.24
609.263	0.25
609.452	0.27
609.641	0.24
609.83	0.2
610.019	0.22
610.208	0.22
610.397	0.23
610.586	0.28
610.775	0.23
610.965	0.24
611.154	0.26
611.343	0.29
611.532	0.28
611.721	0.28
611.91	0.3
612.099	0.3
612.287	0.29
612.476	0.27
612.665	0.35
612.854	0.29
613.043	0.4
613.232	0.34
613.421	0.31
613.61	0.37
613.798	0.35
613.987	0.39
614.176	0.39
614.365	0.41
614.554	0.39
614.742	0.4
614.931	0.4
615.12	0.48
615.309	0.4
615.497	0.45
615.686	0.41
615.875	0.44
616.063	0.45
616.252	0.43
616.44	0.46
616.629	0.46
616.818	0.49
617.006	0.51
617.195	0.52
617.383	0.55
617.572	0.55
617.76	0.51
617.949	0.54
618.137	0.57
618.326	0.61
618.514	0.56
618.703	0.53
618.891	0.67
619.079	0.56
619.268	0.63
619.456	0.61
619.644	0.7
619.833	0.68
620.021	0.67
620.209	0.63
620.398	0.72
620.586	0.73
620.774	0.79
620.962	0.74
621.151	0.84
621.339	0.8
621.527	0.74
621.715	0.77
621.903	0.82
622.092	0.79
622.28	0.88
622.468	0.84
622.656	0.9
622.844	0.9
623.032	0.93
623.22	0.89
623.408	1.01
623.596	0.99
623.784	1
623.972	1.02
624.16	1.02
624.348	1.07
624.536	1.12
624.724	1.04
624.912	1.13
625.1	1.19
625.288	1.16
625.476	1.14
625.664	1.26
625.851	1.16
626.039	1.28
626.227	1.3
626.415	1.3
626.603	1.29
626.79	1.36
626.978	1.4
627.166	1.48
627.354	1.41
627.541	1.42
627.729	1.4
627.917	1.55
628.104	1.55
628.292	1.56
628.48	1.61
628.667	1.59
628.855	1.7
629.042	1.75
629.23	1.7
629.418	1.74
629.605	1.76
629.793	1.8
629.98	1.81
630.168	1.85
630.355	1.96
630.543	1.98
630.73	1.95
630.917	2.05
631.105	2.07
631.292	2.09
631.48	2.12
631.667	2.24
631.854	2.2
632.042	2.27
632.229	2.2
632.416	2.33
632.604	2.37
632.791	2.35
632.978	2.48
633.165	2.52
633.353	2.57
633.54	2.63
633.727	2.59
633.914	2.62
634.101	2.65
634.289	2.81
634.476	2.71
634.663	2.81
634.85	2.84
635.037	2.87
635.224	2.9
635.411	3.02
635.598	3.1
635.785	3.07
635.972	3.13
636.159	3.17
636.346	3.23
636.533	3.3
636.72	3.36
636.907	3.4
637.094	3.46
637.281	3.38
637.468	3.53
637.655	3.6
637.842	3.69
638.029	3.7
638.215	3.81
638.402	3.87
638.589	3.85
638.776	3.98
638.963	4.03
639.149	4.15
639.336	4.22
639.523	4.24
639.709	4.26
639.896	4.33
640.083	4.42
640.27	4.56
640.456	4.56
640.643	4.61
640.829	4.55
641.016	4.75
641.203	4.81
641.389	4.91
641.576	5.05
641.762	5.12
641.949	5.11
642.135	5.23
642.322	5.35
642.508	5.36
642.695	5.6
642.881	5.55
643.068	5.64
643.254	5.82
643.441	5.9
643.627	5.99
643.813	5.97
644	6.23
644.186	6.26
644.372	6.38
644.559	6.48
644.745	6.52
644.931	6.63
645.118	6.75
645.304	6.91
645.49	7.09
645.676	7.14
645.862	7.26
646.049	7.51
646.235	7.49
646.421	7.8
646.607	7.91
646.793	7.88
646.979	7.98
647.165	8.22
647.352	8.32
647.538	8.42
647.724	8.61
647.91	8.73
648.096	8.9
648.282	9.16
648.468	9.17
648.654	9.42
648.84	9.55
649.026	9.79
649.212	9.73
649.397	9.9
649.583	10.28
649.769	10.31
649.955	10.42
650.141	10.74
650.327	10.69
650.513	11.03
650.698	11.07
650.884	11.2
651.07	11.6
651.256	11.53
651.442	11.88
651.627	11.82
651.813	12.32
651.999	12.35
652.184	12.42
652.37	12.81
652.556	12.9
652.741	12.99
652.927	12.96
653.113	13.41
653.298	13.47
653.484	13.77
653.669	13.96
653.855	13.99
654.04	14.3
654.226	14.39
654.412	14.58
654.597	14.57
654.782	14.95
654.968	15
655.153	15.29
655.339	15.3
655.524	15.57
655.71	15.75
655.895	16.06
656.08	16.09
656.266	16.39
656.451	16.3
656.636	16.52
656.822	16.63
657.007	16.86
657.192	16.93
657.378	17.08
657.563	16.97
657.748	17.16
657.933	17.42
658.118	17.12
658.304	17.58
658.489	17.69
658.674	17.62
658.859	17.41
659.044	17.57
659.229	17.64
659.414	17.77
659.599	17.68
659.785	17.5
659.97	17.45
660.155	17.44
660.34	17.41
660.525	17.17
660.71	17.02
660.895	16.88
661.08	16.82
661.264	16.45
661.449	16.22
661.634	15.92
661.819	15.94
662.004	15.31
662.189	15.23
662.374	14.96
662.559	14.52
662.743	14.11
662.928	13.89
663.113	13.47
663.298	13.3
663.483	12.93
663.667	12.41
663.852	12.17
664.037	11.88
664.221	11.59
664.406	11.25
664.591	10.9
664.775	10.55
664.96	10.16
665.145	9.71
665.329	9.59
665.514	9.31
665.698	8.82
665.883	8.52
666.068	8.26
666.252	8.06
666.437	7.7
666.621	7.52
666.806	7.25
666.99	6.95
667.174	6.7
667.359	6.54
667.543	6.27
667.728	5.93
667.912	5.78
668.096	5.61
668.281	5.36
668.465	5.23
668.649	5
668.834	4.76
669.018	4.75
669.202	4.59
669.387	4.32
669.571	4.32
669.755	4.09
669.939	3.9
670.124	3.75
670.308	3.61
670.492	3.55
670.676	3.4
670.86	3.26
671.044	3.1
671.228	3.15
671.413	2.94
671.597	2.85
671.781	2.79
671.965	2.75
672.149	2.65
672.333	2.51
672.517	2.41
672.701	2.29
672.885	2.31
673.069	2.13
673.253	2.19
673.437	1.96
673.621	2.04
673.804	1.96
673.988	1.87
674.172	1.81
674.356	1.7
674.54	1.69
674.724	1.77
674.908	1.55
675.091	1.59
675.275	1.46
675.459	1.49
675.643	1.4
675.826	1.35
676.01	1.35
676.194	1.31
676.377	1.32
676.561	1.24
676.745	1.18
676.928	1.17
677.112	1.17
677.296	1.05
677.479	1.04
677.663	1.01
677.846	1.01
678.03	0.97
678.213	0.87
678.397	0.92
678.58	0.85
678.764	0.84
678.947	0.74
679.131	0.74
679.314	0.77
679.498	0.74
679.681	0.72
679.865	0.73
680.048	0.66
680.231	0.65
680.415	0.64
680.598	0.56
680.781	0.56
680.965	0.55
681.148	0.59
681.331	0.49
681.514	0.59
681.698	0.51
681.881	0.57
682.064	0.49
682.247	0.46
682.43	0.4
682.614	0.48
682.797	0.54
682.98	0.46
683.163	0.42
683.346	0.41
683.529	0.36
683.712	0.37
683.895	0.41
684.078	0.35
684.261	0.32
684.444	0.37
684.627	0.36
684.81	0.33
684.993	0.32
685.176	0.35
685.359	0.26
685.542	0.3
685.725	0.36
685.908	0.3
686.091	0.24
686.274	0.36
686.457	0.27
686.639	0.26
686.822	0.34
687.005	0.25
687.188	0.26
687.371	0.36
687.553	0.29
687.736	0.33
687.919	0.32
688.102	0.32
688.284	0.22
688.467	0.27
688.65	0.17
688.832	0.18
689.015	0.27
689.197	0.2
689.38	0.28
689.563	0.32
689.745	0.19
689.928	0.24
690.11	0.23
690.293	0.22
690.475	0.16
690.658	0.19
690.84	0.2
691.023	0.21
691.205	0.16
691.388	0.17
691.57	0.24
691.752	0.22
691.935	0.11
692.117	0.14
692.3	0.18
692.482	0.17
692.664	0.19
692.847	0.18
693.029	0.22
693.211	0.18
693.393	0.15
693.576	0.11
693.758	0.16
693.94	0.12
694.122	0.11
694.304	0.19
694.487	0.14
694.669	0.25
694.851	0.08
695.033	0.14
695.215	0.1
695.397	0.12
695.579	0.16
695.761	0.08
695.943	0.08
696.125	0.2
696.308	0.14
696.49	0.03
696.671	0.21
696.853	0.09
697.035	0.28
697.217	0.13
697.399	0.16
697.581	0.07
697.763	0.14
697.945	0.03
698.127	0.1
698.309	0.13
698.491	0.11
698.672	0.11
698.854	0.15
699.036	0.16
699.218	0.06
699.399	0.17
699.581	0.13
699.763	0.07
699.945	0.07
700.126	0.07
700.308	0.14
700.49	0.12
700.671	0.01
700.853	0.1
701.035	0.1
701.216	0.1
701.398	0.06
701.579	0.05
701.761	0.17
701.943	0.04
702.124	0.03
702.306	0.12
702.487	0.26
702.669	0.08
702.85	0.04
703.031	0.02
703.213	0.1
703.394	0.18
703.576	0.07
703.757	0.11
703.938	0.14
704.12	0.19
704.301	0.09
704.483	0.06
704.664	0.15
704.845	0.18
705.026	0.06
705.208	0.07
705.389	0.08
705.57	0.07
705.751	0.09
705.933	0.11
706.114	0.15
706.295	0.1
706.476	0.05
706.657	0.2
706.838	0.16
707.02	0.17
707.201	0.03
707.382	0
707.563	0.11
707.744	0.06
707.925	0.03
708.106	0.02
708.287	0.1
708.468	0.18
708.649	0.09
708.83	0.14
709.011	0.06
709.192	0.12
709.373	-0.03
709.554	0.03
709.734	0.09
709.915	0.07
710.096	0.05
710.277	-0.04
710.458	0.04
710.639	0.17
710.819	-0.01
711	0.05
711.181	0.13
711.362	0.16
711.542	0.12
711.723	0.01
711.904	0.17
712.085	0.13
712.265	0.07
712.446	0.05
712.627	0.08
712.807	0.05
712.988	0.08
713.168	0.03
713.349	0.08
713.53	-0.11
713.71	0.01
713.891	0.07
714.071	0.06
714.252	0.05
714.432	0.05
714.613	-0.04
714.793	0.09
714.974	0.15
715.154	0.17
715.334	0.1
715.515	0.12
715.695	0.03
715.876	0.09
716.056	0.01
716.236	0.04
716.417	0.07
716.597	-0.02
716.777	0.15
716.957	0.07
717.138	0.06
717.318	0.12
717.498	0.01
717.678	0.05
717.859	0.11
718.039	-0.04
718.219	0.1
718.399	0.12
718.579	-0.01
718.759	0.02
718.939	0.02
719.12	0.04
719.3	0.1
719.48	-0.05
719.66	-0.09
719.84	0.15
720.02	0.07
720.2	0.04
720.38	0.14
720.56	0.13
720.74	0.02
720.92	0.04
721.1	0.07
721.279	0.08
721.459	0.11
721.639	-0.04
721.819	0.1
721.999	0.07
722.179	0.13
722.359	0.02
722.538	0.07
722.718	0.09
722.898	0.02
723.078	0.05
723.257	0.01
723.437	0.05
723.617	0.13
723.797	0.08
723.976	0.1
724.156	0.08
724.336	0.19
724.515	0.25
724.695	-0.05
724.874	0.02
725.054	0.12
725.234	0.01
725.413	0.13
725.593	0.1
725.772	0.03
725.952	0.1
726.131	0.05
726.311	0
726.49	0.06
726.67	-0
726.849	-0.02
727.028	0.15
727.208	0.05
727.387	0.09
727.567	-0.05
727.746	0.03
727.925	0.05
728.105	0.03
728.284	0.06
728.463	-0.16
728.643	0.05
728.822	-0.03
729.001	0.11
729.18	0.03
729.359	0.03
729.539	0.02
729.718	-0.05
729.897	0.09
730.076	0.05
730.255	0.04
730.434	0.06
730.614	0.09
730.793	0.27
730.972	-0.04
731.151	0.12
731.33	0.08
731.509	0.17
731.688	0.04
731.867	0.03
732.046	-0.06
732.225	0.29
732.404	0.06
732.583	-0
732.762	0.03
732.941	0.16
733.12	0.08
733.298	0.02
733.477	0.16
733.656	-0.04
733.835	-0.02
734.014	0.19
734.193	0.05
734.371	0.09
734.55	0.18
734.729	-0.12
734.908	0.13
735.086	0.08
735.265	0.08
735.444	-0.04
735.623	-0.07
735.801	0.01
735.98	0.06
736.159	-0.01
736.337	0.23
736.516	0.11
736.694	0.04
736.873	-0.01
737.052	0.19
737.23	0.2
737.409	-0.03
737.587	0.22
737.766	-0.05
737.944	-0.02
738.123	0.14
738.301	0.09
738.479	0.11
738.658	0.09
738.836	-0.07
739.015	0.06
739.193	0.08
739.371	-0.11
739.55	0.04
739.728	-0.07
739.906	0.18
740.085	0.18
740.263	0.02
740.441	-0.1
740.62	0.29
740.798	0.13
740.976	0.1
741.154	-0.05
741.332	0.12
741.511	-0
741.689	0.06
741.867	0.19
742.045	0.07
742.223	0.09
742.401	-0.12
742.579	0.04
742.757	0
742.935	-0.1
743.114	0.05
743.292	0.02
743.47	0.09
743.648	-0
743.826	0.04
744.004	0.09
744.181	0.16
744.359	0.06
744.537	0.05
744.715	0.07
744.893	-0.02
745.071	0.09
745.249	-0
745.427	0.04
745.605	0.07
745.782	0.09
745.96	0.12
746.138	0.09
746.316	0.07
746.493	-0
746.671	-0
746.849	0.02
747.027	0.15
747.204	-0.02
747.382	0.13
747.56	-0.06
747.737	0.08
747.915	0.13
748.093	0.13
748.27	0.1
748.448	0.03
748.625	-0.04
748.803	-0.05
748.98	-0
749.158	0.1
749.335	0.1
749.513	0.04
749.69	0.07
749.868	-0
750.045	0.14
750.223	-0.09
750.4	-0.09
750.578	0.2
750.755	0.01
750.932	-0.11
751.11	0.23
751.287	-0.04
751.464	0.13
751.642	0.03
751.819	0.1
751.996	0.07
752.173	0.01
752.351	-0.03
752.528	0.12
752.705	0.1
752.882	0.09
753.06	0.1
753.237	0.01
753.414	0.21
753.591	0.2
753.768	0.14
753.945	0.07
754.122	0.05
754.299	0.15
754.476	-0.06
754.654	0.16
754.831	0.16
755.008	0.08
755.185	0
755.362	-0.08
755.539	0.06
755.716	-0.01
755.892	0.05
756.069	-0.06
756.246	0.02
756.423	0.05
756.6	0.17
756.777	-0.03
756.954	0.05
757.131	0.12
757.307	0
757.484	-0.05
757.661	0.03
757.838	0.12
758.015	-0.03
758.191	0.24
758.368	0.13
758.545	0.15
758.721	0.09
758.898	-0.03
759.075	0.03
759.251	0.13
759.428	0.15
759.605	0.02
759.781	-0.02
759.958	0.06
760.134	0.09
760.311	-0.11
760.488	0.14
760.664	0.2
760.841	0.11
761.017	-0.07
761.194	0.13
761.37	0.14
761.547	0.13
761.723	-0.02
761.899	0.25
762.076	-0
762.252	-0.11
762.429	-0.1
762.605	0.15
762.781	0.01
762.958	0.1
763.134	0.05
763.31	-0.06
763.486	0.22
763.663	-0.01
763.839	0.05
764.015	-0.07
764.191	0.05
764.368	0.04
764.544	-0.03
764.72	0.13
764.896	0.13
765.072	0.09
765.248	0.04
765.425	0.01
765.601	0.01
765.777	-0.01
765.953	-0.16
766.129	-0.01
766.305	0.02
766.481	0.17
766.657	-0
766.833	0.17
767.009	-0.09
767.185	-0.04
767.361	-0.03
767.537	-0.03
767.713	0.18
767.889	-0.05
768.065	0.19
768.24	-0.15
768.416	0.21
768.592	0.07
768.768	0.07
768.944	0.1
769.12	-0.14
769.295	-0.01
769.471	-0.03
769.647	0.11
769.823	0.18
769.998	-0.02
770.174	-0.06
770.35	0.25
770.525	0.34
770.701	-0.02
770.877	-0.01
771.052	0.03
771.228	0.22
771.403	0.14
771.579	0.16
771.755	0.2
771.93	0.14
772.106	-0.03
772.281	-0.11
772.457	-0.06
772.632	0.15
772.808	-0.1
772.983	0.1
773.159	-0.1
773.334	0.13
773.509	0.07
773.685	0.02
773.86	0.26
774.036	0.3
774.211	0.13
774.386	-0.04
774.562	0.05
774.737	-0.05
774.912	-0.09
775.087	0.17
775.263	0.14
775.438	0.1
775.613	0.03
775.788	0.02
775.964	-0
776.139	0.4
776.314	-0.12
776.489	0.13
776.664	0.08
776.839	0.09
777.014	0.21
777.19	0.19
777.365	0.26
777.54	0.19
777.715	-0.04
777.89	0.03
778.065	-0.14
778.24	0.05
778.415	0.25
778.59	-0.08
778.765	-0.06
778.94	0.25
779.115	0.16
779.289	0.01
779.464	0.06
779.639	-0.01
779.814	-0.21
779.989	-0.03
780.164	0.15
780.339	0.18
780.513	0.04
780.688	-0.11
780.863	0.14
781.038	0.18
781.212	-0.06
781.387	0.09
781.562	0.3
781.737	-0.11
781.911	0.26
782.086	-0.07
782.261	0.02
782.435	0.27
782.61	-0.01
782.784	0.06
782.959	0.08
783.134	-0.13
783.308	-0.06
783.483	-0.19
783.657	0.37
783.832	0.2
784.006	-0.1
784.181	0.06
784.355	0.13
784.53	-0.13
784.704	-0.13
784.878	0.22
785.053	0.17
785.227	0.22
785.402	0.49
785.576	-0.2
785.75	-0.06
785.925	-0.03
786.099	0.15
786.273	0.28
786.448	0.31
786.622	0.18
786.796	-0.05
786.97	0.02
787.145	0.69
787.319	-0.37
787.493	-0.02
787.667	0.04
787.841	0.13
788.015	0.41
788.19	0.06
788.364	0.21
788.538	0.1
788.712	0.19
788.886	0.03
789.06	0.13
789.234	0.2
789.408	-0.02
789.582	-0.01
789.756	-0.02
789.93	-0.04
790.104	0.02
790.278	0.03
790.452	-0.12
790.626	0.11
790.8	-0.09
790.973	0.24
791.147	0.11
791.321	0.3
791.495	0.22
791.669	-0.01
791.843	-0.13
792.016	0.17
792.19	0.35
792.364	0.01
792.538	0.42
792.711	0.32
792.885	0.04
793.059	-0.13
793.233	-0.5
793.406	0.15
793.58	0.16
793.754	0.07
793.927	-0.16
794.101	0.41
794.274	0.02
794.448	0.17
794.622	-0.1
794.795	0.74
794.969	-0.16
795.142	0.57
795.316	-0.12
795.489	0.01
795.663	0.52
795.836	0.07
796.009	-0.01
796.183	0.23
796.356	-0.04
796.53	0.03
796.703	-0
796.876	0.74
797.05	-0.14
797.223	-0.16
797.396	0.1
797.57	0.19
797.743	0.37
797.916	0.31
798.09	0.04
798.263	0.44
798.436	0.1
798.609	0.02
798.782	-0.05
798.956	0.26
799.129	0.04
799.302	-0.06
799.475	-0.06
799.648	-0.22
799.821	0.05
799.994	0.06
800.167	-0.17
800.34	-0.1
800.514	0.14
800.687	-0.05
800.86	0.09
801.033	-0.17
801.206	-0.03
801.379	-0.05
801.551	0.32
801.724	0.2
801.897	0.61
802.07	-0
802.243	-0.5
802.416	0.18
802.589	-0.31
802.762	0.32
802.935	0.1
803.107	0.39
803.28	0.5
803.453	0.38
803.626	-0.01
803.798	-0.09
803.971	0.05
804.144	0.41
804.317	-0.03
804.489	0.19
804.662	0.1
804.835	0.08
805.007	-0.12
805.18	0.42
805.353	-0
805.525	-0.19
805.698	-0.04
805.87	0.14
806.043	0.12
806.215	-0.23
806.388	-0.17
806.56	0.1
806.733	0.22
806.905	0.24
807.078	0.39
807.25	0.06
807.423	0.12
807.595	-0.01
807.768	0.13
807.94	0.3
808.112	0.35
808.285	0.47
808.457	-0.3
808.629	-0.15
808.802	0.35
808.974	0.09
809.146	-0.14
809.318	-0.51
809.491	0.16
809.663	0.35
809.835	-0.13
810.007	0.72
810.18	0.03
810.352	-0.37
810.524	0.05
810.696	0.06
810.868	0.46
811.04	0.13
811.212	-0.14
811.384	0.3
811.556	-0.16
811.728	0.22
811.901	0.81
812.073	0
812.245	0.5
812.417	0.16
812.589	-0.74
812.76	-0.01
812.932	0.19
813.104	0.35
813.276	0.27
813.448	0.37
813.62	-0.04
813.792	-0.1
813.964	0.47
814.136	0.22
814.307	0.01
814.479	0.06
814.651	0.24
814.823	0.76
814.995	0.03
815.166	0.43
815.338	-0.34
815.51	-0.23
815.681	0.97
815.853	-0.2
816.025	0.26
816.196	0.49
816.368	0.43
816.54	-0.51
816.711	-0.23
816.883	0.7
817.054	0.87
817.226	-0.23
817.398	0.2
817.569	-0.4
817.741	0.15
817.912	-0.05
818.084	0.05
818.255	0.41
818.426	-0.2
818.598	0.16
818.769	-0.36
818.941	0.24
819.112	0.56
819.283	0.16
819.455	0.06
819.626	0.02
819.798	0.22
819.969	0.02
820.14	-0.06
820.311	-0.33
820.483	0.14
820.654	0.5
820.825	0.11
820.996	-0.01
821.168	-0.27
821.339	0.09
821.51	-0.49
821.681	0.24
821.852	-0.24
822.023	-0.18
822.195	-0.78
822.366	0.4
822.537	0.1
822.708	-0.02
822.879	-0.26
823.05	0.76
823.221	-0.13
823.392	0.32
823.563	0.12
823.734	-0.08
823.905	0.17
824.076	-0.13
824.247	-0.18
824.418	-0.37
824.589	0.47
824.759	0.64
824.93	-0.18
825.101	-0.3
825.272	0.5
825.443	0.84
825.614	0.39
825.784	-1.12
825.955	1.09
826.126	0.68
826.297	0.15
826.467	0.83
826.638	0.23
826.809	-0.81
826.98	0.03
827.15	0.16
827.321	-0.08
827.492	0.86
827.662	0.15
827.833	0.93
828.003	0.34
828.174	-0
828.345	-0.51
828.515	0.52
828.686	0.59
828.856	0.38
829.027	0.46
829.197	0.6
829.368	0.01
829.538	0.07
829.709	-0.18
829.879	0.1
830.049	-0.14
830.22	0.1
830.39	-0.04
830.56	0.59
830.731	-0.22
830.901	-0.28
831.072	0.14
831.242	0.59
831.412	0.71
831.582	0.42
831.753	0.04
831.923	0.49
832.093	0.01
832.263	0.72
832.434	-0.37
832.604	-0.56
832.774	0.82
832.944	0.46
833.114	-0.06
833.284	0.61
833.454	-0.18
833.624	-0.37
833.795	-0.29
833.965	1.2
834.135	0.92
834.305	-0.87
834.475	-0.51
834.645	-0.06
834.815	-0.31
834.985	-0.27
835.155	-0.45
835.325	0.58
835.494	0.38
835.664	-0.4
835.834	-0.54
836.004	0.67
836.174	0.07
836.344	0.08
836.514	0.08
836.684	0.56
836.853	-0.11
837.023	0.31
837.193	-0.21
837.363	0.8
837.532	0.81
837.702	0.19
837.872	-0.53
838.041	1.04
838.211	1.35
838.381	-0.24
838.55	0.04
838.72	1.25
838.89	1.37
839.059	-0.11
839.229	-0.59
839.398	0.94
839.568	-0.29
839.738	0.11
839.907	1.5
840.077	0.34
840.246	0.24
840.416	-0.26
840.585	-1.13
840.755	1.27
840.924	0.6
841.093	-0.76
841.263	-0.13
841.432	0.2
841.602	-0.28
841.771	-0.43
841.94	0.44
842.11	2.13
842.279	0.85
842.448	-0.27
842.617	-0.71
842.787	1.33
842.956	-0.24
843.125	-0.22
843.294	0.33
843.464	1.35
843.633	0.55
843.802	-0.78
843.971	0.17
844.14	0.76
844.309	1.61
844.479	0.31
844.648	0.6
844.817	0.04
844.986	-0.04
845.155	0.29
845.324	-0.2
845.493	0.18
845.662	-0.56
845.831	0.55
846	1.56
846.169	0.16
846.338	1.45
846.507	0.22
846.676	1.08
846.844	-0.81
847.013	0.24
847.182	0.05
847.351	-0.2
847.52	0.05
847.689	1.22
847.858	-0.16
848.026	0.19
848.195	0.03
848.364	0.08
848.533	0.27
848.701	-0.45
848.87	-0.91
849.039	0.65
849.207	1.69
849.376	2
849.545	1.4
849.713	-0.12
849.882	-0.2
850.051	0.47
850.219	1.26
850.388	1.13
850.556	-0.62
850.725	0.06
850.893	0.1
851.062	-0.27
851.23	0.17
851.399	-0.43
851.567	-0.73
851.736	-0.76
851.904	-1.33
852.073	-0.06
852.241	0.71
852.41	1.1
852.578	0.52
852.746	-0.02
852.915	0.52
853.083	0.78
853.251	-1.38
853.42	-0.18
853.588	0.44
853.756	1.39
853.924	1.47
854.093	-0.45
854.261	-0.22
854.429	-1.45
854.597	0.34
854.765	-0.98
854.934	0.65
855.102	0.83
855.27	0.43
855.438	0.52
855.606	0.72
855.774	1.99
855.942	-1.49
856.11	-1.25
856.278	0.02
856.446	0.19
856.614	1.28
856.782	0.13
856.95	0.96
857.118	0.89
857.286	-0.11
857.454	-0.75
857.622	2.11
857.79	0.72
857.958	-1.64
858.126	-0.68
858.294	-1.66
858.462	0.16
858.629	0.49
858.797	-0.72
858.965	0.97
859.133	0.6
859.301	0.45
859.468	-0.15
859.636	-0.37
859.804	2.31
859.971	0.88
860.139	-0.57
860.307	1.41
860.474	0.91
860.642	0.14
860.81	-0.17
860.977	0.88
861.145	0.23
861.313	-0.94
861.48	0.47
861.648	0.43
861.815	-0.97
861.983	-0.87
862.15	0.96
862.318	1.57
862.485	1.9
862.653	-0.79
862.82	0.15
862.988	1.89
863.155	0.86
863.322	-1.72
863.49	-0.85
863.657	-1.1
863.824	2.31
863.992	1.99
864.159	-1.24
864.326	2.85
864.494	-0.7
864.661	2.51
864.828	-0.51
864.996	0.59
865.163	2.15
865.33	-0.53
865.497	-1.24
865.664	-0.17
865.832	-1.46
865.999	-0.39
866.166	-0.13
866.333	0.06
866.5	0.68
866.667	1
866.834	0.32
867.001	1.9
867.168	-0.96
867.335	0.49
867.502	-1.3
867.669	1.03
867.836	3.4
868.003	0.48
868.17	1.63
868.337	-1.21
868.504	2.37
868.671	-2.28
868.838	-0.38
869.005	2.03
869.172	0.8
869.339	0.35
869.505	1.22
869.672	0.32
869.839	3.32
870.006	2.1
870.173	-1.7
870.339	1.35
870.506	2.11
870.673	-0.72
870.84	2.42
871.006	0.96
871.173	-0.58
871.34	1.25
871.506	-0.76
871.673	0.66
871.839	-0.39
872.006	0.53
872.173	-0.44
872.339	-1.35
872.506	1.69
872.672	0.07
872.839	0.34
873.005	-1.31
873.172	4.17
873.338	0.99
873.505	-0.04
873.671	1.86
873.838	0.82
874.004	-0.03
874.171	-1.5
874.337	1.24
874.503	0.45
874.67	0.44
874.836	1.02
875.002	1.96
875.169	-0.31
875.335	1.07
875.501	-1.22
875.668	2.22
875.834	-0.22
876	0.18
876.166	0.79
876.332	1.64
876.499	1.95
876.665	0.31
876.831	-0.21
876.997	2.55
877.163	2.17
877.329	-1.2
877.495	-0.45
877.662	1.64
877.828	1.07
877.994	1
878.16	-2.69
878.326	-2.08
878.492	-0.16
878.658	-0.9
878.824	1.81
878.99	3.02
879.156	-2.21
879.322	2.28
879.487	0.27
879.653	0.23
879.819	0.16
879.985	-0.85
880.151	0.94
880.317	0.32
880.483	-0.35
880.648	2.45
880.814	-1.58
880.98	0.19
881.146	-3.78
881.312	-1.25
881.477	0.34
881.643	0.55
881.809	0.82
881.974	1.53
882.14	-1.85
882.306	1.38
882.471	3.32
882.637	-0.91
882.803	1.24
882.968	4.21
883.134	3.37
883.299	-1.21
883.465	-0.07
883.63	1.76
883.796	1.27
883.961	0.14
884.127	0.66
884.292	-1.98
884.458	-1.1
884.623	-1.1
