Data from Apollo_Calib_20240827__AbsoluteIrradiance__502__07-31-01-216.txt Node

Date: Wed Aug 28 07:31:01 BST 2024
User: biology
Spectrometer: FLMT08252
Trigger mode: 0
Integration Time (sec): 5.000000E-1
Scans to average: 5
Electric dark correction enabled: true
Nonlinearity correction enabled: false
Boxcar width: 0
XAxis mode: Wavelengths
Number of Pixels in Spectrum: 3648
>>>>>Begin Spectral Data<<<<<
179.588	-0
179.809	-0
180.03	-0
180.251	-0
180.473	-0
180.694	0
180.915	0
181.136	-0
181.357	0
181.578	-0
181.799	-0
182.02	-0
182.241	-0
182.462	0
182.683	0
182.904	-0
183.125	-0
183.346	0
183.567	0
183.788	-0
184.009	-0
184.23	0
184.451	0
184.672	-0
184.892	-0
185.113	0
185.334	0
185.555	-0
185.776	-0
185.996	0
186.217	0
186.438	0
186.659	-0
186.879	0
187.1	0
187.321	-0
187.541	-0
187.762	-0
187.983	0
188.203	-0
188.424	0
188.644	0
188.865	0
189.086	0
189.306	0
189.527	-0
189.747	-0
189.968	-0
190.188	0
190.409	-0
190.629	0
190.849	-0
191.07	-0
191.29	0
191.511	0
191.731	0
191.951	-0
192.172	0
192.392	-0
192.612	-0
192.833	-0
193.053	0
193.273	0
193.493	-0
193.714	-0
193.934	0
194.154	0
194.374	0
194.594	0
194.815	0
195.035	0
195.255	0
195.475	-0
195.695	0
195.915	0
196.135	-0
196.355	0
196.575	0
196.795	-0
197.015	-0
197.235	0
197.455	-0
197.675	0
197.895	-0
198.115	-0
198.335	0
198.555	-0
198.775	0
198.995	-0
199.214	0
199.434	0
199.654	-0
199.874	-0
200.094	-1.12
200.313	-0.57
200.533	-0.33
200.753	-0.49
200.973	0.66
201.192	0.46
201.412	-0.89
201.632	-0.1
201.851	0.87
202.071	-0.25
202.291	-0.12
202.51	-0.86
202.73	0.28
202.95	0.08
203.169	-0.4
203.389	-0.01
203.608	0.67
203.828	-0.52
204.047	-0.13
204.267	0.55
204.486	0.31
204.706	0.15
204.925	0.04
205.145	-0.17
205.364	0.16
205.583	0.5
205.803	-0.22
206.022	-0.39
206.242	0
206.461	-0.44
206.68	-0.08
206.9	0.41
207.119	0.41
207.338	0.64
207.557	-0.16
207.777	-0.12
207.996	-0.21
208.215	0.37
208.434	-0.15
208.654	-0.31
208.873	0.19
209.092	0.76
209.311	-0.11
209.53	-0.09
209.749	-0
209.968	-0.13
210.187	-0.02
210.407	-0.49
210.626	-0.13
210.845	0.05
211.064	-0.1
211.283	-0.41
211.502	0.35
211.721	0.14
211.94	-0.04
212.159	0.23
212.377	0.17
212.596	0.37
212.815	-0
213.034	0.03
213.253	0.52
213.472	0.35
213.691	-0.09
213.91	-0.07
214.128	-0.12
214.347	0.34
214.566	-0.28
214.785	-0.38
215.003	0.21
215.222	0.31
215.441	-0.05
215.66	-0.2
215.878	0.1
216.097	0.35
216.316	-0.25
216.534	-0.3
216.753	-0.06
216.972	-0.03
217.19	-0.04
217.409	-0.17
217.627	-0.15
217.846	-0.17
218.064	0.06
218.283	-0.1
218.501	0.45
218.72	0.32
218.938	-0.06
219.157	-0.13
219.375	0.11
219.594	0.08
219.812	-0.24
220.031	-0.21
220.249	0.31
220.467	0.27
220.686	0.03
220.904	-0.15
221.122	-0.1
221.341	0.36
221.559	0.04
221.777	-0.19
221.995	0.11
222.214	0.02
222.432	-0
222.65	0.11
222.868	0.03
223.086	0.05
223.305	0.18
223.523	0.02
223.741	0.29
223.959	-0.19
224.177	-0.32
224.395	-0.14
224.613	0.06
224.831	0.22
225.049	-0.12
225.267	-0
225.485	0.04
225.703	-0.07
225.921	0.04
226.139	-0.03
226.357	0.1
226.575	0
226.793	-0.1
227.011	0.53
227.229	0.06
227.447	0.12
227.665	-0.1
227.883	-0.18
228.1	0.02
228.318	0.04
228.536	-0.23
228.754	-0.11
228.972	0.18
229.189	-0.1
229.407	-0.01
229.625	-0.07
229.843	0.09
230.06	0.03
230.278	-0.09
230.496	0.05
230.713	0.02
230.931	-0.24
231.149	-0.02
231.366	-0.23
231.584	0.08
231.801	0.27
232.019	-0.06
232.236	-0.13
232.454	-0.1
232.671	0.07
232.889	-0.05
233.106	-0.07
233.324	0.07
233.541	-0.07
233.759	0.04
233.976	-0.16
234.194	-0.03
234.411	0.07
234.628	-0.08
234.846	-0.03
235.063	0.01
235.28	0.06
235.498	0.01
235.715	-0.12
235.932	0.18
236.149	-0.01
236.367	0.04
236.584	0.05
236.801	-0.09
237.018	0.07
237.236	-0.05
237.453	-0.13
237.67	0.1
237.887	-0.05
238.104	0.01
238.321	-0.1
238.538	-0.07
238.755	0.05
238.973	-0.22
239.19	0.02
239.407	0.01
239.624	0.04
239.841	-0.13
240.058	-0.13
240.275	-0.02
240.492	0.04
240.709	0.04
240.925	-0.04
241.142	0
241.359	-0.1
241.576	-0.11
241.793	-0.07
242.01	0.01
242.227	-0
242.444	0.08
242.66	0.12
242.877	0.03
243.094	0.04
243.311	0.05
243.527	-0.09
243.744	-0.05
243.961	0.04
244.178	-0.05
244.394	0.02
244.611	0.16
244.828	0.18
245.044	-0.12
245.261	-0.03
245.477	0
245.694	0.05
245.911	-0.05
246.127	0.05
246.344	0.14
246.56	0.06
246.777	-0
246.993	-0.06
247.21	0.08
247.426	0.13
247.643	-0.06
247.859	-0.1
248.076	-0.07
248.292	0.11
248.508	-0.04
248.725	0.05
248.941	0.01
249.157	0.08
249.374	-0.09
249.59	0.03
249.806	0.02
250.023	-0.02
250.239	-0.01
250.455	-0.04
250.671	0.03
250.888	0.08
251.104	0.05
251.32	0
251.536	0.02
251.752	-0.05
251.969	-0.03
252.185	0.02
252.401	0.09
252.617	0.04
252.833	0.01
253.049	0.01
253.265	0.03
253.481	0.02
253.697	-0.02
253.913	-0.15
254.129	0
254.345	-0.01
254.561	-0.02
254.777	0.02
254.993	0.07
255.209	0
255.425	-0.04
255.641	-0.07
255.857	0.12
256.073	-0.04
256.288	-0.09
256.504	0
256.72	0.09
256.936	0.12
257.152	-0.04
257.367	-0.06
257.583	0.09
257.799	0.01
258.015	0.03
258.23	-0.07
258.446	0.15
258.662	0.02
258.877	-0.06
259.093	-0.1
259.309	0.06
259.524	0.02
259.74	-0.01
259.955	-0.11
260.171	-0.02
260.387	-0
260.602	0
260.818	0.04
261.033	-0.05
261.249	-0.04
261.464	-0.04
261.68	-0.09
261.895	-0.02
262.11	-0.02
262.326	-0.04
262.541	-0.05
262.757	0.06
262.972	0.03
263.187	0.01
263.403	-0
263.618	-0.01
263.833	0
264.049	-0.03
264.264	-0.01
264.479	0.09
264.694	0.1
264.91	-0.06
265.125	0
265.34	0.05
265.555	0.16
265.77	0.05
265.986	-0.05
266.201	-0.01
266.416	0.1
266.631	-0.03
266.846	0.04
267.061	0.06
267.276	0.08
267.491	-0.08
267.706	0.05
267.921	0.07
268.136	0.07
268.351	-0.03
268.566	-0.09
268.781	0.09
268.996	0.05
269.211	-0
269.426	-0.05
269.641	0
269.856	0.03
270.071	-0.04
270.285	-0.06
270.5	0.03
270.715	0.1
270.93	-0.01
271.145	0.07
271.359	0.07
271.574	-0.05
271.789	-0.03
272.004	-0.04
272.218	0
272.433	0.09
272.648	-0.04
272.862	0.04
273.077	-0.02
273.292	-0.02
273.506	-0.02
273.721	0.02
273.936	0.08
274.15	0.06
274.365	-0
274.579	0.08
274.794	0.02
275.008	0.02
275.223	-0.07
275.437	-0.01
275.652	0.02
275.866	0.02
276.081	-0.01
276.295	0.07
276.509	-0.01
276.724	-0.02
276.938	-0.03
277.153	-0
277.367	0.01
277.581	-0.06
277.796	-0.08
278.01	-0
278.224	0.05
278.438	0.11
278.653	-0.06
278.867	-0.07
279.081	0.08
279.295	-0.04
279.51	0.02
279.724	-0.11
279.938	-0.01
280.152	0.01
280.366	-0.07
280.58	0.1
280.794	0.07
281.008	0.04
281.222	0.07
281.437	0.04
281.651	0.04
281.865	0.06
282.079	-0.04
282.293	-0.07
282.507	-0.04
282.721	0
282.935	-0.01
283.148	-0.06
283.362	-0.07
283.576	-0.07
283.79	0.04
284.004	0.01
284.218	0.05
284.432	0.01
284.646	-0.03
284.859	0.02
285.073	-0.09
285.287	0.02
285.501	-0.02
285.714	-0
285.928	0.03
286.142	-0
286.356	0
286.569	-0.02
286.783	0.05
286.997	0.04
287.21	0.02
287.424	0.01
287.637	-0.02
287.851	-0.02
288.065	-0.01
288.278	0.01
288.492	0.04
288.705	-0.02
288.919	0.06
289.132	-0.02
289.346	0.01
289.559	-0.05
289.773	-0.02
289.986	0.02
290.2	-0
290.413	0.06
290.626	-0.06
290.84	-0.02
291.053	0
291.267	0.09
291.48	-0.02
291.693	0.03
291.906	-0.05
292.12	0.02
292.333	0.02
292.546	0.02
292.76	0.08
292.973	0.01
293.186	0.01
293.399	-0.05
293.612	0.01
293.826	0.01
294.039	0.04
294.252	0.01
294.465	0.08
294.678	0.03
294.891	0
295.104	-0.01
295.317	0.01
295.53	0.06
295.743	-0.03
295.956	0.01
296.169	0.11
296.382	0.07
296.595	0.01
296.808	-0.04
297.021	0.03
297.234	0.04
297.447	0.03
297.66	0.01
297.873	0.06
298.086	0.07
298.299	-0
298.511	-0.02
298.724	0.03
298.937	-0.04
299.15	-0.02
299.363	0.04
299.575	0.03
299.788	0.08
300.001	0
300.213	-0.04
300.426	0.02
300.639	-0.01
300.852	-0.04
301.064	0.02
301.277	0.03
301.489	0.07
301.702	0.05
301.915	-0.02
302.127	0.01
302.34	0.01
302.552	0.1
302.765	-0.02
302.977	0.04
303.19	-0.01
303.402	-0.01
303.615	0
303.827	-0.01
304.04	-0.03
304.252	0.01
304.464	0.03
304.677	0.14
304.889	0.06
305.102	0.02
305.314	-0.06
305.526	0.02
305.739	0.03
305.951	-0.01
306.163	-0.01
306.375	0.04
306.588	-0.04
306.8	-0.07
307.012	-0.05
307.224	0.02
307.436	0.11
307.649	-0.07
307.861	0.05
308.073	0.05
308.285	-0.01
308.497	-0.05
308.709	-0.03
308.921	0.01
309.133	0.05
309.346	-0.02
309.558	0.02
309.77	0.02
309.982	0.05
310.194	0.09
310.406	-0
310.617	0.08
310.829	0.01
311.041	0.02
311.253	0.01
311.465	-0.01
311.677	-0
311.889	-0
312.101	-0.02
312.313	0.05
312.524	0.07
312.736	-0.02
312.948	-0.01
313.16	0.06
313.372	0.05
313.583	-0.01
313.795	0.03
314.007	0.01
314.218	0.04
314.43	0.01
314.642	-0.01
314.853	-0.02
315.065	0.05
315.277	-0.01
315.488	0.01
315.7	0.02
315.912	0.04
316.123	0.01
316.335	0.04
316.546	0.14
316.758	0.02
316.969	0.01
317.181	0.02
317.392	-0.01
317.604	0.03
317.815	-0
318.026	-0.04
318.238	-0.02
318.449	0.03
318.661	-0.06
318.872	-0.04
319.083	-0.03
319.295	0.04
319.506	-0.06
319.717	0.02
319.929	0.07
320.14	0.01
320.351	-0
320.562	-0.01
320.774	-0
320.985	0.05
321.196	-0.03
321.407	-0.01
321.618	0.03
321.829	-0.01
322.041	0.01
322.252	0.01
322.463	0.05
322.674	-0.03
322.885	-0.06
323.096	-0
323.307	-0.01
323.518	-0.01
323.729	-0.01
323.94	0.03
324.151	-0.02
324.362	0.02
324.573	0.05
324.784	-0.03
324.995	0.05
325.206	0.04
325.417	-0
325.628	-0.04
325.838	0
326.049	0.02
326.26	0.06
326.471	0.02
326.682	0.05
326.892	0.03
327.103	-0.08
327.314	-0.07
327.525	0.06
327.735	0.05
327.946	0.03
328.157	0.02
328.368	0
328.578	-0.08
328.789	0.02
328.999	-0.02
329.21	0.02
329.421	0.02
329.631	0.02
329.842	-0.03
330.052	0.03
330.263	0.03
330.473	0.05
330.684	0
330.894	0.02
331.105	0.01
331.315	-0
331.526	-0.01
331.736	0.08
331.947	-0.02
332.157	0.02
332.367	-0.05
332.578	0.04
332.788	0.06
332.999	0.01
333.209	-0.01
333.419	-0.02
333.629	0.07
333.84	0.05
334.05	-0
334.26	0.05
334.47	0.06
334.681	0.06
334.891	-0.01
335.101	0.04
335.311	0.09
335.521	-0.03
335.732	-0.04
335.942	0.07
336.152	0.07
336.362	0.04
336.572	-0.01
336.782	0.04
336.992	-0.02
337.202	0.01
337.412	-0.04
337.622	0.02
337.832	0
338.042	0.02
338.252	0
338.462	0
338.672	-0.01
338.882	0.01
339.092	-0.01
339.302	0.09
339.511	0.01
339.721	-0.03
339.931	-0.01
340.141	0.06
340.351	0.07
340.561	0.02
340.77	-0.01
340.98	0.01
341.19	0.06
341.4	-0.03
341.609	-0.04
341.819	0.02
342.029	-0.04
342.238	-0.01
342.448	-0.04
342.658	0.01
342.867	0.01
343.077	0.03
343.286	-0.02
343.496	0.01
343.706	0.07
343.915	-0.01
344.125	0.02
344.334	0.01
344.544	-0.05
344.753	-0.01
344.963	-0.01
345.172	0.01
345.381	0
345.591	-0.02
345.8	0
346.01	0.07
346.219	0.05
346.428	-0.15
346.638	0.04
346.847	-0.03
347.056	0.08
347.266	-0.02
347.475	-0
347.684	0.03
347.893	0
348.103	0.02
348.312	-0
348.521	0.02
348.73	0.01
348.94	-0.02
349.149	-0.01
349.358	-0.02
349.567	-0.01
349.776	-0.04
349.985	0.02
350.194	0.04
350.403	0.05
350.612	-0.06
350.821	0
351.03	-0.01
351.239	-0.02
351.448	0.01
351.657	0
351.866	0.11
352.075	-0.01
352.284	0.05
352.493	-0.06
352.702	0.06
352.911	0.03
353.12	0.04
353.329	-0.02
353.538	0.02
353.746	-0.03
353.955	0.03
354.164	0.03
354.373	0.03
354.582	0.03
354.79	0.01
354.999	0.01
355.208	0.01
355.416	0.08
355.625	-0.04
355.834	-0.01
356.042	0.06
356.251	-0.03
356.46	-0.02
356.668	0
356.877	0.08
357.085	0.03
357.294	-0.07
357.503	0.03
357.711	-0.01
357.92	0.13
358.128	0.02
358.337	-0.02
358.545	0.03
358.754	-0.03
358.962	0.01
359.17	-0.04
359.379	0.03
359.587	0.04
359.796	-0
360.004	0.04
360.212	0
360.421	0.03
360.629	-0.03
360.837	0.01
361.046	0.04
361.254	0.09
361.462	0.01
361.67	0.02
361.879	0.03
362.087	0.08
362.295	0.05
362.503	-0.02
362.711	-0.08
362.92	-0.05
363.128	-0.04
363.336	0
363.544	-0.02
363.752	-0
363.96	-0.05
364.168	-0.04
364.376	0.02
364.584	0.04
364.792	0.04
365	0.03
365.208	-0.01
365.416	0.01
365.624	0.04
365.832	0.01
366.04	0.03
366.248	-0.01
366.456	0.04
366.664	0.03
366.872	0
367.079	0
367.287	-0.01
367.495	0.06
367.703	-0.01
367.911	0
368.118	-0.01
368.326	-0.01
368.534	-0.06
368.742	0.09
368.949	-0.03
369.157	-0.03
369.365	0.03
369.572	-0.06
369.78	-0.01
369.988	0.02
370.195	0.04
370.403	0.01
370.61	-0.03
370.818	-0
371.026	0.07
371.233	-0.05
371.441	0.02
371.648	0
371.856	0.03
372.063	0.03
372.271	-0.01
372.478	-0
372.685	0.02
372.893	0.05
373.1	0.01
373.308	-0.03
373.515	0.07
373.722	0.01
373.93	-0.04
374.137	0.02
374.344	0.05
374.552	0.02
374.759	0.05
374.966	-0
375.173	-0.01
375.381	0.06
375.588	0.01
375.795	-0.03
376.002	-0
376.209	-0.03
376.417	0.02
376.624	0.04
376.831	-0
377.038	-0.04
377.245	-0.05
377.452	0
377.659	-0
377.866	-0.04
378.073	-0
378.28	0.01
378.487	0.02
378.694	0.03
378.901	0.01
379.108	0
379.315	0.05
379.522	0.08
379.729	0.01
379.936	-0.01
380.143	-0
380.35	0.01
380.557	0.02
380.763	0.03
380.97	0.01
381.177	0.04
381.384	0.04
381.591	-0.01
381.797	-0.01
382.004	0
382.211	0.01
382.418	0.01
382.624	0.06
382.831	0.02
383.038	0
383.244	-0.03
383.451	0.03
383.658	0.04
383.864	0.01
384.071	-0.02
384.277	0.04
384.484	-0.04
384.69	0.06
384.897	-0.07
385.103	-0.05
385.31	-0.01
385.516	-0.06
385.723	-0
385.929	-0.01
386.136	-0.01
386.342	0.06
386.549	-0.01
386.755	0.04
386.961	-0.01
387.168	-0.01
387.374	0.03
387.58	0.01
387.787	0.01
387.993	0.03
388.199	0.01
388.406	-0.04
388.612	-0.01
388.818	0.01
389.024	-0.03
389.231	0.01
389.437	0.09
389.643	0.06
389.849	-0
390.055	-0
390.261	0.04
390.467	0.04
390.674	-0.04
390.88	0.02
391.086	0.01
391.292	-0.07
391.498	0.01
391.704	0.04
391.91	-0
392.116	0.01
392.322	-0.09
392.528	0.03
392.734	-0.02
392.94	0
393.146	-0.02
393.352	-0.03
393.557	-0.02
393.763	-0.01
393.969	0.05
394.175	0.02
394.381	0.02
394.587	-0.02
394.792	-0.03
394.998	0.03
395.204	0.03
395.41	-0.01
395.615	0.01
395.821	-0.02
396.027	0
396.233	-0.02
396.438	-0.01
396.644	0.08
396.85	0.06
397.055	-0.02
397.261	-0
397.466	0.13
397.672	0.01
397.878	0.06
398.083	0.03
398.289	-0.02
398.494	0.03
398.7	0.05
398.905	-0.06
399.111	0.04
399.316	-0.04
399.522	0
399.727	0.03
399.932	-0
400.138	-0.07
400.343	0.04
400.549	0.02
400.754	-0.01
400.959	0.07
401.165	0.06
401.37	0
401.575	-0.04
401.78	0.01
401.986	-0.01
402.191	-0.02
402.396	-0
402.601	0.05
402.807	0.05
403.012	-0.01
403.217	0.03
403.422	0.03
403.627	-0.02
403.832	-0.02
404.037	0.04
404.243	0.02
404.448	-0.04
404.653	-0.02
404.858	-0.02
405.063	0.05
405.268	0.01
405.473	-0.04
405.678	-0.05
405.883	0.14
406.088	0.02
406.293	0.01
406.498	-0.01
406.703	0.04
406.907	-0.01
407.112	-0.04
407.317	0.03
407.522	0.04
407.727	-0.05
407.932	-0
408.136	0.11
408.341	0.01
408.546	0.03
408.751	-0.03
408.956	0.01
409.16	0.04
409.365	0.04
409.57	-0.02
409.774	0.01
409.979	0.05
410.184	0.03
410.388	-0.01
410.593	0.02
410.798	0.01
411.002	0.02
411.207	0.05
411.411	0.05
411.616	-0.07
411.82	-0.02
412.025	-0.03
412.229	-0.03
412.434	0.07
412.638	0.01
412.843	-0.01
413.047	0.01
413.252	-0.02
413.456	-0.02
413.66	0.04
413.865	0.01
414.069	0.06
414.273	-0.01
414.478	0.01
414.682	-0.01
414.886	-0.04
415.091	-0.04
415.295	-0.03
415.499	0.04
415.703	-0.02
415.908	0.06
416.112	-0.06
416.316	0.04
416.52	-0.03
416.724	-0.06
416.929	-0.02
417.133	0.09
417.337	0.01
417.541	-0.06
417.745	0.03
417.949	0.03
418.153	0.05
418.357	-0.07
418.561	0.03
418.765	0
418.969	0.09
419.173	0.04
419.377	-0.05
419.581	0.11
419.785	-0.02
419.989	-0.06
420.193	-0.1
420.397	-0.02
420.601	0.08
420.804	-0.01
421.008	-0.02
421.212	0.03
421.416	-0.02
421.62	-0.01
421.823	-0
422.027	0.05
422.231	0.04
422.435	-0.03
422.638	0.03
422.842	-0.03
423.046	0.01
423.249	0.05
423.453	0.06
423.657	0.04
423.86	-0.02
424.064	0.01
424.268	0.05
424.471	-0.01
424.675	0.05
424.878	0.1
425.082	0.04
425.285	0.05
425.489	0.06
425.692	0.03
425.896	-0.01
426.099	0.02
426.303	-0.05
426.506	-0.06
426.71	0.02
426.913	0.06
427.116	0.04
427.32	-0
427.523	0
427.726	0.07
427.93	-0.07
428.133	0
428.336	-0.08
428.54	-0.02
428.743	-0.02
428.946	0.03
429.149	-0.01
429.353	0.02
429.556	-0.06
429.759	-0.07
429.962	-0.04
430.165	-0.02
430.368	0.02
430.571	0.01
430.775	0.04
430.978	-0
431.181	0.01
431.384	0.03
431.587	-0.03
431.79	0.01
431.993	-0.01
432.196	-0.04
432.399	-0.01
432.602	0.03
432.805	0.02
433.008	-0.01
433.211	-0.06
433.414	0.02
433.616	0.04
433.819	0.01
434.022	-0.12
434.225	0.04
434.428	0.02
434.631	0.12
434.833	0.03
435.036	-0.02
435.239	0.05
435.442	-0.03
435.645	-0.01
435.847	0.04
436.05	0.05
436.253	-0.03
436.455	-0.06
436.658	0
436.861	0.1
437.063	-0.06
437.266	-0.01
437.468	0.02
437.671	0.12
437.874	-0.02
438.076	-0.06
438.279	-0.09
438.481	-0.01
438.684	-0.06
438.886	0.01
439.089	-0.07
439.291	-0.01
439.494	0.03
439.696	0.02
439.899	-0.01
440.101	-0.02
440.303	-0.09
440.506	0.02
440.708	-0
440.91	0.02
441.113	-0.03
441.315	0.06
441.517	-0.07
441.72	0.03
441.922	-0.02
442.124	-0.03
442.326	-0.01
442.529	0.08
442.731	-0.03
442.933	0.08
443.135	0.02
443.337	-0.02
443.539	-0.05
443.742	-0.05
443.944	0.04
444.146	-0.03
444.348	-0.03
444.55	-0.03
444.752	0.01
444.954	-0.02
445.156	0.04
445.358	-0.06
445.56	0.06
445.762	-0.03
445.964	0.03
446.166	-0.04
446.368	-0.05
446.57	0.02
446.772	0.01
446.974	0.01
447.175	0.02
447.377	0
447.579	-0.02
447.781	-0.07
447.983	0.04
448.184	-0.01
448.386	0.02
448.588	-0.03
448.79	0.02
448.991	-0.04
449.193	0.03
449.395	-0.02
449.597	0.06
449.798	0.04
450	0.04
450.202	-0.03
450.403	-0.02
450.605	0.03
450.806	-0.03
451.008	-0.09
451.21	-0.01
451.411	0.04
451.613	0.01
451.814	0.02
452.016	0.03
452.217	0.05
452.419	0.05
452.62	0.03
452.821	0.06
453.023	0.05
453.224	0.07
453.426	-0.01
453.627	0.01
453.828	0.03
454.03	-0.02
454.231	-0
454.432	-0.03
454.634	0.1
454.835	-0.04
455.036	-0.08
455.238	0.09
455.439	0.05
455.64	-0.04
455.841	-0.07
456.042	0.1
456.244	0.01
456.445	-0.01
456.646	-0.07
456.847	0.01
457.048	0.05
457.249	0.06
457.45	0.14
457.651	-0.06
457.852	0.06
458.054	0.02
458.255	-0.01
458.456	-0
458.657	0.03
458.858	-0.06
459.058	0
459.259	0.06
459.46	-0.02
459.661	-0.03
459.862	0.09
460.063	0.02
460.264	0.01
460.465	-0.06
460.666	0.08
460.866	-0.02
461.067	0.03
461.268	0.01
461.469	-0.03
461.67	0
461.87	-0.01
462.071	-0.02
462.272	-0.04
462.473	0.02
462.673	0.05
462.874	-0.03
463.075	-0.04
463.275	-0.02
463.476	-0.01
463.676	0.04
463.877	-0.01
464.078	0.02
464.278	0.02
464.479	-0.01
464.679	-0
464.88	-0.04
465.08	0.09
465.281	-0.03
465.481	-0.02
465.682	0.01
465.882	0.03
466.083	0.04
466.283	0.01
466.483	0
466.684	-0.07
466.884	-0.02
467.085	-0.05
467.285	0.02
467.485	-0.02
467.686	-0.05
467.886	-0.03
468.086	-0.02
468.286	0
468.487	0.02
468.687	-0.07
468.887	-0.02
469.087	0.01
469.287	-0.01
469.488	-0.05
469.688	0.02
469.888	0.03
470.088	0.05
470.288	0.08
470.488	0.05
470.688	-0.04
470.888	-0.03
471.088	-0.01
471.288	0.04
471.488	0.03
471.688	0.01
471.888	0.01
472.088	-0.01
472.288	0.03
472.488	-0.01
472.688	-0.01
472.888	0.01
473.088	0.01
473.288	-0.02
473.488	-0.02
473.688	0.07
473.887	0.01
474.087	-0.04
474.287	0.01
474.487	-0.04
474.687	0.02
474.886	0.02
475.086	0.01
475.286	0.04
475.486	0.03
475.685	0.02
475.885	-0.03
476.085	0
476.284	0.01
476.484	-0
476.684	0.05
476.883	0.06
477.083	0.02
477.282	-0.02
477.482	0.03
477.681	0.06
477.881	0.02
478.08	-0.04
478.28	-0.04
478.479	0.05
478.679	0.06
478.878	-0.02
479.078	-0.01
479.277	-0
479.477	0.01
479.676	0.07
479.875	-0
480.075	-0.03
480.274	0.02
480.473	0.02
480.673	-0.02
480.872	0.04
481.071	0
481.271	0.02
481.47	-0.03
481.669	-0.03
481.868	-0
482.067	-0.02
482.267	-0.03
482.466	-0
482.665	-0.04
482.864	-0.05
483.063	-0.04
483.262	0.01
483.461	0.07
483.661	0.03
483.86	-0
484.059	0.01
484.258	0.01
484.457	-0.03
484.656	-0.02
484.855	0.03
485.054	-0.05
485.253	-0.02
485.452	-0.01
485.651	0.01
485.849	0.01
486.048	-0.03
486.247	-0.03
486.446	0
486.645	-0.01
486.844	-0.03
487.043	-0.03
487.241	0.01
487.44	-0.01
487.639	-0.01
487.838	0.01
488.037	0
488.235	0.05
488.434	0
488.633	-0.01
488.831	-0
489.03	0.01
489.229	-0.01
489.427	0
489.626	0.04
489.825	0.05
490.023	0.01
490.222	0.01
490.42	0.02
490.619	0.02
490.817	0.02
491.016	-0.02
491.214	0.02
491.413	-0.01
491.611	-0.02
491.81	-0.01
492.008	0.02
492.207	0.03
492.405	0.03
492.604	-0.03
492.802	-0
493	0.01
493.199	-0
493.397	0.01
493.595	0.01
493.794	-0.03
493.992	0.04
494.19	-0.01
494.388	0
494.587	-0.01
494.785	0.01
494.983	-0.03
495.181	-0.01
495.379	-0
495.578	-0.02
495.776	0.02
495.974	0.03
496.172	0
496.37	-0.02
496.568	-0.02
496.766	-0.02
496.964	0.04
497.162	0
497.36	-0.01
497.558	0.01
497.756	0.02
497.954	-0
498.152	-0.02
498.35	0
498.548	-0
498.746	0.02
498.944	-0.03
499.142	-0.03
499.34	-0.03
499.538	0
499.736	-0.01
499.933	0.03
500.131	0.03
500.329	0.01
500.527	0.05
500.725	0.03
500.922	0.01
501.12	0.01
501.318	0.01
501.516	-0.01
501.713	-0
501.911	-0.02
502.109	-0.02
502.306	0.02
502.504	0
502.701	-0.01
502.899	0
503.097	0.05
503.294	0.01
503.492	-0.01
503.689	-0
503.887	0.03
504.084	0.04
504.282	-0
504.479	-0.04
504.677	0.01
504.874	-0.01
505.072	0
505.269	0.01
505.466	0.03
505.664	-0.01
505.861	-0.04
506.059	-0.04
506.256	0.02
506.453	-0.02
506.651	0.03
506.848	0.02
507.045	0
507.242	-0
507.44	0
507.637	0.01
507.834	0.01
508.031	0.03
508.229	-0.03
508.426	0.01
508.623	0.03
508.82	-0.01
509.017	-0.04
509.214	-0.02
509.411	-0.01
509.608	-0.02
509.805	-0.01
510.003	-0.01
510.2	-0.01
510.397	0.04
510.594	-0.01
510.791	-0
510.988	0
511.184	0.04
511.381	0
511.578	0.01
511.775	0.04
511.972	-0.04
512.169	-0.02
512.366	-0
512.563	0.03
512.76	-0.02
512.956	-0.01
513.153	-0.01
513.35	0.01
513.547	-0.01
513.744	-0.01
513.94	-0.05
514.137	0.03
514.334	-0
514.53	0.02
514.727	-0
514.924	0.05
515.12	0.01
515.317	-0.02
515.514	-0.02
515.71	-0.03
515.907	-0.01
516.103	-0.01
516.3	0.02
516.497	0.03
516.693	0.04
516.89	-0.02
517.086	-0.02
517.283	0.01
517.479	0.02
517.676	-0
517.872	0
518.068	0
518.265	0
518.461	-0.01
518.658	-0.01
518.854	0.01
519.05	-0.02
519.247	-0.02
519.443	0.01
519.639	-0
519.836	-0.01
520.032	0.01
520.228	0.01
520.424	0.04
520.621	0.03
520.817	0.01
521.013	0.01
521.209	0.03
521.405	0.04
521.601	0
521.798	0
521.994	0.04
522.19	-0.01
522.386	-0.03
522.582	0.01
522.778	0.01
522.974	-0.01
523.17	-0.01
523.366	-0.02
523.562	0.02
523.758	-0
523.954	-0.02
524.15	-0.01
524.346	0.02
524.542	-0.02
524.738	-0
524.934	0
525.129	-0.01
525.325	-0
525.521	-0.01
525.717	-0
525.913	0.01
526.109	0
526.304	0.01
526.5	0.03
526.696	0.02
526.892	-0.02
527.087	0.01
527.283	-0.03
527.479	0.01
527.674	-0.02
527.87	-0.01
528.066	-0.01
528.261	0.04
528.457	0
528.653	0
528.848	-0
529.044	0.02
529.239	0.01
529.435	0.04
529.63	0.01
529.826	0.05
530.021	0.02
530.217	0.03
530.412	0.01
530.608	0
530.803	0.02
530.999	-0
531.194	-0.03
531.389	-0
531.585	-0.02
531.78	-0.02
531.975	0.01
532.171	0.02
532.366	0.01
532.561	0.01
532.757	-0.01
532.952	-0
533.147	0.01
533.342	0.01
533.538	-0.01
533.733	0.02
533.928	0.01
534.123	-0.01
534.318	-0.03
534.513	0
534.709	0
534.904	-0.01
535.099	-0.01
535.294	-0.02
535.489	0
535.684	0.01
535.879	-0.01
536.074	0.02
536.269	-0.01
536.464	0.01
536.659	-0
536.854	0.02
537.049	0.01
537.244	0.01
537.439	-0.02
537.634	0.02
537.828	0.01
538.023	0.01
538.218	-0.03
538.413	0.01
538.608	-0.01
538.803	0.03
538.997	-0.03
539.192	0.03
539.387	0.02
539.582	0.01
539.776	0.01
539.971	-0.01
540.166	0.01
540.36	-0.02
540.555	-0
540.75	-0.01
540.944	0.01
541.139	-0.04
541.334	-0.01
541.528	0.04
541.723	0.03
541.917	-0.01
542.112	-0.04
542.306	0.01
542.501	-0.02
542.695	0.01
542.89	-0
543.084	0.01
543.279	-0.01
543.473	-0.01
543.668	-0
543.862	0
544.056	0.03
544.251	0
544.445	0.01
544.64	-0.01
544.834	-0.02
545.028	0.01
545.222	0.03
545.417	-0
545.611	0.02
545.805	0.01
546	0
546.194	-0.01
546.388	-0.02
546.582	0.02
546.776	0
546.97	-0.01
547.165	0.02
547.359	0.02
547.553	0
547.747	0.02
547.941	0
548.135	0.02
548.329	0.03
548.523	0.02
548.717	0.01
548.911	-0
549.105	0.01
549.299	0.02
549.493	0.02
549.687	0.03
549.881	0.01
550.075	0.02
550.269	-0.02
550.463	0.02
550.657	-0
550.85	-0
551.044	-0
551.238	0
551.432	0.01
551.626	-0.01
551.82	-0
552.013	-0.01
552.207	0.01
552.401	0.02
552.594	0.01
552.788	-0.01
552.982	0.03
553.176	-0.01
553.369	0.02
553.563	0.03
553.756	-0.03
553.95	0
554.144	0
554.337	0.02
554.531	0.01
554.724	0.01
554.918	0.01
555.111	0.04
555.305	0.01
555.498	0.08
555.692	0.02
555.885	-0.01
556.079	0
556.272	-0.02
556.466	0.02
556.659	0.01
556.852	0.02
557.046	-0
557.239	0.04
557.432	-0.02
557.626	-0.01
557.819	0.03
558.012	0.02
558.206	0.01
558.399	0.02
558.592	0.03
558.785	-0.01
558.979	0.02
559.172	-0.01
559.365	0.02
559.558	0.02
559.751	0
559.944	0.01
560.138	0
560.331	0
560.524	0.02
560.717	0.01
560.91	-0.01
561.103	-0.01
561.296	0
561.489	0.02
561.682	0.02
561.875	0.04
562.068	0.02
562.261	0.01
562.454	0.03
562.647	0.03
562.84	0.03
563.032	0.02
563.225	0.02
563.418	0
563.611	-0
563.804	0
563.997	-0.01
564.19	-0.01
564.382	-0.02
564.575	-0
564.768	-0
564.961	0.01
565.153	-0.01
565.346	0.03
565.539	0.01
565.731	0.02
565.924	0.02
566.117	0.03
566.309	0.02
566.502	0
566.695	0.03
566.887	0.02
567.08	-0
567.272	-0.02
567.465	0.01
567.657	0.03
567.85	0.04
568.042	0.03
568.235	0.06
568.427	-0.02
568.62	0.02
568.812	0.04
569.005	0.02
569.197	-0.04
569.389	0.03
569.582	0.02
569.774	0.02
569.966	-0.02
570.159	-0.01
570.351	0.02
570.543	0.02
570.736	0.03
570.928	-0.01
571.12	0.02
571.312	-0.01
571.505	-0.01
571.697	0.05
571.889	-0.01
572.081	0.02
572.273	0.01
572.465	0.06
572.658	0.03
572.85	0.04
573.042	0.02
573.234	0.01
573.426	0.08
573.618	0
573.81	0.05
574.002	0.06
574.194	0.06
574.386	0.01
574.578	-0.03
574.77	0.01
574.962	0.04
575.154	-0
575.346	0.02
575.538	0.05
575.729	0.02
575.921	0.02
576.113	0.03
576.305	0.07
576.497	0.03
576.689	0.04
576.88	0.02
577.072	0.05
577.264	0.05
577.456	0.05
577.647	0
577.839	0.06
578.031	0.09
578.223	0.02
578.414	0.02
578.606	0.07
578.798	0.06
578.989	0.02
579.181	0.04
579.372	0.07
579.564	0.07
579.755	0.06
579.947	0.08
580.139	0.08
580.33	0.02
580.522	0.06
580.713	0
580.905	0.06
581.096	0.1
581.287	0.07
581.479	0.06
581.67	0.11
581.862	0.09
582.053	0.05
582.244	0.04
582.436	0.06
582.627	0.06
582.818	0.08
583.01	0.05
583.201	0.1
583.392	0.1
583.583	0.11
583.775	0.1
583.966	0.06
584.157	0.08
584.348	0.1
584.54	0.06
584.731	0.12
584.922	0.09
585.113	0.08
585.304	0.14
585.495	0.15
585.686	0.13
585.877	0.15
586.068	0.15
586.259	0.15
586.45	0.13
586.641	0.11
586.832	0.09
587.023	0.15
587.214	0.12
587.405	0.16
587.596	0.14
587.787	0.2
587.978	0.15
588.169	0.12
588.36	0.14
588.551	0.18
588.742	0.16
588.932	0.19
589.123	0.17
589.314	0.2
589.505	0.21
589.696	0.2
589.886	0.19
590.077	0.17
590.268	0.22
590.458	0.14
590.649	0.18
590.84	0.26
591.03	0.21
591.221	0.2
591.412	0.19
591.602	0.25
591.793	0.27
591.984	0.22
592.174	0.23
592.365	0.32
592.555	0.23
592.746	0.29
592.936	0.26
593.127	0.29
593.317	0.32
593.508	0.28
593.698	0.29
593.889	0.31
594.079	0.32
594.269	0.3
594.46	0.3
594.65	0.32
594.84	0.31
595.031	0.35
595.221	0.33
595.411	0.3
595.602	0.38
595.792	0.39
595.982	0.34
596.172	0.45
596.363	0.41
596.553	0.4
596.743	0.41
596.933	0.41
597.123	0.43
597.314	0.38
597.504	0.4
597.694	0.49
597.884	0.45
598.074	0.46
598.264	0.47
598.454	0.49
598.644	0.47
598.834	0.49
599.024	0.46
599.214	0.53
599.404	0.56
599.594	0.51
599.784	0.55
599.974	0.62
600.164	0.56
600.354	0.54
600.544	0.55
600.734	0.62
600.924	0.65
601.114	0.59
601.303	0.62
601.493	0.69
601.683	0.68
601.873	0.68
602.063	0.65
602.252	0.7
602.442	0.7
602.632	0.71
602.821	0.67
603.011	0.75
603.201	0.76
603.39	0.74
603.58	0.8
603.77	0.84
603.959	0.88
604.149	0.84
604.339	0.87
604.528	0.91
604.718	0.92
604.907	0.89
605.097	0.89
605.286	0.9
605.476	1
605.665	1.03
605.855	0.97
606.044	1.04
606.234	1.04
606.423	1.05
606.612	1.06
606.802	1.09
606.991	1.15
607.181	1.15
607.37	1.13
607.559	1.09
607.749	1.13
607.938	1.2
608.127	1.2
608.316	1.24
608.506	1.25
608.695	1.29
608.884	1.27
609.073	1.32
609.263	1.39
609.452	1.42
609.641	1.38
609.83	1.42
610.019	1.43
610.208	1.51
610.397	1.48
610.586	1.53
610.775	1.56
610.965	1.61
611.154	1.59
611.343	1.66
611.532	1.6
611.721	1.7
611.91	1.77
612.099	1.81
612.287	1.77
612.476	1.8
612.665	1.91
612.854	1.87
613.043	1.95
613.232	2
613.421	1.99
613.61	2.09
613.798	2.09
613.987	2.14
614.176	2.22
614.365	2.21
614.554	2.28
614.742	2.37
614.931	2.34
615.12	2.46
615.309	2.45
615.497	2.5
615.686	2.48
615.875	2.6
616.063	2.59
616.252	2.73
616.44	2.76
616.629	2.82
616.818	2.83
617.006	2.89
617.195	2.91
617.383	3
617.572	3.03
617.76	3.08
617.949	3.21
618.137	3.25
618.326	3.4
618.514	3.26
618.703	3.3
618.891	3.45
619.079	3.45
619.268	3.59
619.456	3.54
619.644	3.65
619.833	3.68
620.021	3.72
620.209	3.68
620.398	3.83
620.586	3.85
620.774	4.01
620.962	3.97
621.151	4.2
621.339	4.07
621.527	4.1
621.715	4.22
621.903	4.3
622.092	4.23
622.28	4.44
622.468	4.27
622.656	4.46
622.844	4.36
623.032	4.58
623.22	4.48
623.408	4.65
623.596	4.67
623.784	4.75
623.972	4.65
624.16	4.71
624.348	4.75
624.536	4.89
624.724	4.77
624.912	4.78
625.1	4.92
625.288	4.92
625.476	4.83
625.664	4.96
625.851	4.9
626.039	4.99
626.227	4.85
626.415	4.98
626.603	4.81
626.79	4.96
626.978	4.85
627.166	4.85
627.354	4.76
627.541	4.74
627.729	4.62
627.917	4.79
628.104	4.66
628.292	4.57
628.48	4.57
628.667	4.44
628.855	4.55
629.042	4.49
629.23	4.33
629.418	4.23
629.605	4.27
629.793	4.13
629.98	4.06
630.168	3.89
630.355	3.87
630.543	3.83
630.73	3.7
630.917	3.6
631.105	3.57
631.292	3.51
631.48	3.34
631.667	3.39
631.854	3.13
632.042	3.12
632.229	2.99
632.416	2.87
632.604	2.84
632.791	2.64
632.978	2.68
633.165	2.56
633.353	2.46
633.54	2.43
633.727	2.26
633.914	2.18
634.101	2.09
634.289	2.17
634.476	1.98
634.663	1.92
634.85	1.87
635.037	1.75
635.224	1.69
635.411	1.79
635.598	1.57
635.785	1.55
635.972	1.47
636.159	1.47
636.346	1.36
636.533	1.34
636.72	1.32
636.907	1.21
637.094	1.22
637.281	1.12
637.468	1.15
637.655	1.08
637.842	1.06
638.029	0.99
638.215	1
638.402	0.93
638.589	0.89
638.776	0.86
638.963	0.86
639.149	0.87
639.336	0.88
639.523	0.76
639.709	0.73
639.896	0.68
640.083	0.74
640.27	0.69
640.456	0.63
640.643	0.63
640.829	0.52
641.016	0.58
641.203	0.51
641.389	0.6
641.576	0.53
641.762	0.54
641.949	0.46
642.135	0.51
642.322	0.45
642.508	0.42
642.695	0.43
642.881	0.39
643.068	0.37
643.254	0.36
643.441	0.41
643.627	0.39
643.813	0.3
644	0.37
644.186	0.32
644.372	0.34
644.559	0.34
644.745	0.27
644.931	0.27
645.118	0.28
645.304	0.25
645.49	0.22
645.676	0.25
645.862	0.23
646.049	0.25
646.235	0.25
646.421	0.31
646.607	0.27
646.793	0.22
646.979	0.18
647.165	0.2
647.352	0.21
647.538	0.24
647.724	0.19
647.91	0.2
648.096	0.21
648.282	0.18
648.468	0.15
648.654	0.18
648.84	0.17
649.026	0.19
649.212	0.13
649.397	0.12
649.583	0.1
649.769	0.18
649.955	0.13
650.141	0.15
650.327	0.15
650.513	0.09
650.698	0.15
650.884	0.06
651.07	0.12
651.256	0.1
651.442	0.11
651.627	0.1
651.813	0.11
651.999	0.08
652.184	0.14
652.37	0.09
652.556	0.05
652.741	0.14
652.927	0.02
653.113	0.09
653.298	0.08
653.484	0.08
653.669	0.03
653.855	0.06
654.04	0.09
654.226	0.13
654.412	0.05
654.597	0.04
654.782	0.06
654.968	0.08
655.153	0.06
655.339	0.02
655.524	0.03
655.71	0.07
655.895	0.03
656.08	0.01
656.266	0.1
656.451	0.05
656.636	0.04
656.822	0.07
657.007	0
657.192	0.03
657.378	-0
657.563	0.05
657.748	0.05
657.933	0.06
658.118	0.01
658.304	0.01
658.489	0.08
658.674	0.08
658.859	0.01
659.044	0.07
659.229	0.03
659.414	0
659.599	0
659.785	0
659.97	0.04
660.155	0.09
660.34	0.02
660.525	0.03
660.71	0.03
660.895	0.1
661.08	0.01
661.264	0.04
661.449	0.1
661.634	0.09
661.819	0.04
662.004	0.07
662.189	-0.04
662.374	-0
662.559	-0.02
662.743	-0.03
662.928	0
663.113	-0
663.298	-0.06
663.483	0.01
663.667	0.06
663.852	0.01
664.037	0.02
664.221	0.03
664.406	0.07
664.591	0.05
664.775	0.08
664.96	-0.04
665.145	0.03
665.329	0.04
665.514	-0.01
665.698	-0.01
665.883	-0.06
666.068	0.05
666.252	-0.01
666.437	-0.02
666.621	0.01
666.806	0.05
666.99	-0.01
667.174	-0.03
667.359	0.07
667.543	-0.01
667.728	0.01
667.912	-0.07
668.096	0.04
668.281	-0.01
668.465	-0
668.649	0.02
668.834	-0.03
669.018	0.03
669.202	-0.01
669.387	-0
669.571	0.06
669.755	-0.02
669.939	0.03
670.124	0.01
670.308	0.08
670.492	0.03
670.676	0.03
670.86	0.01
671.044	-0.04
671.228	0.04
671.413	-0.04
671.597	-0.03
671.781	-0.04
671.965	0.03
672.149	-0.01
672.333	0.01
672.517	-0.02
672.701	0.06
672.885	0.02
673.069	-0.02
673.253	0.03
673.437	-0.02
673.621	-0.02
673.804	-0
673.988	0.01
674.172	0.02
674.356	-0.03
674.54	0.01
674.724	0.12
674.908	0.03
675.091	0.03
675.275	-0.01
675.459	0.02
675.643	0.06
675.826	0.04
676.01	0
676.194	-0
676.377	0.05
676.561	0.04
676.745	0.02
676.928	-0.02
677.112	0.05
677.296	-0.01
677.479	-0.01
677.663	-0
677.846	-0
678.03	-0.02
678.213	-0.03
678.397	0.01
678.58	0.01
678.764	-0.03
678.947	-0.02
679.131	-0.03
679.314	0.03
679.498	0
679.681	0.02
679.865	0.04
680.048	0.03
680.231	0.02
680.415	0.01
680.598	-0.02
680.781	-0.03
680.965	-0.01
681.148	0.01
681.331	0.01
681.514	0.02
681.698	-0.03
681.881	0.04
682.064	0.04
682.247	0.01
682.43	-0.06
682.614	0.05
682.797	0.06
682.98	0.01
683.163	-0.04
683.346	0.06
683.529	0.01
683.712	0.01
683.895	-0
684.078	-0.01
684.261	0.01
684.444	0.05
684.627	0.02
684.81	-0.02
684.993	-0.05
685.176	0.07
685.359	-0.03
685.542	-0.02
685.725	0.03
685.908	-0.02
686.091	0.05
686.274	0.05
686.457	0.07
686.639	-0.06
686.822	0.02
687.005	0.03
687.188	0.06
687.371	0.07
687.553	0.01
687.736	0.06
687.919	0.08
688.102	0.07
688.284	-0.04
688.467	0
688.65	0.04
688.832	-0.01
689.015	-0.02
689.197	-0.01
689.38	0.09
689.563	0.05
689.745	-0.03
689.928	-0.02
690.11	0.03
690.293	-0.01
690.475	-0.04
690.658	0.05
690.84	-0.02
691.023	-0.03
691.205	-0.01
691.388	-0.02
691.57	0.02
691.752	0.05
691.935	-0.07
692.117	0.03
692.3	-0.01
692.482	0.03
692.664	0.02
692.847	0.02
693.029	0.08
693.211	0.08
693.393	-0.02
693.576	0.05
693.758	0.01
693.94	-0.02
694.122	-0
694.304	-0.01
694.487	0.03
694.669	0.11
694.851	-0.06
695.033	0.02
695.215	0.03
695.397	-0.02
695.579	0.02
695.761	-0.05
695.943	-0.08
696.125	0.06
696.308	0.05
696.49	-0.06
696.671	0.15
696.853	0
697.035	0.09
697.217	0
697.399	0.04
697.581	-0.04
697.763	-0
697.945	-0.05
698.127	0.03
698.309	0.04
698.491	0
698.672	0.06
698.854	0.08
699.036	0.06
699.218	0.02
699.399	0.08
699.581	0.03
699.763	0.02
699.945	-0.07
700.126	-0.07
700.308	0.01
700.49	-0.01
700.671	-0.1
700.853	0.01
701.035	-0.03
701.216	-0.08
701.398	-0.09
701.579	-0.02
701.761	0.09
701.943	-0.07
702.124	-0.04
702.306	-0.03
702.487	0.12
702.669	-0.02
702.85	0.01
703.031	-0.01
703.213	0.12
703.394	0.08
703.576	-0.02
703.757	0.09
703.938	0.08
704.12	0.13
704.301	-0.04
704.483	-0.03
704.664	-0
704.845	0.08
705.026	0
705.208	0.02
705.389	0.02
705.57	0.04
705.751	-0.01
705.933	-0
706.114	0.04
706.295	-0.03
706.476	-0.08
706.657	0.08
706.838	0.06
707.02	0.05
707.201	0.01
707.382	-0.07
707.563	0.04
707.744	-0.09
707.925	-0.02
708.106	-0.02
708.287	0.03
708.468	0.11
708.649	-0.04
708.83	0.03
709.011	-0.03
709.192	0.05
709.373	-0.05
709.554	-0.02
709.734	0.02
709.915	-0
710.096	-0.04
710.277	-0.09
710.458	-0.01
710.639	0
710.819	-0.11
711	-0.02
711.181	0.03
711.362	0.07
711.542	0.01
711.723	0.03
711.904	0.03
712.085	0.06
712.265	0.01
712.446	-0.1
712.627	-0.03
712.807	-0.06
712.988	0.01
713.168	-0.06
713.349	-0.05
713.53	-0.08
713.71	-0.06
713.891	-0.04
714.071	0
714.252	-0.06
714.432	0
714.613	-0.12
714.793	-0
714.974	0.11
715.154	0.08
715.334	0.09
715.515	0.07
715.695	-0.11
715.876	0.04
716.056	0.04
716.236	-0.02
716.417	0
716.597	-0.05
716.777	0.17
716.957	-0.06
717.138	0.01
717.318	0.04
717.498	-0.05
717.678	0.03
717.859	0.03
718.039	-0.07
718.219	0.02
718.399	0.01
718.579	-0.12
718.759	-0.09
718.939	0.07
719.12	0.04
719.3	0.06
719.48	-0.12
719.66	-0.1
719.84	0.06
720.02	0.03
720.2	-0.06
720.38	0.01
720.56	0.07
720.74	-0.07
720.92	0.03
721.1	0.12
721.279	0.08
721.459	0.04
721.639	-0.13
721.819	0.05
721.999	-0.07
722.179	-0.02
722.359	-0.1
722.538	0.03
722.718	0.02
722.898	0.03
723.078	-0.05
723.257	-0.01
723.437	-0.04
723.617	-0.03
723.797	-0.04
723.976	0.03
724.156	0.03
724.336	0.08
724.515	0.13
724.695	-0.08
724.874	-0.01
725.054	0.06
725.234	-0.03
725.413	0.03
725.593	0
725.772	0.04
725.952	-0.07
726.131	0
726.311	0.04
726.49	0.08
726.67	-0.12
726.849	-0.03
727.028	0.02
727.208	-0.04
727.387	-0.04
727.567	-0.08
727.746	0
727.925	0.01
728.105	-0.06
728.284	-0.04
728.463	-0.07
728.643	0.08
728.822	-0.1
729.001	0.04
729.18	-0.04
729.359	0.03
729.539	-0.03
729.718	0.14
729.897	0.08
730.076	0.03
730.255	-0
730.434	0.04
730.614	0.02
730.793	0.02
730.972	-0.05
731.151	-0.02
731.33	0.09
731.509	0.12
731.688	-0.03
731.867	0.05
732.046	-0.1
732.225	0.08
732.404	-0.01
732.583	-0.05
732.762	0.07
732.941	0.04
733.12	0.03
733.298	-0.11
733.477	0.05
733.656	-0.12
733.835	-0.07
734.014	0.01
734.193	0.02
734.371	0.08
734.55	0.09
734.729	-0.14
734.908	0.09
735.086	-0.03
735.265	0.04
735.444	-0.14
735.623	-0.15
735.801	-0.1
735.98	-0.02
736.159	-0.09
736.337	0.1
736.516	-0.02
736.694	-0.02
736.873	-0.03
737.052	0.03
737.23	0.09
737.409	-0.07
737.587	0.18
737.766	-0.1
737.944	-0.02
738.123	-0.01
738.301	-0.01
738.479	-0
738.658	-0
738.836	-0.3
739.015	-0.01
739.193	0.15
739.371	-0.02
739.55	0.03
739.728	-0.06
739.906	0.06
740.085	0.07
740.263	-0.01
740.441	-0.15
740.62	0.15
740.798	0.11
740.976	-0.06
741.154	0.01
741.332	0.12
741.511	-0
741.689	0.06
741.867	-0.01
742.045	0.13
742.223	-0.04
742.401	-0.19
742.579	-0.09
742.757	0.03
742.935	-0.11
743.114	-0.04
743.292	-0.06
743.47	-0.04
743.648	0
743.826	-0.16
744.004	0.03
744.181	0.03
744.359	-0.08
744.537	-0.05
744.715	0.03
744.893	-0.01
745.071	0.01
745.249	-0.02
745.427	0.01
745.605	0.07
745.782	0.01
745.96	0.09
746.138	0.05
746.316	0.03
746.493	0.08
746.671	-0.02
746.849	0
747.027	0.13
747.204	-0.06
747.382	0.15
747.56	-0.1
747.737	-0.06
747.915	-0.06
748.093	-0.02
748.27	-0.04
748.448	-0.09
748.625	-0.08
748.803	-0.09
748.98	-0.05
749.158	0.03
749.335	0.03
749.513	0.03
749.69	-0.05
749.868	-0.02
750.045	0.07
750.223	-0.07
750.4	-0.13
750.578	0.19
750.755	-0.01
750.932	-0.08
751.11	0.17
751.287	-0.19
751.464	0.11
751.642	-0.09
751.819	0.03
751.996	-0.05
752.173	-0.05
752.351	-0.16
752.528	0.08
752.705	0.03
752.882	-0.03
753.06	-0
753.237	0.02
753.414	0.14
753.591	0.07
753.768	0.08
753.945	0
754.122	-0.02
754.299	0.01
754.476	-0.07
754.654	0.08
754.831	0.01
755.008	-0.01
755.185	-0.05
755.362	0.03
755.539	-0.09
755.716	0.04
755.892	-0.06
756.069	0.06
756.246	-0.09
756.423	-0.06
756.6	0.09
756.777	0.01
756.954	0.05
757.131	-0.02
757.307	-0.04
757.484	-0.17
757.661	0.09
757.838	0.12
758.015	-0.05
758.191	-0
758.368	0.04
758.545	0.1
758.721	0.09
758.898	-0.11
759.075	0.02
759.251	0.13
759.428	0.04
759.605	-0.23
759.781	0.08
759.958	0.08
760.134	0.08
760.311	-0.01
760.488	0.11
760.664	0.2
760.841	-0.06
761.017	-0.11
761.194	0.02
761.37	-0.04
761.547	-0.05
761.723	0
761.899	0.13
762.076	-0.1
762.252	-0.13
762.429	-0.04
762.605	0.03
762.781	-0.08
762.958	0.16
763.134	0.03
763.31	0.02
763.486	0.15
763.663	-0.08
763.839	0.11
764.015	-0.22
764.191	-0.09
764.368	-0.08
764.544	-0.13
764.72	0.06
764.896	0.02
765.072	-0.01
765.248	-0.09
765.425	-0.02
765.601	0.02
765.777	0.05
765.953	-0.23
766.129	0.01
766.305	-0.03
766.481	0.06
766.657	0.08
766.833	0.08
767.009	-0.1
767.185	0.04
767.361	-0.01
767.537	-0.1
767.713	0.17
767.889	-0.13
768.065	-0.07
768.24	-0.11
768.416	0.17
768.592	-0.03
768.768	-0.06
768.944	-0.07
769.12	-0.03
769.295	-0.01
769.471	0.06
769.647	-0.01
769.823	0.22
769.998	0.01
770.174	-0.08
770.35	0.29
770.525	0.19
770.701	0.1
770.877	-0.07
771.052	-0.06
771.228	0.2
771.403	0.11
771.579	0.07
771.755	0.39
771.93	-0.02
772.106	-0.03
772.281	-0.2
772.457	-0.03
772.632	0.03
772.808	-0.12
772.983	-0.04
773.159	-0.17
773.334	0.08
773.509	-0.06
773.685	-0.21
773.86	0.33
774.036	0.24
774.211	0.09
774.386	-0.08
774.562	-0.05
774.737	-0.04
774.912	-0.16
775.087	0.06
775.263	0.01
775.438	0.1
775.613	0.08
775.788	-0.07
775.964	0.26
776.139	0.27
776.314	-0.22
776.489	-0.01
776.664	0.19
776.839	-0.03
777.014	0.13
777.19	0.09
777.365	0.12
777.54	0.14
777.715	-0.09
777.89	0.12
778.065	-0.1
778.24	-0.09
778.415	0.09
778.59	-0.02
778.765	0.04
778.94	-0.07
779.115	-0.03
779.289	0.02
779.464	-0.06
779.639	0.05
779.814	-0.09
779.989	-0.18
780.164	-0.05
780.339	0.03
780.513	-0.12
780.688	-0.05
780.863	-0.11
781.038	0.03
781.212	-0.09
781.387	0.08
781.562	0.2
781.737	-0.07
781.911	0.24
782.086	-0.2
782.261	-0.1
782.435	0.14
782.61	-0.04
782.784	0.02
782.959	0.21
783.134	-0.16
783.308	-0.18
783.483	-0.25
783.657	0.35
783.832	0.06
784.006	-0.24
784.181	0.07
784.355	0.28
784.53	-0.24
784.704	-0.24
784.878	0.2
785.053	0.22
785.227	0.22
785.402	0.36
785.576	-0.12
785.75	-0.13
785.925	-0.2
786.099	-0.1
786.273	0.09
786.448	0.14
786.622	0.05
786.796	0.01
786.97	-0.05
787.145	0.37
787.319	-0.37
787.493	-0.09
787.667	-0.31
787.841	0.08
788.015	0.12
788.19	-0.26
788.364	0.02
788.538	0.05
788.712	0.09
788.886	0.09
789.06	0.44
789.234	0.18
789.408	-0.21
789.582	-0.07
789.756	-0.17
789.93	-0.17
790.104	0
790.278	-0.27
790.452	-0.24
790.626	0.06
790.8	-0.09
790.973	0.06
791.147	0.04
791.321	0.24
791.495	0.19
791.669	0.15
791.843	0.13
792.016	-0.01
792.19	0.31
792.364	-0.22
792.538	0.62
792.711	0.18
792.885	-0.03
793.059	-0.05
793.233	-0.59
793.406	0.23
793.58	0.07
793.754	-0.06
793.927	0.22
794.101	0.4
794.274	0.05
794.448	0.24
794.622	-0.04
794.795	0.1
794.969	-0.19
795.142	0.21
795.316	0.04
795.489	-0.12
795.663	0.41
795.836	0.05
796.009	-0.29
796.183	0.21
796.356	0.13
796.53	0.22
796.703	-0.17
796.876	0.41
797.05	-0.31
797.223	-0.05
797.396	-0.11
797.57	0.2
797.743	0.46
797.916	-0.02
798.09	-0.03
798.263	0.41
798.436	0.07
798.609	-0.2
798.782	0.02
798.956	-0.03
799.129	-0.06
799.302	0
799.475	-0.14
799.648	-0.24
799.821	-0.28
799.994	-0.02
800.167	-0.27
800.34	-0.15
800.514	-0.07
800.687	-0.08
800.86	-0.14
801.033	-0.34
801.206	-0.07
801.379	-0.33
801.551	0.66
801.724	0.24
801.897	0.31
802.07	0.06
802.243	-0.38
802.416	-0.22
802.589	-0.42
802.762	0.11
802.935	0.14
803.107	0.08
803.28	0.02
803.453	0.17
803.626	-0.23
803.798	0.03
803.971	0.11
804.144	-0.11
804.317	0.35
804.489	0.31
804.662	0.11
804.835	0.13
805.007	-0.39
805.18	0.26
805.353	-0
805.525	-0.17
805.698	-0.06
805.87	0.25
806.043	0.15
806.215	-0.16
806.388	-0.25
806.56	0.11
806.733	0.23
806.905	0.02
807.078	-0.41
807.25	-0.07
807.423	0.11
807.595	0.07
807.768	-0.21
807.94	0.62
808.112	-0.02
808.285	0.01
808.457	-0.17
808.629	-0.18
808.802	0.26
808.974	0.01
809.146	-0.3
809.318	-0.45
809.491	0.05
809.663	0.26
809.835	-0.02
810.007	0.14
810.18	0.02
810.352	-0.37
810.524	-0.07
810.696	0.05
810.868	0.75
811.04	-0.02
811.212	-0.19
811.384	0.47
811.556	0.07
811.728	0.25
811.901	0.28
812.073	-0.31
812.245	0.29
812.417	0.22
812.589	-0.51
812.76	0.17
812.932	-0.02
813.104	0.11
813.276	-0.47
813.448	0.07
813.62	0.04
813.792	0.27
813.964	0.17
814.136	0.26
814.307	-0.16
814.479	-0.06
814.651	0.36
814.823	0.51
814.995	-0.24
815.166	-0.15
815.338	0
815.51	-0.6
815.681	0.8
815.853	0.1
816.025	0.29
816.196	0.31
816.368	0.08
816.54	-0.13
816.711	-0.28
816.883	0.08
817.054	1.17
817.226	-0.49
817.398	0
817.569	-0.53
817.741	-0.08
817.912	-0.29
818.084	0.11
818.255	-0.02
818.426	-0.06
818.598	0.22
818.769	-0.24
818.941	0.45
819.112	0.2
819.283	0.68
819.455	-0.33
819.626	0.22
819.798	0.33
819.969	0.22
820.14	-0.07
820.311	-0.11
820.483	-0.11
820.654	0.05
820.825	0.11
820.996	-0.19
821.168	-0.52
821.339	-0.23
821.51	-0.36
821.681	-0.39
821.852	0.02
822.023	-0.4
822.195	-1.02
822.366	0.44
822.537	-0.03
822.708	-0.2
822.879	-0.31
823.05	-0.11
823.221	0.19
823.392	-0.01
823.563	0.55
823.734	-0.07
823.905	0.04
824.076	-0.28
824.247	-0.41
824.418	-0.29
824.589	0.55
824.759	-0.65
824.93	0.11
825.101	-0.18
825.272	0.04
825.443	0.37
825.614	0.74
825.784	-1.07
825.955	0.96
826.126	0.83
826.297	-0.47
826.467	1.17
826.638	0.31
826.809	-0.38
826.98	0.05
827.15	0.17
827.321	0.08
827.492	0.84
827.662	0.24
827.833	1.21
828.003	0.1
828.174	-0.25
828.345	-0.56
828.515	0.69
828.686	-0.16
828.856	0.1
829.027	-0.23
829.197	0.14
829.368	0.44
829.538	0.03
829.709	-0.5
829.879	0.43
830.049	0.01
830.22	-0.74
830.39	0.03
830.56	-0
830.731	-0.65
830.901	-0.13
831.072	-0.31
831.242	0.06
831.412	0.1
831.582	0.45
831.753	-0.98
831.923	-0.03
832.093	-0.31
832.263	-0.46
832.434	-0.89
832.604	-0.1
832.774	0.16
832.944	0.41
833.114	-0.1
833.284	0.26
833.454	-0.6
833.624	-0.47
833.795	-0.73
833.965	0.68
834.135	0.03
834.305	-0.61
834.475	-0.09
834.645	-0.2
834.815	-1.08
834.985	-0.48
835.155	-0.31
835.325	0.21
835.494	-0.14
835.664	0.18
835.834	-0.47
836.004	0.21
836.174	0.32
836.344	0.22
836.514	-0.67
836.684	0.05
836.853	0.59
837.023	0.25
837.193	-0.51
837.363	0.44
837.532	0.54
837.702	-0.11
837.872	-0.68
838.041	0.7
838.211	1.26
838.381	-0.75
838.55	-0.11
838.72	1.33
838.89	1.63
839.059	0.06
839.229	-0.57
839.398	1.67
839.568	-0.31
839.738	-0.52
839.907	0.34
840.077	0.09
840.246	-0.22
840.416	-0.33
840.585	-1.34
840.755	1.01
840.924	0.94
841.093	-0.17
841.263	0.67
841.432	0.38
841.602	-0.78
841.771	-1.23
841.94	-0.15
842.11	1.8
842.279	1.48
842.448	-1.21
842.617	-0.56
842.787	0.94
842.956	-0.62
843.125	-0.29
843.294	0.3
843.464	0.11
843.633	0.07
843.802	-0.97
843.971	-0.14
844.14	0.96
844.309	0.91
844.479	-0.17
844.648	-1.12
844.817	-0.21
844.986	0.34
845.155	-0.5
845.324	-0.44
845.493	0.03
845.662	-0.54
845.831	-0.1
846	0.23
846.169	0.04
846.338	0.61
846.507	-0.09
846.676	0.05
846.844	0.3
847.013	-0.22
847.182	-0.02
847.351	-0.11
847.52	-0.07
847.689	0.43
847.858	-0.07
848.026	-0.77
848.195	0.31
848.364	-0.62
848.533	-1.04
848.701	-0.53
848.87	-0.54
849.039	0.96
849.207	0.71
849.376	0.9
849.545	1.3
849.713	-1.01
849.882	-0.36
850.051	0.39
850.219	0.29
850.388	0.87
850.556	-0.79
850.725	-0.47
850.893	-0.85
851.062	-0.7
851.23	0.08
851.399	-1.37
851.567	-0.55
851.736	-0.75
851.904	-0.7
852.073	0.51
852.241	0.38
852.41	0.82
852.578	-0.56
852.746	0.94
852.915	1.7
853.083	0.02
853.251	-1.06
853.42	-1.08
853.588	0.74
853.756	0.42
853.924	0.44
854.093	-0.97
854.261	-0.24
854.429	-1.11
854.597	-0.16
854.765	-0.61
854.934	-0.48
855.102	0.57
855.27	-0.5
855.438	0.05
855.606	1.34
855.774	0.28
855.942	-1.46
856.11	-1.16
856.278	0.2
856.446	1.13
856.614	-0.46
856.782	-0.2
856.95	1.02
857.118	0.31
857.286	-0.05
857.454	-0.2
857.622	-0.14
857.79	1.11
857.958	-1.79
858.126	-0.44
858.294	-2.55
858.462	1.08
858.629	0.13
858.797	-0.53
858.965	0.61
859.133	-0.07
859.301	-0.48
859.468	0.78
859.636	-0.8
859.804	0.08
859.971	1.08
860.139	0.49
860.307	0.6
860.474	0.43
860.642	-0.33
860.81	-0.22
860.977	-0.28
861.145	0.73
861.313	0.05
861.48	-0.46
861.648	1.57
861.815	-1.79
861.983	-0.98
862.15	-0.82
862.318	0.08
862.485	1.33
862.653	-0.33
862.82	-1.41
862.988	1.83
863.155	-0.03
863.322	-1.19
863.49	-2.53
863.657	-0.43
863.824	1.39
863.992	0.27
864.159	-0.05
864.326	0.88
864.494	-0.28
864.661	3.13
864.828	-1.4
864.996	1.74
865.163	1.64
865.33	0.05
865.497	-2.22
865.664	0.08
865.832	-0.95
865.999	0.56
866.166	-1.56
866.333	-0.99
866.5	0.23
866.667	-0.73
866.834	-0.4
867.001	1.38
867.168	-2.08
867.335	-1.64
867.502	-0.41
867.669	1.64
867.836	1.37
868.003	-0.47
868.17	1.29
868.337	-1.34
868.504	1.3
868.671	-1.64
868.838	0.16
869.005	-0.52
869.172	1.16
869.339	-1.54
869.505	0.53
869.672	-0.03
869.839	2.22
870.006	-0.45
870.173	-2.56
870.339	0.31
870.506	2.34
870.673	-0.8
870.84	0.56
871.006	0.42
871.173	-1.36
871.34	-0.79
871.506	-1.04
871.673	0.1
871.839	-2.54
872.006	-0.03
872.173	-0.62
872.339	1.18
872.506	1.3
872.672	0.61
872.839	-1.37
873.005	-0.11
873.172	0.22
873.338	1.51
873.505	-1.13
873.671	2.06
873.838	1.62
874.004	-1.76
874.171	-1.51
874.337	0.14
874.503	1.59
874.67	-1.65
874.836	0.58
875.002	2.38
875.169	0.06
875.335	1.09
875.501	-0.83
875.668	1.96
875.834	0.11
876	0.24
876.166	0.62
876.332	0.62
876.499	1.63
876.665	-0.23
876.831	-0.23
876.997	2.11
877.163	0.58
877.329	-0.08
877.495	-0.6
877.662	1.22
877.828	0.72
877.994	0.8
878.16	-1.29
878.326	-0.08
878.492	0.32
878.658	-0.6
878.824	-0.09
878.99	1.22
879.156	-1.95
879.322	2.1
879.487	-0.59
879.653	0.62
879.819	-0.2
879.985	-1.18
880.151	-0.27
880.317	0.1
880.483	0.18
880.648	-0.05
880.814	-2.6
880.98	0.87
881.146	-1.94
881.312	-0.09
881.477	-0.03
881.643	2
881.809	1.97
881.974	1.93
882.14	-1.49
882.306	0.55
882.471	2.8
882.637	-0.86
882.803	0.49
882.968	0.33
883.134	2.91
883.299	0.05
883.465	0.74
883.63	0.49
883.796	1.05
883.961	0.53
884.127	0.99
884.292	-3.67
884.458	-1.49
884.623	-1.49
