Data from Apollo_Calib_20240827__AbsoluteIrradiance__511__07-40-01-999.txt Node

Date: Wed Aug 28 07:40:01 BST 2024
User: biology
Spectrometer: FLMT08252
Trigger mode: 0
Integration Time (sec): 5.000000E-1
Scans to average: 5
Electric dark correction enabled: true
Nonlinearity correction enabled: false
Boxcar width: 0
XAxis mode: Wavelengths
Number of Pixels in Spectrum: 3648
>>>>>Begin Spectral Data<<<<<
179.588	-0
179.809	-0
180.03	-0
180.251	-0
180.473	-0
180.694	0
180.915	0
181.136	-0
181.357	0
181.578	-0
181.799	-0
182.02	-0
182.241	-0
182.462	-0
182.683	0
182.904	-0
183.125	-0
183.346	0
183.567	0
183.788	0
184.009	-0
184.23	0
184.451	0
184.672	-0
184.892	-0
185.113	0
185.334	0
185.555	0
185.776	-0
185.996	0
186.217	0
186.438	-0
186.659	-0
186.879	0
187.1	-0
187.321	-0
187.541	-0
187.762	0
187.983	-0
188.203	0
188.424	0
188.644	-0
188.865	0
189.086	-0
189.306	0
189.527	-0
189.747	-0
189.968	-0
190.188	0
190.409	-0
190.629	0
190.849	-0
191.07	-0
191.29	0
191.511	-0
191.731	-0
191.951	-0
192.172	0
192.392	0
192.612	0
192.833	0
193.053	0
193.273	-0
193.493	-0
193.714	0
193.934	0
194.154	0
194.374	0
194.594	0
194.815	0
195.035	0
195.255	0
195.475	-0
195.695	0
195.915	0
196.135	-0
196.355	0
196.575	0
196.795	0
197.015	-0
197.235	0
197.455	-0
197.675	0
197.895	0
198.115	-0
198.335	0
198.555	0
198.775	0
198.995	0
199.214	0
199.434	-0
199.654	-0
199.874	-0
200.094	0.92
200.313	0.16
200.533	0.22
200.753	-0.31
200.973	1.03
201.192	0.42
201.412	-0.77
201.632	-0.09
201.851	0.87
202.071	-0.28
202.291	-0.17
202.51	-0.77
202.73	0.26
202.95	-0.41
203.169	-0.47
203.389	0.05
203.608	0.38
203.828	-0.19
204.047	-0.09
204.267	0.77
204.486	0.25
204.706	0.4
204.925	0.13
205.145	-0.05
205.364	0.57
205.583	0.77
205.803	-0.18
206.022	-0.36
206.242	-0.03
206.461	0.18
206.68	-0.57
206.9	0.26
207.119	0.65
207.338	0.8
207.557	-0.13
207.777	0.13
207.996	-0.32
208.215	0.19
208.434	-0.13
208.654	-0.27
208.873	0.07
209.092	0.39
209.311	0.28
209.53	-0.16
209.749	0.02
209.968	-0.18
210.187	0.14
210.407	-0.49
210.626	-0.03
210.845	0.24
211.064	0.1
211.283	-0.22
211.502	0.25
211.721	-0.05
211.94	0.11
212.159	0.22
212.377	0.46
212.596	0.35
212.815	-0
213.034	0.13
213.253	0.36
213.472	0.16
213.691	0.09
213.91	-0.19
214.128	-0.05
214.347	0.31
214.566	-0.42
214.785	-0.14
215.003	0.29
215.222	0.32
215.441	0.09
215.66	-0.22
215.878	0.18
216.097	0.26
216.316	-0.04
216.534	-0.13
216.753	0.02
216.972	0.1
217.19	-0.18
217.409	-0.08
217.627	-0.15
217.846	-0.07
218.064	-0.01
218.283	-0.09
218.501	0.42
218.72	0.22
218.938	-0.16
219.157	-0.13
219.375	0.27
219.594	0.19
219.812	-0.27
220.031	-0.16
220.249	0.34
220.467	0.39
220.686	-0.01
220.904	-0.16
221.122	0.05
221.341	0.38
221.559	0.15
221.777	-0.1
221.995	0.29
222.214	0.17
222.432	-0.1
222.65	0.19
222.868	-0.02
223.086	0.14
223.305	0.08
223.523	-0.04
223.741	0.49
223.959	-0.1
224.177	-0.14
224.395	0
224.613	0.08
224.831	0.13
225.049	-0.08
225.267	-0.1
225.485	0.09
225.703	0.08
225.921	0.05
226.139	0.14
226.357	0.13
226.575	0
226.793	-0.08
227.011	0.36
227.229	0.06
227.447	0.21
227.665	-0.05
227.883	-0.23
228.1	0.05
228.318	0.08
228.536	-0.11
228.754	0.02
228.972	0.07
229.189	0.17
229.407	-0.05
229.625	0
229.843	0.16
230.06	0.14
230.278	-0.11
230.496	0.11
230.713	0
230.931	0.16
231.149	-0.13
231.366	-0.3
231.584	0.08
231.801	0.36
232.019	-0.1
232.236	-0.07
232.454	-0.06
232.671	0.1
232.889	-0.01
233.106	-0.15
233.324	0.08
233.541	-0.06
233.759	0.05
233.976	-0.09
234.194	-0.02
234.411	0.09
234.628	0
234.846	0.03
235.063	0.11
235.28	-0.03
235.498	0
235.715	-0.16
235.932	0.19
236.149	-0.08
236.367	-0.08
236.584	0.08
236.801	-0.1
237.018	0.19
237.236	0.01
237.453	-0.16
237.67	0.07
237.887	-0.07
238.104	0.01
238.321	-0.07
238.538	-0.03
238.755	0.11
238.973	-0.1
239.19	-0.05
239.407	0.06
239.624	0.05
239.841	-0.12
240.058	-0.11
240.275	0.09
240.492	0
240.709	0.05
240.925	-0.03
241.142	0.05
241.359	-0.05
241.576	0
241.793	-0.08
242.01	0.01
242.227	0.15
242.444	0.11
242.66	0.13
242.877	0.06
243.094	0.01
243.311	-0.02
243.527	-0.04
243.744	-0.01
243.961	0.08
244.178	-0.02
244.394	0.06
244.611	0.14
244.828	0.26
245.044	-0.05
245.261	-0.02
245.477	-0.04
245.694	0.02
245.911	-0.1
246.127	0
246.344	0.12
246.56	0.05
246.777	-0.06
246.993	0.02
247.21	-0.03
247.426	-0.02
247.643	-0.02
247.859	-0.07
248.076	-0.03
248.292	0.19
248.508	-0.02
248.725	0.03
248.941	0.09
249.157	0.11
249.374	-0.04
249.59	0.02
249.806	0
250.023	0.01
250.239	-0.03
250.455	-0
250.671	0.02
250.888	0.02
251.104	0.13
251.32	-0.08
251.536	-0.03
251.752	-0.02
251.969	0.03
252.185	0.01
252.401	0.16
252.617	0.09
252.833	-0.07
253.049	-0.04
253.265	0.03
253.481	0.1
253.697	0.01
253.913	-0.11
254.129	0.06
254.345	0.02
254.561	0
254.777	0.04
254.993	0.15
255.209	0.03
255.425	-0
255.641	-0
255.857	0.06
256.073	0.01
256.288	-0.08
256.504	-0.03
256.72	0.09
256.936	0.15
257.152	-0.09
257.367	-0.06
257.583	0.06
257.799	0.04
258.015	-0
258.23	-0.04
258.446	0.21
258.662	-0.01
258.877	0.03
259.093	-0.04
259.309	0
259.524	0.03
259.74	0.02
259.955	-0.13
260.171	0.07
260.387	-0
260.602	0.04
260.818	0.09
261.033	0
261.249	-0.03
261.464	0.05
261.68	-0.01
261.895	0.07
262.11	0.15
262.326	-0.07
262.541	-0.05
262.757	0.06
262.972	0.04
263.187	-0
263.403	-0.02
263.618	0.13
263.833	0.05
264.049	-0.01
264.264	0.06
264.479	0.07
264.694	0.14
264.91	0.03
265.125	0.04
265.34	0.08
265.555	0.12
265.77	0.02
265.986	0
266.201	0.07
266.416	0.15
266.631	-0.02
266.846	0.08
267.061	0.04
267.276	0.07
267.491	-0.13
267.706	0.04
267.921	0.07
268.136	0.03
268.351	-0.04
268.566	-0.05
268.781	0.11
268.996	0.1
269.211	0.06
269.426	-0.03
269.641	0.01
269.856	0.02
270.071	-0.03
270.285	-0.04
270.5	0.08
270.715	0.05
270.93	0.03
271.145	0.06
271.359	0.03
271.574	-0
271.789	0.02
272.004	-0.06
272.218	0.06
272.433	0.12
272.648	0.01
272.862	0.12
273.077	0.02
273.292	-0.04
273.506	-0.07
273.721	0.01
273.936	0.07
274.15	0.06
274.365	-0.04
274.579	0.07
274.794	0.07
275.008	0.08
275.223	-0.09
275.437	0.03
275.652	0.03
275.866	0.07
276.081	0.04
276.295	0.06
276.509	-0.02
276.724	0.05
276.938	-0
277.153	0.06
277.367	0.11
277.581	-0.01
277.796	-0.02
278.01	-0.04
278.224	0.09
278.438	0.16
278.653	-0.1
278.867	0
279.081	-0.1
279.295	-0.02
279.51	0.03
279.724	-0.11
279.938	-0.01
280.152	0.06
280.366	-0.01
280.58	0.08
280.794	0.1
281.008	0.03
281.222	0.09
281.437	0.12
281.651	0.02
281.865	0.12
282.079	0.04
282.293	-0.1
282.507	-0.03
282.721	0.03
282.935	-0.01
283.148	-0.06
283.362	-0.04
283.576	-0.01
283.79	0.04
284.004	-0.03
284.218	0.05
284.432	-0.01
284.646	0.02
284.859	0.02
285.073	0.04
285.287	-0.01
285.501	0.04
285.714	-0.02
285.928	0.02
286.142	-0.03
286.356	-0.07
286.569	-0.03
286.783	0.08
286.997	0.04
287.21	0
287.424	0.06
287.637	0.02
287.851	0
288.065	0.04
288.278	-0.01
288.492	0
288.705	0.01
288.919	0.06
289.132	-0.04
289.346	0.05
289.559	-0.06
289.773	-0.06
289.986	0.03
290.2	0.03
290.413	0.06
290.626	-0.09
290.84	0.01
291.053	-0.03
291.267	0.06
291.48	0.03
291.693	-0.01
291.906	0.02
292.12	-0.02
292.333	0.02
292.546	0.02
292.76	0.07
292.973	0.05
293.186	0.04
293.399	0.03
293.612	0.08
293.826	0.04
294.039	0.03
294.252	-0.01
294.465	0.04
294.678	0.07
294.891	0
295.104	0
295.317	-0.02
295.53	0.03
295.743	0.03
295.956	0.03
296.169	0.07
296.382	0.05
296.595	0
296.808	-0.01
297.021	0.08
297.234	0.03
297.447	0.01
297.66	0.03
297.873	0.06
298.086	0.06
298.299	0
298.511	0.01
298.724	-0.01
298.937	-0.05
299.15	0
299.363	-0.01
299.575	0.03
299.788	0.08
300.001	0.01
300.213	-0.07
300.426	-0
300.639	-0.02
300.852	-0.01
301.064	0.03
301.277	0.09
301.489	0.03
301.702	-0.01
301.915	0.04
302.127	0.02
302.34	0.03
302.552	0.06
302.765	0.01
302.977	0.05
303.19	-0.02
303.402	-0
303.615	0.02
303.827	0.01
304.04	0.02
304.252	0.02
304.464	0.03
304.677	0.12
304.889	0.08
305.102	0
305.314	0.01
305.526	0.05
305.739	0.04
305.951	-0.02
306.163	-0
306.375	0.06
306.588	0
306.8	-0
307.012	-0.08
307.224	-0.01
307.436	0.09
307.649	-0.05
307.861	0.06
308.073	0.04
308.285	-0.03
308.497	-0
308.709	-0.01
308.921	-0.02
309.133	0.06
309.346	-0.02
309.558	-0.02
309.77	0.05
309.982	0.08
310.194	0.05
310.406	0
310.617	0.07
310.829	0.03
311.041	0.04
311.253	-0
311.465	-0
311.677	0.01
311.889	-0
312.101	-0.01
312.313	0.09
312.524	0.06
312.736	-0.01
312.948	-0.02
313.16	0.05
313.372	0.03
313.583	0.03
313.795	-0.02
314.007	-0.01
314.218	-0.04
314.43	0.02
314.642	-0.02
314.853	-0.07
315.065	0.06
315.277	-0.02
315.488	0.03
315.7	0.07
315.912	0.05
316.123	0.04
316.335	0.01
316.546	0.12
316.758	0.06
316.969	-0.01
317.181	0.02
317.392	0.01
317.604	0.03
317.815	-0.06
318.026	-0.02
318.238	-0.03
318.449	0.05
318.661	-0.05
318.872	-0.08
319.083	-0.06
319.295	0.02
319.506	-0.05
319.717	0.05
319.929	0.04
320.14	0.02
320.351	0.04
320.562	-0.04
320.774	0.03
320.985	-0.01
321.196	-0.03
321.407	-0.05
321.618	0.06
321.829	0.02
322.041	0.03
322.252	0.03
322.463	0.01
322.674	0.01
322.885	-0.02
323.096	-0
323.307	-0.02
323.518	0.04
323.729	0.01
323.94	-0.02
324.151	-0
324.362	0.02
324.573	0.03
324.784	-0.01
324.995	0.08
325.206	0.01
325.417	-0.02
325.628	-0.02
325.838	0.03
326.049	0.01
326.26	0.07
326.471	-0
326.682	0.03
326.892	-0.03
327.103	-0.06
327.314	-0.05
327.525	0.07
327.735	0.04
327.946	0.02
328.157	-0
328.368	-0.02
328.578	-0.02
328.789	-0.01
328.999	0.01
329.21	0.03
329.421	0.05
329.631	-0.04
329.842	0.01
330.052	0.03
330.263	0.04
330.473	0.03
330.684	0.03
330.894	-0.04
331.105	0
331.315	0.03
331.526	-0.05
331.736	0.1
331.947	0.02
332.157	0.03
332.367	-0.03
332.578	0.04
332.788	0.04
332.999	0.04
333.209	0.03
333.419	-0.07
333.629	0.02
333.84	0.03
334.05	0.03
334.26	0.09
334.47	0.11
334.681	0.07
334.891	0.01
335.101	0.04
335.311	0.1
335.521	-0.01
335.732	-0.05
335.942	0.07
336.152	0.05
336.362	0.04
336.572	0.07
336.782	0.08
336.992	-0
337.202	-0.01
337.412	-0.01
337.622	0.05
337.832	0.03
338.042	0.03
338.252	0.02
338.462	-0.03
338.672	0.02
338.882	-0.07
339.092	-0
339.302	0.07
339.511	0.06
339.721	-0.02
339.931	-0.02
340.141	0.08
340.351	0.07
340.561	0.02
340.77	-0.01
340.98	0.04
341.19	0.06
341.4	-0.03
341.609	-0.03
341.819	0.02
342.029	-0.01
342.238	-0.01
342.448	-0.01
342.658	0.01
342.867	-0.01
343.077	0.01
343.286	0.03
343.496	-0
343.706	0.1
343.915	-0
344.125	-0.01
344.334	0.05
344.544	-0.06
344.753	-0.02
344.963	0
345.172	0.01
345.381	-0.01
345.591	-0.04
345.8	0.04
346.01	0.12
346.219	0.06
346.428	-0.1
346.638	-0.01
346.847	0.03
347.056	0.1
347.266	-0.03
347.475	-0.01
347.684	0.02
347.893	0.04
348.103	0.04
348.312	0.01
348.521	-0.01
348.73	0.01
348.94	0.01
349.149	0.02
349.358	0.02
349.567	-0.02
349.776	-0.05
349.985	-0.03
350.194	0.01
350.403	0.05
350.612	-0.03
350.821	-0.01
351.03	0.01
351.239	-0.05
351.448	0.01
351.657	0
351.866	0.06
352.075	-0
352.284	0.05
352.493	-0.02
352.702	0.08
352.911	0.04
353.12	-0
353.329	-0.03
353.538	0.01
353.746	-0.01
353.955	0.01
354.164	0.04
354.373	-0.02
354.582	0.04
354.79	0.04
354.999	0.02
355.208	0
355.416	0.09
355.625	-0.04
355.834	0.02
356.042	0.03
356.251	0.02
356.46	-0.01
356.668	0.05
356.877	0.09
357.085	0.05
357.294	-0.1
357.503	0.03
357.711	0.02
357.92	0.13
358.128	0.03
358.337	0.02
358.545	0.05
358.754	-0.02
358.962	0.04
359.17	-0.03
359.379	0.02
359.587	0.03
359.796	-0.01
360.004	0.06
360.212	0.01
360.421	0.05
360.629	0.01
360.837	0.02
361.046	0.03
361.254	0.11
361.462	0.03
361.67	-0.01
361.879	0.03
362.087	0.09
362.295	0.01
362.503	0.02
362.711	-0
362.92	0.01
363.128	0
363.336	-0.04
363.544	0
363.752	-0.03
363.96	-0.02
364.168	-0.02
364.376	-0
364.584	0.04
364.792	0.02
365	0.01
365.208	0
365.416	0.01
365.624	0.01
365.832	-0.01
366.04	0.07
366.248	0.01
366.456	0.02
366.664	0.02
366.872	0.02
367.079	0.01
367.287	-0.01
367.495	0.03
367.703	0.01
367.911	0.02
368.118	0.01
368.326	-0
368.534	-0.05
368.742	0.08
368.949	-0.04
369.157	-0.01
369.365	0.01
369.572	0
369.78	-0.01
369.988	0.07
370.195	0.04
370.403	0.08
370.61	0.01
370.818	0.04
371.026	0.08
371.233	0.03
371.441	0.01
371.648	0.02
371.856	0
372.063	0.05
372.271	-0.02
372.478	-0.03
372.685	0.02
372.893	0.02
373.1	0.02
373.308	0.03
373.515	0.1
373.722	0.01
373.93	-0
374.137	0.06
374.344	0.09
374.552	0.04
374.759	0.05
374.966	0.01
375.173	-0.01
375.381	0.06
375.588	-0.02
375.795	-0.06
376.002	-0.01
376.209	-0.02
376.417	0.04
376.624	0.03
376.831	0.01
377.038	-0.03
377.245	-0.06
377.452	0.01
377.659	0.03
377.866	-0.03
378.073	0
378.28	0.04
378.487	0.05
378.694	0.04
378.901	-0
379.108	-0.01
379.315	0.02
379.522	0.08
379.729	0.05
379.936	0.03
380.143	-0.02
380.35	0.03
380.557	-0.02
380.763	0.06
380.97	0.01
381.177	0.04
381.384	0.02
381.591	-0.02
381.797	0.06
382.004	-0.01
382.211	0.05
382.418	0.01
382.624	0.03
382.831	0.04
383.038	-0
383.244	0.05
383.451	-0.02
383.658	0.04
383.864	0.01
384.071	-0.02
384.277	0.05
384.484	-0.07
384.69	0.05
384.897	-0.02
385.103	0.01
385.31	-0.01
385.516	-0.01
385.723	-0.04
385.929	-0.01
386.136	-0.01
386.342	0.02
386.549	-0.01
386.755	0.04
386.961	0.01
387.168	0.03
387.374	0.02
387.58	0.05
387.787	0.02
387.993	0.04
388.199	0.01
388.406	-0.03
388.612	0.03
388.818	0
389.024	-0.02
389.231	0.01
389.437	0.09
389.643	0.04
389.849	-0
390.055	0
390.261	0.05
390.467	0.01
390.674	-0.03
390.88	-0.03
391.086	0.03
391.292	-0.02
391.498	0.01
391.704	0.04
391.91	-0.05
392.116	-0
392.322	-0.08
392.528	0.02
392.734	-0
392.94	0.01
393.146	0.01
393.352	0.02
393.557	-0
393.763	-0.01
393.969	0.03
394.175	-0.02
394.381	0.04
394.587	-0.02
394.792	0.04
394.998	0.04
395.204	0.07
395.41	-0.07
395.615	0.04
395.821	0.04
396.027	0.04
396.233	-0.04
396.438	0.04
396.644	0.06
396.85	0.04
397.055	-0.04
397.261	0.01
397.466	-0.01
397.672	0.01
397.878	0.04
398.083	0.01
398.289	-0.02
398.494	0.01
398.7	0.04
398.905	-0.06
399.111	0.06
399.316	-0.04
399.522	-0
399.727	0.01
399.932	-0.01
400.138	-0.02
400.343	0.01
400.549	0.04
400.754	-0.02
400.959	0.03
401.165	0.01
401.37	0.06
401.575	0.01
401.78	-0.02
401.986	-0.01
402.191	-0.03
402.396	-0.02
402.601	0.03
402.807	-0
403.012	-0
403.217	0.12
403.422	-0.01
403.627	0.02
403.832	-0
404.037	0
404.243	0.07
404.448	-0.07
404.653	-0.02
404.858	-0
405.063	0.08
405.268	-0.02
405.473	-0.03
405.678	0.02
405.883	0.1
406.088	0.03
406.293	-0.06
406.498	-0.02
406.703	0.03
406.907	0.04
407.112	-0.04
407.317	0.04
407.522	0.03
407.727	-0.02
407.932	0.01
408.136	0.11
408.341	0.02
408.546	-0.01
408.751	0.02
408.956	0.01
409.16	0.04
409.365	0.02
409.57	0.01
409.774	0.04
409.979	0.04
410.184	0.03
410.388	-0.04
410.593	0.04
410.798	-0.02
411.002	-0.01
411.207	-0.03
411.411	0.07
411.616	-0.07
411.82	-0.01
412.025	0.05
412.229	0
412.434	0.08
412.638	0.05
412.843	0.02
413.047	0.03
413.252	-0.06
413.456	0
413.66	0.06
413.865	-0.03
414.069	0.09
414.273	-0.03
414.478	0.05
414.682	0.03
414.886	0.02
415.091	-0.06
415.295	-0.05
415.499	-0.02
415.703	-0.02
415.908	0.05
416.112	-0.09
416.316	0.05
416.52	-0.01
416.724	-0.05
416.929	0
417.133	0.08
417.337	-0
417.541	-0.01
417.745	-0
417.949	0.04
418.153	0.05
418.357	-0.03
418.561	0.04
418.765	-0
418.969	0.1
419.173	0.05
419.377	0
419.581	0.13
419.785	-0.01
419.989	-0.08
420.193	-0
420.397	-0.03
420.601	0.05
420.804	0.07
421.008	0.02
421.212	0.03
421.416	0.05
421.62	-0.02
421.823	0.02
422.027	0.07
422.231	-0.01
422.435	0.01
422.638	0.03
422.842	0.03
423.046	-0.01
423.249	0.01
423.453	0.06
423.657	0
423.86	0.02
424.064	-0
424.268	0.09
424.471	0
424.675	0.1
424.878	0.05
425.082	-0.03
425.285	0.03
425.489	-0.02
425.692	-0.03
425.896	-0.02
426.099	0.03
426.303	-0.02
426.506	-0.04
426.71	0.05
426.913	0.05
427.116	0.07
427.32	0.02
427.523	-0.01
427.726	0.1
427.93	-0.05
428.133	0.02
428.336	-0.04
428.54	-0.07
428.743	0.02
428.946	0.02
429.149	-0.04
429.353	0.02
429.556	-0.01
429.759	-0.01
429.962	-0.03
430.165	0.03
430.368	0.02
430.571	-0.03
430.775	0.01
430.978	-0.03
431.181	0.03
431.384	0.01
431.587	-0.02
431.79	0.03
431.993	-0.01
432.196	-0.02
432.399	-0.03
432.602	0.07
432.805	-0.04
433.008	-0.01
433.211	-0.04
433.414	0.04
433.616	0.03
433.819	-0
434.022	-0.06
434.225	0.07
434.428	0.04
434.631	0.07
434.833	0.06
435.036	0.02
435.239	0.05
435.442	0.05
435.645	-0.02
435.847	0.01
436.05	0.06
436.253	-0.01
436.455	-0.05
436.658	-0.02
436.861	0.09
437.063	-0.03
437.266	-0.02
437.468	0.04
437.671	0.12
437.874	0.05
438.076	-0.07
438.279	-0.06
438.481	-0.02
438.684	-0.01
438.886	0.02
439.089	-0.06
439.291	-0
439.494	0
439.696	-0.01
439.899	0.03
440.101	-0.01
440.303	-0.07
440.506	0.05
440.708	0.02
440.91	0.03
441.113	0.02
441.315	0.02
441.517	-0.06
441.72	0.02
441.922	0.03
442.124	-0.01
442.326	0.05
442.529	0.09
442.731	-0.04
442.933	0.08
443.135	0.02
443.337	-0.03
443.539	0.02
443.742	-0.01
443.944	0.04
444.146	-0.03
444.348	0.01
444.55	-0.01
444.752	-0.01
444.954	-0.09
445.156	0.04
445.358	-0.05
445.56	0.04
445.762	-0.03
445.964	0.05
446.166	0
446.368	-0.07
446.57	0.05
446.772	0
446.974	-0.03
447.175	0.05
447.377	-0.09
447.579	-0.06
447.781	-0.05
447.983	0.09
448.184	-0.02
448.386	0.01
448.588	-0.07
448.79	0.02
448.991	-0.05
449.193	-0.04
449.395	-0
449.597	0.02
449.798	0.01
450	0.05
450.202	0.02
450.403	-0.01
450.605	0.01
450.806	-0.02
451.008	-0.01
451.21	-0.01
451.411	0.03
451.613	-0.02
451.814	0.02
452.016	0.06
452.217	0.02
452.419	0.05
452.62	0.02
452.821	0.06
453.023	0.09
453.224	0.07
453.426	0.02
453.627	0.02
453.828	0.02
454.03	-0
454.231	0.04
454.432	-0.02
454.634	0.12
454.835	0.02
455.036	0
455.238	0.06
455.439	0.03
455.64	-0.04
455.841	-0.01
456.042	0.12
456.244	0.03
456.445	-0.02
456.646	-0.07
456.847	0.01
457.048	0.08
457.249	0.06
457.45	0.2
457.651	-0.04
457.852	0.09
458.054	-0
458.255	-0.06
458.456	0.06
458.657	0.01
458.858	-0.02
459.058	-0
459.259	0.05
459.46	-0.02
459.661	0
459.862	0.11
460.063	-0.04
460.264	0.09
460.465	-0.03
460.666	0.07
460.866	-0.01
461.067	-0.04
461.268	0.02
461.469	-0.01
461.67	0.03
461.87	-0.01
462.071	0
462.272	-0.02
462.473	-0.02
462.673	0.04
462.874	-0.01
463.075	0.01
463.275	-0.04
463.476	0.01
463.676	-0.02
463.877	-0
464.078	-0.02
464.278	0.04
464.479	-0.02
464.679	0.02
464.88	-0
465.08	0.07
465.281	-0.04
465.481	-0.04
465.682	-0.02
465.882	0.06
466.083	0.05
466.283	0.03
466.483	0.04
466.684	-0.05
466.884	0.01
467.085	0.07
467.285	0.07
467.485	-0.04
467.686	-0.05
467.886	-0.05
468.086	0.02
468.286	0.02
468.487	0.05
468.687	-0.01
468.887	0.01
469.087	0.05
469.287	0.03
469.488	-0.04
469.688	0.02
469.888	0.05
470.088	0.01
470.288	0.06
470.488	0.05
470.688	-0.02
470.888	-0.05
471.088	-0.01
471.288	0.03
471.488	0.1
471.688	0.04
471.888	-0.02
472.088	0.02
472.288	0.04
472.488	0.01
472.688	-0.01
472.888	0.05
473.088	0.01
473.288	0.03
473.488	0.03
473.688	0.1
473.887	0.03
474.087	-0.01
474.287	0.03
474.487	-0.01
474.687	0.05
474.886	-0
475.086	-0.01
475.286	-0.03
475.486	0.02
475.685	0.03
475.885	-0
476.085	-0.02
476.284	0.04
476.484	0.03
476.684	0.04
476.883	0.04
477.083	0
477.282	-0.02
477.482	0.03
477.681	0.07
477.881	0.02
478.08	-0.01
478.28	-0.05
478.479	0.02
478.679	0.08
478.878	-0.04
479.078	-0.03
479.277	0.01
479.477	0.01
479.676	0.05
479.875	0.01
480.075	-0.03
480.274	0.05
480.473	0.02
480.673	-0.02
480.872	0.03
481.071	0.01
481.271	0.02
481.47	-0.02
481.669	0.02
481.868	-0.03
482.067	-0.01
482.267	-0.01
482.466	-0.03
482.665	-0.04
482.864	-0.02
483.063	-0
483.262	0.03
483.461	0.06
483.661	0.03
483.86	0
484.059	0.01
484.258	0
484.457	0.01
484.656	-0.01
484.855	0.03
485.054	-0.03
485.253	-0.02
485.452	-0.04
485.651	0.02
485.849	-0.03
486.048	-0.01
486.247	0
486.446	0.03
486.645	-0.01
486.844	-0
487.043	-0.01
487.241	0
487.44	-0
487.639	-0
487.838	0.02
488.037	0.01
488.235	0.04
488.434	0.03
488.633	-0.04
488.831	0.01
489.03	0.04
489.229	0
489.427	-0.03
489.626	0.03
489.825	0.06
490.023	-0
490.222	-0
490.42	-0.01
490.619	0.04
490.817	0.02
491.016	-0.03
491.214	0.03
491.413	-0.02
491.611	-0.01
491.81	0.01
492.008	0.01
492.207	0.01
492.405	0.03
492.604	-0.06
492.802	0.02
493	0.02
493.199	-0
493.397	0.01
493.595	0.01
493.794	-0
493.992	0.06
494.19	-0
494.388	0.01
494.587	-0.01
494.785	0.01
494.983	-0.05
495.181	-0.01
495.379	0.01
495.578	-0
495.776	0.01
495.974	0.03
496.172	-0
496.37	0
496.568	-0.02
496.766	-0.01
496.964	0.04
497.162	0
497.36	-0.02
497.558	0.02
497.756	0.02
497.954	-0.01
498.152	-0.03
498.35	0.01
498.548	-0.02
498.746	0.01
498.944	-0.01
499.142	-0.01
499.34	-0.01
499.538	-0.01
499.736	-0.03
499.933	0.04
500.131	0.04
500.329	0.01
500.527	0.02
500.725	0.07
500.922	0.03
501.12	0
501.318	0.01
501.516	-0.02
501.713	0
501.911	0
502.109	-0.02
502.306	0.01
502.504	-0.01
502.701	-0.01
502.899	0
503.097	0.03
503.294	0.01
503.492	0
503.689	0.01
503.887	0.03
504.084	0.04
504.282	0.01
504.479	-0.02
504.677	0.02
504.874	-0.01
505.072	0
505.269	0
505.466	0.02
505.664	0.01
505.861	-0.03
506.059	-0.04
506.256	0.04
506.453	0
506.651	0.05
506.848	0.01
507.045	0
507.242	0.01
507.44	-0
507.637	0.01
507.834	0
508.031	0.05
508.229	-0.02
508.426	0.01
508.623	0.04
508.82	-0.01
509.017	-0.04
509.214	-0
509.411	0.01
509.608	-0
509.805	0.02
510.003	-0.02
510.2	-0.01
510.397	0.03
510.594	0
510.791	-0.04
510.988	-0
511.184	0.02
511.381	0.02
511.578	-0.02
511.775	0.03
511.972	-0
512.169	0
512.366	-0.01
512.563	0.01
512.76	-0
512.956	0.03
513.153	-0
513.35	-0
513.547	0.02
513.744	-0.02
513.94	-0.03
514.137	0.02
514.334	0
514.53	-0
514.727	0.02
514.924	0.08
515.12	0
515.317	-0.04
515.514	0.01
515.71	-0.04
515.907	-0
516.103	0
516.3	0.03
516.497	0.01
516.693	0.04
516.89	0
517.086	-0.02
517.283	0.05
517.479	0.02
517.676	-0
517.872	0
518.068	-0
518.265	-0
518.461	-0
518.658	-0.02
518.854	0.01
519.05	-0
519.247	0
519.443	0.01
519.639	0.01
519.836	0.01
520.032	0.01
520.228	0.03
520.424	0.02
520.621	0.02
520.817	-0
521.013	0.03
521.209	0.02
521.405	0.05
521.601	0.01
521.798	0.01
521.994	0.02
522.19	0.01
522.386	-0.01
522.582	0.01
522.778	-0
522.974	0.01
523.17	0.02
523.366	0
523.562	0.04
523.758	0.01
523.954	0.01
524.15	-0.01
524.346	0.01
524.542	0
524.738	0.01
524.934	0.02
525.129	0
525.325	0.01
525.521	0.01
525.717	0.01
525.913	0.01
526.109	-0.01
526.304	0.01
526.5	0
526.696	0.02
526.892	-0
527.087	-0.01
527.283	-0.01
527.479	0.01
527.674	-0.01
527.87	-0.01
528.066	0.01
528.261	0.02
528.457	0.02
528.653	0.01
528.848	-0
529.044	0.03
529.239	-0
529.435	0.03
529.63	0.02
529.826	0.05
530.021	0.02
530.217	0.02
530.412	-0.02
530.608	-0.01
530.803	-0.01
530.999	-0
531.194	-0.03
531.389	0.01
531.585	-0.03
531.78	0.01
531.975	-0
532.171	0.02
532.366	0.02
532.561	0.02
532.757	-0.01
532.952	-0.02
533.147	0.01
533.342	0.02
533.538	0.01
533.733	0.03
533.928	0.02
534.123	0.01
534.318	-0.02
534.513	-0.01
534.709	0.02
534.904	-0.02
535.099	0.01
535.294	-0.01
535.489	0.01
535.684	-0
535.879	-0.03
536.074	0.01
536.269	-0.01
536.464	0.01
536.659	0.01
536.854	0
537.049	-0.01
537.244	0.01
537.439	-0
537.634	0.02
537.828	0.01
538.023	0.02
538.218	-0.03
538.413	0.01
538.608	-0.01
538.803	0.05
538.997	-0.02
539.192	0.02
539.387	0.03
539.582	0.02
539.776	0.03
539.971	-0.01
540.166	0.01
540.36	-0.02
540.555	0.01
540.75	-0.01
540.944	0.02
541.139	-0.02
541.334	0.04
541.528	0.03
541.723	0.02
541.917	0
542.112	-0.04
542.306	0.01
542.501	0.01
542.695	0.02
542.89	0
543.084	0.01
543.279	-0.01
543.473	0.01
543.668	0.02
543.862	0.02
544.056	0.02
544.251	-0.01
544.445	0.02
544.64	0.02
544.834	0
545.028	0.03
545.222	0.01
545.417	0.03
545.611	0.02
545.805	0.03
546	0.02
546.194	-0.01
546.388	-0.01
546.582	0.02
546.776	0.01
546.97	0.03
547.165	0.01
547.359	0.04
547.553	0
547.747	0.01
547.941	0
548.135	0.02
548.329	0.02
548.523	0.03
548.717	0
548.911	0.02
549.105	0.01
549.299	0.02
549.493	0.02
549.687	0.02
549.881	0.02
550.075	0.01
550.269	-0.02
550.463	0.01
550.657	0
550.85	0.01
551.044	0
551.238	0.01
551.432	-0.02
551.626	-0.03
551.82	0.02
552.013	0.01
552.207	0
552.401	0.02
552.594	0.01
552.788	0.03
552.982	0
553.176	-0.01
553.369	0.03
553.563	0.02
553.756	-0.01
553.95	-0.02
554.144	0.01
554.337	0.04
554.531	0.01
554.724	-0
554.918	0.01
555.111	0.03
555.305	0.01
555.498	0.05
555.692	0.03
555.885	0
556.079	0.01
556.272	-0.01
556.466	0.01
556.659	0.04
556.852	0.03
557.046	-0.02
557.239	0.02
557.432	-0.01
557.626	-0.01
557.819	0.02
558.012	0.03
558.206	0.03
558.399	0
558.592	0
558.785	-0.01
558.979	0.02
559.172	0.01
559.365	0.02
559.558	0.02
559.751	0.01
559.944	0.03
560.138	0.01
560.331	0.01
560.524	-0.01
560.717	-0
560.91	0.02
561.103	0.02
561.296	0.03
561.489	0.02
561.682	0.02
561.875	0.05
562.068	0.04
562.261	0.01
562.454	0.06
562.647	0.02
562.84	0.02
563.032	0.02
563.225	-0
563.418	0.01
563.611	-0.02
563.804	0.02
563.997	0
564.19	-0.01
564.382	-0.07
564.575	0.03
564.768	0.02
564.961	0.01
565.153	0.01
565.346	0.05
565.539	0.03
565.731	0.02
565.924	0.04
566.117	0.05
566.309	0.03
566.502	0
566.695	0
566.887	0
567.08	-0.01
567.272	0
567.465	0.01
567.657	0.01
567.85	0.03
568.042	0.04
568.235	0.06
568.427	0.03
568.62	0.04
568.812	0.05
569.005	0.02
569.197	-0.03
569.389	0.02
569.582	0.04
569.774	0.03
569.966	0
570.159	0.01
570.351	0.03
570.543	0.02
570.736	0.03
570.928	0
571.12	0.04
571.312	0.02
571.505	0
571.697	0.06
571.889	0.02
572.081	0.02
572.273	0.01
572.465	0.07
572.658	0.03
572.85	0.06
573.042	0.03
573.234	0.03
573.426	0.08
573.618	0.01
573.81	0.04
574.002	0.06
574.194	0.06
574.386	0
574.578	-0.02
574.77	0.02
574.962	0.04
575.154	0.03
575.346	0.02
575.538	0.05
575.729	0.03
575.921	0.03
576.113	0.05
576.305	0.07
576.497	0.03
576.689	0.05
576.88	0.02
577.072	0.06
577.264	0.05
577.456	0.05
577.647	-0.01
577.839	0.08
578.031	0.08
578.223	0.04
578.414	0.03
578.606	0.09
578.798	0.06
578.989	0.04
579.181	0.05
579.372	0.05
579.564	0.06
579.755	0.07
579.947	0.09
580.139	0.09
580.33	0.03
580.522	0.05
580.713	0.03
580.905	0.06
581.096	0.1
581.287	0.08
581.479	0.09
581.67	0.09
581.862	0.08
582.053	0.07
582.244	0.05
582.436	0.09
582.627	0.1
582.818	0.08
583.01	0.07
583.201	0.13
583.392	0.14
583.583	0.1
583.775	0.07
583.966	0.09
584.157	0.08
584.348	0.09
584.54	0.09
584.731	0.11
584.922	0.11
585.113	0.1
585.304	0.14
585.495	0.14
585.686	0.14
585.877	0.15
586.068	0.15
586.259	0.14
586.45	0.15
586.641	0.13
586.832	0.08
587.023	0.17
587.214	0.14
587.405	0.16
587.596	0.12
587.787	0.19
587.978	0.17
588.169	0.13
588.36	0.15
588.551	0.17
588.742	0.16
588.932	0.21
589.123	0.17
589.314	0.22
589.505	0.2
589.696	0.21
589.886	0.19
590.077	0.18
590.268	0.19
590.458	0.18
590.649	0.17
590.84	0.25
591.03	0.19
591.221	0.2
591.412	0.19
591.602	0.26
591.793	0.25
591.984	0.23
592.174	0.25
592.365	0.33
592.555	0.24
592.746	0.29
592.936	0.3
593.127	0.33
593.317	0.36
593.508	0.28
593.698	0.3
593.889	0.3
594.079	0.31
594.269	0.33
594.46	0.34
594.65	0.36
594.84	0.33
595.031	0.35
595.221	0.34
595.411	0.33
595.602	0.36
595.792	0.36
595.982	0.37
596.172	0.44
596.363	0.41
596.553	0.42
596.743	0.42
596.933	0.42
597.123	0.47
597.314	0.42
597.504	0.45
597.694	0.5
597.884	0.49
598.074	0.48
598.264	0.47
598.454	0.52
598.644	0.52
598.834	0.54
599.024	0.49
599.214	0.52
599.404	0.56
599.594	0.56
599.784	0.54
599.974	0.61
600.164	0.6
600.354	0.59
600.544	0.6
600.734	0.66
600.924	0.66
601.114	0.63
601.303	0.68
601.493	0.68
601.683	0.66
601.873	0.71
602.063	0.67
602.252	0.73
602.442	0.65
602.632	0.76
602.821	0.73
603.011	0.8
603.201	0.79
603.39	0.8
603.58	0.78
603.77	0.86
603.959	0.9
604.149	0.85
604.339	0.87
604.528	0.94
604.718	0.91
604.907	0.92
605.097	0.93
605.286	0.91
605.476	0.96
605.665	1.03
605.855	0.98
606.044	1.05
606.234	1.04
606.423	1.04
606.612	1.03
606.802	1.09
606.991	1.13
607.181	1.16
607.37	1.13
607.559	1.14
607.749	1.19
607.938	1.2
608.127	1.22
608.316	1.26
608.506	1.27
608.695	1.29
608.884	1.28
609.073	1.31
609.263	1.41
609.452	1.44
609.641	1.4
609.83	1.38
610.019	1.46
610.208	1.47
610.397	1.48
610.586	1.57
610.775	1.53
610.965	1.58
611.154	1.61
611.343	1.66
611.532	1.65
611.721	1.7
611.91	1.68
612.099	1.8
612.287	1.75
612.476	1.81
612.665	1.9
612.854	1.85
613.043	1.94
613.232	1.94
613.421	1.91
613.61	2.05
613.798	2.06
613.987	2.14
614.176	2.14
614.365	2.18
614.554	2.24
614.742	2.3
614.931	2.2
615.12	2.38
615.309	2.38
615.497	2.41
615.686	2.43
615.875	2.52
616.063	2.52
616.252	2.6
616.44	2.68
616.629	2.71
616.818	2.71
617.006	2.86
617.195	2.8
617.383	2.93
617.572	2.91
617.76	3.03
617.949	3.1
618.137	3.14
618.326	3.17
618.514	3.1
618.703	3.21
618.891	3.38
619.079	3.38
619.268	3.48
619.456	3.46
619.644	3.55
619.833	3.56
620.021	3.67
620.209	3.62
620.398	3.73
620.586	3.74
620.774	3.86
620.962	3.93
621.151	4.07
621.339	4.04
621.527	4.05
621.715	4.09
621.903	4.18
622.092	4.12
622.28	4.33
622.468	4.21
622.656	4.4
622.844	4.39
623.032	4.57
623.22	4.46
623.408	4.64
623.596	4.64
623.784	4.76
623.972	4.63
624.16	4.75
624.348	4.8
624.536	4.85
624.724	4.76
624.912	4.91
625.1	4.92
625.288	4.97
625.476	4.95
625.664	5.03
625.851	4.97
626.039	5.02
626.227	4.98
626.415	5.04
626.603	5.02
626.79	5.07
626.978	5.13
627.166	5.07
627.354	5
627.541	4.98
627.729	4.92
627.917	5.14
628.104	5.11
628.292	4.91
628.48	4.93
628.667	4.81
628.855	4.89
629.042	4.92
629.23	4.81
629.418	4.72
629.605	4.68
629.793	4.54
629.98	4.55
630.168	4.43
630.355	4.4
630.543	4.41
630.73	4.21
630.917	4.14
631.105	4.18
631.292	4.01
631.48	3.92
631.667	3.94
631.854	3.79
632.042	3.67
632.229	3.53
632.416	3.51
632.604	3.39
632.791	3.2
632.978	3.23
633.165	3.13
633.353	3.09
633.54	3.03
633.727	2.82
633.914	2.72
634.101	2.62
634.289	2.72
634.476	2.52
634.663	2.45
634.85	2.36
635.037	2.32
635.224	2.11
635.411	2.19
635.598	2.08
635.785	2.02
635.972	1.89
636.159	1.86
636.346	1.76
636.533	1.7
636.72	1.67
636.907	1.64
637.094	1.57
637.281	1.44
637.468	1.49
637.655	1.39
637.842	1.37
638.029	1.25
638.215	1.32
638.402	1.2
638.589	1.11
638.776	1.09
638.963	1.07
639.149	1.08
639.336	1.1
639.523	1
639.709	0.97
639.896	0.91
640.083	0.91
640.27	0.92
640.456	0.81
640.643	0.78
640.829	0.73
641.016	0.74
641.203	0.69
641.389	0.73
641.576	0.69
641.762	0.65
641.949	0.57
642.135	0.64
642.322	0.61
642.508	0.51
642.695	0.58
642.881	0.48
643.068	0.55
643.254	0.5
643.441	0.55
643.627	0.48
643.813	0.42
644	0.5
644.186	0.4
644.372	0.4
644.559	0.44
644.745	0.36
644.931	0.38
645.118	0.36
645.304	0.32
645.49	0.31
645.676	0.28
645.862	0.33
646.049	0.34
646.235	0.32
646.421	0.4
646.607	0.35
646.793	0.24
646.979	0.24
647.165	0.27
647.352	0.28
647.538	0.28
647.724	0.24
647.91	0.24
648.096	0.26
648.282	0.26
648.468	0.23
648.654	0.22
648.84	0.21
649.026	0.23
649.212	0.22
649.397	0.15
649.583	0.14
649.769	0.2
649.955	0.16
650.141	0.18
650.327	0.19
650.513	0.13
650.698	0.2
650.884	0.11
651.07	0.14
651.256	0.13
651.442	0.11
651.627	0.12
651.813	0.13
651.999	0.13
652.184	0.16
652.37	0.11
652.556	0.11
652.741	0.15
652.927	0.06
653.113	0.11
653.298	0.1
653.484	0.08
653.669	0.08
653.855	0.08
654.04	0.09
654.226	0.1
654.412	0.04
654.597	0.05
654.782	0.1
654.968	0.11
655.153	0.06
655.339	0.05
655.524	0.06
655.71	0.09
655.895	0.05
656.08	0.05
656.266	0.13
656.451	0.11
656.636	0.06
656.822	0.08
657.007	0.02
657.192	0.05
657.378	0.04
657.563	0.06
657.748	0.11
657.933	0.08
658.118	0.04
658.304	0.05
658.489	0.05
658.674	0.06
658.859	0.03
659.044	0.07
659.229	0.09
659.414	0.04
659.599	0.05
659.785	-0.03
659.97	0.03
660.155	0.06
660.34	0.07
660.525	0.07
660.71	0.05
660.895	0.1
661.08	0.05
661.264	0.04
661.449	0.11
661.634	0.06
661.819	0.05
662.004	0.08
662.189	-0.02
662.374	0.01
662.559	-0.01
662.743	-0.06
662.928	0.03
663.113	0.03
663.298	-0.04
663.483	0.03
663.667	0.03
663.852	-0.06
664.037	0.11
664.221	-0
664.406	0.07
664.591	0.04
664.775	0.02
664.96	0.01
665.145	0.03
665.329	0.05
665.514	0.02
665.698	0.01
665.883	-0.05
666.068	0.08
666.252	0.02
666.437	-0.02
666.621	0.02
666.806	0.08
666.99	0.02
667.174	-0.01
667.359	0.11
667.543	0.02
667.728	-0
667.912	-0.04
668.096	0.05
668.281	0.01
668.465	-0.02
668.649	-0
668.834	0.01
669.018	0.04
669.202	0.02
669.387	-0.05
669.571	0.06
669.755	-0.01
669.939	-0
670.124	0.01
670.308	0.09
670.492	0.08
670.676	0.02
670.86	-0
671.044	-0.01
671.228	0.05
671.413	0
671.597	-0.01
671.781	-0.02
671.965	0.04
672.149	0.01
672.333	0.02
672.517	0
672.701	0.02
672.885	0.01
673.069	-0.04
673.253	0.06
673.437	-0
673.621	-0.03
673.804	0.01
673.988	0.02
674.172	-0.02
674.356	-0.02
674.54	0.01
674.724	0.1
674.908	-0
675.091	0.07
675.275	0.03
675.459	0.04
675.643	-0.01
675.826	0.02
676.01	-0.01
676.194	-0.01
676.377	0.07
676.561	0.05
676.745	0.05
676.928	0.04
677.112	0.05
677.296	-0
677.479	-0.01
677.663	0.01
677.846	0.02
678.03	0.01
678.213	0.01
678.397	0.03
678.58	-0.01
678.764	-0
678.947	-0.02
679.131	-0.01
679.314	0.02
679.498	0.01
679.681	0.06
679.865	0.06
680.048	0.07
680.231	0.03
680.415	0.04
680.598	0.01
680.781	-0
680.965	0.02
681.148	0.04
681.331	0
681.514	0.02
681.698	0.02
681.881	0.02
682.064	0.05
682.247	0.04
682.43	-0.05
682.614	0.02
682.797	0.05
682.98	0.02
683.163	-0.03
683.346	0.06
683.529	0.01
683.712	-0.02
683.895	0.04
684.078	-0.01
684.261	-0.05
684.444	0.05
684.627	-0
684.81	-0
684.993	0.04
685.176	0.06
685.359	0.02
685.542	-0.02
685.725	0.09
685.908	0.01
686.091	0
686.274	0.01
686.457	-0.02
686.639	0.02
686.822	0.07
687.005	0.03
687.188	0.04
687.371	0.09
687.553	0.04
687.736	0.06
687.919	0.09
688.102	0.06
688.284	0.02
688.467	-0.01
688.65	-0.01
688.832	-0.01
689.015	0
689.197	-0.06
689.38	0.08
689.563	0.08
689.745	-0.02
689.928	-0.04
690.11	-0.01
690.293	-0.01
690.475	-0.03
690.658	0.03
690.84	-0.02
691.023	0.01
691.205	-0
691.388	0.05
691.57	0.01
691.752	0.01
691.935	-0.07
692.117	0.01
692.3	0.03
692.482	0.02
692.664	-0.02
692.847	0.01
693.029	0.13
693.211	0.05
693.393	-0.06
693.576	-0
693.758	-0.01
693.94	0.02
694.122	0.01
694.304	0
694.487	-0.01
694.669	0.12
694.851	-0
695.033	0.08
695.215	0.02
695.397	-0.02
695.579	0.04
695.761	-0.03
695.943	-0.03
696.125	0.08
696.308	0.01
696.49	-0.09
696.671	0.12
696.853	0.02
697.035	0.14
697.217	-0
697.399	0.04
697.581	-0.07
697.763	0.02
697.945	-0.06
698.127	-0
698.309	0.07
698.491	-0.02
698.672	0.09
698.854	0.05
699.036	0.11
699.218	-0.01
699.399	0.09
699.581	0.05
699.763	0.02
699.945	-0.09
700.126	-0.01
700.308	-0
700.49	0.05
700.671	-0.1
700.853	-0.04
701.035	-0.02
701.216	0.01
701.398	-0.05
701.579	-0.01
701.761	0.07
701.943	0
702.124	-0.08
702.306	-0.05
702.487	0.09
702.669	-0.04
702.85	-0.06
703.031	-0.02
703.213	0.08
703.394	0.02
703.576	-0.08
703.757	0.08
703.938	0.09
704.12	0.13
704.301	-0.03
704.483	-0.02
704.664	-0
704.845	0.1
705.026	0.04
705.208	0.01
705.389	0.02
705.57	0.01
705.751	-0
705.933	0.01
706.114	0.07
706.295	0.04
706.476	-0.01
706.657	0.09
706.838	0
707.02	0.05
707.201	-0.05
707.382	0
707.563	0.02
707.744	-0
707.925	-0.06
708.106	-0.06
708.287	0.03
708.468	0.11
708.649	0.03
708.83	0.13
709.011	0
709.192	0.05
709.373	-0.03
709.554	0.01
709.734	0.04
709.915	0.08
710.096	0.03
710.277	-0.03
710.458	0.06
710.639	0.07
710.819	-0.12
711	-0.01
711.181	0.03
711.362	0.09
711.542	0.05
711.723	0.05
711.904	0.05
712.085	0.04
712.265	0.04
712.446	-0.01
712.627	0.02
712.807	0.03
712.988	0
713.168	-0.01
713.349	-0.02
713.53	-0.12
713.71	-0.02
713.891	-0.09
714.071	0.05
714.252	-0.01
714.432	-0.02
714.613	-0.08
714.793	-0
714.974	0.09
715.154	0.03
715.334	0.06
715.515	0.07
715.695	0.02
715.876	-0.02
716.056	0.07
716.236	-0.03
716.417	0.05
716.597	-0.06
716.777	0.14
716.957	0.05
717.138	0.02
717.318	0.03
717.498	-0.04
717.678	0.01
717.859	-0.02
718.039	-0.04
718.219	0.02
718.399	0.13
718.579	0
718.759	-0.07
718.939	0.03
719.12	0.01
719.3	0.02
719.48	-0.12
719.66	-0.1
719.84	0.12
720.02	-0.01
720.2	-0.02
720.38	-0.03
720.56	0.11
720.74	-0.03
720.92	0
721.1	0.04
721.279	0.05
721.459	0.05
721.639	-0.05
721.819	0.1
721.999	-0.03
722.179	0.09
722.359	-0.05
722.538	0.06
722.718	-0.01
722.898	-0.05
723.078	-0.04
723.257	0.01
723.437	-0.01
723.617	0.07
723.797	0.05
723.976	0
724.156	0.04
724.336	0.08
724.515	0.17
724.695	-0.09
724.874	-0.01
725.054	0.02
725.234	-0.09
725.413	-0.01
725.593	0
725.772	0
725.952	0.04
726.131	0.01
726.311	0.04
726.49	0.01
726.67	-0.05
726.849	-0.13
727.028	0.03
727.208	0.02
727.387	0.1
727.567	-0.05
727.746	-0
727.925	-0.04
728.105	-0.11
728.284	-0.07
728.463	0.04
728.643	-0
728.822	-0.06
729.001	-0.11
729.18	0.03
729.359	0.03
729.539	-0.03
729.718	-0.05
729.897	0.11
730.076	-0.02
730.255	-0.03
730.434	0.11
730.614	0.13
730.793	0.06
730.972	-0.01
731.151	-0.02
731.33	-0
731.509	0.03
731.688	-0.04
731.867	-0.03
732.046	-0.18
732.225	0.16
732.404	-0.04
732.583	-0.08
732.762	0.06
732.941	0.04
733.12	0.02
733.298	-0.03
733.477	0.06
733.656	-0.01
733.835	-0.05
734.014	0.09
734.193	-0.01
734.371	0.22
734.55	0.07
734.729	-0.11
734.908	0.01
735.086	0.07
735.265	0.05
735.444	-0.12
735.623	-0.16
735.801	-0.08
735.98	0.03
736.159	0.04
736.337	0.05
736.516	0.03
736.694	-0.01
736.873	0.05
737.052	0.07
737.23	0.16
737.409	-0.03
737.587	0.14
737.766	-0.11
737.944	-0.05
738.123	0.02
738.301	0.13
738.479	0
738.658	0.03
738.836	-0.2
739.015	0.04
739.193	0.08
739.371	-0.1
739.55	0.05
739.728	-0.01
739.906	0.17
740.085	0.21
740.263	0.03
740.441	-0.04
740.62	0.16
740.798	0.11
740.976	-0.04
741.154	-0.12
741.332	0.11
741.511	0.01
741.689	0.03
741.867	0.14
742.045	0.02
742.223	0
742.401	-0.09
742.579	-0.01
742.757	0.08
742.935	-0.11
743.114	0.04
743.292	-0.06
743.47	-0.05
743.648	0.02
743.826	-0.2
744.004	0.1
744.181	0.06
744.359	0.04
744.537	0.01
744.715	-0.04
744.893	-0.03
745.071	-0.09
745.249	0.01
745.427	-0.05
745.605	0.04
745.782	0.07
745.96	0.09
746.138	0.06
746.316	0.13
746.493	0.03
746.671	0.07
746.849	0.09
747.027	0.03
747.204	-0.04
747.382	0.11
747.56	-0.11
747.737	0.04
747.915	-0.04
748.093	0.06
748.27	-0.04
748.448	-0.07
748.625	-0.03
748.803	-0.01
748.98	-0.02
749.158	-0.05
749.335	0.15
749.513	-0.04
749.69	-0.01
749.868	-0.04
750.045	0.05
750.223	0.01
750.4	-0.23
750.578	0.13
750.755	0.06
750.932	-0.07
751.11	0.14
751.287	-0.18
751.464	0.1
751.642	-0.03
751.819	0.07
751.996	-0.07
752.173	-0
752.351	-0.05
752.528	0.09
752.705	0.04
752.882	-0.09
753.06	0.09
753.237	0.11
753.414	0.2
753.591	0.12
753.768	0.06
753.945	-0.07
754.122	-0.1
754.299	0.01
754.476	-0.01
754.654	0
754.831	0.17
755.008	0.1
755.185	-0.04
755.362	-0.12
755.539	0.02
755.716	-0.09
755.892	0.01
756.069	0.04
756.246	0.12
756.423	0.05
756.6	-0.04
756.777	-0.01
756.954	0.1
757.131	0.05
757.307	-0.04
757.484	-0.12
757.661	-0.01
757.838	0.12
758.015	-0.09
758.191	0.17
758.368	0.08
758.545	0.11
758.721	0.16
758.898	0.01
759.075	0.12
759.251	0.11
759.428	-0.03
759.605	-0.08
759.781	-0.09
759.958	0.06
760.134	0.04
760.311	-0.11
760.488	0.12
760.664	0.1
760.841	0.03
761.017	0
761.194	0.13
761.37	0.06
761.547	0.01
761.723	-0.05
761.899	0.24
762.076	-0.11
762.252	-0.04
762.429	0.05
762.605	0.22
762.781	-0.05
762.958	0.13
763.134	-0.13
763.31	-0.11
763.486	0.16
763.663	-0.24
763.839	-0.03
764.015	-0.13
764.191	-0.02
764.368	0.01
764.544	0.03
764.72	0.02
764.896	0.12
765.072	0.04
765.248	-0.07
765.425	-0
765.601	0.04
765.777	0.09
765.953	-0.19
766.129	-0.13
766.305	-0.02
766.481	0.05
766.657	0.15
766.833	0.03
767.009	-0.09
767.185	0
767.361	0.02
767.537	-0.19
767.713	0.21
767.889	-0.03
768.065	0.08
768.24	-0.07
768.416	0.18
768.592	-0.11
768.768	-0.03
768.944	0.12
769.12	-0.1
769.295	-0.12
769.471	0.07
769.647	0.03
769.823	0.14
769.998	-0.09
770.174	-0.04
770.35	0.12
770.525	0.19
770.701	0.06
770.877	0.09
771.052	-0.12
771.228	0.21
771.403	0.04
771.579	0.08
771.755	0.34
771.93	-0.12
772.106	-0.17
772.281	-0.26
772.457	0.05
772.632	-0.01
772.808	-0.1
772.983	-0.06
773.159	-0.08
773.334	0.17
773.509	-0.19
773.685	-0.05
773.86	0.3
774.036	0.08
774.211	-0.01
774.386	-0.05
774.562	0.17
774.737	0.02
774.912	-0.13
775.087	0.13
775.263	0.04
775.438	0.03
775.613	0.06
775.788	-0.1
775.964	0.18
776.139	0.41
776.314	-0.42
776.489	0.1
776.664	0.06
776.839	-0.17
777.014	0.1
777.19	0.23
777.365	0.27
777.54	0.26
777.715	-0.1
777.89	0
778.065	0.01
778.24	-0.18
778.415	0.17
778.59	-0.24
778.765	-0
778.94	0.07
779.115	-0.02
779.289	-0.1
779.464	0.04
779.639	-0.01
779.814	-0.16
779.989	-0.16
780.164	0.19
780.339	0
780.513	-0.01
780.688	-0.1
780.863	0.03
781.038	0.08
781.212	-0.2
781.387	0.19
781.562	0.35
781.737	0.04
781.911	0.13
782.086	-0.17
782.261	-0.12
782.435	0.12
782.61	-0.18
782.784	0.1
782.959	0.17
783.134	0.03
783.308	-0.08
783.483	0.23
783.657	0.23
783.832	0.03
784.006	-0.18
784.181	0.08
784.355	0.16
784.53	-0.18
784.704	-0.02
784.878	0.23
785.053	0.06
785.227	0.12
785.402	0.12
785.576	-0.42
785.75	-0.2
785.925	-0.12
786.099	0.15
786.273	0.11
786.448	0.15
786.622	0.18
786.796	-0.11
786.97	-0.12
787.145	0.53
787.319	-0.3
787.493	0.03
787.667	-0.31
787.841	-0.12
788.015	0.28
788.19	0.09
788.364	0.07
788.538	0.23
788.712	0.08
788.886	0.06
789.06	0.18
789.234	0.19
789.408	-0.21
789.582	0.05
789.756	-0.07
789.93	-0.1
790.104	-0.23
790.278	-0.01
790.452	-0.07
790.626	0.27
790.8	-0.1
790.973	0.29
791.147	0.36
791.321	0.4
791.495	0.12
791.669	0.24
791.843	0.16
792.016	0.13
792.19	0.24
792.364	-0.11
792.538	0.3
792.711	0.31
792.885	-0.11
793.059	-0.31
793.233	-0.45
793.406	0.07
793.58	0.01
793.754	0.19
793.927	0.01
794.101	0.37
794.274	-0.01
794.448	0.25
794.622	-0.27
794.795	0.29
794.969	-0.26
795.142	0.16
795.316	-0.04
795.489	0.07
795.663	0.17
795.836	0.17
796.009	-0.06
796.183	0.4
796.356	0.07
796.53	0.07
796.703	-0.1
796.876	0.59
797.05	0.23
797.223	-0.22
797.396	0.18
797.57	-0.01
797.743	0.39
797.916	0.19
798.09	0.03
798.263	0.29
798.436	0.09
798.609	-0.02
798.782	-0.05
798.956	0.08
799.129	0.15
799.302	0.06
799.475	-0.22
799.648	-0.13
799.821	-0.16
799.994	0.26
800.167	-0.17
800.34	0.05
800.514	-0.03
800.687	-0.14
800.86	-0.11
801.033	0.2
801.206	0.1
801.379	-0.05
801.551	0.42
801.724	0.13
801.897	0.11
802.07	0.06
802.243	-0.07
802.416	-0.01
802.589	0.03
802.762	0.05
802.935	0.02
803.107	0
803.28	0.49
803.453	0.24
803.626	-0.03
803.798	-0.13
803.971	-0.17
804.144	0.21
804.317	0.23
804.489	0.27
804.662	0.22
804.835	0.06
805.007	-0.24
805.18	0.54
805.353	0.12
805.525	-0.27
805.698	-0.05
805.87	0.25
806.043	0.33
806.215	-0.3
806.388	-0.29
806.56	0.12
806.733	0.65
806.905	0.25
807.078	-0.11
807.25	-0.25
807.423	0.37
807.595	0.18
807.768	-0.17
807.94	0.43
808.112	-0.22
808.285	0.05
808.457	-0.05
808.629	-0.02
808.802	0.07
808.974	0.07
809.146	0.22
809.318	-0.14
809.491	0.03
809.663	0.23
809.835	-0.35
810.007	-0.11
810.18	0.14
810.352	-0.47
810.524	0.12
810.696	0.4
810.868	0.4
811.04	0.01
811.212	0.05
811.384	0.19
811.556	0.38
811.728	-0.02
811.901	0.57
812.073	-0.06
812.245	0.51
812.417	0.11
812.589	-0.31
812.76	0.01
812.932	0.26
813.104	0.6
813.276	0.29
813.448	0.43
813.62	-0.03
813.792	0.24
813.964	0.33
814.136	0.06
814.307	-0.14
814.479	-0.37
814.651	0.09
814.823	0.77
814.995	-0.1
815.166	-0
815.338	-0.31
815.51	-0.19
815.681	0.87
815.853	0.22
816.025	0.15
816.196	0.29
816.368	0.63
816.54	-0.15
816.711	-0.31
816.883	0.09
817.054	0.9
817.226	-0.45
817.398	0.3
817.569	-0.31
817.741	0.26
817.912	-0.21
818.084	0.01
818.255	0.53
818.426	-0.19
818.598	0.34
818.769	-0.25
818.941	0.2
819.112	0.7
819.283	0.36
819.455	0.03
819.626	0.05
819.798	0.47
819.969	0.08
820.14	0.03
820.311	-0.05
820.483	0.1
820.654	0.27
820.825	-0.1
820.996	-0.14
821.168	-0.01
821.339	0.23
821.51	-0.38
821.681	0.09
821.852	-0.01
822.023	0.2
822.195	-0.37
822.366	0.29
822.537	0.14
822.708	-0.37
822.879	-0.17
823.05	0.67
823.221	-0.26
823.392	0.2
823.563	-0.03
823.734	0.69
823.905	0.15
824.076	-0.29
824.247	-0.36
824.418	-0.32
824.589	0.87
824.759	0.32
824.93	-0.13
825.101	-0.49
825.272	0.36
825.443	0.44
825.614	0.42
825.784	-0.64
825.955	1.11
826.126	0.71
826.297	0.62
826.467	0.57
826.638	1.14
826.809	-0.07
826.98	0.19
827.15	0.43
827.321	-0.18
827.492	0.72
827.662	0.18
827.833	1
828.003	-0.04
828.174	-0.56
828.345	-0.68
828.515	0.76
828.686	0.66
828.856	-0.35
829.027	0.08
829.197	0.16
829.368	0.59
829.538	-0.03
829.709	0.03
829.879	0.61
830.049	0.11
830.22	-0.29
830.39	-0.57
830.56	0.66
830.731	0.3
830.901	-0.18
831.072	0.16
831.242	0.29
831.412	0.26
831.582	0.48
831.753	-0.8
831.923	0.95
832.093	0.23
832.263	0.59
832.434	-0.62
832.604	-0.09
832.774	0.67
832.944	0.48
833.114	-0.31
833.284	0.22
833.454	-0.37
833.624	-0.57
833.795	-0.21
833.965	0.58
834.135	0.45
834.305	-0.5
834.475	-0.41
834.645	-0.02
834.815	-0.1
834.985	-0.94
835.155	-0.02
835.325	-0.01
835.494	-0.09
835.664	0.06
835.834	-0.3
836.004	-0.05
836.174	0.53
836.344	-0.09
836.514	-1.01
836.684	-0.46
836.853	0.54
837.023	0.35
837.193	0.14
837.363	1.11
837.532	0.67
837.702	-0.13
837.872	0.08
838.041	1.3
838.211	0.97
838.381	-0.52
838.55	-0.04
838.72	1.92
838.89	1.11
839.059	-0.45
839.229	0.01
839.398	0.54
839.568	-0.07
839.738	0.35
839.907	0.89
840.077	0.3
840.246	0.07
840.416	-0.11
840.585	-0.38
840.755	1.65
840.924	1.11
841.093	-1.02
841.263	0.36
841.432	0.04
841.602	-0.13
841.771	-0.83
841.94	0.3
842.11	1.78
842.279	0.68
842.448	-0.15
842.617	-0.55
842.787	0.92
842.956	-1.22
843.125	-0.53
843.294	0.99
843.464	0.96
843.633	-0.05
843.802	-0.97
843.971	0.64
844.14	0.38
844.309	0.9
844.479	-0.52
844.648	-0.72
844.817	-0.47
844.986	0.31
845.155	-0.47
845.324	0.76
845.493	0.16
845.662	-0.52
845.831	0.67
846	0.94
846.169	-0.58
846.338	1.82
846.507	0.66
846.676	0.33
846.844	-0.38
847.013	1.43
847.182	-0.07
847.351	0.82
847.52	0.42
847.689	0.54
847.858	0.24
848.026	-0.98
848.195	0.42
848.364	0.75
848.533	-0.31
848.701	-0.91
848.87	0.24
849.039	0.99
849.207	1.09
849.376	1.45
849.545	1.09
849.713	0.25
849.882	0.87
850.051	0.86
850.219	0.48
850.388	1
850.556	-0.54
850.725	-0.26
850.893	0.09
851.062	0.25
851.23	0.88
851.399	-1.03
851.567	0.56
851.736	0.58
851.904	-0.53
852.073	0.24
852.241	0.99
852.41	0.52
852.578	0.02
852.746	-0.5
852.915	0.13
853.083	-0.35
853.251	-1.3
853.42	0.61
853.588	0.85
853.756	0.89
853.924	0.2
854.093	-0.62
854.261	-0.56
854.429	-1.34
854.597	0.45
854.765	-0.24
854.934	0.98
855.102	0.12
855.27	0.04
855.438	0.17
855.606	1.69
855.774	1.81
855.942	-1.41
856.11	-1.18
856.278	-0.27
856.446	0.51
856.614	1.18
856.782	-0.29
856.95	1.33
857.118	0.99
857.286	0.45
857.454	-0.71
857.622	1.11
857.79	-0.2
857.958	-0.94
858.126	-0.31
858.294	-2.44
858.462	-0.81
858.629	-1.05
858.797	0.04
858.965	1.44
859.133	0.4
859.301	0.24
859.468	0.81
859.636	-1.42
859.804	0.43
859.971	0.62
860.139	-1.03
860.307	0.71
860.474	1.11
860.642	0.14
860.81	-0.02
860.977	0.5
861.145	0.66
861.313	-0.77
861.48	0.43
861.648	0.88
861.815	-0.09
861.983	0.23
862.15	0.05
862.318	0.54
862.485	1.13
862.653	-0.15
862.82	-0.83
862.988	1.48
863.155	-1.08
863.322	-0.76
863.49	-1.36
863.657	-0.47
863.824	2.04
863.992	0.04
864.159	0.1
864.326	1.08
864.494	-1.13
864.661	1.38
864.828	-1.11
864.996	2.05
865.163	1.53
865.33	0.61
865.497	-1.87
865.664	-1.2
865.832	-1.16
865.999	-0.66
866.166	-0.66
866.333	-1.13
866.5	1.16
866.667	0.3
866.834	-1.06
867.001	1.14
867.168	-0.89
867.335	0.51
867.502	-2.68
867.669	0.83
867.836	1.66
868.003	-1.33
868.17	0.55
868.337	-1.93
868.504	1.81
868.671	-1.48
868.838	-0.46
869.005	0.57
869.172	1.42
869.339	0.22
869.505	-0.58
869.672	0.51
869.839	2.76
870.006	-0.03
870.173	-2.17
870.339	0.24
870.506	3.49
870.673	-2.45
870.84	-0.03
871.006	1.06
871.173	-1.06
871.34	0
871.506	-0.93
871.673	0.47
871.839	-0.67
872.006	1
872.173	-0.26
872.339	-0.31
872.506	1.38
872.672	0.12
872.839	-1.35
873.005	2.17
873.172	2.7
873.338	0.92
873.505	0.42
873.671	-0.15
873.838	1.6
874.004	-1.36
874.171	-0.05
874.337	1.36
874.503	0.02
874.67	-0.31
874.836	-0.69
875.002	1.45
875.169	0.37
875.335	-0.49
875.501	0.41
875.668	1.43
875.834	1.3
876	0.5
876.166	1.18
876.332	-0.23
876.499	4.55
876.665	-0.45
876.831	0.61
876.997	1.54
877.163	-0.02
877.329	2.14
877.495	2.62
877.662	0.5
877.828	-0.77
877.994	-0.49
878.16	-0.72
878.326	-2.42
878.492	0.43
878.658	-0.35
878.824	0.28
878.99	0.52
879.156	-0.72
879.322	1.98
879.487	-2.15
879.653	1.07
879.819	1.1
879.985	-1.48
880.151	-0.44
880.317	-1.1
880.483	-0.15
880.648	2.28
880.814	-1.08
880.98	2.29
881.146	-2.61
881.312	0.04
881.477	0.62
881.643	-0.3
881.809	1.77
881.974	2.09
882.14	-1.91
882.306	0.87
882.471	1.89
882.637	-0.02
882.803	1.84
882.968	2.49
883.134	5.22
883.299	0.94
883.465	-0.05
883.63	0.43
883.796	1.96
883.961	2.53
884.127	0.78
884.292	-2.63
884.458	-2.27
884.623	-2.26
