Data from Apollo_Calib_20240827__AbsoluteIrradiance__463__06-52-02-105.txt Node

Date: Wed Aug 28 06:52:02 BST 2024
User: biology
Spectrometer: FLMT08252
Trigger mode: 0
Integration Time (sec): 5.000000E-1
Scans to average: 5
Electric dark correction enabled: true
Nonlinearity correction enabled: false
Boxcar width: 0
XAxis mode: Wavelengths
Number of Pixels in Spectrum: 3648
>>>>>Begin Spectral Data<<<<<
179.588	-0
179.809	-0
180.03	-0
180.251	-0
180.473	-0
180.694	0
180.915	0
181.136	-0
181.357	0
181.578	-0
181.799	0
182.02	-0
182.241	-0
182.462	0
182.683	0
182.904	-0
183.125	0
183.346	0
183.567	0
183.788	-0
184.009	-0
184.23	0
184.451	0
184.672	-0
184.892	-0
185.113	0
185.334	0
185.555	-0
185.776	-0
185.996	0
186.217	0
186.438	-0
186.659	-0
186.879	-0
187.1	-0
187.321	-0
187.541	-0
187.762	-0
187.983	0
188.203	0
188.424	-0
188.644	-0
188.865	0
189.086	-0
189.306	-0
189.527	-0
189.747	0
189.968	-0
190.188	-0
190.409	0
190.629	0
190.849	-0
191.07	-0
191.29	0
191.511	0
191.731	-0
191.951	-0
192.172	-0
192.392	-0
192.612	-0
192.833	-0
193.053	-0
193.273	0
193.493	-0
193.714	-0
193.934	0
194.154	0
194.374	-0
194.594	-0
194.815	-0
195.035	-0
195.255	-0
195.475	-0
195.695	0
195.915	0
196.135	-0
196.355	0
196.575	0
196.795	0
197.015	-0
197.235	-0
197.455	-0
197.675	-0
197.895	-0
198.115	-0
198.335	-0
198.555	-0
198.775	0
198.995	0
199.214	0
199.434	-0
199.654	-0
199.874	-0
200.094	-1.73
200.313	-0.25
200.533	-0.58
200.753	-0.64
200.973	0.48
201.192	0.49
201.412	-1.48
201.632	-0.38
201.851	0.26
202.071	-0.9
202.291	-0.65
202.51	-0.88
202.73	0.24
202.95	-0.58
203.169	-0.71
203.389	-0.22
203.608	-0.1
203.828	-0.73
204.047	-0.46
204.267	0.08
204.486	-0.36
204.706	0.05
204.925	-0.03
205.145	-0.47
205.364	0.07
205.583	0.87
205.803	-0.19
206.022	-0.58
206.242	-0.43
206.461	-0.25
206.68	-0.9
206.9	-0.14
207.119	0.54
207.338	0.36
207.557	-0.29
207.777	-0.23
207.996	-0.38
208.215	0.35
208.434	-0.4
208.654	-0.68
208.873	0.08
209.092	0.26
209.311	-0.3
209.53	-0.33
209.749	-0.3
209.968	-0.32
210.187	-0.24
210.407	-0.4
210.626	-0.12
210.845	0.26
211.064	-0.17
211.283	-0.46
211.502	-0.07
211.721	-0.18
211.94	-0.15
212.159	0.02
212.377	0.18
212.596	0.06
212.815	-0.07
213.034	0.05
213.253	0.09
213.472	-0.05
213.691	-0.14
213.91	-0.3
214.128	-0.24
214.347	0.31
214.566	-0.41
214.785	-0.35
215.003	0.07
215.222	-0.1
215.441	-0.11
215.66	-0.44
215.878	-0.15
216.097	0.15
216.316	-0.27
216.534	-0.25
216.753	-0.03
216.972	0.05
217.19	-0.11
217.409	-0.4
217.627	-0.26
217.846	0.03
218.064	0.02
218.283	-0.24
218.501	0.23
218.72	0.2
218.938	-0.4
219.157	-0.2
219.375	0.1
219.594	-0.02
219.812	-0.21
220.031	-0.35
220.249	0.21
220.467	0.16
220.686	-0.12
220.904	-0.27
221.122	-0.3
221.341	0.17
221.559	-0
221.777	-0.22
221.995	0
222.214	0.09
222.432	-0.15
222.65	-0.04
222.868	-0.08
223.086	-0.05
223.305	0.05
223.523	-0.09
223.741	0.23
223.959	-0.16
224.177	-0.34
224.395	-0.18
224.613	0.04
224.831	0.1
225.049	-0.16
225.267	-0.16
225.485	0.04
225.703	-0.12
225.921	-0.11
226.139	-0
226.357	-0.01
226.575	-0
226.793	-0.09
227.011	0.52
227.229	-0.01
227.447	0.09
227.665	-0.13
227.883	-0.23
228.1	-0.01
228.318	-0.07
228.536	-0.19
228.754	-0.25
228.972	0.01
229.189	0.08
229.407	-0.24
229.625	-0.09
229.843	0.11
230.06	-0.06
230.278	-0.13
230.496	-0.12
230.713	0.02
230.931	0.06
231.149	-0.05
231.366	-0.14
231.584	-0.11
231.801	0.27
232.019	-0.13
232.236	-0.23
232.454	-0.18
232.671	-0.07
232.889	-0.12
233.106	-0.19
233.324	-0.03
233.541	-0.1
233.759	0.01
233.976	-0.06
234.194	-0.07
234.411	-0.02
234.628	-0.15
234.846	-0.08
235.063	0.05
235.28	-0.16
235.498	-0.08
235.715	-0.12
235.932	-0.01
236.149	-0.07
236.367	-0.21
236.584	-0.05
236.801	-0.19
237.018	0.13
237.236	0.02
237.453	-0.21
237.67	0.1
237.887	-0.12
238.104	-0.06
238.321	-0.14
238.538	-0.07
238.755	0.12
238.973	-0.08
239.19	0.02
239.407	0.04
239.624	-0.09
239.841	-0.26
240.058	-0.09
240.275	-0.02
240.492	-0.08
240.709	-0.07
240.925	-0.12
241.142	-0.02
241.359	-0.12
241.576	-0.06
241.793	-0.09
242.01	-0.05
242.227	0.14
242.444	0.03
242.66	0.06
242.877	-0.05
243.094	-0.05
243.311	-0
243.527	-0.01
243.744	-0.05
243.961	-0
244.178	-0.12
244.394	-0.06
244.611	0.12
244.828	0.06
245.044	-0.11
245.261	-0.04
245.477	0.01
245.694	0.03
245.911	-0.06
246.127	-0.04
246.344	0.22
246.56	0.05
246.777	-0.06
246.993	-0.01
247.21	-0
247.426	0.07
247.643	-0.11
247.859	-0.16
248.076	-0.07
248.292	0.18
248.508	-0.11
248.725	-0.01
248.941	0.01
249.157	0.08
249.374	-0.08
249.59	-0.08
249.806	0.02
250.023	-0.04
250.239	-0.15
250.455	-0.04
250.671	-0.08
250.888	0.05
251.104	0.05
251.32	-0.12
251.536	-0.08
251.752	-0.08
251.969	0.08
252.185	-0.02
252.401	0.12
252.617	0.01
252.833	-0.02
253.049	-0.06
253.265	0.01
253.481	0.04
253.697	-0.09
253.913	-0.2
254.129	-0.02
254.345	0.03
254.561	-0.12
254.777	-0.02
254.993	-0.02
255.209	-0.04
255.425	-0.03
255.641	-0.05
255.857	-0
256.073	0.02
256.288	-0.14
256.504	-0.09
256.72	0.05
256.936	0.07
257.152	-0.11
257.367	-0.12
257.583	-0.05
257.799	-0.01
258.015	-0.05
258.23	-0.14
258.446	0.11
258.662	-0.03
258.877	0.01
259.093	-0.12
259.309	-0.01
259.524	0.09
259.74	-0.05
259.955	-0.13
260.171	-0.05
260.387	-0.11
260.602	0.08
260.818	-0.01
261.033	-0.06
261.249	-0.08
261.464	-0.08
261.68	-0.15
261.895	-0.04
262.11	-0
262.326	-0.12
262.541	-0.13
262.757	-0
262.972	-0.03
263.187	-0.03
263.403	-0.05
263.618	0.08
263.833	-0.08
264.049	-0.04
264.264	-0.09
264.479	0.05
264.694	0.05
264.91	-0.07
265.125	-0.08
265.34	0.06
265.555	0.12
265.77	0.03
265.986	0
266.201	0.04
266.416	0.08
266.631	-0.09
266.846	-0.05
267.061	-0.05
267.276	0.05
267.491	-0.14
267.706	-0.01
267.921	0.02
268.136	0.02
268.351	0.02
268.566	-0.09
268.781	0.1
268.996	-0.02
269.211	-0.07
269.426	-0.04
269.641	-0.05
269.856	0.03
270.071	-0.07
270.285	-0.11
270.5	0.05
270.715	0.05
270.93	-0.02
271.145	0.04
271.359	0.01
271.574	-0.08
271.789	-0.05
272.004	-0.03
272.218	0.01
272.433	0.03
272.648	-0.1
272.862	0.08
273.077	-0.06
273.292	-0.01
273.506	-0.08
273.721	-0.06
273.936	0.07
274.15	0.08
274.365	-0.08
274.579	0.04
274.794	0.06
275.008	0.09
275.223	-0.11
275.437	-0.02
275.652	0.04
275.866	0.01
276.081	-0.05
276.295	0.04
276.509	-0.02
276.724	-0.02
276.938	-0.08
277.153	0.05
277.367	0.03
277.581	-0.05
277.796	-0.07
278.01	-0.04
278.224	0.04
278.438	0.09
278.653	-0.07
278.867	-0.01
279.081	-0.18
279.295	-0.01
279.51	0
279.724	-0.09
279.938	-0.01
280.152	0.03
280.366	-0.05
280.58	0.04
280.794	0.08
281.008	0
281.222	0.02
281.437	0.11
281.651	0.03
281.865	0.03
282.079	-0.03
282.293	-0.05
282.507	-0.1
282.721	-0.05
282.935	0
283.148	-0.1
283.362	-0.07
283.576	-0.05
283.79	-0.05
284.004	-0.01
284.218	0.07
284.432	-0.01
284.646	-0
284.859	-0.04
285.073	-0.01
285.287	-0.01
285.501	-0.05
285.714	-0.06
285.928	0.01
286.142	0
286.356	-0.07
286.569	-0.02
286.783	0.03
286.997	0.03
287.21	0.01
287.424	-0.02
287.637	-0.04
287.851	-0.03
288.065	-0.02
288.278	-0.03
288.492	0
288.705	-0.03
288.919	0.03
289.132	-0.1
289.346	0.05
289.559	-0.09
289.773	-0.1
289.986	-0.04
290.2	-0.01
290.413	0.02
290.626	-0.06
290.84	0
291.053	0.02
291.267	0.09
291.48	0.02
291.693	-0.02
291.906	-0.07
292.12	-0.06
292.333	-0.07
292.546	-0.02
292.76	0.1
292.973	-0
293.186	0.03
293.399	-0.02
293.612	0.02
293.826	-0
294.039	-0.04
294.252	0.01
294.465	0.02
294.678	-0
294.891	-0.07
295.104	-0.03
295.317	-0.04
295.53	-0.02
295.743	-0.06
295.956	0.01
296.169	0.05
296.382	-0
296.595	-0.01
296.808	-0.07
297.021	0.03
297.234	0.05
297.447	0.02
297.66	0.02
297.873	0.02
298.086	0.05
298.299	-0.03
298.511	-0.04
298.724	-0.03
298.937	-0.05
299.15	-0.05
299.363	-0.01
299.575	0.03
299.788	0.03
300.001	-0.04
300.213	-0.04
300.426	0
300.639	-0
300.852	-0.04
301.064	0
301.277	0.06
301.489	0.02
301.702	0.05
301.915	0.02
302.127	0.04
302.34	0.02
302.552	0.01
302.765	-0.05
302.977	0.02
303.19	-0.03
303.402	0.04
303.615	0.01
303.827	-0.03
304.04	0.02
304.252	0.03
304.464	-0.05
304.677	0.1
304.889	0.04
305.102	-0.05
305.314	-0.06
305.526	0.05
305.739	0.03
305.951	-0.08
306.163	-0.03
306.375	0.02
306.588	-0.06
306.8	-0.02
307.012	-0.05
307.224	0.01
307.436	0.04
307.649	-0.05
307.861	0.01
308.073	0
308.285	-0
308.497	-0.03
308.709	-0.02
308.921	-0.01
309.133	0.04
309.346	-0
309.558	-0.02
309.77	0.04
309.982	0.04
310.194	0.02
310.406	-0.05
310.617	0.03
310.829	0.03
311.041	0.01
311.253	-0.05
311.465	-0.04
311.677	-0.03
311.889	-0.06
312.101	-0.03
312.313	0.02
312.524	0.03
312.736	-0.03
312.948	-0.01
313.16	0.05
313.372	0.02
313.583	0.02
313.795	-0
314.007	-0.02
314.218	0.02
314.43	-0.04
314.642	-0.07
314.853	-0.04
315.065	-0.03
315.277	0
315.488	0.02
315.7	0.04
315.912	0.01
316.123	-0.04
316.335	-0.04
316.546	0.11
316.758	0.01
316.969	-0.03
317.181	-0.02
317.392	-0.02
317.604	0.06
317.815	-0.04
318.026	-0.04
318.238	-0.02
318.449	0.01
318.661	-0.07
318.872	-0.09
319.083	-0.01
319.295	-0.02
319.506	-0.02
319.717	-0.01
319.929	0.05
320.14	0
320.351	-0.01
320.562	-0.03
320.774	-0.01
320.985	0
321.196	-0.03
321.407	-0.1
321.618	0.01
321.829	-0
322.041	0.02
322.252	0.01
322.463	-0.03
322.674	-0
322.885	-0.02
323.096	-0.03
323.307	-0.04
323.518	-0
323.729	-0.04
323.94	0.02
324.151	-0.04
324.362	-0
324.573	0.01
324.784	-0.06
324.995	0.02
325.206	-0.01
325.417	-0.05
325.628	-0.03
325.838	0
326.049	-0.02
326.26	0.01
326.471	-0.02
326.682	-0.01
326.892	-0.02
327.103	-0.05
327.314	-0.06
327.525	0.05
327.735	-0.02
327.946	0.01
328.157	-0.06
328.368	0.03
328.578	-0.02
328.789	0.01
328.999	0.01
329.21	-0.03
329.421	0
329.631	-0.04
329.842	-0.04
330.052	0.03
330.263	-0.03
330.473	0.02
330.684	-0.01
330.894	-0.01
331.105	-0
331.315	-0.02
331.526	-0.08
331.736	0.06
331.947	0.03
332.157	0.04
332.367	-0.05
332.578	0.02
332.788	0.03
332.999	0.05
333.209	-0
333.419	-0.06
333.629	0
333.84	0.04
334.05	0
334.26	0.06
334.47	0.01
334.681	0.02
334.891	-0.03
335.101	0.03
335.311	0.05
335.521	0.02
335.732	-0.05
335.942	0.05
336.152	0.04
336.362	0.01
336.572	-0
336.782	0
336.992	-0.05
337.202	-0.03
337.412	-0
337.622	-0.04
337.832	-0.02
338.042	0.02
338.252	-0.05
338.462	-0.02
338.672	0.02
338.882	0.01
339.092	-0.01
339.302	0.07
339.511	0.04
339.721	-0.02
339.931	-0.04
340.141	0.03
340.351	0.04
340.561	0.01
340.77	-0
340.98	0.01
341.19	0.06
341.4	0
341.609	-0.05
341.819	-0.01
342.029	-0.07
342.238	0
342.448	-0.05
342.658	0.05
342.867	-0.02
343.077	-0.01
343.286	0.01
343.496	-0.02
343.706	0.06
343.915	-0.05
344.125	0.01
344.334	-0.01
344.544	-0.04
344.753	-0
344.963	-0.03
345.172	-0.03
345.381	-0.06
345.591	-0.03
345.8	0.02
346.01	0.04
346.219	0.03
346.428	-0.16
346.638	0
346.847	-0.03
347.056	0.05
347.266	-0.05
347.475	-0.01
347.684	0.01
347.893	-0
348.103	-0.01
348.312	-0.02
348.521	-0.06
348.73	0.02
348.94	-0.04
349.149	-0.05
349.358	-0.02
349.567	-0.01
349.776	-0.06
349.985	-0.07
350.194	0.01
350.403	0.02
350.612	-0.05
350.821	-0.03
351.03	0.02
351.239	-0.02
351.448	0.02
351.657	-0.05
351.866	0.05
352.075	-0.01
352.284	0.05
352.493	-0.06
352.702	0.02
352.911	0.02
353.12	-0.02
353.329	-0.04
353.538	0.02
353.746	-0.01
353.955	-0.06
354.164	0.02
354.373	-0.01
354.582	0.01
354.79	-0.01
354.999	0.02
355.208	-0.01
355.416	0.07
355.625	-0.05
355.834	-0.03
356.042	0.03
356.251	-0.03
356.46	-0.05
356.668	-0.03
356.877	0.07
357.085	0
357.294	-0.1
357.503	0.03
357.711	-0.03
357.92	0.09
358.128	-0
358.337	-0.02
358.545	0.02
358.754	-0
358.962	0.03
359.17	-0.04
359.379	0
359.587	-0.01
359.796	-0
360.004	0.04
360.212	0.01
360.421	0.1
360.629	-0.01
360.837	0.02
361.046	0.02
361.254	0.09
361.462	0.02
361.67	-0.07
361.879	-0.03
362.087	0.04
362.295	-0.04
362.503	0.01
362.711	-0.04
362.92	-0.04
363.128	-0.04
363.336	-0.01
363.544	-0.09
363.752	-0.02
363.96	-0.02
364.168	-0.03
364.376	0
364.584	-0.01
364.792	0.04
365	0.01
365.208	-0.03
365.416	0.05
365.624	0.02
365.832	-0.02
366.04	0.03
366.248	-0.01
366.456	0.02
366.664	-0.02
366.872	-0.01
367.079	0
367.287	0.01
367.495	0.01
367.703	0.01
367.911	-0.04
368.118	-0.03
368.326	-0
368.534	-0.05
368.742	0.04
368.949	-0.07
369.157	-0.03
369.365	0.04
369.572	-0.03
369.78	-0.05
369.988	0.01
370.195	0.03
370.403	-0.01
370.61	-0.05
370.818	0.02
371.026	0
371.233	-0.02
371.441	-0.03
371.648	-0.02
371.856	-0.03
372.063	0.05
372.271	-0
372.478	-0.04
372.685	-0.05
372.893	0.02
373.1	-0.05
373.308	-0.01
373.515	0.04
373.722	-0
373.93	-0.03
374.137	0.01
374.344	0.08
374.552	0.02
374.759	0.02
374.966	-0.01
375.173	0.03
375.381	0.05
375.588	-0.02
375.795	-0.07
376.002	-0.04
376.209	-0.11
376.417	-0
376.624	0.03
376.831	-0.01
377.038	-0.03
377.245	-0.11
377.452	-0.04
377.659	-0.01
377.866	-0.02
378.073	-0.03
378.28	0.02
378.487	0.01
378.694	-0.02
378.901	-0.03
379.108	0.01
379.315	0.03
379.522	0.07
379.729	-0.04
379.936	-0.02
380.143	-0.01
380.35	0.01
380.557	-0.04
380.763	0.04
380.97	-0.01
381.177	0
381.384	0.02
381.591	-0.02
381.797	0.01
382.004	-0.02
382.211	-0
382.418	-0.01
382.624	0.04
382.831	0.05
383.038	-0.03
383.244	-0.01
383.451	-0.01
383.658	0.01
383.864	-0.02
384.071	-0.03
384.277	0.03
384.484	-0.07
384.69	0.04
384.897	-0.04
385.103	-0.02
385.31	-0.05
385.516	-0.05
385.723	-0.01
385.929	-0.01
386.136	-0.03
386.342	0.02
386.549	-0.03
386.755	0.05
386.961	-0.01
387.168	-0.03
387.374	0.03
387.58	0.03
387.787	-0
387.993	0
388.199	-0
388.406	-0.07
388.612	0.01
388.818	-0.07
389.024	-0.05
389.231	0.03
389.437	0.07
389.643	0.01
389.849	-0.04
390.055	-0.01
390.261	-0.02
390.467	-0.01
390.674	-0.07
390.88	-0
391.086	0.03
391.292	-0.04
391.498	0.02
391.704	0.01
391.91	-0.07
392.116	-0.04
392.322	-0.12
392.528	0.01
392.734	-0.03
392.94	0.01
393.146	-0
393.352	-0.05
393.557	0.03
393.763	-0.03
393.969	0.05
394.175	-0.02
394.381	0
394.587	-0.04
394.792	-0.04
394.998	0.02
395.204	0.05
395.41	-0.01
395.615	0.03
395.821	-0.04
396.027	0.03
396.233	-0.09
396.438	-0.01
396.644	0.09
396.85	0.04
397.055	-0.03
397.261	0.03
397.466	0.09
397.672	0.02
397.878	0.03
398.083	-0.02
398.289	-0.08
398.494	0.04
398.7	0.02
398.905	-0.08
399.111	0.06
399.316	-0.08
399.522	-0.02
399.727	-0.01
399.932	-0
400.138	-0.05
400.343	0.03
400.549	0.01
400.754	-0.01
400.959	0.02
401.165	-0.04
401.37	0.02
401.575	0.02
401.78	-0.01
401.986	-0.06
402.191	-0.03
402.396	-0.03
402.601	0.04
402.807	-0.05
403.012	-0.01
403.217	0.02
403.422	-0.01
403.627	-0.07
403.832	-0.06
404.037	0.01
404.243	0.01
404.448	-0.05
404.653	-0.07
404.858	-0.01
405.063	0.02
405.268	-0.03
405.473	-0.03
405.678	-0.04
405.883	0.1
406.088	0.06
406.293	-0.06
406.498	-0.04
406.703	0.03
406.907	-0.03
407.112	-0.06
407.317	0
407.522	-0
407.727	-0.06
407.932	-0.01
408.136	0.05
408.341	-0.02
408.546	-0.01
408.751	-0.03
408.956	-0.01
409.16	0.01
409.365	-0.02
409.57	-0.02
409.774	-0.01
409.979	-0.01
410.184	0.01
410.388	-0.03
410.593	0.01
410.798	-0.01
411.002	-0.04
411.207	0.03
411.411	0.05
411.616	-0.05
411.82	-0.01
412.025	-0.02
412.229	-0.04
412.434	0.02
412.638	-0
412.843	-0.02
413.047	0.01
413.252	-0.05
413.456	-0.04
413.66	0.04
413.865	-0.04
414.069	0.02
414.273	-0.02
414.478	-0.03
414.682	-0.07
414.886	-0.03
415.091	-0.07
415.295	-0.08
415.499	0.01
415.703	-0.04
415.908	0.01
416.112	-0.09
416.316	-0
416.52	-0.04
416.724	-0.08
416.929	-0.07
417.133	0.06
417.337	-0.07
417.541	-0.09
417.745	-0.02
417.949	-0.02
418.153	-0.02
418.357	-0.05
418.561	0.07
418.765	-0.03
418.969	0.1
419.173	0
419.377	-0.03
419.581	0.07
419.785	-0.04
419.989	-0.08
420.193	-0.03
420.397	-0.01
420.601	0.03
420.804	-0
421.008	0.02
421.212	0.02
421.416	0.01
421.62	-0.05
421.823	-0.04
422.027	0.05
422.231	-0.03
422.435	-0
422.638	0.02
422.842	0.02
423.046	-0.05
423.249	0.02
423.453	0.01
423.657	0.03
423.86	-0.02
424.064	-0.01
424.268	0.04
424.471	-0.03
424.675	0.05
424.878	0.04
425.082	-0.03
425.285	0.05
425.489	-0.01
425.692	0.01
425.896	-0.05
426.099	0.04
426.303	-0.03
426.506	-0.09
426.71	0.06
426.913	0.04
427.116	0.07
427.32	-0.04
427.523	-0.01
427.726	0.07
427.93	-0.05
428.133	-0.01
428.336	-0.05
428.54	-0.09
428.743	0.04
428.946	0.02
429.149	-0.04
429.353	0.01
429.556	-0.04
429.759	-0.01
429.962	-0.05
430.165	-0.03
430.368	-0.05
430.571	-0.04
430.775	-0.02
430.978	-0.03
431.181	0.02
431.384	-0.03
431.587	0
431.79	-0.03
431.993	-0.01
432.196	-0.01
432.399	-0.07
432.602	0.05
432.805	-0.04
433.008	-0.02
433.211	-0.08
433.414	-0.03
433.616	-0.02
433.819	-0.05
434.022	-0.11
434.225	0.03
434.428	-0
434.631	0.09
434.833	-0.05
435.036	-0.07
435.239	0.01
435.442	-0.03
435.645	-0.01
435.847	-0.04
436.05	0.02
436.253	0
436.455	-0.1
436.658	-0.02
436.861	0.02
437.063	-0.01
437.266	-0.01
437.468	-0
437.671	0.12
437.874	0.02
438.076	-0.08
438.279	-0.11
438.481	0.01
438.684	-0.04
438.886	-0.02
439.089	-0.09
439.291	-0.02
439.494	-0.04
439.696	-0.06
439.899	-0.02
440.101	-0.05
440.303	-0.08
440.506	0.04
440.708	-0.01
440.91	0.01
441.113	-0.01
441.315	0.01
441.517	-0.05
441.72	0
441.922	-0.06
442.124	-0.07
442.326	-0
442.529	0.12
442.731	-0.03
442.933	0.08
443.135	-0.04
443.337	-0.03
443.539	-0.04
443.742	-0.04
443.944	-0.01
444.146	-0.05
444.348	-0.07
444.55	-0.09
444.752	-0.02
444.954	-0.11
445.156	-0.02
445.358	-0.08
445.56	0.02
445.762	-0.03
445.964	-0.02
446.166	-0.02
446.368	-0.01
446.57	0.05
446.772	-0.01
446.974	-0.09
447.175	-0.01
447.377	-0.1
447.579	-0.07
447.781	-0.07
447.983	0.05
448.184	0.03
448.386	-0.05
448.588	-0.11
448.79	-0.02
448.991	-0.04
449.193	-0.03
449.395	-0.06
449.597	0.04
449.798	-0.01
450	0.01
450.202	-0.01
450.403	-0.08
450.605	0.03
450.806	-0.05
451.008	-0.07
451.21	-0.02
451.411	-0.03
451.613	-0.03
451.814	0
452.016	0.04
452.217	0
452.419	0
452.62	0
452.821	0.05
453.023	0.05
453.224	-0.01
453.426	-0.01
453.627	0.01
453.828	0.03
454.03	0.02
454.231	-0.04
454.432	-0.05
454.634	0.08
454.835	-0.01
455.036	-0.08
455.238	0
455.439	0.04
455.64	-0.12
455.841	-0.04
456.042	0.05
456.244	0.03
456.445	-0.04
456.646	-0.05
456.847	-0.04
457.048	0.03
457.249	0.04
457.45	0.1
457.651	-0.1
457.852	0.03
458.054	0.01
458.255	-0.02
458.456	0.01
458.657	-0.03
458.858	-0.07
459.058	-0.03
459.259	0.02
459.46	-0.01
459.661	-0.03
459.862	0.07
460.063	0.02
460.264	0.06
460.465	-0.09
460.666	0.12
460.866	-0.02
461.067	-0.03
461.268	0.01
461.469	-0.06
461.67	0.01
461.87	-0.04
462.071	-0.03
462.272	-0.09
462.473	-0.02
462.673	-0
462.874	-0.04
463.075	-0.06
463.275	-0.02
463.476	-0
463.676	0
463.877	-0.02
464.078	-0.03
464.278	0.01
464.479	-0.05
464.679	-0.02
464.88	-0.06
465.08	0.05
465.281	-0.07
465.481	-0.06
465.682	-0.03
465.882	0.01
466.083	0.02
466.283	0.03
466.483	-0.03
466.684	-0.07
466.884	-0.02
467.085	-0.04
467.285	-0.01
467.485	-0.04
467.686	-0.04
467.886	-0.03
468.086	-0
468.286	0
468.487	0.03
468.687	-0.07
468.887	-0.02
469.087	0.05
469.287	-0.07
469.488	-0.06
469.688	-0.03
469.888	-0.01
470.088	0.01
470.288	0.01
470.488	0.02
470.688	-0.05
470.888	-0.04
471.088	-0.06
471.288	0.01
471.488	-0.01
471.688	-0.01
471.888	-0.01
472.088	0.06
472.288	0.04
472.488	-0.07
472.688	-0
472.888	-0.02
473.088	-0.01
473.288	-0.02
473.488	-0.02
473.688	0.06
473.887	-0.02
474.087	-0.02
474.287	-0.02
474.487	-0.06
474.687	0.03
474.886	-0.07
475.086	-0.01
475.286	-0
475.486	-0.04
475.685	-0.02
475.885	-0.04
476.085	-0.05
476.284	0.01
476.484	-0.02
476.684	-0.02
476.883	0.06
477.083	0.03
477.282	-0.04
477.482	0.06
477.681	0.08
477.881	0.02
478.08	-0.03
478.28	-0.02
478.479	-0.02
478.679	0.07
478.878	-0.02
479.078	-0.04
479.277	-0.03
479.477	-0.05
479.676	0.03
479.875	-0.01
480.075	-0.05
480.274	0.02
480.473	0.01
480.673	-0.03
480.872	0.02
481.071	-0.01
481.271	-0
481.47	-0
481.669	-0.02
481.868	-0.04
482.067	-0.06
482.267	-0.06
482.466	-0.02
482.665	-0.02
482.864	-0.06
483.063	-0.05
483.262	-0.03
483.461	0.03
483.661	0.03
483.86	-0.02
484.059	-0.01
484.258	-0
484.457	-0.02
484.656	0.01
484.855	0.03
485.054	-0.04
485.253	-0.05
485.452	-0.05
485.651	0.01
485.849	-0.03
486.048	-0.02
486.247	-0.05
486.446	-0.02
486.645	-0.06
486.844	-0.04
487.043	-0.01
487.241	0.01
487.44	-0.03
487.639	-0.01
487.838	0.01
488.037	-0.02
488.235	0.05
488.434	0.01
488.633	-0.03
488.831	-0.01
489.03	0.03
489.229	0.01
489.427	-0.02
489.626	0.05
489.825	0.05
490.023	0.01
490.222	-0.01
490.42	-0
490.619	0.01
490.817	-0.03
491.016	-0.02
491.214	0.01
491.413	-0.03
491.611	-0.02
491.81	-0.01
492.008	0.02
492.207	0.01
492.405	-0.01
492.604	-0.05
492.802	0.02
493	0
493.199	-0.03
493.397	0.01
493.595	-0.02
493.794	-0.01
493.992	0.07
494.19	0
494.388	0.02
494.587	-0.04
494.785	-0
494.983	-0.03
495.181	0.01
495.379	-0.02
495.578	-0.01
495.776	0
495.974	0.01
496.172	0
496.37	-0.01
496.568	-0.02
496.766	-0.04
496.964	0.03
497.162	0.01
497.36	-0.05
497.558	0.02
497.756	0.02
497.954	-0.02
498.152	0
498.35	-0.02
498.548	-0.02
498.746	0
498.944	-0.03
499.142	0
499.34	-0.04
499.538	0.01
499.736	-0.02
499.933	0.02
500.131	0.02
500.329	-0.02
500.527	0
500.725	0.02
500.922	0.02
501.12	0
501.318	-0.01
501.516	-0.03
501.713	0
501.911	-0.04
502.109	0.01
502.306	0.01
502.504	-0.01
502.701	-0
502.899	-0.04
503.097	0.04
503.294	-0.01
503.492	-0
503.689	-0.01
503.887	0.02
504.084	0.03
504.282	-0.02
504.479	-0.04
504.677	0.01
504.874	-0.03
505.072	-0
505.269	-0.03
505.466	0.01
505.664	0
505.861	-0.03
506.059	-0.05
506.256	0.01
506.453	-0.02
506.651	0.01
506.848	0.03
507.045	-0.02
507.242	0.02
507.44	-0.01
507.637	-0.02
507.834	-0.01
508.031	0.02
508.229	-0.02
508.426	-0.01
508.623	-0
508.82	-0.02
509.017	-0.04
509.214	-0.01
509.411	-0.01
509.608	-0.01
509.805	-0.03
510.003	-0.01
510.2	-0.04
510.397	-0.02
510.594	-0.03
510.791	-0.02
510.988	-0.01
511.184	0.03
511.381	-0.01
511.578	-0.03
511.775	0.02
511.972	-0.02
512.169	-0
512.366	-0.03
512.563	-0
512.76	-0.01
512.956	0.02
513.153	-0.03
513.35	0.02
513.547	-0.03
513.744	-0.02
513.94	-0.05
514.137	0.01
514.334	-0.01
514.53	-0.01
514.727	0
514.924	0.05
515.12	-0.02
515.317	-0.04
515.514	-0.03
515.71	-0.03
515.907	-0
516.103	-0.02
516.3	-0
516.497	0.01
516.693	0
516.89	-0.01
517.086	-0.03
517.283	0.03
517.479	0.02
517.676	-0.01
517.872	-0.01
518.068	-0.01
518.265	-0.01
518.461	-0.03
518.658	-0.03
518.854	-0.01
519.05	-0.04
519.247	-0.04
519.443	-0
519.639	0.01
519.836	-0.01
520.032	-0.01
520.228	-0
520.424	0.03
520.621	0.01
520.817	-0.01
521.013	0.02
521.209	0.01
521.405	0.03
521.601	0.01
521.798	-0.01
521.994	0.04
522.19	-0.03
522.386	-0.04
522.582	-0.03
522.778	-0.01
522.974	-0.01
523.17	0.01
523.366	0.01
523.562	0.03
523.758	-0.01
523.954	-0.03
524.15	-0.02
524.346	-0
524.542	-0.01
524.738	-0.02
524.934	-0
525.129	-0.01
525.325	0.01
525.521	-0.01
525.717	-0.01
525.913	-0.01
526.109	-0.01
526.304	-0.02
526.5	0.01
526.696	0.03
526.892	-0
527.087	-0.01
527.283	-0.01
527.479	-0.02
527.674	0.01
527.87	-0.02
528.066	-0.03
528.261	0.01
528.457	-0
528.653	0
528.848	-0.01
529.044	0.02
529.239	-0.02
529.435	0.02
529.63	-0.01
529.826	0.05
530.021	0.01
530.217	0.01
530.412	-0.02
530.608	-0.01
530.803	-0.01
530.999	-0.01
531.194	-0.05
531.389	0
531.585	-0.06
531.78	-0.03
531.975	-0.02
532.171	0
532.366	-0.02
532.561	-0.01
532.757	-0.01
532.952	-0.01
533.147	-0
533.342	-0.01
533.538	-0.03
533.733	0.01
533.928	-0.01
534.123	-0.03
534.318	-0.02
534.513	-0.01
534.709	0.01
534.904	-0.03
535.099	-0
535.294	0.01
535.489	0
535.684	-0.01
535.879	-0.05
536.074	-0.02
536.269	-0.04
536.464	0
536.659	-0.02
536.854	-0.01
537.049	0.02
537.244	-0.01
537.439	0.01
537.634	0.01
537.828	-0
538.023	-0.01
538.218	-0.02
538.413	-0.02
538.608	-0.05
538.803	0
538.997	-0.03
539.192	-0.01
539.387	0.01
539.582	-0.02
539.776	0.01
539.971	-0.01
540.166	-0.01
540.36	-0.04
540.555	-0.02
540.75	-0.03
540.944	-0.01
541.139	-0.06
541.334	-0.02
541.528	0.01
541.723	0.01
541.917	-0.03
542.112	-0.08
542.306	-0.03
542.501	-0.04
542.695	-0
542.89	-0.01
543.084	-0.03
543.279	-0.03
543.473	-0.02
543.668	-0.02
543.862	-0.03
544.056	0.02
544.251	-0.01
544.445	0
544.64	-0
544.834	-0.03
545.028	-0.01
545.222	-0.01
545.417	0.01
545.611	0.02
545.805	0.01
546	-0.03
546.194	-0.02
546.388	-0.05
546.582	-0.01
546.776	-0.02
546.97	0
547.165	-0.01
547.359	0.01
547.553	-0
547.747	-0.01
547.941	-0.01
548.135	-0.01
548.329	0
548.523	0.02
548.717	0
548.911	-0.01
549.105	-0
549.299	-0.01
549.493	0.01
549.687	0
549.881	-0
550.075	-0.01
550.269	-0.04
550.463	0.01
550.657	-0.04
550.85	-0.01
551.044	-0.02
551.238	-0
551.432	-0.02
551.626	-0.02
551.82	0
552.013	-0.03
552.207	-0.01
552.401	0.01
552.594	-0.02
552.788	-0.01
552.982	-0
553.176	-0.02
553.369	0.02
553.563	0.02
553.756	-0.05
553.95	-0.03
554.144	-0.02
554.337	0.02
554.531	-0.01
554.724	-0
554.918	-0.03
555.111	0.01
555.305	-0.02
555.498	0.04
555.692	-0
555.885	-0.04
556.079	-0
556.272	-0.01
556.466	0.03
556.659	0.01
556.852	-0.02
557.046	-0.02
557.239	0.02
557.432	-0.03
557.626	-0.03
557.819	0.01
558.012	0.01
558.206	0
558.399	-0.02
558.592	0
558.785	-0.02
558.979	0.01
559.172	-0.03
559.365	0.01
559.558	0.01
559.751	0.02
559.944	-0.02
560.138	-0.04
560.331	-0.02
560.524	-0.03
560.717	-0.03
560.91	-0.02
561.103	-0.01
561.296	-0.02
561.489	0.01
561.682	0.01
561.875	0.02
562.068	-0.01
562.261	-0.02
562.454	0.02
562.647	-0
562.84	0.02
563.032	-0.04
563.225	-0
563.418	-0.02
563.611	-0.02
563.804	-0.01
563.997	-0.02
564.19	-0.01
564.382	0.01
564.575	0
564.768	-0.03
564.961	0
565.153	-0.02
565.346	0.01
565.539	0.01
565.731	-0.01
565.924	0.03
566.117	0.02
566.309	0.01
566.502	-0.03
566.695	-0.01
566.887	-0
567.08	-0.03
567.272	0.01
567.465	-0.03
567.657	-0.01
567.85	0
568.042	0.02
568.235	0.03
568.427	0.01
568.62	-0.01
568.812	0.01
569.005	-0.02
569.197	-0.06
569.389	0
569.582	-0
569.774	-0.01
569.966	-0.05
570.159	-0.04
570.351	-0.01
570.543	-0.02
570.736	-0.02
570.928	-0.03
571.12	-0.03
571.312	-0.03
571.505	-0.04
571.697	0.02
571.889	-0.03
572.081	-0.01
572.273	-0.02
572.465	0
572.658	-0.03
572.85	-0
573.042	-0.01
573.234	-0.02
573.426	0.03
573.618	-0.03
573.81	-0.02
574.002	0.01
574.194	0.01
574.386	-0.04
574.578	-0.07
574.77	-0.04
574.962	-0.02
575.154	-0.05
575.346	-0.01
575.538	0.02
575.729	-0.01
575.921	-0.04
576.113	-0.02
576.305	0.01
576.497	-0.02
576.689	-0.01
576.88	-0.03
577.072	0.01
577.264	0
577.456	-0.01
577.647	-0.06
577.839	-0
578.031	0.02
578.223	-0.04
578.414	-0.03
578.606	0.03
578.798	-0.01
578.989	-0.01
579.181	-0.02
579.372	-0.01
579.564	-0.02
579.755	-0
579.947	0.02
580.139	0.02
580.33	-0.07
580.522	-0.03
580.713	-0.06
580.905	-0.01
581.096	0.01
581.287	0.01
581.479	-0.02
581.67	0.02
581.862	-0.01
582.053	-0.05
582.244	-0.07
582.436	-0.01
582.627	0.01
582.818	-0.03
583.01	-0.06
583.201	-0
583.392	0
583.583	0.01
583.775	-0.02
583.966	-0.02
584.157	-0.03
584.348	-0
584.54	-0.03
584.731	-0
584.922	-0.01
585.113	-0.04
585.304	0.02
585.495	0.03
585.686	-0.01
585.877	-0.01
586.068	-0
586.259	-0.01
586.45	-0.01
586.641	-0.03
586.832	-0.06
587.023	0
587.214	-0.01
587.405	-0
587.596	-0.04
587.787	0.04
587.978	0
588.169	-0.03
588.36	-0.02
588.551	-0
588.742	-0.02
588.932	-0.01
589.123	-0.01
589.314	0.02
589.505	0.01
589.696	0.01
589.886	-0.04
590.077	-0.06
590.268	-0.01
590.458	-0.05
590.649	-0.03
590.84	0.05
591.03	-0.02
591.221	-0.04
591.412	-0.03
591.602	0.01
591.793	0.03
591.984	-0.04
592.174	-0.01
592.365	0.05
592.555	-0.04
592.746	0.01
592.936	0.01
593.127	0.04
593.317	0.03
593.508	-0.04
593.698	-0.02
593.889	0
594.079	-0.01
594.269	-0.01
594.46	-0
594.65	0.01
594.84	-0
595.031	-0.02
595.221	-0.03
595.411	-0.05
595.602	-0
595.792	-0.02
595.982	-0.02
596.172	0.06
596.363	0
596.553	0.03
596.743	0.01
596.933	0
597.123	0.02
597.314	-0.01
597.504	-0.02
597.694	0.03
597.884	0.03
598.074	-0.01
598.264	-0.01
598.454	0.02
598.644	-0
598.834	0.02
599.024	-0.08
599.214	0.01
599.404	0.05
599.594	0
599.784	-0.02
599.974	0.01
600.164	0
600.354	-0.03
600.544	-0.06
600.734	0.04
600.924	0.01
601.114	-0.01
601.303	0
601.493	0.04
601.683	0.02
601.873	0.01
602.063	-0.01
602.252	0.03
602.442	-0.05
602.632	-0.02
602.821	-0.03
603.011	0.02
603.201	-0
603.39	-0.01
603.58	-0.01
603.77	0.04
603.959	0.05
604.149	0.03
604.339	0
604.528	0.05
604.718	0.02
604.907	-0.01
605.097	-0.02
605.286	-0.01
605.476	0.03
605.665	0.03
605.855	0.01
606.044	0.08
606.234	0.03
606.423	0.03
606.612	-0.04
606.802	0.02
606.991	0.05
607.181	0.02
607.37	-0.02
607.559	0.03
607.749	-0.01
607.938	0.02
608.127	0.01
608.316	0
608.506	0.04
608.695	0.02
608.884	0.02
609.073	0.02
609.263	0.07
609.452	0.06
609.641	0.04
609.83	0.01
610.019	0.04
610.208	0.02
610.397	0.03
610.586	0.07
610.775	0.02
610.965	0.01
611.154	0.04
611.343	0.03
611.532	0.04
611.721	0.02
611.91	0.03
612.099	0.06
612.287	0.05
612.476	-0
612.665	0.03
612.854	0.04
613.043	0.08
613.232	0.03
613.421	0.01
613.61	0.06
613.798	0.03
613.987	0.06
614.176	0.07
614.365	0.1
614.554	0.08
614.742	0.06
614.931	0.06
615.12	0.11
615.309	0.04
615.497	0.11
615.686	0.08
615.875	0.06
616.063	0.07
616.252	0.06
616.44	0.06
616.629	0.08
616.818	0.1
617.006	0.08
617.195	0.07
617.383	0.1
617.572	0.1
617.76	0.06
617.949	0.08
618.137	0.12
618.326	0.15
618.514	0.05
618.703	0.08
618.891	0.14
619.079	0.09
619.268	0.15
619.456	0.07
619.644	0.14
619.833	0.1
620.021	0.07
620.209	0.07
620.398	0.09
620.586	0.11
620.774	0.12
620.962	0.1
621.151	0.17
621.339	0.12
621.527	0.07
621.715	0.07
621.903	0.05
622.092	0.07
622.28	0.13
622.468	0.11
622.656	0.11
622.844	0.15
623.032	0.08
623.22	0.06
623.408	0.13
623.596	0.12
623.784	0.13
623.972	0.08
624.16	0.05
624.348	0.17
624.536	0.1
624.724	0.12
624.912	0.15
625.1	0.11
625.288	0.06
625.476	0.07
625.664	0.09
625.851	0.06
626.039	0.08
626.227	0.11
626.415	0.1
626.603	0.02
626.79	0.06
626.978	0.08
627.166	0.09
627.354	0.05
627.541	0.06
627.729	0.02
627.917	0.1
628.104	0.08
628.292	0.06
628.48	0.04
628.667	0.06
628.855	0.05
629.042	0.07
629.23	-0
629.418	0.03
629.605	0.04
629.793	0
629.98	0.04
630.168	0.03
630.355	0.06
630.543	0.04
630.73	0.01
630.917	0.06
631.105	0.09
631.292	0
631.48	0.03
631.667	0.07
631.854	0.06
632.042	0.02
632.229	-0.02
632.416	0.02
632.604	0
632.791	-0.01
632.978	0.04
633.165	0.04
633.353	0.04
633.54	0.04
633.727	-0.07
633.914	0
634.101	-0.06
634.289	0.05
634.476	-0.04
634.663	-0.05
634.85	0
635.037	-0.03
635.224	-0.06
635.411	0.03
635.598	0.02
635.785	0
635.972	-0.01
636.159	0.05
636.346	-0.06
636.533	0.03
636.72	-0.02
636.907	-0.03
637.094	0.03
637.281	-0.01
637.468	0.05
637.655	-0.03
637.842	-0.01
638.029	-0.03
638.215	0.01
638.402	-0.01
638.589	-0.04
638.776	0.02
638.963	-0.02
639.149	0.01
639.336	0.07
639.523	-0.02
639.709	-0.02
639.896	-0.01
640.083	0.03
640.27	-0.01
640.456	-0.02
640.643	-0.02
640.829	-0
641.016	-0.03
641.203	-0.05
641.389	0.03
641.576	-0.01
641.762	0
641.949	-0.06
642.135	-0.01
642.322	0.02
642.508	-0.06
642.695	-0
642.881	-0.02
643.068	-0.02
643.254	0.01
643.441	0.01
643.627	-0.03
643.813	-0.01
644	0.03
644.186	-0.05
644.372	0.01
644.559	0.03
644.745	-0.04
644.931	-0.02
645.118	-0.02
645.304	0
645.49	-0.05
645.676	-0.01
645.862	0.01
646.049	0.03
646.235	-0
646.421	0.04
646.607	0.04
646.793	-0.03
646.979	-0.04
647.165	0.02
647.352	-0
647.538	-0
647.724	-0.03
647.91	-0
648.096	-0.01
648.282	0.02
648.468	-0.03
648.654	-0.03
648.84	-0
649.026	-0.01
649.212	0
649.397	-0.03
649.583	-0.05
649.769	-0
649.955	-0.02
650.141	-0.02
650.327	0.08
650.513	-0.03
650.698	0.01
650.884	-0.07
651.07	0.01
651.256	-0.02
651.442	-0.02
651.627	-0.01
651.813	-0
651.999	0.01
652.184	0
652.37	-0
652.556	-0.05
652.741	0.05
652.927	-0.07
653.113	-0.03
653.298	-0.01
653.484	-0.01
653.669	-0.1
653.855	-0.01
654.04	0.01
654.226	0.03
654.412	-0.05
654.597	-0.05
654.782	0
654.968	0.03
655.153	0
655.339	-0.03
655.524	-0.03
655.71	0.02
655.895	-0.03
656.08	-0.02
656.266	0
656.451	-0.01
656.636	-0.06
656.822	-0.02
657.007	-0.03
657.192	-0.01
657.378	-0.05
657.563	0.03
657.748	-0.01
657.933	0.01
658.118	-0.03
658.304	-0.06
658.489	0.01
658.674	-0.02
658.859	-0.04
659.044	-0.01
659.229	-0.01
659.414	-0.05
659.599	-0.05
659.785	-0.07
659.97	-0.08
660.155	-0.02
660.34	-0.03
660.525	-0.01
660.71	-0.05
660.895	0.02
661.08	-0.05
661.264	-0.01
661.449	0.02
661.634	0.05
661.819	-0
662.004	0
662.189	-0.09
662.374	-0.07
662.559	-0.05
662.743	-0.08
662.928	-0.02
663.113	-0.04
663.298	-0.07
663.483	-0.06
663.667	-0
663.852	-0.08
664.037	0.03
664.221	-0.04
664.406	0.02
664.591	0.02
664.775	-0.02
664.96	0.01
665.145	0.01
665.329	0.04
665.514	-0.04
665.698	0.01
665.883	-0.15
666.068	0.03
666.252	-0.04
666.437	-0.05
666.621	-0.03
666.806	-0.02
666.99	-0.04
667.174	-0.03
667.359	0.05
667.543	-0.03
667.728	-0.04
667.912	-0.11
668.096	-0
668.281	-0.07
668.465	-0.06
668.649	-0.03
668.834	-0.05
669.018	-0.06
669.202	-0.03
669.387	-0.05
669.571	0.03
669.755	-0.05
669.939	-0.01
670.124	-0.03
670.308	0.01
670.492	0.03
670.676	0
670.86	-0.05
671.044	-0.06
671.228	0.01
671.413	-0.04
671.597	-0.04
671.781	-0.03
671.965	0
672.149	-0.03
672.333	-0.01
672.517	-0.06
672.701	0.01
672.885	-0.05
673.069	-0.04
673.253	0.02
673.437	-0.01
673.621	-0.05
673.804	-0.02
673.988	-0.04
674.172	-0.04
674.356	-0.07
674.54	0
674.724	0.06
674.908	-0.06
675.091	-0.01
675.275	-0
675.459	0.03
675.643	0.08
675.826	-0.03
676.01	0.01
676.194	-0.03
676.377	0.01
676.561	-0.01
676.745	-0.01
676.928	-0.03
677.112	0.02
677.296	-0.05
677.479	-0.07
677.663	-0.04
677.846	0.01
678.03	-0.05
678.213	-0.06
678.397	-0.03
678.58	-0
678.764	-0.01
678.947	-0.06
679.131	-0.01
679.314	-0.02
679.498	-0.02
679.681	-0.02
679.865	0.08
680.048	0.03
680.231	-0.01
680.415	-0.02
680.598	-0.07
680.781	-0.04
680.965	-0.02
681.148	0
681.331	-0.03
681.514	-0.05
681.698	-0.02
681.881	-0
682.064	-0
682.247	0
682.43	-0.07
682.614	-0.02
682.797	-0.01
682.98	0
683.163	-0.06
683.346	0.01
683.529	-0.01
683.712	-0.03
683.895	0.02
684.078	-0.1
684.261	-0.04
684.444	0.02
684.627	0
684.81	-0.05
684.993	0.01
685.176	-0.02
685.359	-0.05
685.542	-0.07
685.725	0.01
685.908	-0.04
686.091	-0.03
686.274	0.03
686.457	-0.01
686.639	-0.03
686.822	0.03
687.005	0
687.188	0.01
687.371	0.05
687.553	-0.02
687.736	-0
687.919	0.01
688.102	0.06
688.284	-0.02
688.467	-0
688.65	-0.05
688.832	-0.01
689.015	-0.03
689.197	-0.05
689.38	0.05
689.563	0.12
689.745	-0.08
689.928	-0.05
690.11	-0.01
690.293	0.01
690.475	-0.05
690.658	-0.01
690.84	-0.04
691.023	0.01
691.205	-0.04
691.388	-0.01
691.57	0.04
691.752	0.02
691.935	-0.1
692.117	-0.06
692.3	0.01
692.482	-0
692.664	0.02
692.847	-0.03
693.029	0.01
693.211	-0
693.393	-0.02
693.576	-0.11
693.758	0.01
693.94	0.01
694.122	-0.07
694.304	-0.01
694.487	-0.06
694.669	0.07
694.851	-0.04
695.033	0
695.215	-0.05
695.397	-0.05
695.579	0
695.761	-0.05
695.943	-0.1
696.125	0.05
696.308	0.02
696.49	-0.11
696.671	0.1
696.853	0.02
697.035	0.08
697.217	-0.03
697.399	-0.03
697.581	-0.04
697.763	-0.05
697.945	-0.05
698.127	-0.05
698.309	0.04
698.491	-0.02
698.672	0.01
698.854	0.05
699.036	0.06
699.218	-0.02
699.399	0.05
699.581	0.08
699.763	0.01
699.945	-0.07
700.126	-0.08
700.308	-0.02
700.49	-0.02
700.671	-0.11
700.853	-0.08
701.035	-0
701.216	-0
701.398	-0.05
701.579	0
701.761	0.05
701.943	-0.08
702.124	-0.09
702.306	-0.03
702.487	0.07
702.669	-0.05
702.85	-0.04
703.031	-0.08
703.213	0.05
703.394	0.06
703.576	-0.03
703.757	0.05
703.938	0.04
704.12	0.15
704.301	-0.01
704.483	-0.1
704.664	0.05
704.845	0.1
705.026	-0.03
705.208	0.04
705.389	-0.06
705.57	-0.03
705.751	-0.04
705.933	-0.06
706.114	0.11
706.295	0.07
706.476	-0.06
706.657	0.03
706.838	0
707.02	0.05
707.201	-0.05
707.382	-0.08
707.563	-0.02
707.744	-0.06
707.925	-0.07
708.106	-0.07
708.287	-0.03
708.468	0.09
708.649	-0.01
708.83	0
709.011	-0.06
709.192	0.02
709.373	-0.06
709.554	-0.08
709.734	0.08
709.915	0.06
710.096	-0.04
710.277	-0.08
710.458	0.01
710.639	0.12
710.819	-0.13
711	0.02
711.181	0.03
711.362	0.1
711.542	-0.03
711.723	0.02
711.904	0.01
712.085	0.01
712.265	0.05
712.446	-0.12
712.627	-0.01
712.807	-0.04
712.988	-0.05
713.168	-0.07
713.349	0.01
713.53	-0.12
713.71	-0.09
713.891	-0.1
714.071	-0.07
714.252	-0.13
714.432	-0
714.613	-0.1
714.793	-0.04
714.974	0.04
715.154	0.03
715.334	-0
715.515	0.06
715.695	-0.15
715.876	-0.05
716.056	-0.08
716.236	-0.02
716.417	-0.03
716.597	-0.06
716.777	0.14
716.957	0.02
717.138	-0.01
717.318	-0.08
717.498	-0.12
717.678	0.06
717.859	-0.03
718.039	-0.12
718.219	0.02
718.399	0
718.579	-0.07
718.759	-0.11
718.939	-0.03
719.12	-0.03
719.3	0.08
719.48	-0.16
719.66	-0.15
719.84	-0.01
720.02	0
720.2	-0.09
720.38	-0.04
720.56	0.05
720.74	-0.01
720.92	-0
721.1	0.01
721.279	0.03
721.459	-0.05
721.639	-0.12
721.819	0.02
721.999	-0.02
722.179	0.01
722.359	-0.11
722.538	-0.04
722.718	-0.06
722.898	-0.05
723.078	-0.05
723.257	-0.07
723.437	0.02
723.617	-0.02
723.797	-0.06
723.976	-0.05
724.156	0.01
724.336	0.05
724.515	0.08
724.695	-0.12
724.874	-0.01
725.054	0.08
725.234	-0.11
725.413	-0.04
725.593	-0.03
725.772	-0.03
725.952	-0.05
726.131	-0.05
726.311	-0.04
726.49	-0.06
726.67	-0.1
726.849	0.03
727.028	-0.02
727.208	-0.1
727.387	-0.03
727.567	-0.13
727.746	0.01
727.925	-0.1
728.105	-0.1
728.284	-0.01
728.463	-0.01
728.643	-0.09
728.822	-0.09
729.001	-0.08
729.18	-0.02
729.359	0.03
729.539	-0.04
729.718	-0.02
729.897	0.02
730.076	-0.1
730.255	-0.1
730.434	0.1
730.614	0.02
730.793	0.05
730.972	-0.07
731.151	-0.01
731.33	-0.01
731.509	0.05
731.688	0.01
731.867	0.07
732.046	-0.15
732.225	0.13
732.404	-0.08
732.583	-0.21
732.762	0.01
732.941	-0.03
733.12	-0.01
733.298	-0.01
733.477	0.03
733.656	-0.05
733.835	-0.07
734.014	0.06
734.193	-0.04
734.371	0.11
734.55	-0.01
734.729	-0.15
734.908	0.01
735.086	0.06
735.265	0.11
735.444	-0.13
735.623	-0.21
735.801	-0.16
735.98	-0.01
736.159	-0.07
736.337	0.03
736.516	-0.03
736.694	-0.06
736.873	-0.07
737.052	0.01
737.23	0.05
737.409	-0.12
737.587	0.15
737.766	-0.2
737.944	-0.12
738.123	0.05
738.301	0.09
738.479	-0.06
738.658	-0.19
738.836	-0.18
739.015	-0.06
739.193	0.09
739.371	-0.12
739.55	-0.12
739.728	-0.13
739.906	0.11
740.085	0.07
740.263	-0.05
740.441	-0.21
740.62	0.06
740.798	0.17
740.976	-0.16
741.154	-0.08
741.332	0.1
741.511	-0.13
741.689	0.06
741.867	0.09
742.045	-0.01
742.223	-0.11
742.401	-0.14
742.579	-0.01
742.757	0.04
742.935	-0.15
743.114	-0.1
743.292	-0.11
743.47	0.01
743.648	-0.06
743.826	0.01
744.004	0.05
744.181	0.09
744.359	-0.05
744.537	-0.03
744.715	-0.09
744.893	0.02
745.071	-0.09
745.249	-0.02
745.427	-0.03
745.605	-0.02
745.782	-0
745.96	0.03
746.138	-0
746.316	0.04
746.493	-0.12
746.671	0.01
746.849	-0.09
747.027	0.12
747.204	-0.11
747.382	-0
747.56	-0.08
747.737	-0.01
747.915	-0.17
748.093	0.04
748.27	-0.06
748.448	-0.2
748.625	-0.11
748.803	-0.09
748.98	-0.1
749.158	0
749.335	0.07
749.513	0
749.69	-0.01
749.868	-0.01
750.045	-0
750.223	-0.07
750.4	-0.22
750.578	0.07
750.755	-0.18
750.932	-0.14
751.11	0.03
751.287	-0.15
751.464	-0.01
751.642	-0.1
751.819	0.06
751.996	-0.03
752.173	-0.05
752.351	-0.11
752.528	0.01
752.705	-0.03
752.882	-0.13
753.06	0
753.237	-0.03
753.414	0.1
753.591	0.12
753.768	-0.04
753.945	-0.12
754.122	-0.08
754.299	-0.06
754.476	-0.11
754.654	0.03
754.831	0.11
755.008	0.04
755.185	-0.07
755.362	-0.15
755.539	0.05
755.716	-0.15
755.892	-0.04
756.069	0.01
756.246	-0.09
756.423	0.01
756.6	0.09
756.777	-0.08
756.954	0.04
757.131	-0.05
757.307	-0.16
757.484	-0.16
757.661	0.05
757.838	-0.06
758.015	-0.08
758.191	0.07
758.368	0.06
758.545	0.13
758.721	0.02
758.898	-0.07
759.075	-0.01
759.251	0.09
759.428	0.13
759.605	-0.17
759.781	-0.01
759.958	0.06
760.134	0.02
760.311	-0.11
760.488	0.14
760.664	0.04
760.841	-0.07
761.017	-0.05
761.194	0.03
761.37	0.05
761.547	-0.01
761.723	0.01
761.899	0.11
762.076	-0.12
762.252	-0.22
762.429	-0.12
762.605	0.1
762.781	-0.11
762.958	0.12
763.134	-0
763.31	0.05
763.486	-0.02
763.663	-0.12
763.839	0.02
764.015	-0.21
764.191	-0.08
764.368	0.02
764.544	-0.03
764.72	-0.1
764.896	0.1
765.072	0.02
765.248	-0.12
765.425	-0.13
765.601	-0.01
765.777	-0.09
765.953	-0.21
766.129	-0.14
766.305	-0.1
766.481	0.04
766.657	-0.09
766.833	0.14
767.009	-0.05
767.185	-0.01
767.361	-0.03
767.537	-0.24
767.713	0.13
767.889	-0.12
768.065	-0.09
768.24	-0.01
768.416	0.03
768.592	-0.14
768.768	-0.04
768.944	-0.14
769.12	-0.16
769.295	0
769.471	-0.09
769.647	-0.03
769.823	0.13
769.998	-0.14
770.174	-0.03
770.35	0.15
770.525	0.1
770.701	-0.01
770.877	-0.04
771.052	-0.18
771.228	0.08
771.403	0.03
771.579	0.06
771.755	0.23
771.93	-0.15
772.106	-0.12
772.281	-0.17
772.457	-0.08
772.632	-0.03
772.808	-0.19
772.983	-0.11
773.159	-0.22
773.334	0.3
773.509	-0.04
773.685	-0.09
773.86	0.28
774.036	0.19
774.211	-0.04
774.386	-0.11
774.562	0.03
774.737	-0.1
774.912	-0.23
775.087	0.15
775.263	0.11
775.438	-0.12
775.613	-0.11
775.788	-0.07
775.964	0.17
776.139	0.35
776.314	-0.23
776.489	-0.02
776.664	0.08
776.839	-0.15
777.014	0.19
777.19	0.18
777.365	0.11
777.54	0.08
777.715	-0.17
777.89	-0.04
778.065	-0.14
778.24	-0.16
778.415	0.16
778.59	-0.11
778.765	-0.18
778.94	-0.11
779.115	-0.1
779.289	-0.14
779.464	-0.02
779.639	-0.23
779.814	-0.29
779.989	-0.27
780.164	0.08
780.339	-0.03
780.513	-0.25
780.688	-0.17
780.863	-0.03
781.038	0.01
781.212	-0.1
781.387	0.05
781.562	0.33
781.737	-0.08
781.911	0.18
782.086	-0.21
782.261	-0.13
782.435	0.21
782.61	-0.16
782.784	-0.23
782.959	0.09
783.134	0.05
783.308	-0.11
783.483	-0.02
783.657	0.31
783.832	0.15
784.006	-0.43
784.181	-0.05
784.355	0.09
784.53	-0.26
784.704	-0.15
784.878	0.16
785.053	0.06
785.227	0.13
785.402	0.33
785.576	-0.42
785.75	0.03
785.925	-0.09
786.099	0.02
786.273	-0.09
786.448	-0.1
786.622	0.15
786.796	-0.08
786.97	-0.24
787.145	0.27
787.319	-0.4
787.493	-0.02
787.667	-0.26
787.841	-0.24
788.015	0.06
788.19	-0.29
788.364	-0.18
788.538	0.07
788.712	0.03
788.886	-0.13
789.06	0.23
789.234	0.26
789.408	-0.24
789.582	-0.01
789.756	-0.11
789.93	-0.19
790.104	-0.15
790.278	-0.16
790.452	-0.28
790.626	0.02
790.8	-0.22
790.973	0.06
791.147	0.03
791.321	0.13
791.495	0.18
791.669	-0.03
791.843	0.04
792.016	0.16
792.19	0.34
792.364	-0.22
792.538	0.28
792.711	0.19
792.885	-0.26
793.059	-0.24
793.233	-0.38
793.406	0.1
793.58	-0.05
793.754	0.06
793.927	-0.1
794.101	0.22
794.274	-0.18
794.448	0.06
794.622	-0.33
794.795	0.2
794.969	-0
795.142	0.2
795.316	-0.14
795.489	-0.25
795.663	0.23
795.836	0.09
796.009	-0.36
796.183	0.27
796.356	-0.15
796.53	-0.05
796.703	-0.15
796.876	0.37
797.05	0.01
797.223	0
797.396	-0.02
797.57	-0.12
797.743	0.13
797.916	0.08
798.09	-0.19
798.263	0.18
798.436	0.17
798.609	-0.07
798.782	0.16
798.956	-0.05
799.129	0
799.302	-0.12
799.475	-0.1
799.648	-0.31
799.821	-0.09
799.994	-0.11
800.167	-0.48
800.34	-0
800.514	0.16
800.687	-0.19
800.86	-0.26
801.033	-0.16
801.206	-0.09
801.379	-0.27
801.551	0.02
801.724	0.08
801.897	0.08
802.07	0.03
802.243	-0.49
802.416	-0.3
802.589	-0.26
802.762	0.07
802.935	0.03
803.107	0.41
803.28	0.35
803.453	0.17
803.626	-0.35
803.798	-0.14
803.971	-0.13
804.144	0.11
804.317	0.2
804.489	0.3
804.662	0.23
804.835	-0.44
805.007	-0.38
805.18	0.3
805.353	0.29
805.525	-0.24
805.698	0.01
805.87	0.31
806.043	0.23
806.215	-0.37
806.388	-0.25
806.56	-0.36
806.733	-0.06
806.905	-0.09
807.078	-0.21
807.25	-0.62
807.423	0.09
807.595	-0.02
807.768	0.03
807.94	0
808.112	-0.21
808.285	0.23
808.457	-0.69
808.629	0.06
808.802	0.18
808.974	0.16
809.146	-0.2
809.318	-0.33
809.491	0.12
809.663	-0.03
809.835	0.16
810.007	0.07
810.18	0.07
810.352	-0.47
810.524	-0.3
810.696	0.53
810.868	0.34
811.04	-0.51
811.212	0.02
811.384	0.11
811.556	-0.22
811.728	-0.05
811.901	0.68
812.073	-0.36
812.245	0.36
812.417	-0.23
812.589	-0.32
812.76	-0.1
812.932	0.25
813.104	0.26
813.276	-0.43
813.448	0.55
813.62	0.07
813.792	0.21
813.964	-0.21
814.136	0.03
814.307	-0.04
814.479	-0.23
814.651	-0.15
814.823	0.84
814.995	-0.35
815.166	0.07
815.338	-0.33
815.51	-0.47
815.681	0.84
815.853	-0.03
816.025	-0.16
816.196	0.5
816.368	0.35
816.54	-0.48
816.711	-0.15
816.883	-0.01
817.054	0.85
817.226	-0.84
817.398	-0.25
817.569	0.05
817.741	0.37
817.912	0.08
818.084	-0.32
818.255	0.54
818.426	-0.11
818.598	-0.19
818.769	-0.17
818.941	0.06
819.112	0.52
819.283	-0.02
819.455	-0.36
819.626	0.16
819.798	-0.06
819.969	0.05
820.14	-0.31
820.311	-0.32
820.483	0
820.654	0.25
820.825	-0.09
820.996	-0.09
821.168	-0.3
821.339	0.17
821.51	-0.7
821.681	0.16
821.852	-0.16
822.023	-0.56
822.195	-0.74
822.366	0.48
822.537	0.27
822.708	0.03
822.879	-0.55
823.05	0.33
823.221	-0.02
823.392	0.26
823.563	0.29
823.734	-0.07
823.905	-0.4
824.076	0.07
824.247	-0.79
824.418	-0.13
824.589	0.38
824.759	-0.28
824.93	0.24
825.101	-0.93
825.272	0.34
825.443	0.71
825.614	0.39
825.784	-0.93
825.955	0.82
826.126	0.55
826.297	-0.19
826.467	0.74
826.638	0.56
826.809	-1.11
826.98	-0.39
827.15	-0.12
827.321	0.23
827.492	1.44
827.662	-0.24
827.833	0.85
828.003	0.33
828.174	-0.41
828.345	-0.2
828.515	0.85
828.686	0.36
828.856	0.14
829.027	-0
829.197	0.07
829.368	-0.23
829.538	-0.45
829.709	-0.46
829.879	-0.06
830.049	-0.18
830.22	-0.69
830.39	-0.1
830.56	0.27
830.731	0.22
830.901	-0.74
831.072	-0.01
831.242	0.09
831.412	0.02
831.582	-0.31
831.753	-0.8
831.923	0.3
832.093	-0.16
832.263	-0.19
832.434	-0.49
832.604	-0.09
832.774	-0.04
832.944	-0.34
833.114	-1.12
833.284	0.15
833.454	-0.72
833.624	-0.3
833.795	-0.43
833.965	0.51
834.135	0.43
834.305	-0.58
834.475	-1.14
834.645	-0.14
834.815	-0.67
834.985	-0.27
835.155	-0.6
835.325	0.16
835.494	0.24
835.664	-0.23
835.834	-0.53
836.004	-0.81
836.174	-0.03
836.344	-0.08
836.514	-0.57
836.684	-0.54
836.853	-0.07
837.023	-0
837.193	-0.55
837.363	0.96
837.532	0.23
837.702	-0.33
837.872	-0.75
838.041	0.84
838.211	0.55
838.381	-0.62
838.55	-0.35
838.72	1.5
838.89	0.95
839.059	0.22
839.229	-0.15
839.398	0.87
839.568	0.06
839.738	-0.7
839.907	1.1
840.077	0.33
840.246	-0.42
840.416	-0.58
840.585	-0.42
840.755	0.78
840.924	0.73
841.093	-0.52
841.263	0.25
841.432	0.43
841.602	-0.38
841.771	-0.32
841.94	0.58
842.11	1.23
842.279	1.13
842.448	-1.3
842.617	-1.24
842.787	1.11
842.956	-1.41
843.125	0.22
843.294	0.49
843.464	0.96
843.633	-0.45
843.802	-1.14
843.971	-0.1
844.14	0.31
844.309	0.57
844.479	-0
844.648	-0.93
844.817	-0.85
844.986	0.01
845.155	-0.71
845.324	0.09
845.493	-0.1
845.662	-0.79
845.831	0.18
846	0.19
846.169	0.35
846.338	1.14
846.507	0.17
846.676	-0.15
846.844	-0.48
847.013	0.23
847.182	0.08
847.351	-0.76
847.52	-0.59
847.689	0.58
847.858	0.19
848.026	-0.4
848.195	-0.22
848.364	-0.61
848.533	-0.85
848.701	-0.14
848.87	-0.04
849.039	0.64
849.207	1.09
849.376	0.5
849.545	1.45
849.713	-0.73
849.882	-0.07
850.051	-0.45
850.219	0.48
850.388	-0.29
850.556	-0.6
850.725	-0.5
850.893	0.27
851.062	-0.11
851.23	0.05
851.399	-1.2
851.567	-0.02
851.736	-0.81
851.904	-1.3
852.073	0.38
852.241	-0.18
852.41	-0.5
852.578	-0.72
852.746	-0.64
852.915	0.33
853.083	0.23
853.251	-1.34
853.42	-1.83
853.588	-0.69
853.756	1.54
853.924	-0.13
854.093	-0.19
854.261	-0.43
854.429	-1.23
854.597	-0.09
854.765	-1.32
854.934	0.44
855.102	2
855.27	-0.24
855.438	0.65
855.606	1.62
855.774	1.53
855.942	-1.34
856.11	-2.51
856.278	-0.05
856.446	1.38
856.614	-0.33
856.782	-1.97
856.95	-0.09
857.118	1.64
857.286	-0.21
857.454	-1.19
857.622	0.51
857.79	0.86
857.958	-1.04
858.126	-0.3
858.294	-2.96
858.462	0.02
858.629	-1.4
858.797	-1.24
858.965	0.19
859.133	0.42
859.301	0.23
859.468	1.05
859.636	-0.8
859.804	0.68
859.971	1.03
860.139	0.26
860.307	0.73
860.474	-0.29
860.642	-0.79
860.81	-0.51
860.977	-0.81
861.145	0.63
861.313	-1.1
861.48	-0.41
861.648	-0.82
861.815	0.76
861.983	-1.62
862.15	-0.85
862.318	0.12
862.485	-0.09
862.653	-1.16
862.82	-0.8
862.988	1.52
863.155	1.05
863.322	-0.45
863.49	-2.63
863.657	-0.06
863.824	1.49
863.992	-0.15
864.159	0.49
864.326	1.67
864.494	-1.19
864.661	1.58
864.828	-0.12
864.996	0.47
865.163	1.85
865.33	-1.5
865.497	-3.41
865.664	1.31
865.832	-3.02
865.999	-0.65
866.166	-1.9
866.333	-1.01
866.5	-1.67
866.667	-0.82
866.834	-1.75
867.001	0.56
867.168	-1.44
867.335	-0.31
867.502	-1.39
867.669	0.07
867.836	2.26
868.003	-0.53
868.17	-0.89
868.337	1.43
868.504	2.07
868.671	-0.9
868.838	-0.68
869.005	1.2
869.172	0.66
869.339	0.07
869.505	-1.3
869.672	-0.25
869.839	0.32
870.006	0.4
870.173	-2.94
870.339	1.62
870.506	1.51
870.673	-0.96
870.84	1.17
871.006	-0.88
871.173	0.12
871.34	0.05
871.506	-2.45
871.673	0.72
871.839	-1.89
872.006	0.78
872.173	-1.03
872.339	0.57
872.506	2.62
872.672	-0.92
872.839	-0.36
873.005	-0.01
873.172	3.57
873.338	1.54
873.505	0.48
873.671	0.44
873.838	1.14
874.004	-2.88
874.171	-1.8
874.337	-0.2
874.503	2.28
874.67	-0.77
874.836	-1.79
875.002	1.48
875.169	0.13
875.335	-0.36
875.501	-2.22
875.668	1.24
875.834	-1.11
876	-0.78
876.166	-0.69
876.332	-0.73
876.499	3.54
876.665	-1.17
876.831	-0.14
876.997	3.05
877.163	-0.05
877.329	-0.32
877.495	-1.36
877.662	-0.72
877.828	-1.53
877.994	-1.63
878.16	-1.84
878.326	-0.6
878.492	-1.21
878.658	-1.86
878.824	0.3
878.99	0.06
879.156	1.05
879.322	1.86
879.487	-0.85
879.653	1.45
879.819	-0.31
879.985	-0.77
880.151	-0.29
880.317	-0.55
880.483	0.59
880.648	1.43
880.814	-2.6
880.98	0.87
881.146	-1.89
881.312	-1.47
881.477	0.27
881.643	-1.12
881.809	1.14
881.974	1.76
882.14	-3.84
882.306	-0.16
882.471	1.95
882.637	0.44
882.803	1.53
882.968	2.91
883.134	3.13
883.299	0.51
883.465	0.72
883.63	0.83
883.796	0.66
883.961	1.57
884.127	-0.42
884.292	-3.41
884.458	-2.61
884.623	-2.61
