Data from Apollo_Calib_20240827__AbsoluteIrradiance__208__02-37-02-990.txt Node

Date: Wed Aug 28 02:37:02 BST 2024
User: biology
Spectrometer: FLMT08252
Trigger mode: 0
Integration Time (sec): 5.000000E-1
Scans to average: 5
Electric dark correction enabled: true
Nonlinearity correction enabled: false
Boxcar width: 0
XAxis mode: Wavelengths
Number of Pixels in Spectrum: 3648
>>>>>Begin Spectral Data<<<<<
179.588	-0
179.809	-0
180.03	-0
180.251	-0
180.473	-0
180.694	0
180.915	0
181.136	-0
181.357	-0
181.578	-0
181.799	-0
182.02	-0
182.241	0
182.462	-0
182.683	0
182.904	-0
183.125	-0
183.346	0
183.567	0
183.788	0
184.009	-0
184.23	0
184.451	0
184.672	-0
184.892	-0
185.113	0
185.334	0
185.555	-0
185.776	0
185.996	0
186.217	0
186.438	0
186.659	-0
186.879	0
187.1	0
187.321	0
187.541	-0
187.762	0
187.983	0
188.203	0
188.424	0
188.644	0
188.865	0
189.086	-0
189.306	0
189.527	-0
189.747	0
189.968	-0
190.188	0
190.409	0
190.629	0
190.849	-0
191.07	-0
191.29	0
191.511	0
191.731	-0
191.951	-0
192.172	0
192.392	0
192.612	0
192.833	0
193.053	0
193.273	0
193.493	-0
193.714	0
193.934	0
194.154	0
194.374	0
194.594	0
194.815	0
195.035	0
195.255	0
195.475	-0
195.695	0
195.915	0
196.135	0
196.355	0
196.575	0
196.795	0
197.015	-0
197.235	-0
197.455	0
197.675	0
197.895	-0
198.115	0
198.335	0
198.555	0
198.775	0
198.995	0
199.214	0
199.434	0
199.654	0
199.874	0
200.094	0.9
200.313	0.24
200.533	-0.22
200.753	-0.4
200.973	0.72
201.192	0.35
201.412	-0.45
201.632	0.11
201.851	1.07
202.071	-0.09
202.291	-0.14
202.51	-0.08
202.73	0.45
202.95	0.07
203.169	-0.45
203.389	0.57
203.608	-0.05
203.828	-0.04
204.047	-0.29
204.267	0.5
204.486	0.31
204.706	0.16
204.925	0.22
205.145	0.12
205.364	0.46
205.583	0.71
205.803	0.02
206.022	-0.17
206.242	0.24
206.461	-0.06
206.68	-0.12
206.9	0.54
207.119	0.84
207.338	0.59
207.557	-0.1
207.777	-0.12
207.996	0.06
208.215	0.86
208.434	0.07
208.654	-0.28
208.873	0.6
209.092	0.84
209.311	0.11
209.53	0.18
209.749	0.17
209.968	0.05
210.187	0.08
210.407	-0.48
210.626	0.07
210.845	0.6
211.064	0.37
211.283	-0.15
211.502	0.62
211.721	0.37
211.94	-0.01
212.159	0.4
212.377	0.24
212.596	0.75
212.815	0.16
213.034	0.11
213.253	0.44
213.472	0.34
213.691	-0
213.91	-0.08
214.128	0.18
214.347	0.46
214.566	-0.39
214.785	-0.42
215.003	0.16
215.222	0.22
215.441	0.16
215.66	-0.32
215.878	0.22
216.097	0.4
216.316	0.01
216.534	0.1
216.753	0.3
216.972	0.06
217.19	0.08
217.409	-0.15
217.627	-0.08
217.846	-0.01
218.064	0.21
218.283	-0.11
218.501	0.56
218.72	0.38
218.938	-0.2
219.157	0.06
219.375	0.26
219.594	-0
219.812	-0.17
220.031	-0.11
220.249	0.49
220.467	0.37
220.686	0.05
220.904	0
221.122	-0.06
221.341	0.63
221.559	0.21
221.777	-0.12
221.995	0.06
222.214	0.2
222.432	-0.02
222.65	0.18
222.868	0.38
223.086	0.06
223.305	0.24
223.523	-0.01
223.741	0.41
223.959	-0.03
224.177	-0.16
224.395	0.08
224.613	0.14
224.831	0.27
225.049	-0.15
225.267	0.01
225.485	0.07
225.703	0.02
225.921	0.04
226.139	-0.07
226.357	0.25
226.575	0.11
226.793	-0.03
227.011	0.76
227.229	0.17
227.447	0.27
227.665	-0.05
227.883	-0.12
228.1	0.1
228.318	0.21
228.536	-0.14
228.754	-0
228.972	0.14
229.189	0.21
229.407	0.05
229.625	0.05
229.843	0.11
230.06	0.26
230.278	-0.03
230.496	0.07
230.713	0.12
230.931	0.34
231.149	-0.09
231.366	-0.11
231.584	0.05
231.801	0.45
232.019	0.05
232.236	-0.02
232.454	-0.14
232.671	0.19
232.889	0.02
233.106	-0.07
233.324	0.18
233.541	0.05
233.759	0.05
233.976	0
234.194	0.08
234.411	0.07
234.628	-0.02
234.846	0.05
235.063	0.06
235.28	0.08
235.498	0.09
235.715	-0.03
235.932	0.24
236.149	0.06
236.367	-0
236.584	0.05
236.801	0.02
237.018	0.17
237.236	0.15
237.453	-0.09
237.67	0.19
237.887	0.03
238.104	0.1
238.321	-0.13
238.538	0.03
238.755	0.16
238.973	-0.01
239.19	0.03
239.407	0.16
239.624	0.15
239.841	-0.07
240.058	-0.11
240.275	0.12
240.492	0.06
240.709	0.02
240.925	0.04
241.142	0.01
241.359	-0.06
241.576	-0.01
241.793	-0.03
242.01	0.04
242.227	0.09
242.444	0.07
242.66	0.17
242.877	0.09
243.094	-0.03
243.311	0.12
243.527	0.03
243.744	0.15
243.961	0.16
244.178	-0.03
244.394	0.09
244.611	0.2
244.828	0.29
245.044	-0.06
245.261	0.03
245.477	0.2
245.694	0.17
245.911	0.01
246.127	0.09
246.344	0.3
246.56	0.17
246.777	0.09
246.993	-0.01
247.21	0.13
247.426	-0.03
247.643	-0.05
247.859	-0.03
248.076	0.05
248.292	0.2
248.508	0.03
248.725	0.09
248.941	0.15
249.157	0.14
249.374	0.03
249.59	-0.02
249.806	0.03
250.023	0.22
250.239	-0.06
250.455	-0.08
250.671	0.02
250.888	0.09
251.104	0.06
251.32	0.07
251.536	0.02
251.752	0.04
251.969	0.04
252.185	0.11
252.401	0.25
252.617	-0.01
252.833	0
253.049	0.01
253.265	0.1
253.481	0.1
253.697	-0.02
253.913	0
254.129	0.08
254.345	0.1
254.561	0.05
254.777	0.04
254.993	0.1
255.209	0.05
255.425	0.07
255.641	0.05
255.857	0.13
256.073	0.09
256.288	-0.03
256.504	0
256.72	0.06
256.936	0.2
257.152	0.04
257.367	-0.09
257.583	0.03
257.799	0.18
258.015	-0.05
258.23	0.02
258.446	0.24
258.662	0.08
258.877	-0.03
259.093	0.02
259.309	0.07
259.524	0.09
259.74	-0.01
259.955	-0.06
260.171	0.05
260.387	0.06
260.602	0.11
260.818	0.06
261.033	-0.02
261.249	0.01
261.464	0.01
261.68	-0.04
261.895	0.14
262.11	0.09
262.326	0.05
262.541	-0.01
262.757	0.12
262.972	0.12
263.187	0.13
263.403	0.05
263.618	0.18
263.833	0.06
264.049	-0.03
264.264	0.04
264.479	0.16
264.694	0.22
264.91	-0.01
265.125	0.06
265.34	0.1
265.555	0.22
265.77	0.1
265.986	-0.03
266.201	0.17
266.416	0.19
266.631	0.01
266.846	0.02
267.061	0.13
267.276	0.06
267.491	-0.02
267.706	0.06
267.921	0.11
268.136	0.07
268.351	0.04
268.566	-0.05
268.781	0.16
268.996	0.15
269.211	0.01
269.426	0.02
269.641	0.08
269.856	0.12
270.071	-0.03
270.285	-0.05
270.5	0.16
270.715	0.08
270.93	0.03
271.145	0.08
271.359	0.17
271.574	0.11
271.789	0.04
272.004	-0.01
272.218	0.04
272.433	0.09
272.648	0
272.862	0.11
273.077	0.03
273.292	0.04
273.506	0.03
273.721	0.04
273.936	0.11
274.15	0.13
274.365	0.03
274.579	0.08
274.794	0.07
275.008	0.09
275.223	-0.05
275.437	0.02
275.652	0.05
275.866	0.11
276.081	0.04
276.295	0.15
276.509	0.04
276.724	0.07
276.938	0.05
277.153	0.08
277.367	0.11
277.581	-0.03
277.796	0.03
278.01	-0.03
278.224	0.15
278.438	0.18
278.653	-0.01
278.867	0.03
279.081	-0.12
279.295	0.06
279.51	0.08
279.724	-0.04
279.938	0.1
280.152	0.08
280.366	0.01
280.58	0.02
280.794	0.21
281.008	0.12
281.222	0.13
281.437	0.16
281.651	0.03
281.865	0.15
282.079	-0.01
282.293	-0.11
282.507	-0.02
282.721	0.07
282.935	0.03
283.148	-0.05
283.362	0.03
283.576	0
283.79	0.03
284.004	-0.04
284.218	0.17
284.432	0.01
284.646	-0.02
284.859	0.04
285.073	0.03
285.287	0.07
285.501	0.07
285.714	0.01
285.928	0.09
286.142	0.06
286.356	0
286.569	-0
286.783	0.13
286.997	0.06
287.21	0.01
287.424	0.09
287.637	0.05
287.851	0.06
288.065	0.09
288.278	0.06
288.492	0.07
288.705	0.06
288.919	0.1
289.132	-0.04
289.346	0.13
289.559	0
289.773	0.02
289.986	-0.01
290.2	0.06
290.413	0.12
290.626	0.03
290.84	0.01
291.053	0.04
291.267	0.18
291.48	0.01
291.693	0.04
291.906	0.03
292.12	0.02
292.333	0.02
292.546	0.02
292.76	0.13
292.973	0.05
293.186	0.15
293.399	0.03
293.612	0.08
293.826	0.05
294.039	0.03
294.252	0.02
294.465	0.07
294.678	0.08
294.891	0.1
295.104	0.03
295.317	0.06
295.53	0.07
295.743	0.04
295.956	0.01
296.169	0.13
296.382	0.11
296.595	0.04
296.808	-0.01
297.021	0.09
297.234	0.1
297.447	0.07
297.66	0.02
297.873	0.12
298.086	0.12
298.299	0.04
298.511	0.02
298.724	0.08
298.937	0.01
299.15	0.01
299.363	0.07
299.575	0.06
299.788	0.09
300.001	0.01
300.213	-0.02
300.426	0.04
300.639	0.02
300.852	0.04
301.064	0.09
301.277	0.08
301.489	0.15
301.702	0.11
301.915	0.09
302.127	0.04
302.34	0.08
302.552	0.08
302.765	0.06
302.977	0.09
303.19	0.06
303.402	0.01
303.615	0.03
303.827	0.03
304.04	0.02
304.252	0.1
304.464	0.04
304.677	0.15
304.889	0.08
305.102	-0.01
305.314	0.02
305.526	0.11
305.739	0.07
305.951	-0.03
306.163	0.01
306.375	0.13
306.588	0.04
306.8	0.01
307.012	0.01
307.224	0.06
307.436	0.11
307.649	-0.02
307.861	0.04
308.073	0.1
308.285	0.04
308.497	-0.01
308.709	0.05
308.921	0.04
309.133	0.08
309.346	0.09
309.558	0.04
309.77	0.11
309.982	0.13
310.194	0.08
310.406	-0.02
310.617	0.11
310.829	0.08
311.041	0.05
311.253	0.02
311.465	0.01
311.677	0.06
311.889	0.06
312.101	0.02
312.313	0.09
312.524	0.12
312.736	0
312.948	0.04
313.16	0.16
313.372	0.1
313.583	0.09
313.795	0.03
314.007	-0.01
314.218	0.05
314.43	0.06
314.642	0
314.853	-0.03
315.065	0.13
315.277	0.05
315.488	0.04
315.7	0.12
315.912	0.05
316.123	0.06
316.335	0.07
316.546	0.17
316.758	0.08
316.969	0.03
317.181	0.06
317.392	0.05
317.604	0.12
317.815	0.01
318.026	0.01
318.238	0.04
318.449	0.11
318.661	-0.03
318.872	0.02
319.083	0.02
319.295	0.15
319.506	0.04
319.717	0.05
319.929	0.1
320.14	0.04
320.351	0.06
320.562	-0
320.774	0.12
320.985	0.08
321.196	0.04
321.407	0.01
321.618	0.1
321.829	0.09
322.041	0.09
322.252	0.03
322.463	0.06
322.674	0.11
322.885	0.01
323.096	-0
323.307	0.08
323.518	0.11
323.729	0.03
323.94	0.06
324.151	0.03
324.362	0.08
324.573	0.11
324.784	0.04
324.995	0.09
325.206	0.07
325.417	0.04
325.628	0.02
325.838	0.04
326.049	0.08
326.26	0.12
326.471	0.02
326.682	0.09
326.892	0.11
327.103	-0.01
327.314	0.01
327.525	0.12
327.735	0.06
327.946	0.04
328.157	-0.01
328.368	0.1
328.578	0.05
328.789	0.09
328.999	0.08
329.21	0.05
329.421	0.11
329.631	0.02
329.842	0.05
330.052	0.11
330.263	0.1
330.473	0.11
330.684	0.03
330.894	0.06
331.105	0.05
331.315	0.11
331.526	0.01
331.736	0.14
331.947	0.07
332.157	0.09
332.367	0.03
332.578	0.08
332.788	0.1
332.999	0.08
333.209	0.08
333.419	0
333.629	0.06
333.84	0.08
334.05	0.05
334.26	0.12
334.47	0.08
334.681	0.09
334.891	0.04
335.101	0.09
335.311	0.12
335.521	0.11
335.732	0.01
335.942	0.13
336.152	0.08
336.362	0.08
336.572	0.05
336.782	0.1
336.992	0.04
337.202	0.04
337.412	0.03
337.622	0.07
337.832	0.06
338.042	0.08
338.252	0.04
338.462	0.02
338.672	0.04
338.882	0.03
339.092	0.02
339.302	0.08
339.511	0.13
339.721	0.04
339.931	0.02
340.141	0.12
340.351	0.1
340.561	0.07
340.77	0.04
340.98	0.05
341.19	0.1
341.4	0.04
341.609	0.01
341.819	0.07
342.029	-0.01
342.238	0.08
342.448	0.04
342.658	0.1
342.867	0.1
343.077	0.04
343.286	0.06
343.496	0.08
343.706	0.15
343.915	0.04
344.125	0.06
344.334	0.09
344.544	0
344.753	0.06
344.963	0.01
345.172	0.02
345.381	0.03
345.591	0.03
345.8	0.05
346.01	0.1
346.219	0.12
346.428	-0.06
346.638	0.02
346.847	0.07
347.056	0.14
347.266	0.01
347.475	0.1
347.684	0.09
347.893	0.09
348.103	0.1
348.312	0.04
348.521	0.09
348.73	0.05
348.94	0.08
349.149	0.04
349.358	0.02
349.567	0.05
349.776	-0.03
349.985	0.06
350.194	0.11
350.403	0.12
350.612	0.06
350.821	0.04
351.03	0.06
351.239	0.03
351.448	0.07
351.657	0.01
351.866	0.11
352.075	0.07
352.284	0.1
352.493	0.05
352.702	0.13
352.911	0.06
353.12	0.04
353.329	0.02
353.538	0.1
353.746	0.09
353.955	0.03
354.164	0.09
354.373	0.11
354.582	0.1
354.79	0.1
354.999	0.1
355.208	0.04
355.416	0.16
355.625	-0.02
355.834	0.03
356.042	0.07
356.251	0.05
356.46	0.01
356.668	0.11
356.877	0.2
357.085	0.13
357.294	0.02
357.503	0.09
357.711	0.09
357.92	0.19
358.128	0.07
358.337	0.06
358.545	0.09
358.754	0.05
358.962	0.1
359.17	0.05
359.379	0.09
359.587	0.07
359.796	0.06
360.004	0.13
360.212	0.09
360.421	0.12
360.629	0.07
360.837	0.06
361.046	0.14
361.254	0.18
361.462	0.11
361.67	0.06
361.879	0.11
362.087	0.16
362.295	0.08
362.503	0.03
362.711	0.03
362.92	0.05
363.128	0.07
363.336	0.03
363.544	0.04
363.752	0.12
363.96	0.04
364.168	0.02
364.376	0.08
364.584	0.08
364.792	0.1
365	0.08
365.208	0.08
365.416	0.09
365.624	0.1
365.832	0.07
366.04	0.14
366.248	0.11
366.456	0.14
366.664	0.14
366.872	0.08
367.079	0.07
367.287	0.06
367.495	0.11
367.703	0.09
367.911	0.06
368.118	0.05
368.326	0.09
368.534	0.06
368.742	0.15
368.949	0.05
369.157	0.04
369.365	0.13
369.572	0.06
369.78	0.09
369.988	0.13
370.195	0.12
370.403	0.13
370.61	0.1
370.818	0.1
371.026	0.18
371.233	0.09
371.441	0.1
371.648	0.06
371.856	0.11
372.063	0.12
372.271	0.09
372.478	0.07
372.685	0.04
372.893	0.13
373.1	0.12
373.308	0.08
373.515	0.19
373.722	0.17
373.93	0.12
374.137	0.15
374.344	0.2
374.552	0.16
374.759	0.19
374.966	0.1
375.173	0.09
375.381	0.22
375.588	0.14
375.795	0.02
376.002	0.1
376.209	0.1
376.417	0.09
376.624	0.15
376.831	0.13
377.038	0.12
377.245	0.02
377.452	0.14
377.659	0.13
377.866	0.11
378.073	0.15
378.28	0.13
378.487	0.17
378.694	0.17
378.901	0.14
379.108	0.13
379.315	0.17
379.522	0.25
379.729	0.18
379.936	0.15
380.143	0.18
380.35	0.17
380.557	0.13
380.763	0.18
380.97	0.19
381.177	0.2
381.384	0.22
381.591	0.18
381.797	0.18
382.004	0.21
382.211	0.22
382.418	0.21
382.624	0.24
382.831	0.23
383.038	0.19
383.244	0.2
383.451	0.18
383.658	0.27
383.864	0.26
384.071	0.24
384.277	0.31
384.484	0.24
384.69	0.3
384.897	0.28
385.103	0.28
385.31	0.29
385.516	0.27
385.723	0.29
385.929	0.37
386.136	0.29
386.342	0.37
386.549	0.39
386.755	0.43
386.961	0.47
387.168	0.41
387.374	0.43
387.58	0.52
387.787	0.47
387.993	0.54
388.199	0.52
388.406	0.5
388.612	0.54
388.818	0.6
389.024	0.55
389.231	0.63
389.437	0.77
389.643	0.7
389.849	0.73
390.055	0.75
390.261	0.81
390.467	0.84
390.674	0.89
390.88	0.86
391.086	1.02
391.292	1.05
391.498	1.09
391.704	1.16
391.91	1.17
392.116	1.2
392.322	1.14
392.528	1.38
392.734	1.33
392.94	1.51
393.146	1.55
393.352	1.65
393.557	1.68
393.763	1.77
393.969	1.85
394.175	1.92
394.381	2.06
394.587	2.08
394.792	2.2
394.998	2.38
395.204	2.56
395.41	2.61
395.615	2.74
395.821	2.94
396.027	3.06
396.233	3.24
396.438	3.32
396.644	3.63
396.85	3.7
397.055	3.97
397.261	4.13
397.466	4.37
397.672	4.37
397.878	4.62
398.083	4.76
398.289	4.9
398.494	5.08
398.7	5.3
398.905	5.3
399.111	5.82
399.316	5.81
399.522	6.18
399.727	6.32
399.932	6.58
400.138	6.79
400.343	7.21
400.549	7.22
400.754	7.79
400.959	7.97
401.165	8.42
401.37	8.78
401.575	9.42
401.78	9.36
401.986	9.7
402.191	10.28
402.396	10.54
402.601	10.98
402.807	11.49
403.012	11.71
403.217	12.42
403.422	12.52
403.627	13.07
403.832	13.73
404.037	13.85
404.243	13.97
404.448	14.59
404.653	15.23
404.858	15.38
405.063	15.05
405.268	15.86
405.473	15.98
405.678	16.35
405.883	17.01
406.088	17.16
406.293	17.08
406.498	17.77
406.703	17.65
406.907	18.03
407.112	18.74
407.317	19.27
407.522	19.51
407.727	19.87
407.932	19.74
408.136	20.45
408.341	19.96
408.546	20.13
408.751	20.2
408.956	20.25
409.16	20.52
409.365	20.34
409.57	19.79
409.774	19.82
409.979	19.74
410.184	19.57
410.388	19.29
410.593	19.65
410.798	19.56
411.002	19.4
411.207	19.08
411.411	18.93
411.616	18.31
411.82	18.42
412.025	17.82
412.229	17.75
412.434	17.16
412.638	16.83
412.843	16.43
413.047	15.99
413.252	15.61
413.456	15.69
413.66	14.93
413.865	14.66
414.069	14.14
414.273	14.16
414.478	13.52
414.682	13.27
414.886	12.89
415.091	12.45
415.295	12.21
415.499	12
415.703	11.47
415.908	11.29
416.112	10.88
416.316	10.89
416.52	10.57
416.724	10.15
416.929	9.98
417.133	10.13
417.337	9.45
417.541	9.41
417.745	9.1
417.949	8.94
418.153	8.72
418.357	8.57
418.561	8.56
418.765	8.24
418.969	8.04
419.173	8.15
419.377	7.72
419.581	7.73
419.785	7.58
419.989	7.29
420.193	7.36
420.397	7.05
420.601	6.95
420.804	6.74
421.008	6.53
421.212	6.51
421.416	6.12
421.62	6.02
421.823	5.76
422.027	5.79
422.231	5.35
422.435	5.23
422.638	5.13
422.842	5.03
423.046	4.83
423.249	4.78
423.453	4.54
423.657	4.52
423.86	4.42
424.064	4.28
424.268	4.22
424.471	4
424.675	4.04
424.878	3.9
425.082	3.74
425.285	3.83
425.489	3.54
425.692	3.57
425.896	3.33
426.099	3.3
426.303	3.28
426.506	3.11
426.71	3.18
426.913	3.19
427.116	3.06
427.32	2.91
427.523	2.87
427.726	2.91
427.93	2.7
428.133	2.83
428.336	2.67
428.54	2.63
428.743	2.6
428.946	2.69
429.149	2.51
429.353	2.48
429.556	2.37
429.759	2.29
429.962	2.18
430.165	2.22
430.368	2.05
430.571	1.98
430.775	1.89
430.978	1.86
431.181	1.81
431.384	1.8
431.587	1.73
431.79	1.75
431.993	1.73
432.196	1.66
432.399	1.7
432.602	1.75
432.805	1.64
433.008	1.69
433.211	1.55
433.414	1.65
433.616	1.66
433.819	1.54
434.022	1.46
434.225	1.58
434.428	1.55
434.631	1.65
434.833	1.41
435.036	1.39
435.239	1.44
435.442	1.35
435.645	1.33
435.847	1.33
436.05	1.36
436.253	1.31
436.455	1.2
436.658	1.24
436.861	1.28
437.063	1.16
437.266	1.09
437.468	1.12
437.671	1.21
437.874	1.07
438.076	1.08
438.279	0.97
438.481	1.08
438.684	0.94
438.886	0.99
439.089	0.94
439.291	0.98
439.494	1.03
439.696	0.87
439.899	0.96
440.101	0.99
440.303	0.87
440.506	0.98
440.708	0.9
440.91	0.99
441.113	0.91
441.315	0.89
441.517	0.76
441.72	0.88
441.922	0.72
442.124	0.73
442.326	0.82
442.529	0.84
442.731	0.72
442.933	0.8
443.135	0.71
443.337	0.61
443.539	0.67
443.742	0.63
443.944	0.65
444.146	0.57
444.348	0.61
444.55	0.57
444.752	0.65
444.954	0.5
445.156	0.64
445.358	0.55
445.56	0.59
445.762	0.56
445.964	0.59
446.166	0.5
446.368	0.49
446.57	0.58
446.772	0.53
446.974	0.46
447.175	0.53
447.377	0.49
447.579	0.46
447.781	0.41
447.983	0.55
448.184	0.46
448.386	0.49
448.588	0.38
448.79	0.39
448.991	0.4
449.193	0.42
449.395	0.44
449.597	0.48
449.798	0.41
450	0.46
450.202	0.43
450.403	0.4
450.605	0.44
450.806	0.4
451.008	0.33
451.21	0.36
451.411	0.37
451.613	0.38
451.814	0.37
452.016	0.43
452.217	0.38
452.419	0.43
452.62	0.31
452.821	0.38
453.023	0.44
453.224	0.33
453.426	0.36
453.627	0.34
453.828	0.39
454.03	0.32
454.231	0.39
454.432	0.31
454.634	0.44
454.835	0.31
455.036	0.3
455.238	0.35
455.439	0.43
455.64	0.3
455.841	0.28
456.042	0.45
456.244	0.36
456.445	0.33
456.646	0.25
456.847	0.3
457.048	0.38
457.249	0.4
457.45	0.62
457.651	0.28
457.852	0.36
458.054	0.34
458.255	0.25
458.456	0.39
458.657	0.35
458.858	0.27
459.058	0.36
459.259	0.36
459.46	0.3
459.661	0.28
459.862	0.48
460.063	0.29
460.264	0.39
460.465	0.24
460.666	0.43
460.866	0.27
461.067	0.26
461.268	0.28
461.469	0.24
461.67	0.29
461.87	0.24
462.071	0.29
462.272	0.28
462.473	0.29
462.673	0.37
462.874	0.27
463.075	0.34
463.275	0.25
463.476	0.35
463.676	0.34
463.877	0.29
464.078	0.3
464.278	0.32
464.479	0.29
464.679	0.32
464.88	0.3
465.08	0.38
465.281	0.23
465.481	0.23
465.682	0.28
465.882	0.33
466.083	0.33
466.283	0.26
466.483	0.29
466.684	0.19
466.884	0.22
467.085	0.25
467.285	0.3
467.485	0.28
467.686	0.23
467.886	0.22
468.086	0.24
468.286	0.28
468.487	0.31
468.687	0.26
468.887	0.24
469.087	0.31
469.287	0.25
469.488	0.2
469.688	0.28
469.888	0.27
470.088	0.26
470.288	0.31
470.488	0.33
470.688	0.21
470.888	0.21
471.088	0.19
471.288	0.26
471.488	0.25
471.688	0.24
471.888	0.17
472.088	0.32
472.288	0.26
472.488	0.19
472.688	0.18
472.888	0.26
473.088	0.28
473.288	0.26
473.488	0.26
473.688	0.29
473.887	0.19
474.087	0.18
474.287	0.2
474.487	0.22
474.687	0.26
474.886	0.22
475.086	0.22
475.286	0.21
475.486	0.21
475.685	0.23
475.885	0.2
476.085	0.21
476.284	0.22
476.484	0.2
476.684	0.22
476.883	0.23
477.083	0.22
477.282	0.13
477.482	0.24
477.681	0.22
477.881	0.18
478.08	0.18
478.28	0.13
478.479	0.21
478.679	0.26
478.878	0.13
479.078	0.16
479.277	0.15
479.477	0.19
479.676	0.22
479.875	0.14
480.075	0.1
480.274	0.2
480.473	0.17
480.673	0.15
480.872	0.17
481.071	0.17
481.271	0.16
481.47	0.13
481.669	0.12
481.868	0.14
482.067	0.12
482.267	0.11
482.466	0.12
482.665	0.12
482.864	0.14
483.063	0.12
483.262	0.15
483.461	0.18
483.661	0.15
483.86	0.14
484.059	0.15
484.258	0.13
484.457	0.1
484.656	0.13
484.855	0.19
485.054	0.08
485.253	0.09
485.452	0.1
485.651	0.1
485.849	0.13
486.048	0.09
486.247	0.09
486.446	0.14
486.645	0.08
486.844	0.11
487.043	0.11
487.241	0.14
487.44	0.09
487.639	0.12
487.838	0.15
488.037	0.12
488.235	0.16
488.434	0.12
488.633	0.07
488.831	0.11
489.03	0.13
489.229	0.13
489.427	0.08
489.626	0.16
489.825	0.18
490.023	0.1
490.222	0.09
490.42	0.15
490.619	0.12
490.817	0.1
491.016	0.1
491.214	0.14
491.413	0.1
491.611	0.07
491.81	0.06
492.008	0.15
492.207	0.13
492.405	0.11
492.604	0.05
492.802	0.08
493	0.11
493.199	0.06
493.397	0.1
493.595	0.09
493.794	0.1
493.992	0.15
494.19	0.08
494.388	0.13
494.587	0.08
494.785	0.08
494.983	0.05
495.181	0.11
495.379	0.1
495.578	0.08
495.776	0.13
495.974	0.09
496.172	0.09
496.37	0.09
496.568	0.04
496.766	0.06
496.964	0.14
497.162	0.09
497.36	0.06
497.558	0.09
497.756	0.1
497.954	0.09
498.152	0.06
498.35	0.09
498.548	0.09
498.746	0.1
498.944	0.08
499.142	0.05
499.34	0.05
499.538	0.11
499.736	0.08
499.933	0.12
500.131	0.1
500.329	0.07
500.527	0.08
500.725	0.12
500.922	0.13
501.12	0.09
501.318	0.05
501.516	0.08
501.713	0.1
501.911	0.07
502.109	0.05
502.306	0.1
502.504	0.07
502.701	0.06
502.899	0.08
503.097	0.13
503.294	0.1
503.492	0.08
503.689	0.1
503.887	0.11
504.084	0.15
504.282	0.11
504.479	0.06
504.677	0.08
504.874	0.06
505.072	0.08
505.269	0.07
505.466	0.1
505.664	0.08
505.861	0.03
506.059	0.06
506.256	0.09
506.453	0.08
506.651	0.14
506.848	0.11
507.045	0.08
507.242	0.08
507.44	0.06
507.637	0.07
507.834	0.08
508.031	0.07
508.229	0.03
508.426	0.08
508.623	0.09
508.82	0.05
509.017	0.05
509.214	0.07
509.411	0.08
509.608	0.05
509.805	0.07
510.003	0.05
510.2	0.05
510.397	0.08
510.594	0.05
510.791	0.07
510.988	0.06
511.184	0.1
511.381	0.08
511.578	0.04
511.775	0.1
511.972	0.06
512.169	0.06
512.366	0.05
512.563	0.07
512.76	0.04
512.956	0.06
513.153	0.05
513.35	0.06
513.547	0.05
513.744	0.05
513.94	0.04
514.137	0.09
514.334	0.08
514.53	0.05
514.727	0.06
514.924	0.13
515.12	0.04
515.317	0
515.514	0.06
515.71	0.02
515.907	0.06
516.103	0.05
516.3	0.06
516.497	0.08
516.693	0.07
516.89	0.04
517.086	0.04
517.283	0.05
517.479	0.06
517.676	0.03
517.872	0.03
518.068	0.03
518.265	0.04
518.461	0.03
518.658	0.03
518.854	0.07
519.05	0.04
519.247	0.04
519.443	0.06
519.639	0.05
519.836	0.06
520.032	0.06
520.228	0.03
520.424	0.08
520.621	0.06
520.817	0.03
521.013	0.05
521.209	0.07
521.405	0.07
521.601	0.05
521.798	0.04
521.994	0.11
522.19	0.04
522.386	-0
522.582	0.05
522.778	0.04
522.974	0.04
523.17	0.04
523.366	0.06
523.562	0.06
523.758	0.04
523.954	0.01
524.15	0.03
524.346	0.08
524.542	0.04
524.738	0.01
524.934	0.03
525.129	0.05
525.325	0.06
525.521	0.04
525.717	0.07
525.913	0.04
526.109	0.05
526.304	0.03
526.5	0.04
526.696	0.08
526.892	0.06
527.087	0.05
527.283	0.02
527.479	0.05
527.674	0.05
527.87	0.05
528.066	0.03
528.261	0.07
528.457	0.05
528.653	0.02
528.848	0.03
529.044	0.05
529.239	0.04
529.435	0.06
529.63	0.04
529.826	0.1
530.021	0.06
530.217	0.06
530.412	0.03
530.608	0.01
530.803	0.06
530.999	0.03
531.194	-0.02
531.389	0.05
531.585	-0.01
531.78	0.05
531.975	0.03
532.171	0.07
532.366	0.05
532.561	0.04
532.757	0.03
532.952	0.01
533.147	0.06
533.342	0.05
533.538	0.03
533.733	0.04
533.928	0.03
534.123	0.02
534.318	-0.01
534.513	0.02
534.709	0.03
534.904	0.02
535.099	0.03
535.294	0.03
535.489	0.03
535.684	0.04
535.879	-0.02
536.074	0.04
536.269	0.02
536.464	0.04
536.659	0.04
536.854	0.04
537.049	0.05
537.244	0.05
537.439	0.04
537.634	0.08
537.828	0.03
538.023	0.01
538.218	0.02
538.413	0.03
538.608	0.01
538.803	0.05
538.997	0.01
539.192	0.07
539.387	0.06
539.582	0.07
539.776	0.04
539.971	0.02
540.166	0.01
540.36	0.01
540.555	0.03
540.75	0.01
540.944	0.04
541.139	0.01
541.334	0.02
541.528	0.07
541.723	0.05
541.917	0.01
542.112	-0.02
542.306	0.01
542.501	0.01
542.695	0.04
542.89	0.02
543.084	0.04
543.279	0.01
543.473	0.03
543.668	0.04
543.862	0.04
544.056	0.05
544.251	0.05
544.445	0.06
544.64	0.04
544.834	0
545.028	0.02
545.222	0.04
545.417	0.07
545.611	0.04
545.805	0.02
546	0.02
546.194	0.03
546.388	0.02
546.582	0.03
546.776	0.03
546.97	0.03
547.165	0.06
547.359	0.04
547.553	0.02
547.747	0.04
547.941	0.05
548.135	0.01
548.329	0.02
548.523	0.04
548.717	0.04
548.911	0.04
549.105	0.02
549.299	0.02
549.493	0.05
549.687	0.05
549.881	0.04
550.075	0.02
550.269	-0.01
550.463	0.04
550.657	0.01
550.85	0.04
551.044	0
551.238	0.06
551.432	0
551.626	-0.01
551.82	0.05
552.013	-0.01
552.207	0.01
552.401	0.07
552.594	0.03
552.788	0.05
552.982	0.02
553.176	0.01
553.369	0.03
553.563	0.04
553.756	-0.01
553.95	0
554.144	0.02
554.337	0.05
554.531	0.04
554.724	0.04
554.918	0.02
555.111	0.04
555.305	0.02
555.498	0.09
555.692	0.03
555.885	0.02
556.079	0.03
556.272	0.01
556.466	0.05
556.659	0.04
556.852	0.04
557.046	0.02
557.239	0.04
557.432	-0.01
557.626	0.02
557.819	0.03
558.012	0.05
558.206	0.05
558.399	0.04
558.592	0.04
558.785	0.03
558.979	0.05
559.172	0.05
559.365	0.05
559.558	0.05
559.751	0.02
559.944	-0
560.138	0.02
560.331	0.01
560.524	0
560.717	0.02
560.91	0.01
561.103	0.07
561.296	0.01
561.489	0.04
561.682	0.04
561.875	0.05
562.068	0.04
562.261	0.03
562.454	0.07
562.647	0.04
562.84	0.04
563.032	0.01
563.225	0.05
563.418	0.01
563.611	0.02
563.804	0.04
563.997	0.01
564.19	-0.01
564.382	-0
564.575	0.01
564.768	-0
564.961	0.04
565.153	0
565.346	0.05
565.539	0.06
565.731	0.05
565.924	0.03
566.117	0.05
566.309	0.02
566.502	0.01
566.695	-0
566.887	0.03
567.08	0.01
567.272	0.02
567.465	0.02
567.657	0.01
567.85	0.05
568.042	0.03
568.235	0.05
568.427	0.02
568.62	0.04
568.812	0.02
569.005	0.02
569.197	-0.02
569.389	0.03
569.582	0.03
569.774	0.05
569.966	-0.01
570.159	0.02
570.351	0.03
570.543	-0.02
570.736	0.03
570.928	-0.01
571.12	0.03
571.312	0
571.505	-0.01
571.697	0.07
571.889	-0.01
572.081	0.01
572.273	0
572.465	0.06
572.658	0
572.85	0.03
573.042	0
573.234	0.03
573.426	0.06
573.618	0
573.81	0.01
574.002	0.05
574.194	0.06
574.386	-0.02
574.578	-0.03
574.77	-0.01
574.962	0.04
575.154	-0.02
575.346	0.01
575.538	0.04
575.729	-0.01
575.921	-0.01
576.113	0.03
576.305	0.05
576.497	0.04
576.689	0.03
576.88	-0
577.072	0.04
577.264	0.01
577.456	0.03
577.647	-0.04
577.839	0.04
578.031	0.06
578.223	0
578.414	-0.01
578.606	0.05
578.798	0.04
578.989	-0.01
579.181	0.06
579.372	0.01
579.564	0.02
579.755	0.04
579.947	0.02
580.139	0.03
580.33	-0.03
580.522	-0.01
580.713	-0.04
580.905	0.02
581.096	0.04
581.287	0.01
581.479	0
581.67	0.04
581.862	0.03
582.053	-0.01
582.244	-0.03
582.436	0.02
582.627	0.03
582.818	-0
583.01	0.01
583.201	0.02
583.392	0.02
583.583	0.02
583.775	0.02
583.966	0.01
584.157	0.02
584.348	0.01
584.54	-0.03
584.731	0.04
584.922	-0
585.113	-0.02
585.304	0.06
585.495	0.05
585.686	0.01
585.877	0.04
586.068	0
586.259	0.05
586.45	0.02
586.641	-0.01
586.832	-0.06
587.023	0.04
587.214	0.02
587.405	-0
587.596	-0.03
587.787	0.06
587.978	0.05
588.169	-0.02
588.36	-0.01
588.551	0.02
588.742	0.01
588.932	0.02
589.123	-0.01
589.314	0.05
589.505	0.04
589.696	0.03
589.886	-0.01
590.077	-0.03
590.268	0.02
590.458	-0.02
590.649	-0.04
590.84	0.05
591.03	-0.01
591.221	-0.03
591.412	-0.02
591.602	0.05
591.793	0.06
591.984	-0.03
592.174	0.01
592.365	0.11
592.555	-0.01
592.746	0.02
592.936	0.03
593.127	0.07
593.317	0.07
593.508	-0
593.698	-0.01
593.889	0.02
594.079	0.02
594.269	-0.01
594.46	-0
594.65	-0.01
594.84	0.02
595.031	-0.03
595.221	-0
595.411	-0.02
595.602	0.06
595.792	-0
595.982	-0.02
596.172	0.06
596.363	-0.01
596.553	0.01
596.743	0.01
596.933	0.01
597.123	0.04
597.314	0
597.504	-0.02
597.694	0.07
597.884	0.05
598.074	0
598.264	-0.02
598.454	0.03
598.644	0.01
598.834	0.01
599.024	-0.06
599.214	0.02
599.404	0.08
599.594	0
599.784	-0.02
599.974	0.09
600.164	0.04
600.354	-0.02
600.544	-0.03
600.734	0.02
600.924	0.06
601.114	-0.03
601.303	0.01
601.493	0
601.683	-0.01
601.873	0.06
602.063	-0.04
602.252	0.04
602.442	-0.03
602.632	0.02
602.821	-0.03
603.011	0.03
603.201	0.01
603.39	-0.02
603.58	0.01
603.77	0.03
603.959	0.05
604.149	0.05
604.339	0.01
604.528	0.04
604.718	0.02
604.907	-0.01
605.097	-0.02
605.286	-0.01
605.476	0.02
605.665	0.03
605.855	0.03
606.044	0.07
606.234	0.03
606.423	0.01
606.612	-0
606.802	0.03
606.991	0.03
607.181	0.01
607.37	-0.03
607.559	0.01
607.749	-0.02
607.938	0.01
608.127	0.01
608.316	0
608.506	0.06
608.695	0.01
608.884	-0.01
609.073	-0
609.263	0.03
609.452	0.04
609.641	0.02
609.83	-0.02
610.019	0.04
610.208	-0.01
610.397	0
610.586	0.08
610.775	0.01
610.965	-0.01
611.154	-0.02
611.343	0.04
611.532	0.02
611.721	-0.02
611.91	-0
612.099	0.02
612.287	-0
612.476	-0.03
612.665	0.05
612.854	-0.03
613.043	0.06
613.232	0
613.421	-0.03
613.61	0.01
613.798	-0.02
613.987	0.05
614.176	0.03
614.365	0.02
614.554	0.04
614.742	0.01
614.931	0.01
615.12	0.05
615.309	-0
615.497	0.04
615.686	-0.02
615.875	-0.01
616.063	0.05
616.252	-0.01
616.44	0.01
616.629	0.03
616.818	0.06
617.006	0.02
617.195	-0.02
617.383	0.03
617.572	0.05
617.76	-0
617.949	-0
618.137	0.04
618.326	0.03
618.514	-0.01
618.703	0.01
618.891	0.09
619.079	-0.05
619.268	0.03
619.456	-0.01
619.644	0.08
619.833	0.06
620.021	-0.01
620.209	-0.05
620.398	0.04
620.586	0.01
620.774	0.03
620.962	0.02
621.151	0.05
621.339	0.03
621.527	-0.03
621.715	-0.05
621.903	-0.01
622.092	-0.04
622.28	0.04
622.468	-0.01
622.656	-0.02
622.844	0.03
623.032	-0.02
623.22	-0.05
623.408	0.05
623.596	0.04
623.784	0.04
623.972	0.01
624.16	-0.03
624.348	0.07
624.536	-0.01
624.724	0
624.912	0.06
625.1	0.06
625.288	-0.01
625.476	-0.04
625.664	0.04
625.851	0
626.039	0.01
626.227	0.02
626.415	0
626.603	-0.06
626.79	0.02
626.978	-0.01
627.166	0.06
627.354	0.01
627.541	0
627.729	-0.04
627.917	0.03
628.104	0.05
628.292	0
628.48	0
628.667	0.03
628.855	0.05
629.042	0
629.23	-0.03
629.418	0.02
629.605	-0.01
629.793	-0.01
629.98	-0
630.168	0.03
630.355	-0.01
630.543	0.01
630.73	0
630.917	0.05
631.105	0.05
631.292	0
631.48	-0.01
631.667	0.07
631.854	-0
632.042	-0.01
632.229	-0.02
632.416	0.02
632.604	-0
632.791	-0.03
632.978	0.01
633.165	0.05
633.353	0.06
633.54	0.05
633.727	-0.03
633.914	-0.01
634.101	-0.05
634.289	0.05
634.476	-0.03
634.663	-0.03
634.85	0.05
635.037	-0.02
635.224	-0.05
635.411	0.06
635.598	0.08
635.785	0
635.972	-0
636.159	0.04
636.346	-0.02
636.533	0.01
636.72	0
636.907	-0.01
637.094	0.05
637.281	-0
637.468	0.04
637.655	-0.01
637.842	0.02
638.029	-0.01
638.215	0.05
638.402	0.03
638.589	-0.02
638.776	-0.01
638.963	-0.01
639.149	0.04
639.336	0.07
639.523	-0
639.709	-0.01
639.896	0.02
640.083	0.07
640.27	0.03
640.456	-0.02
640.643	0.01
640.829	-0.04
641.016	0.02
641.203	-0.03
641.389	0.04
641.576	0.05
641.762	-0.01
641.949	-0.01
642.135	0.05
642.322	0.02
642.508	-0.06
642.695	0.02
642.881	0
643.068	0
643.254	0
643.441	0.04
643.627	-0.02
643.813	-0.02
644	0.06
644.186	-0.01
644.372	0.03
644.559	0.04
644.745	0.01
644.931	-0.04
645.118	-0.02
645.304	0.02
645.49	-0.03
645.676	-0.01
645.862	0.01
646.049	0.07
646.235	0.02
646.421	0.08
646.607	0.05
646.793	-0.01
646.979	-0.03
647.165	0.02
647.352	0
647.538	0.02
647.724	-0
647.91	0
648.096	0.04
648.282	0.05
648.468	0.02
648.654	0
648.84	0.01
649.026	-0.02
649.212	-0.03
649.397	-0.02
649.583	-0.04
649.769	0.03
649.955	0.03
650.141	0.05
650.327	0.09
650.513	-0.01
650.698	0.01
650.884	-0.05
651.07	0.02
651.256	0
651.442	-0.01
651.627	0.01
651.813	-0
651.999	-0
652.184	0.01
652.37	0
652.556	-0.04
652.741	0.06
652.927	-0.06
653.113	0.02
653.298	0
653.484	-0
653.669	-0.05
653.855	-0.01
654.04	0.04
654.226	0.02
654.412	0
654.597	-0.03
654.782	0.06
654.968	0.06
655.153	-0
655.339	-0.03
655.524	-0.02
655.71	0.07
655.895	-0.02
656.08	0
656.266	0.05
656.451	0.03
656.636	-0.05
656.822	-0.01
657.007	-0.04
657.192	-0
657.378	-0.04
657.563	-0.01
657.748	0.04
657.933	0.03
658.118	-0.01
658.304	-0.02
658.489	0.03
658.674	0.02
658.859	-0.02
659.044	-0
659.229	0.05
659.414	-0.01
659.599	-0.01
659.785	-0.07
659.97	-0.01
660.155	0.06
660.34	0.01
660.525	-0.02
660.71	-0.04
660.895	0.02
661.08	-0.02
661.264	-0.03
661.449	0.07
661.634	0.05
661.819	0.07
662.004	0.03
662.189	-0.08
662.374	-0.07
662.559	-0.04
662.743	-0.02
662.928	-0.01
663.113	-0
663.298	-0.06
663.483	-0
663.667	-0.02
663.852	-0.06
664.037	0.07
664.221	-0.05
664.406	0.01
664.591	0.06
664.775	0.02
664.96	-0.01
665.145	0.03
665.329	0.03
665.514	-0.06
665.698	0.02
665.883	-0.05
666.068	0.08
666.252	0.01
666.437	-0.07
666.621	0.01
666.806	0.02
666.99	0.01
667.174	-0.04
667.359	0.08
667.543	-0.03
667.728	-0.02
667.912	-0.09
668.096	0.07
668.281	0.02
668.465	-0.01
668.649	-0
668.834	-0.08
669.018	-0.01
669.202	-0.03
669.387	-0.06
669.571	0.07
669.755	-0
669.939	-0.03
670.124	-0.01
670.308	0.03
670.492	0.02
670.676	-0.01
670.86	0.03
671.044	-0.03
671.228	0.02
671.413	-0.02
671.597	-0.03
671.781	-0.05
671.965	0.03
672.149	-0.03
672.333	0
672.517	-0.03
672.701	0.03
672.885	-0.02
673.069	-0.07
673.253	0.09
673.437	-0.03
673.621	0.01
673.804	0
673.988	-0
674.172	0.03
674.356	-0.05
674.54	0.03
674.724	0.13
674.908	-0.03
675.091	0.03
675.275	-0.02
675.459	0.06
675.643	0.1
675.826	0.03
676.01	0.02
676.194	-0.04
676.377	0.03
676.561	0.04
676.745	-0.02
676.928	0.02
677.112	0.07
677.296	-0.02
677.479	-0.01
677.663	-0.02
677.846	0.04
678.03	-0.03
678.213	-0.01
678.397	0.03
678.58	-0
678.764	-0.02
678.947	-0.03
679.131	-0.03
679.314	0
679.498	-0.02
679.681	0.02
679.865	0.07
680.048	-0
680.231	-0.03
680.415	-0.03
680.598	-0.01
680.781	-0.04
680.965	0.02
681.148	0.01
681.331	-0.05
681.514	0
681.698	-0.04
681.881	0
682.064	0.04
682.247	0.01
682.43	-0.06
682.614	0.03
682.797	0.07
682.98	0.02
683.163	-0.02
683.346	0.02
683.529	-0
683.712	-0.02
683.895	0.03
684.078	-0.09
684.261	0.01
684.444	0.02
684.627	0.03
684.81	-0.04
684.993	0.02
685.176	0.02
685.359	-0.08
685.542	-0.04
685.725	0.11
685.908	-0.04
686.091	-0.02
686.274	0.04
686.457	0.02
686.639	0.03
686.822	0.06
687.005	0.02
687.188	0.05
687.371	0.08
687.553	0.03
687.736	0.03
687.919	0.09
688.102	0.02
688.284	-0.01
688.467	0.01
688.65	0.05
688.832	-0.07
689.015	-0.01
689.197	-0.06
689.38	0.1
689.563	0.1
689.745	-0.09
689.928	-0.05
690.11	-0.01
690.293	0.02
690.475	-0.09
690.658	0.03
690.84	-0
691.023	-0.02
691.205	-0.02
691.388	-0
691.57	0.06
691.752	-0.01
691.935	-0.09
692.117	0
692.3	-0.03
692.482	0.02
692.664	0
692.847	-0.02
693.029	0.1
693.211	0.07
693.393	0
693.576	-0.02
693.758	0.01
693.94	-0.02
694.122	-0.03
694.304	0.03
694.487	0.01
694.669	0.12
694.851	-0.01
695.033	0
695.215	-0.05
695.397	-0.03
695.579	-0.01
695.761	-0.04
695.943	-0.09
696.125	0.04
696.308	0.06
696.49	-0.1
696.671	0.1
696.853	-0.06
697.035	0.12
697.217	-0
697.399	0.02
697.581	-0
697.763	-0.06
697.945	-0.04
698.127	-0.01
698.309	-0.1
698.491	0.05
698.672	-0
698.854	0.04
699.036	0.06
699.218	-0.03
699.399	0.03
699.581	0.04
699.763	-0.02
699.945	-0.03
700.126	-0.04
700.308	-0.02
700.49	0.01
700.671	-0.08
700.853	-0.03
701.035	-0.03
701.216	0.03
701.398	-0.09
701.579	0.01
701.761	0.06
701.943	-0.06
702.124	-0.04
702.306	0.02
702.487	0.11
702.669	0.03
702.85	-0.04
703.031	-0.05
703.213	0.1
703.394	0.03
703.576	0.03
703.757	0.02
703.938	0.08
704.12	0.11
704.301	-0.01
704.483	-0.01
704.664	-0.01
704.845	0.05
705.026	0.03
705.208	-0.01
705.389	-0.02
705.57	-0.01
705.751	-0.04
705.933	-0.01
706.114	0.04
706.295	0.02
706.476	-0.06
706.657	0.09
706.838	0.04
707.02	0.05
707.201	-0.03
707.382	0
707.563	0.04
707.744	-0.03
707.925	-0.03
708.106	0.01
708.287	0.05
708.468	0.07
708.649	0.06
708.83	0.02
709.011	-0.06
709.192	0.12
709.373	-0.03
709.554	-0
709.734	0.01
709.915	0.07
710.096	0.01
710.277	-0.09
710.458	-0.01
710.639	0.05
710.819	-0.14
711	-0.02
711.181	0.07
711.362	0.12
711.542	0.02
711.723	-0.04
711.904	-0
712.085	0.04
712.265	0
712.446	-0.08
712.627	0.02
712.807	0.01
712.988	-0.09
713.168	-0.09
713.349	0.08
713.53	-0.14
713.71	-0.03
713.891	-0.03
714.071	0.02
714.252	-0.07
714.432	-0.1
714.613	-0.09
714.793	-0.05
714.974	0.1
715.154	0.06
715.334	0.04
715.515	0.07
715.695	-0.1
715.876	0
716.056	-0.01
716.236	-0.02
716.417	-0.03
716.597	-0.08
716.777	0.05
716.957	-0.01
717.138	-0.01
717.318	-0.01
717.498	-0.08
717.678	0.03
717.859	-0.02
718.039	-0.12
718.219	-0.04
718.399	0.09
718.579	-0.02
718.759	-0.08
718.939	-0.01
719.12	0.03
719.3	0.03
719.48	-0.14
719.66	-0.09
719.84	0.06
720.02	0
720.2	-0.07
720.38	0.04
720.56	0.13
720.74	-0.02
720.92	0
721.1	0.12
721.279	0.1
721.459	0.01
721.639	-0.08
721.819	-0.02
721.999	0.06
722.179	0.02
722.359	-0.05
722.538	0
722.718	0.01
722.898	-0.06
723.078	-0.04
723.257	0.05
723.437	0.03
723.617	-0.01
723.797	-0.03
723.976	-0
724.156	0.07
724.336	0.18
724.515	0.14
724.695	-0.1
724.874	-0.02
725.054	0.06
725.234	-0.09
725.413	-0.02
725.593	0.02
725.772	0.01
725.952	-0.04
726.131	-0.06
726.311	-0.02
726.49	0.05
726.67	-0.08
726.849	-0.01
727.028	0.07
727.208	-0.04
727.387	-0.05
727.567	-0.07
727.746	0.04
727.925	-0.04
728.105	-0.09
728.284	-0.06
728.463	-0.12
728.643	0.1
728.822	-0.1
729.001	-0.11
729.18	-0.01
729.359	0.03
729.539	0
729.718	-0.09
729.897	0.06
730.076	-0.05
730.255	-0.16
730.434	-0
730.614	0
730.793	0.11
730.972	-0.06
731.151	-0.01
731.33	0.11
731.509	0.05
731.688	-0.06
731.867	-0.01
732.046	-0.09
732.225	0.12
732.404	-0.06
732.583	-0.11
732.762	0
732.941	0.06
733.12	0.03
733.298	-0.09
733.477	0.12
733.656	-0.05
733.835	-0.12
734.014	0.01
734.193	-0
734.371	0.05
734.55	0.03
734.729	-0.11
734.908	0.09
735.086	0.1
735.265	0.02
735.444	-0.17
735.623	-0.1
735.801	-0.05
735.98	-0.01
736.159	-0.03
736.337	0.07
736.516	0.02
736.694	0.03
736.873	-0.11
737.052	0.11
737.23	0.2
737.409	-0.09
737.587	0.21
737.766	-0.14
737.944	0.09
738.123	0.02
738.301	0.06
738.479	-0.06
738.658	0.05
738.836	-0.21
739.015	0.05
739.193	0.15
739.371	-0.12
739.55	-0.05
739.728	-0.11
739.906	0.11
740.085	0.1
740.263	0.04
740.441	-0.19
740.62	0.15
740.798	0.07
740.976	-0.05
741.154	-0.09
741.332	0.07
741.511	-0.07
741.689	0
741.867	0.04
742.045	0.09
742.223	-0.03
742.401	-0.11
742.579	-0.09
742.757	0.03
742.935	-0.04
743.114	-0.07
743.292	-0.05
743.47	-0.05
743.648	-0.01
743.826	0.04
744.004	-0.01
744.181	0.06
744.359	0.02
744.537	-0.01
744.715	-0.01
744.893	0.04
745.071	-0.05
745.249	-0.05
745.427	0.08
745.605	0.03
745.782	0.09
745.96	0.09
746.138	-0.01
746.316	0.09
746.493	-0.14
746.671	0.04
746.849	-0.12
747.027	0.16
747.204	-0.12
747.382	0.01
747.56	-0.15
747.737	-0.1
747.915	-0.05
748.093	0.03
748.27	-0
748.448	-0
748.625	-0.05
748.803	-0.05
748.98	0.02
749.158	-0
749.335	0.01
749.513	-0.01
749.69	0.05
749.868	0.03
750.045	-0.01
750.223	-0.13
750.4	-0.18
750.578	0.18
750.755	0
750.932	-0.12
751.11	0.15
751.287	-0.09
751.464	0.14
751.642	-0.09
751.819	0
751.996	0.21
752.173	-0.1
752.351	-0.1
752.528	0.03
752.705	0.08
752.882	0.03
753.06	0.07
753.237	0.16
753.414	0.26
753.591	0.17
753.768	0.02
753.945	0.01
754.122	-0.03
754.299	-0.03
754.476	-0.07
754.654	0.02
754.831	0.14
755.008	-0.01
755.185	-0.04
755.362	-0.15
755.539	0.12
755.716	-0.08
755.892	-0.09
756.069	0.08
756.246	-0.01
756.423	-0.03
756.6	0.21
756.777	0.01
756.954	0.06
757.131	-0.13
757.307	-0.12
757.484	-0.12
757.661	0.16
757.838	0.03
758.015	-0.13
758.191	0.11
758.368	0.04
758.545	0.07
758.721	0.12
758.898	-0.09
759.075	0.11
759.251	0.01
759.428	0.14
759.605	-0.18
759.781	-0.05
759.958	-0
760.134	0.02
760.311	-0.18
760.488	0.08
760.664	0.2
760.841	-0.07
761.017	-0.16
761.194	0.05
761.37	0.1
761.547	-0.03
761.723	-0.09
761.899	0.08
762.076	-0.1
762.252	-0.15
762.429	0.02
762.605	0.16
762.781	-0.03
762.958	0.08
763.134	0.02
763.31	-0.02
763.486	0.11
763.663	-0.17
763.839	0.08
764.015	-0.15
764.191	-0.13
764.368	-0.06
764.544	-0.07
764.72	0.01
764.896	0.04
765.072	0.07
765.248	-0.07
765.425	-0.07
765.601	0.05
765.777	-0.01
765.953	-0.22
766.129	0.02
766.305	-0.08
766.481	0.16
766.657	0.02
766.833	0.16
767.009	-0.16
767.185	-0.07
767.361	-0.05
767.537	-0.06
767.713	0.1
767.889	-0.06
768.065	-0.03
768.24	-0.03
768.416	0.18
768.592	0.03
768.768	-0.01
768.944	0.08
769.12	-0.11
769.295	-0.14
769.471	-0
769.647	0.11
769.823	0.22
769.998	-0.12
770.174	-0.17
770.35	0.24
770.525	0.39
770.701	-0.02
770.877	-0.03
771.052	-0.05
771.228	0.08
771.403	-0.03
771.579	0.02
771.755	0.36
771.93	-0.09
772.106	-0.13
772.281	-0.07
772.457	0.01
772.632	-0.04
772.808	-0.13
772.983	-0.03
773.159	-0.19
773.334	0.1
773.509	-0.03
773.685	-0.17
773.86	0.33
774.036	0.27
774.211	-0.07
774.386	-0.15
774.562	-0.08
774.737	0.29
774.912	-0.24
775.087	0.06
775.263	0.04
775.438	0.11
775.613	-0.14
775.788	-0.06
775.964	0.16
776.139	0.44
776.314	-0.17
776.489	-0.04
776.664	0.02
776.839	-0.15
777.014	0.16
777.19	0.06
777.365	0.31
777.54	0.24
777.715	-0.07
777.89	-0.08
778.065	-0.1
778.24	0.04
778.415	0.11
778.59	-0.22
778.765	0.03
778.94	-0
779.115	0
779.289	0.11
779.464	-0.01
779.639	-0.05
779.814	-0.33
779.989	-0.21
780.164	0.05
780.339	0.18
780.513	-0.22
780.688	-0.11
780.863	-0.05
781.038	0.18
781.212	-0.08
781.387	0.04
781.562	0.29
781.737	0.05
781.911	0.2
782.086	-0.28
782.261	-0.01
782.435	0.3
782.61	0.12
782.784	-0.05
782.959	0.24
783.134	-0.21
783.308	-0.1
783.483	-0.08
783.657	0.38
783.832	0.05
784.006	-0.13
784.181	-0.08
784.355	0.02
784.53	0.08
784.704	-0.07
784.878	0.24
785.053	0.33
785.227	0.23
785.402	0.31
785.576	-0.08
785.75	0.13
785.925	-0.11
786.099	0.1
786.273	0.08
786.448	0.08
786.622	0.23
786.796	-0.23
786.97	-0.08
787.145	0.48
787.319	-0.29
787.493	-0.12
787.667	-0.49
787.841	0
788.015	0.18
788.19	-0.1
788.364	0.18
788.538	0.13
788.712	0.18
788.886	-0.03
789.06	0
789.234	0.29
789.408	-0.31
789.582	0.09
789.756	-0.17
789.93	-0.15
790.104	-0.08
790.278	-0.03
790.452	-0.23
790.626	0.11
790.8	-0.1
790.973	0.22
791.147	0.3
791.321	0.42
791.495	0.16
791.669	0.09
791.843	0.04
792.016	0.12
792.19	0.52
792.364	-0.14
792.538	0.19
792.711	0.29
792.885	0.01
793.059	-0.42
793.233	-0.59
793.406	0.29
793.58	0.06
793.754	0.04
793.927	0.01
794.101	0.51
794.274	0.26
794.448	0.25
794.622	-0.25
794.795	0.3
794.969	0.21
795.142	0.39
795.316	-0.14
795.489	-0.03
795.663	0.45
795.836	-0.1
796.009	-0.03
796.183	0.44
796.356	0.17
796.53	0.12
796.703	-0.11
796.876	0.71
797.05	-0.12
797.223	-0.14
797.396	0.12
797.57	-0.1
797.743	0.47
797.916	0.12
798.09	-0.09
798.263	0.14
798.436	0.36
798.609	-0.08
798.782	-0.21
798.956	0.13
799.129	-0.2
799.302	-0.08
799.475	0.09
799.648	-0.07
799.821	-0.15
799.994	0.1
800.167	-0.08
800.34	0.01
800.514	0.1
800.687	-0.16
800.86	-0.25
801.033	0.05
801.206	0.07
801.379	-0.2
801.551	-0.04
801.724	0.26
801.897	0.38
802.07	0.07
802.243	-0.42
802.416	-0.1
802.589	-0.39
802.762	0.17
802.935	0.03
803.107	0.21
803.28	0.1
803.453	0.13
803.626	-0.4
803.798	0.02
803.971	0.05
804.144	0.16
804.317	0.02
804.489	0.26
804.662	0.04
804.835	0.1
805.007	-0.18
805.18	0.83
805.353	-0.09
805.525	-0.17
805.698	0.11
805.87	0.26
806.043	0.35
806.215	-0.16
806.388	-0.02
806.56	0.18
806.733	0.48
806.905	0.17
807.078	0.22
807.25	0.16
807.423	0.09
807.595	0.07
807.768	0.11
807.94	0.13
808.112	0.27
808.285	0.17
808.457	-0.15
808.629	-0.12
808.802	0.23
808.974	-0.12
809.146	-0.04
809.318	-0.44
809.491	0.23
809.663	0.1
809.835	-0.18
810.007	0.18
810.18	0.3
810.352	-0.67
810.524	-0.15
810.696	0.53
810.868	0.44
811.04	-0.09
811.212	0.09
811.384	0.47
811.556	-0.02
811.728	-0.08
811.901	0.82
812.073	0.03
812.245	-0.03
812.417	-0.08
812.589	-0.48
812.76	-0.12
812.932	0.28
813.104	-0.01
813.276	-0.23
813.448	0.15
813.62	0.04
813.792	0
813.964	-0.04
814.136	0.02
814.307	-0
814.479	-0.37
814.651	0
814.823	0.76
814.995	-0.07
815.166	0.14
815.338	-0.84
815.51	-0.52
815.681	0.61
815.853	-0.19
816.025	-0.52
816.196	0.58
816.368	0.43
816.54	-0.68
816.711	-0.34
816.883	-0.01
817.054	1.14
817.226	-0.59
817.398	-0
817.569	0.05
817.741	0.21
817.912	0.09
818.084	-0.3
818.255	0.14
818.426	-0.13
818.598	-0.29
818.769	-0.41
818.941	0.87
819.112	0.15
819.283	0.64
819.455	0.03
819.626	0.69
819.798	0.06
819.969	-0.17
820.14	-0.27
820.311	0.11
820.483	0.45
820.654	0.28
820.825	0.22
820.996	-0.48
821.168	-0.5
821.339	-0.33
821.51	-0.3
821.681	-0.26
821.852	-0.09
822.023	-0.17
822.195	-0.61
822.366	0.61
822.537	0.31
822.708	0.11
822.879	-0.28
823.05	0.63
823.221	0.23
823.392	0.37
823.563	0.07
823.734	-0.08
823.905	-0.32
824.076	-0.21
824.247	-0.47
824.418	-0.26
824.589	1.09
824.759	-0.07
824.93	-0.12
825.101	-0.35
825.272	0.82
825.443	0.7
825.614	0.49
825.784	-0.76
825.955	1.29
826.126	0.39
826.297	-0.22
826.467	0.76
826.638	0.62
826.809	-0.6
826.98	-0.02
827.15	0.91
827.321	0.28
827.492	1.04
827.662	-0.09
827.833	1.09
828.003	0.34
828.174	-0.56
828.345	-0.71
828.515	1.17
828.686	0.04
828.856	-0.06
829.027	0.07
829.197	0.11
829.368	0.37
829.538	-0.06
829.709	-0.16
829.879	0.28
830.049	-0.07
830.22	0.11
830.39	-0.07
830.56	0.46
830.731	0.49
830.901	-0.38
831.072	0.3
831.242	0.61
831.412	0.12
831.582	0.67
831.753	-0.92
831.923	0.13
832.093	0.07
832.263	0.32
832.434	-0.97
832.604	-0.14
832.774	0.95
832.944	-0.29
833.114	-0.36
833.284	1.06
833.454	-0.24
833.624	-0.47
833.795	0.05
833.965	0.25
834.135	0.57
834.305	-0.8
834.475	-0.43
834.645	0.31
834.815	0.13
834.985	-0.29
835.155	-0.63
835.325	0.61
835.494	0.65
835.664	-0.22
835.834	-1.05
836.004	0.07
836.174	0.44
836.344	-0.11
836.514	-1.05
836.684	-0.18
836.853	0.21
837.023	0.1
837.193	-0.53
837.363	0.84
837.532	0.85
837.702	-0.24
837.872	-0.44
838.041	0.99
838.211	1.36
838.381	-0.44
838.55	-0.09
838.72	1.95
838.89	0.78
839.059	0.22
839.229	-0.22
839.398	1.91
839.568	-0.08
839.738	-0.12
839.907	0.97
840.077	0.3
840.246	-0.41
840.416	-0.63
840.585	-0.6
840.755	0.78
840.924	1.55
841.093	-0.29
841.263	-0.72
841.432	-0.4
841.602	-0.29
841.771	-0.06
841.94	-0.15
842.11	2.28
842.279	0.58
842.448	-0.79
842.617	-0.58
842.787	1.79
842.956	-0.84
843.125	0.12
843.294	0.31
843.464	0.56
843.633	0.62
843.802	-1.27
843.971	0.31
844.14	1.37
844.309	1.28
844.479	-0.96
844.648	-1
844.817	0.3
844.986	-0.27
845.155	-0.73
845.324	-1.13
845.493	-0.35
845.662	-1.13
845.831	0.39
846	0.39
846.169	0.34
846.338	1.62
846.507	0.12
846.676	0.48
846.844	-0.75
847.013	1.76
847.182	0.19
847.351	-0.51
847.52	-0.67
847.689	0.06
847.858	0.5
848.026	-0.12
848.195	0.08
848.364	-0.87
848.533	0.07
848.701	-0.44
848.87	1.28
849.039	1.43
849.207	0.73
849.376	1.96
849.545	1.73
849.713	-0.69
849.882	0.35
850.051	-0.38
850.219	1.06
850.388	2.59
850.556	-0.51
850.725	-0.44
850.893	1.21
851.062	0.25
851.23	0.08
851.399	-0.54
851.567	-0.14
851.736	0.97
851.904	-0.38
852.073	0.27
852.241	1.57
852.41	0.55
852.578	-0.59
852.746	0.27
852.915	1.12
853.083	-0.09
853.251	-1.03
853.42	-0.72
853.588	-0.95
853.756	1.95
853.924	0.2
854.093	-0.55
854.261	-0.54
854.429	-2.37
854.597	0.71
854.765	-2.69
854.934	0.27
855.102	1.16
855.27	0.71
855.438	1.01
855.606	0.88
855.774	0.71
855.942	-1.43
856.11	-1.34
856.278	-0.08
856.446	-0.12
856.614	-0.23
856.782	-0.57
856.95	0.88
857.118	1.57
857.286	0.28
857.454	-0.68
857.622	0.46
857.79	0.85
857.958	0.07
858.126	-0.27
858.294	-1.81
858.462	0.03
858.629	-0.12
858.797	-0.59
858.965	0.65
859.133	-0.08
859.301	-0.37
859.468	0.85
859.636	-0.14
859.804	3.8
859.971	0.29
860.139	-0.55
860.307	1.42
860.474	-0.47
860.642	-1.17
860.81	-0.54
860.977	-0.77
861.145	1.17
861.313	0.86
861.48	-0.37
861.648	0.85
861.815	-0.37
861.983	-1.12
862.15	-0.93
862.318	0.87
862.485	2.42
862.653	-1.35
862.82	-1.68
862.988	1.65
863.155	0.15
863.322	-1.57
863.49	0.2
863.657	-0.37
863.824	1.2
863.992	0.75
864.159	0.14
864.326	1.16
864.494	-0.14
864.661	4.62
864.828	-0.71
864.996	2.14
865.163	0.71
865.33	-0.48
865.497	-3.32
865.664	0.6
865.832	-2.39
865.999	0.37
866.166	-2.04
866.333	-0.18
866.5	-2.08
866.667	0.15
866.834	-0.48
867.001	3.37
867.168	-0.79
867.335	0.56
867.502	-1.36
867.669	0.13
867.836	3.31
868.003	-0.13
868.17	0.45
868.337	-1.64
868.504	2.36
868.671	-2.95
868.838	-1.31
869.005	0.57
869.172	-0.2
869.339	0.34
869.505	-0.74
869.672	1.31
869.839	2.55
870.006	0.14
870.173	-2.52
870.339	1.2
870.506	3.06
870.673	-2.13
870.84	0.96
871.006	0.1
871.173	-0.83
871.34	0.42
871.506	-1.88
871.673	-0.28
871.839	-1.94
872.006	0.77
872.173	-0.33
872.339	1.57
872.506	2.35
872.672	-1.06
872.839	-2.26
873.005	-0.63
873.172	1.87
873.338	3.77
873.505	1.04
873.671	0.37
873.838	0.46
874.004	-2.38
874.171	-2.34
874.337	1.08
874.503	0.91
874.67	-1.38
874.836	-0.47
875.002	2.78
875.169	2.59
875.335	-0.82
875.501	-2.72
875.668	1.37
875.834	-1.22
876	-2.13
876.166	0.05
876.332	1.47
876.499	4.64
876.665	-0.11
876.831	-0.07
876.997	4.43
877.163	0.81
877.329	-1.39
877.495	-0.2
877.662	1.03
877.828	1.92
877.994	-0.33
878.16	-2.24
878.326	0.65
878.492	0.89
878.658	-1.11
878.824	0.54
878.99	0.74
879.156	0.04
879.322	2.15
879.487	-1.57
879.653	0.95
879.819	0.47
879.985	-1.43
880.151	0.39
880.317	1.78
880.483	-1.68
880.648	1.66
880.814	-3.06
880.98	0.94
881.146	-2.27
881.312	-1.24
881.477	1.03
881.643	0.17
881.809	1.86
881.974	2.26
882.14	-2.67
882.306	0.62
882.471	3.05
882.637	-0.08
882.803	2.55
882.968	3.33
883.134	5.31
883.299	-2.38
883.465	0.6
883.63	2.29
883.796	1.75
883.961	0.79
884.127	1.17
884.292	-2.08
884.458	-3.38
884.623	-3.37
