Data from Apollo_Calib_20240827__AbsoluteIrradiance__105__00-54-00-829.txt Node

Date: Wed Aug 28 00:54:00 BST 2024
User: biology
Spectrometer: FLMT08252
Trigger mode: 0
Integration Time (sec): 5.000000E-1
Scans to average: 5
Electric dark correction enabled: true
Nonlinearity correction enabled: false
Boxcar width: 0
XAxis mode: Wavelengths
Number of Pixels in Spectrum: 3648
>>>>>Begin Spectral Data<<<<<
179.588	-0
179.809	-0
180.03	-0
180.251	-0
180.473	-0
180.694	0
180.915	0
181.136	-0
181.357	0
181.578	-0
181.799	-0
182.02	-0
182.241	-0
182.462	-0
182.683	0
182.904	-0
183.125	-0
183.346	0
183.567	0
183.788	-0
184.009	-0
184.23	0
184.451	0
184.672	-0
184.892	-0
185.113	0
185.334	0
185.555	-0
185.776	-0
185.996	-0
186.217	-0
186.438	-0
186.659	-0
186.879	0
187.1	-0
187.321	-0
187.541	-0
187.762	-0
187.983	-0
188.203	-0
188.424	-0
188.644	-0
188.865	0
189.086	-0
189.306	-0
189.527	-0
189.747	0
189.968	-0
190.188	0
190.409	-0
190.629	0
190.849	-0
191.07	-0
191.29	0
191.511	-0
191.731	-0
191.951	-0
192.172	-0
192.392	-0
192.612	-0
192.833	0
193.053	-0
193.273	-0
193.493	-0
193.714	-0
193.934	0
194.154	0
194.374	-0
194.594	-0
194.815	0
195.035	0
195.255	0
195.475	-0
195.695	0
195.915	0
196.135	-0
196.355	0
196.575	0
196.795	-0
197.015	-0
197.235	-0
197.455	-0
197.675	0
197.895	-0
198.115	-0
198.335	0
198.555	-0
198.775	0
198.995	0
199.214	0
199.434	-0
199.654	-0
199.874	-0
200.094	0.45
200.313	-0.8
200.533	-0.75
200.753	-0.82
200.973	0.43
201.192	0.21
201.412	-0.93
201.632	-0.35
201.851	0.57
202.071	-0.68
202.291	-0.7
202.51	-0.71
202.73	0.52
202.95	-0.39
203.169	-0.64
203.389	-0.32
203.608	0.13
203.828	-0.37
204.047	-0.58
204.267	-0.18
204.486	-0.31
204.706	-0.25
204.925	-0.4
205.145	-0.27
205.364	0.35
205.583	0.27
205.803	-0.64
206.022	-0.63
206.242	-0.28
206.461	-0.24
206.68	-0.89
206.9	-0.23
207.119	0.35
207.338	0.08
207.557	-0.24
207.777	-0.41
207.996	-0.41
208.215	0.31
208.434	-0.14
208.654	-0.42
208.873	-0.08
209.092	0.41
209.311	-0.19
209.53	-0.25
209.749	-0.17
209.968	-0.35
210.187	-0.2
210.407	-0.64
210.626	-0.23
210.845	-0.04
211.064	-0.18
211.283	-0.31
211.502	0.35
211.721	-0.02
211.94	-0.13
212.159	0.28
212.377	0.05
212.596	0.3
212.815	0.11
213.034	-0.16
213.253	0.13
213.472	-0.09
213.691	-0.48
213.91	-0.44
214.128	-0.09
214.347	0.42
214.566	-0.38
214.785	-0.36
215.003	0.07
215.222	-0.15
215.441	-0.17
215.66	-0.24
215.878	-0.15
216.097	0.15
216.316	-0.24
216.534	-0.21
216.753	0.03
216.972	-0.18
217.19	-0.05
217.409	-0.15
217.627	-0.22
217.846	-0.21
218.064	-0.09
218.283	-0.29
218.501	0.34
218.72	0.2
218.938	-0.22
219.157	-0.11
219.375	0.12
219.594	0.07
219.812	-0.36
220.031	-0.17
220.249	0.15
220.467	0.18
220.686	-0.15
220.904	-0.1
221.122	-0.23
221.341	0.16
221.559	-0.03
221.777	0.02
221.995	0.01
222.214	0.08
222.432	-0.16
222.65	0.06
222.868	0.01
223.086	-0.04
223.305	0.12
223.523	-0.03
223.741	0.31
223.959	-0.15
224.177	-0.16
224.395	-0.12
224.613	-0.04
224.831	0.11
225.049	-0.12
225.267	-0.17
225.485	0.03
225.703	-0.04
225.921	-0.05
226.139	-0.22
226.357	0.18
226.575	0.06
226.793	-0.04
227.011	0.48
227.229	0.05
227.447	0.07
227.665	-0.13
227.883	-0.22
228.1	-0.07
228.318	-0.13
228.536	-0.36
228.754	-0.21
228.972	0.06
229.189	0.02
229.407	-0.05
229.625	-0.19
229.843	0.19
230.06	-0.02
230.278	-0.1
230.496	-0.09
230.713	-0.04
230.931	-0.02
231.149	-0.1
231.366	-0.24
231.584	-0.14
231.801	0.34
232.019	-0.12
232.236	-0.27
232.454	-0.05
232.671	0.05
232.889	0
233.106	-0.16
233.324	-0.01
233.541	-0.08
233.759	0.09
233.976	-0.02
234.194	-0.08
234.411	0.04
234.628	-0.08
234.846	-0.05
235.063	-0.09
235.28	-0.04
235.498	-0.08
235.715	-0.15
235.932	0.1
236.149	-0.06
236.367	-0.16
236.584	-0.08
236.801	-0.05
237.018	-0.02
237.236	0.05
237.453	-0.18
237.67	0.14
237.887	-0.06
238.104	-0.05
238.321	-0.1
238.538	-0.04
238.755	-0.01
238.973	-0.26
239.19	0.05
239.407	0.01
239.624	0.02
239.841	-0.15
240.058	-0.13
240.275	0.03
240.492	-0.15
240.709	0.05
240.925	-0.09
241.142	0.1
241.359	-0.14
241.576	-0.12
241.793	-0.13
242.01	-0.02
242.227	0.02
242.444	0.14
242.66	0.01
242.877	0.05
243.094	-0.08
243.311	-0.04
243.527	-0.08
243.744	0.02
243.961	0.07
244.178	-0.09
244.394	-0.02
244.611	0.04
244.828	0.08
245.044	-0.13
245.261	-0.04
245.477	-0.03
245.694	-0.01
245.911	-0.17
246.127	-0.02
246.344	0.09
246.56	0.07
246.777	0.06
246.993	-0.05
247.21	-0.06
247.426	0.01
247.643	-0.02
247.859	-0.1
248.076	0.03
248.292	0.13
248.508	-0.07
248.725	0.05
248.941	-0.04
249.157	0.04
249.374	-0.01
249.59	-0.02
249.806	-0.05
250.023	0.04
250.239	-0.08
250.455	-0.06
250.671	-0
250.888	0.07
251.104	-0.02
251.32	-0.04
251.536	-0.07
251.752	-0.07
251.969	-0.03
252.185	0.02
252.401	0.1
252.617	-0.17
252.833	-0.13
253.049	-0.03
253.265	0.04
253.481	-0.01
253.697	-0.03
253.913	-0.14
254.129	-0.05
254.345	0.02
254.561	0.03
254.777	-0
254.993	0.04
255.209	-0.05
255.425	-0.08
255.641	-0.09
255.857	0.06
256.073	-0.03
256.288	-0.11
256.504	-0.07
256.72	-0.06
256.936	0.07
257.152	-0.01
257.367	-0.12
257.583	0.03
257.799	0.08
258.015	-0.07
258.23	-0.09
258.446	0.06
258.662	-0.01
258.877	-0.1
259.093	-0.14
259.309	-0.1
259.524	0.07
259.74	-0.07
259.955	-0.13
260.171	0
260.387	-0
260.602	0.06
260.818	0.01
261.033	-0.06
261.249	-0.11
261.464	-0.04
261.68	-0.03
261.895	-0.02
262.11	0.01
262.326	-0.1
262.541	-0.11
262.757	0.03
262.972	0.02
263.187	-0.01
263.403	0
263.618	0.03
263.833	-0.02
264.049	-0.06
264.264	-0.01
264.479	0.06
264.694	0.06
264.91	-0.06
265.125	-0.11
265.34	-0.01
265.555	0.1
265.77	-0.02
265.986	-0.07
266.201	0.04
266.416	0.1
266.631	-0
266.846	-0.04
267.061	-0.04
267.276	0.05
267.491	-0.15
267.706	-0
267.921	0.03
268.136	-0
268.351	-0.03
268.566	-0.08
268.781	0.05
268.996	0.07
269.211	0.01
269.426	-0.09
269.641	-0.09
269.856	0.08
270.071	-0
270.285	-0.08
270.5	0.02
270.715	0.06
270.93	-0.03
271.145	0.02
271.359	-0.03
271.574	-0.03
271.789	-0.02
272.004	-0.06
272.218	-0.04
272.433	0.03
272.648	-0.03
272.862	-0.03
273.077	-0.03
273.292	0.06
273.506	-0.06
273.721	-0.07
273.936	0
274.15	-0.03
274.365	0
274.579	0
274.794	0.01
275.008	0.01
275.223	-0.1
275.437	0.01
275.652	0.06
275.866	0.02
276.081	0.01
276.295	0.03
276.509	-0.07
276.724	-0.01
276.938	-0
277.153	0.01
277.367	0
277.581	-0.04
277.796	-0.03
278.01	-0.04
278.224	0.05
278.438	0.1
278.653	-0.09
278.867	-0.08
279.081	0.01
279.295	-0
279.51	0
279.724	-0.11
279.938	0.01
280.152	-0.03
280.366	-0.02
280.58	0.02
280.794	0.07
281.008	0.02
281.222	0.09
281.437	0.05
281.651	0.02
281.865	0.06
282.079	-0.02
282.293	-0.13
282.507	-0.09
282.721	-0.01
282.935	0.02
283.148	-0.14
283.362	-0.05
283.576	-0.07
283.79	-0.04
284.004	-0.02
284.218	0.04
284.432	-0.03
284.646	-0.03
284.859	-0.06
285.073	-0.05
285.287	-0.02
285.501	0
285.714	-0.02
285.928	0.01
286.142	-0.01
286.356	-0.01
286.569	-0.05
286.783	0.03
286.997	0.08
287.21	0.01
287.424	0.03
287.637	-0.03
287.851	-0.03
288.065	-0.04
288.278	-0.04
288.492	-0.01
288.705	0.01
288.919	0.01
289.132	-0.08
289.346	0.03
289.559	-0.09
289.773	-0.07
289.986	-0.03
290.2	-0.04
290.413	0.02
290.626	-0.04
290.84	0.01
291.053	0.01
291.267	0.06
291.48	-0.01
291.693	-0.02
291.906	-0.06
292.12	-0.01
292.333	-0.04
292.546	-0.05
292.76	0.06
292.973	0.03
293.186	0.01
293.399	-0.04
293.612	0.08
293.826	-0.03
294.039	0.03
294.252	-0.02
294.465	0.02
294.678	0.04
294.891	-0
295.104	-0.01
295.317	-0.05
295.53	0.01
295.743	-0
295.956	-0.02
296.169	0.04
296.382	0.03
296.595	-0.01
296.808	-0.02
297.021	0.04
297.234	0.01
297.447	0.02
297.66	-0
297.873	0.06
298.086	0.02
298.299	-0.05
298.511	-0.06
298.724	-0.01
298.937	-0.07
299.15	-0.05
299.363	-0
299.575	-0.03
299.788	0.04
300.001	-0.04
300.213	-0.03
300.426	0.02
300.639	-0.04
300.852	-0.02
301.064	0.04
301.277	0.05
301.489	0.05
301.702	0.03
301.915	-0.01
302.127	-0.04
302.34	0
302.552	0.01
302.765	-0.05
302.977	0.02
303.19	0.01
303.402	-0.03
303.615	-0.05
303.827	-0.06
304.04	-0.03
304.252	0.01
304.464	-0.05
304.677	0.09
304.889	0.03
305.102	-0.03
305.314	0.03
305.526	0.06
305.739	0.01
305.951	-0.02
306.163	-0
306.375	0.06
306.588	-0.03
306.8	-0.02
307.012	-0.09
307.224	0.05
307.436	0.02
307.649	-0.09
307.861	0.01
308.073	0.06
308.285	-0.01
308.497	-0.05
308.709	0.03
308.921	-0.03
309.133	0.02
309.346	-0.01
309.558	-0.01
309.77	0.04
309.982	0.05
310.194	0.02
310.406	-0.06
310.617	0.04
310.829	0.01
311.041	-0.01
311.253	-0.04
311.465	-0.06
311.677	-0.02
311.889	-0.01
312.101	-0.06
312.313	0.06
312.524	0.06
312.736	-0.08
312.948	-0.05
313.16	0.07
313.372	-0
313.583	0.01
313.795	-0.02
314.007	-0.01
314.218	0.02
314.43	-0.03
314.642	-0.06
314.853	-0.02
315.065	-0.04
315.277	-0.03
315.488	-0.01
315.7	0.01
315.912	0.04
316.123	-0.05
316.335	0.01
316.546	0.1
316.758	-0.03
316.969	-0.03
317.181	0.01
317.392	-0
317.604	0.07
317.815	-0.02
318.026	-0.07
318.238	-0.05
318.449	0.04
318.661	-0.1
318.872	-0.06
319.083	-0.08
319.295	0.04
319.506	-0.05
319.717	-0.01
319.929	0.02
320.14	-0
320.351	0.04
320.562	-0.02
320.774	0.01
320.985	0.02
321.196	-0.04
321.407	-0.1
321.618	0.07
321.829	0.02
322.041	0
322.252	0.02
322.463	0.02
322.674	0.03
322.885	-0.07
323.096	-0.01
323.307	-0.01
323.518	0.02
323.729	-0.01
323.94	0.01
324.151	-0.07
324.362	-0
324.573	-0.02
324.784	-0.06
324.995	0.02
325.206	0.06
325.417	-0.03
325.628	-0.03
325.838	-0.01
326.049	-0.03
326.26	0.01
326.471	0.01
326.682	0
326.892	-0.02
327.103	-0.06
327.314	-0.07
327.525	0.07
327.735	0.02
327.946	-0.05
328.157	-0.02
328.368	0.01
328.578	-0.02
328.789	-0.01
328.999	-0.02
329.21	-0.01
329.421	0.05
329.631	-0.09
329.842	-0.02
330.052	0.01
330.263	0.08
330.473	0.02
330.684	-0.01
330.894	0.01
331.105	-0.01
331.315	-0.02
331.526	-0.06
331.736	0.08
331.947	0.05
332.157	0.01
332.367	-0.01
332.578	0.07
332.788	0.05
332.999	0.02
333.209	-0.02
333.419	-0.07
333.629	0
333.84	0.02
334.05	0.01
334.26	0.05
334.47	0.03
334.681	0.04
334.891	-0.03
335.101	0.06
335.311	0.03
335.521	-0.01
335.732	-0.03
335.942	0.05
336.152	-0.01
336.362	0.01
336.572	-0.02
336.782	0.06
336.992	0.02
337.202	0.01
337.412	-0.07
337.622	0.04
337.832	0.03
338.042	0.01
338.252	-0.02
338.462	-0
338.672	0.02
338.882	-0.05
339.092	0
339.302	0.06
339.511	-0
339.721	-0.01
339.931	-0.06
340.141	-0.01
340.351	0.04
340.561	0.01
340.77	0.04
340.98	-0.01
341.19	0.03
341.4	-0.04
341.609	-0.07
341.819	-0.03
342.029	-0.01
342.238	-0
342.448	-0.05
342.658	0.01
342.867	-0.02
343.077	0.01
343.286	0.04
343.496	0.03
343.706	0.02
343.915	-0.08
344.125	0.02
344.334	-0.01
344.544	-0.06
344.753	-0.02
344.963	-0.06
345.172	-0.08
345.381	-0
345.591	-0.04
345.8	-0.03
346.01	0.04
346.219	0.02
346.428	-0.14
346.638	0.01
346.847	-0.02
347.056	0.02
347.266	-0
347.475	-0
347.684	0.04
347.893	-0
348.103	-0.02
348.312	-0.01
348.521	-0.05
348.73	0
348.94	-0.02
349.149	-0.01
349.358	-0.04
349.567	-0.03
349.776	-0.07
349.985	-0.02
350.194	0.04
350.403	0.04
350.612	-0.03
350.821	-0.02
351.03	-0.01
351.239	-0.05
351.448	0.02
351.657	-0.01
351.866	0.06
352.075	0.02
352.284	-0.01
352.493	-0.07
352.702	0.01
352.911	0
353.12	0.01
353.329	-0
353.538	0.03
353.746	-0
353.955	-0.01
354.164	0.01
354.373	0
354.582	0.01
354.79	0.02
354.999	0.05
355.208	-0.02
355.416	0.07
355.625	-0.01
355.834	-0.05
356.042	-0.02
356.251	-0.01
356.46	-0.03
356.668	0.02
356.877	0.06
357.085	0.07
357.294	-0.04
357.503	-0.01
357.711	-0.02
357.92	0.13
358.128	0.02
358.337	-0.01
358.545	-0
358.754	-0.04
358.962	0.05
359.17	-0.02
359.379	0.02
359.587	0.03
359.796	-0
360.004	0.05
360.212	0.01
360.421	0.08
360.629	0.01
360.837	-0.01
361.046	0
361.254	0.08
361.462	0.04
361.67	-0.01
361.879	0
362.087	0.06
362.295	0.05
362.503	-0.02
362.711	-0.03
362.92	-0.04
363.128	-0
363.336	-0.05
363.544	-0.05
363.752	0.01
363.96	-0.05
364.168	0
364.376	0.02
364.584	-0.01
364.792	0.05
365	0.02
365.208	0.04
365.416	0.02
365.624	0.04
365.832	-0
366.04	0.06
366.248	0.08
366.456	0.06
366.664	0.02
366.872	0.01
367.079	0.04
367.287	0
367.495	0.05
367.703	0.03
367.911	0.01
368.118	0.05
368.326	0.04
368.534	0.04
368.742	0.11
368.949	0.06
369.157	0.08
369.365	0.13
369.572	0.09
369.78	0.09
369.988	0.15
370.195	0.16
370.403	0.18
370.61	0.15
370.818	0.16
371.026	0.23
371.233	0.17
371.441	0.23
371.648	0.2
371.856	0.27
372.063	0.29
372.271	0.24
372.478	0.31
372.685	0.38
372.893	0.43
373.1	0.41
373.308	0.4
373.515	0.58
373.722	0.48
373.93	0.51
374.137	0.52
374.344	0.66
374.552	0.64
374.759	0.67
374.966	0.69
375.173	0.73
375.381	0.82
375.588	0.77
375.795	0.75
376.002	0.88
376.209	0.9
376.417	1
376.624	1.08
376.831	1.1
377.038	1.11
377.245	1.1
377.452	1.21
377.659	1.35
377.866	1.32
378.073	1.47
378.28	1.47
378.487	1.62
378.694	1.74
378.901	1.73
379.108	1.79
379.315	1.98
379.522	2.05
379.729	2.12
379.936	2.17
380.143	2.2
380.35	2.31
380.557	2.49
380.763	2.49
380.97	2.48
381.177	2.59
381.384	2.78
381.591	2.87
381.797	2.93
382.004	3.06
382.211	3.16
382.418	3.13
382.624	3.19
382.831	3.1
383.038	3.28
383.244	3.19
383.451	3.16
383.658	3.16
383.864	3.19
384.071	3.13
384.277	3.2
384.484	3.01
384.69	3.01
384.897	2.88
385.103	2.81
385.31	2.71
385.516	2.68
385.723	2.61
385.929	2.52
386.136	2.39
386.342	2.36
386.549	2.26
386.755	2.22
386.961	2.11
387.168	2.08
387.374	1.9
387.58	1.91
387.787	1.76
387.993	1.74
388.199	1.61
388.406	1.51
388.612	1.44
388.818	1.38
389.024	1.31
389.231	1.32
389.437	1.37
389.643	1.27
389.849	1.22
390.055	1.18
390.261	1.12
390.467	1.13
390.674	1.02
390.88	1.03
391.086	0.96
391.292	0.96
391.498	1.02
391.704	0.92
391.91	0.89
392.116	0.81
392.322	0.74
392.528	0.82
392.734	0.79
392.94	0.74
393.146	0.72
393.352	0.74
393.557	0.66
393.763	0.62
393.969	0.69
394.175	0.62
394.381	0.55
394.587	0.55
394.792	0.49
394.998	0.6
395.204	0.56
395.41	0.44
395.615	0.46
395.821	0.49
396.027	0.47
396.233	0.4
396.438	0.42
396.644	0.42
396.85	0.44
397.055	0.39
397.261	0.41
397.466	0.43
397.672	0.33
397.878	0.38
398.083	0.3
398.289	0.22
398.494	0.33
398.7	0.34
398.905	0.23
399.111	0.33
399.316	0.22
399.522	0.2
399.727	0.24
399.932	0.24
400.138	0.22
400.343	0.24
400.549	0.21
400.754	0.21
400.959	0.22
401.165	0.19
401.37	0.17
401.575	0.28
401.78	0.14
401.986	0.15
402.191	0.18
402.396	0.12
402.601	0.21
402.807	0.25
403.012	0.15
403.217	0.21
403.422	0.11
403.627	0.17
403.832	0.15
404.037	0.17
404.243	0.18
404.448	0.07
404.653	0.1
404.858	0.16
405.063	0.17
405.268	0.09
405.473	0.11
405.678	0.07
405.883	0.29
406.088	0.12
406.293	0.09
406.498	0.09
406.703	0.13
406.907	0.09
407.112	0.05
407.317	0.13
407.522	0.17
407.727	0.07
407.932	0.12
408.136	0.18
408.341	0.07
408.546	0.12
408.751	0.09
408.956	0.06
409.16	0.14
409.365	0.06
409.57	0.09
409.774	0.06
409.979	0.11
410.184	0.08
410.388	0.04
410.593	0.09
410.798	0.08
411.002	0.04
411.207	0.07
411.411	0.09
411.616	0.06
411.82	0.03
412.025	0.07
412.229	0.02
412.434	0.14
412.638	0.04
412.843	0.03
413.047	0.07
413.252	-0.02
413.456	0.07
413.66	0.06
413.865	0.02
414.069	0.11
414.273	0.04
414.478	0.01
414.682	0.03
414.886	0.02
415.091	-0.02
415.295	-0.02
415.499	0.06
415.703	0.03
415.908	0.06
416.112	-0.02
416.316	0.06
416.52	0.06
416.724	0.02
416.929	0.01
417.133	0.12
417.337	0.03
417.541	-0.03
417.745	0.03
417.949	0.06
418.153	0.07
418.357	-0
418.561	0.05
418.765	0.08
418.969	0.13
419.173	0.08
419.377	-0.01
419.581	0.14
419.785	0
419.989	-0.01
420.193	-0.01
420.397	0.01
420.601	0.08
420.804	0.06
421.008	0.04
421.212	0.06
421.416	0.06
421.62	0.02
421.823	0.03
422.027	0.07
422.231	0.04
422.435	0
422.638	0.02
422.842	0.03
423.046	-0.02
423.249	0.05
423.453	0.03
423.657	0.01
423.86	0.03
424.064	0.04
424.268	0.06
424.471	0.04
424.675	0.07
424.878	0.08
425.082	0.01
425.285	0.07
425.489	0.05
425.692	0.04
425.896	-0.03
426.099	0.05
426.303	-0.01
426.506	-0.01
426.71	0.07
426.913	0.14
427.116	0.08
427.32	0.01
427.523	0.07
427.726	0.09
427.93	-0.03
428.133	-0.01
428.336	-0.03
428.54	0.03
428.743	0.05
428.946	0.05
429.149	0
429.353	0.05
429.556	0.04
429.759	0.03
429.962	-0.01
430.165	0.04
430.368	0.03
430.571	-0
430.775	0.03
430.978	0.05
431.181	0.07
431.384	0.04
431.587	-0.02
431.79	0.02
431.993	0.06
432.196	0.03
432.399	-0.01
432.602	0.08
432.805	0.03
433.008	0.04
433.211	-0.02
433.414	0.09
433.616	0.1
433.819	0.03
434.022	-0.01
434.225	0.12
434.428	0.03
434.631	0.15
434.833	0.04
435.036	-0
435.239	0.1
435.442	0.04
435.645	0.04
435.847	0.05
436.05	0.11
436.253	0.08
436.455	0.01
436.658	0.05
436.861	0.1
437.063	-0.02
437.266	0.06
437.468	0.01
437.671	0.11
437.874	0
438.076	-0.01
438.279	0.01
438.481	0.1
438.684	0.04
438.886	0.06
439.089	-0.02
439.291	0.06
439.494	0.07
439.696	0
439.899	0.03
440.101	0.07
440.303	-0.03
440.506	0.06
440.708	0.07
440.91	0.09
441.113	0.03
441.315	0.06
441.517	0.04
441.72	0.1
441.922	0.03
442.124	0
442.326	0.07
442.529	0.11
442.731	0.04
442.933	0.1
443.135	0.03
443.337	0.01
443.539	0.05
443.742	-0
443.944	0.06
444.146	0.06
444.348	0.04
444.55	0.04
444.752	0.03
444.954	-0.03
445.156	0.06
445.358	0.05
445.56	0.12
445.762	0.08
445.964	0.06
446.166	0.04
446.368	0.05
446.57	0.12
446.772	0.09
446.974	0.06
447.175	0.13
447.377	0.05
447.579	0.03
447.781	0.02
447.983	0.16
448.184	0.08
448.386	0.1
448.588	0.01
448.79	0.08
448.991	0.04
449.193	0.06
449.395	0.09
449.597	0.1
449.798	0.08
450	0.06
450.202	0.09
450.403	0.09
450.605	0.1
450.806	0.08
451.008	-0.04
451.21	0.04
451.411	0.11
451.613	0.01
451.814	0.08
452.016	0.1
452.217	0.13
452.419	0.15
452.62	0.1
452.821	0.07
453.023	0.12
453.224	0.11
453.426	0.07
453.627	0.06
453.828	0.09
454.03	0.05
454.231	0.08
454.432	-0.01
454.634	0.14
454.835	0.03
455.036	0.04
455.238	0.09
455.439	0.12
455.64	0.03
455.841	0.04
456.042	0.12
456.244	0.05
456.445	0.05
456.646	-0.02
456.847	0.04
457.048	0.06
457.249	0.1
457.45	0.23
457.651	0.01
457.852	0.06
458.054	0.03
458.255	0.04
458.456	0.05
458.657	0.03
458.858	0.01
459.058	-0
459.259	0.05
459.46	0.01
459.661	0.02
459.862	0.11
460.063	0.05
460.264	0.09
460.465	-0.04
460.666	0.09
460.866	0.05
461.067	-0.02
461.268	0.03
461.469	-0.01
461.67	0.04
461.87	0.06
462.071	-0.02
462.272	-0.04
462.473	0.09
462.673	0.08
462.874	0.03
463.075	0.03
463.275	-0.04
463.476	0.08
463.676	0.05
463.877	0.02
464.078	-0.03
464.278	0.05
464.479	0.01
464.679	-0.01
464.88	0.01
465.08	0.07
465.281	-0
465.481	0.01
465.682	0.04
465.882	0.07
466.083	0.03
466.283	0
466.483	0.02
466.684	-0.04
466.884	0.01
467.085	0.01
467.285	0.05
467.485	-0.01
467.686	-0.02
467.886	-0.01
468.086	0.03
468.286	0.01
468.487	0.01
468.687	-0.04
468.887	0.02
469.087	0.05
469.287	0
469.488	-0.06
469.688	0.07
469.888	0.06
470.088	0.05
470.288	0.06
470.488	0.09
470.688	-0.05
470.888	-0.02
471.088	-0.03
471.288	0.07
471.488	0.03
471.688	0.02
471.888	0.01
472.088	0.02
472.288	0.04
472.488	0.02
472.688	-0.02
472.888	-0.03
473.088	-0
473.288	-0
473.488	0.01
473.688	0.12
473.887	0.02
474.087	-0.01
474.287	0.04
474.487	0.01
474.687	0.02
474.886	0
475.086	0.01
475.286	-0
475.486	0.02
475.685	-0.01
475.885	-0.01
476.085	-0.01
476.284	0.01
476.484	-0.01
476.684	0.01
476.883	0.03
477.083	0.02
477.282	-0.01
477.482	0.05
477.681	0.04
477.881	0.02
478.08	-0.01
478.28	0.01
478.479	0.04
478.679	0.03
478.878	-0.01
479.078	-0.03
479.277	0.01
479.477	-0
479.676	0.03
479.875	0.03
480.075	-0.07
480.274	0.04
480.473	0.01
480.673	-0.03
480.872	0.03
481.071	0.01
481.271	0.01
481.47	-0.01
481.669	-0.01
481.868	-0.03
482.067	-0.04
482.267	0.01
482.466	-0.04
482.665	-0.03
482.864	-0.01
483.063	-0.04
483.262	0.02
483.461	0.03
483.661	0.02
483.86	0.02
484.059	-0.01
484.258	0.01
484.457	0.02
484.656	-0
484.855	0.03
485.054	-0.03
485.253	-0.05
485.452	-0.05
485.651	-0
485.849	-0.03
486.048	-0.02
486.247	-0.02
486.446	-0.02
486.645	-0.03
486.844	-0.02
487.043	0.02
487.241	-0
487.44	-0
487.639	0.01
487.838	-0.09
488.037	-0
488.235	0.07
488.434	0.01
488.633	-0.03
488.831	-0
489.03	0.04
489.229	-0.01
489.427	0
489.626	0.03
489.825	0.04
490.023	0.02
490.222	-0.01
490.42	-0
490.619	0.01
490.817	0
491.016	-0.03
491.214	0.03
491.413	-0.01
491.611	0.01
491.81	0
492.008	0.02
492.207	0.01
492.405	0.02
492.604	-0.02
492.802	-0.02
493	0
493.199	-0
493.397	0.01
493.595	-0.03
493.794	-0.01
493.992	0.06
494.19	0
494.388	0.01
494.587	-0.01
494.785	-0
494.983	-0.02
495.181	0
495.379	0.01
495.578	-0.01
495.776	0.03
495.974	0.01
496.172	-0
496.37	-0
496.568	-0.01
496.766	-0.03
496.964	0.04
497.162	-0.02
497.36	-0.02
497.558	0.01
497.756	0.04
497.954	0
498.152	-0.01
498.35	-0.02
498.548	0
498.746	-0.01
498.944	-0.03
499.142	0.01
499.34	-0.03
499.538	-0
499.736	-0
499.933	0.02
500.131	0.03
500.329	0.01
500.527	0.02
500.725	0.02
500.922	0.03
501.12	-0
501.318	0.02
501.516	-0.02
501.713	-0.01
501.911	-0.01
502.109	-0.01
502.306	0
502.504	-0
502.701	-0.02
502.899	0.01
503.097	0.04
503.294	-0
503.492	-0.01
503.689	-0.01
503.887	0.02
504.084	0.05
504.282	-0.01
504.479	-0.03
504.677	0.01
504.874	-0.03
505.072	-0
505.269	-0.02
505.466	0.03
505.664	0.01
505.861	-0.02
506.059	-0.01
506.256	0.03
506.453	-0.03
506.651	0.01
506.848	0.02
507.045	0.02
507.242	0.01
507.44	0.01
507.637	-0
507.834	-0
508.031	0.02
508.229	-0.02
508.426	-0
508.623	0
508.82	-0
509.017	-0
509.214	-0.01
509.411	0.01
509.608	-0.04
509.805	-0.01
510.003	-0.03
510.2	-0.01
510.397	0.03
510.594	-0.02
510.791	-0.03
510.988	-0.01
511.184	-0
511.381	-0.01
511.578	-0.02
511.775	0.02
511.972	-0.03
512.169	-0.01
512.366	-0.01
512.563	0.02
512.76	-0
512.956	-0.01
513.153	-0
513.35	0.01
513.547	-0.01
513.744	-0.02
513.94	-0.02
514.137	0
514.334	-0.01
514.53	-0.01
514.727	-0
514.924	0.03
515.12	-0.02
515.317	-0.03
515.514	-0.01
515.71	-0.03
515.907	-0.01
516.103	-0.01
516.3	0.01
516.497	0.01
516.693	0.02
516.89	-0.01
517.086	-0.01
517.283	0.04
517.479	-0
517.676	-0
517.872	0.01
518.068	-0.04
518.265	-0.02
518.461	-0.01
518.658	-0.01
518.854	-0.01
519.05	0.01
519.247	-0.02
519.443	0.03
519.639	0
519.836	-0.01
520.032	-0.01
520.228	-0.02
520.424	0.03
520.621	0.01
520.817	-0.01
521.013	0
521.209	-0.01
521.405	0.02
521.601	0
521.798	0.01
521.994	0.03
522.19	-0.03
522.386	-0.03
522.582	-0
522.778	-0
522.974	-0.01
523.17	-0
523.366	0.01
523.562	0.02
523.758	-0
523.954	0
524.15	-0.02
524.346	0
524.542	-0.02
524.738	-0.02
524.934	-0.01
525.129	0.01
525.325	0.01
525.521	0.01
525.717	0.02
525.913	0.01
526.109	-0
526.304	-0.01
526.5	-0
526.696	0.01
526.892	-0.01
527.087	-0
527.283	-0.02
527.479	0.04
527.674	-0.03
527.87	-0.02
528.066	-0
528.261	0.02
528.457	0.02
528.653	-0.01
528.848	-0.02
529.044	0.01
529.239	0.01
529.435	0.04
529.63	-0.01
529.826	0.05
530.021	0.01
530.217	0.02
530.412	-0.01
530.608	-0.02
530.803	0.02
530.999	0.01
531.194	-0.04
531.389	0
531.585	-0.06
531.78	-0
531.975	-0.01
532.171	0.03
532.366	0
532.561	-0
532.757	-0.01
532.952	0
533.147	0.01
533.342	0.01
533.538	-0
533.733	0.02
533.928	-0
534.123	0.01
534.318	-0.04
534.513	0.01
534.709	0.01
534.904	-0.03
535.099	0.01
535.294	-0.02
535.489	0.01
535.684	-0.01
535.879	-0.04
536.074	-0.01
536.269	-0.02
536.464	0.01
536.659	0.01
536.854	-0.04
537.049	-0
537.244	0.02
537.439	-0.03
537.634	0.01
537.828	-0
538.023	0.01
538.218	-0.03
538.413	0
538.608	-0.04
538.803	0.01
538.997	-0.02
539.192	0.03
539.387	0.01
539.582	0.02
539.776	0.01
539.971	-0.01
540.166	-0.01
540.36	-0.04
540.555	0.01
540.75	-0.01
540.944	-0.01
541.139	-0.01
541.334	-0.01
541.528	0.01
541.723	0.02
541.917	-0.01
542.112	-0.04
542.306	-0.02
542.501	-0.01
542.695	-0
542.89	-0.01
543.084	0.01
543.279	-0.03
543.473	-0.01
543.668	0.01
543.862	-0.01
544.056	0.01
544.251	-0.01
544.445	-0
544.64	-0.01
544.834	-0.02
545.028	0.02
545.222	0
545.417	-0.01
545.611	-0.01
545.805	-0.01
546	-0
546.194	0.01
546.388	-0.02
546.582	0.01
546.776	0
546.97	0.01
547.165	0.02
547.359	0.02
547.553	-0.03
547.747	0.02
547.941	0.01
548.135	0.01
548.329	0.02
548.523	0
548.717	-0
548.911	-0.01
549.105	-0
549.299	-0.01
549.493	0.01
549.687	0.02
549.881	0.02
550.075	-0.01
550.269	-0.03
550.463	0.01
550.657	-0.02
550.85	0.01
551.044	-0.05
551.238	0.02
551.432	-0.01
551.626	-0.03
551.82	0.02
552.013	-0.01
552.207	0
552.401	0.02
552.594	-0.02
552.788	-0.01
552.982	0.02
553.176	-0.02
553.369	-0
553.563	0
553.756	-0
553.95	-0.04
554.144	-0.01
554.337	0.02
554.531	0.02
554.724	-0
554.918	-0.01
555.111	0.01
555.305	-0.01
555.498	0.03
555.692	0.02
555.885	-0.02
556.079	-0.01
556.272	-0.04
556.466	0.03
556.659	0.01
556.852	-0.01
557.046	-0.02
557.239	0.02
557.432	-0.01
557.626	-0.02
557.819	0.02
558.012	0.01
558.206	0.01
558.399	0
558.592	0.02
558.785	-0.01
558.979	0.03
559.172	0.01
559.365	0.01
559.558	-0.02
559.751	-0.01
559.944	0.01
560.138	-0.01
560.331	-0.01
560.524	-0.02
560.717	-0.01
560.91	-0.02
561.103	0
561.296	-0
561.489	0
561.682	-0.01
561.875	-0
562.068	0
562.261	0.02
562.454	0.03
562.647	0.01
562.84	0.01
563.032	-0.01
563.225	0
563.418	-0.02
563.611	-0.04
563.804	-0.03
563.997	-0.03
564.19	-0.02
564.382	-0.01
564.575	-0.02
564.768	-0.01
564.961	0.02
565.153	-0.03
565.346	0.03
565.539	0.03
565.731	0.02
565.924	0.01
566.117	0.01
566.309	0
566.502	-0.01
566.695	-0.02
566.887	-0.01
567.08	-0.02
567.272	-0.02
567.465	-0.01
567.657	-0.02
567.85	0.02
568.042	0.01
568.235	0.01
568.427	0.02
568.62	0.01
568.812	0.03
569.005	-0.02
569.197	-0.03
569.389	0
569.582	0.01
569.774	0
569.966	-0.05
570.159	-0.05
570.351	-0
570.543	-0.03
570.736	0.01
570.928	-0.02
571.12	-0.02
571.312	-0.02
571.505	-0.04
571.697	0.01
571.889	-0.02
572.081	-0.01
572.273	-0.02
572.465	0.03
572.658	-0.03
572.85	0
573.042	-0
573.234	0
573.426	0.02
573.618	-0.03
573.81	0.01
574.002	0.01
574.194	0.07
574.386	-0.05
574.578	-0.07
574.77	-0.05
574.962	-0.01
575.154	-0.04
575.346	-0.02
575.538	0
575.729	-0.02
575.921	-0.02
576.113	0
576.305	0.02
576.497	-0.02
576.689	0.01
576.88	-0.01
577.072	-0
577.264	-0
577.456	-0.02
577.647	-0.08
577.839	-0
578.031	0.04
578.223	-0.03
578.414	-0.04
578.606	0.03
578.798	-0.01
578.989	-0.01
579.181	-0
579.372	-0.02
579.564	0
579.755	0.01
579.947	-0
580.139	-0.01
580.33	-0.03
580.522	-0.01
580.713	-0.06
580.905	-0
581.096	0.01
581.287	-0.01
581.479	0.01
581.67	0
581.862	-0.02
582.053	-0.04
582.244	-0.05
582.436	-0.02
582.627	0.01
582.818	-0.03
583.01	-0.04
583.201	0.01
583.392	0.02
583.583	-0.01
583.775	-0.02
583.966	-0.02
584.157	-0
584.348	-0.02
584.54	-0.04
584.731	-0
584.922	-0.01
585.113	-0.03
585.304	0.03
585.495	0
585.686	0.01
585.877	-0.01
586.068	-0
586.259	-0.01
586.45	-0.02
586.641	-0
586.832	-0.06
587.023	-0.01
587.214	0.01
587.405	0
587.596	-0.01
587.787	0.02
587.978	0.02
588.169	-0.04
588.36	-0.03
588.551	-0
588.742	-0.04
588.932	0.01
589.123	-0.01
589.314	0.01
589.505	0.02
589.696	0.01
589.886	-0.04
590.077	-0.05
590.268	-0
590.458	-0.03
590.649	-0.03
590.84	0.02
591.03	-0.03
591.221	-0.04
591.412	-0.03
591.602	0.02
591.793	0.01
591.984	-0.01
592.174	0.01
592.365	0.05
592.555	-0.03
592.746	0
592.936	0.01
593.127	0.01
593.317	0.02
593.508	-0.03
593.698	-0.02
593.889	-0
594.079	-0.01
594.269	-0.02
594.46	-0.01
594.65	-0
594.84	-0.02
595.031	-0.02
595.221	-0.02
595.411	-0.04
595.602	0.02
595.792	0
595.982	-0.02
596.172	0.04
596.363	0.03
596.553	-0.03
596.743	-0.01
596.933	-0.01
597.123	0.03
597.314	-0.03
597.504	-0.01
597.694	0.02
597.884	0.03
598.074	-0.02
598.264	-0.03
598.454	-0
598.644	-0.02
598.834	-0.02
599.024	-0.08
599.214	-0.01
599.404	0.03
599.594	-0.02
599.784	-0.05
599.974	0.02
600.164	-0.01
600.354	-0.02
600.544	-0.02
600.734	0.01
600.924	0.02
601.114	-0.01
601.303	-0.02
601.493	-0
601.683	-0.01
601.873	-0.01
602.063	-0.03
602.252	0.02
602.442	-0.07
602.632	-0.01
602.821	-0.04
603.011	0
603.201	-0.02
603.39	-0.06
603.58	-0.03
603.77	-0.02
603.959	0.03
604.149	0.01
604.339	-0.02
604.528	0.02
604.718	0
604.907	-0.01
605.097	-0.02
605.286	-0.05
605.476	0
605.665	0.02
605.855	-0.02
606.044	0.04
606.234	-0.01
606.423	-0
606.612	-0.02
606.802	0
606.991	-0.01
607.181	0
607.37	-0.02
607.559	0.02
607.749	-0.06
607.938	-0.02
608.127	-0.01
608.316	-0.04
608.506	0.01
608.695	-0.01
608.884	-0.03
609.073	0.01
609.263	0.01
609.452	-0
609.641	-0
609.83	-0.06
610.019	-0.01
610.208	-0.02
610.397	-0.02
610.586	-0
610.775	-0.02
610.965	-0.03
611.154	-0.02
611.343	0.01
611.532	-0
611.721	-0
611.91	-0.03
612.099	0.03
612.287	-0.03
612.476	-0.02
612.665	-0
612.854	-0.02
613.043	-0
613.232	-0.02
613.421	-0.03
613.61	0.01
613.798	-0.04
613.987	0.05
614.176	0.01
614.365	0.01
614.554	-0
614.742	0.01
614.931	-0.02
615.12	0.02
615.309	-0.01
615.497	0.03
615.686	-0.03
615.875	-0.01
616.063	0.01
616.252	-0.02
616.44	-0.02
616.629	-0.01
616.818	0.05
617.006	-0.01
617.195	-0.01
617.383	-0.01
617.572	-0.03
617.76	-0.04
617.949	0
618.137	0
618.326	-0.02
618.514	-0.02
618.703	-0
618.891	0.04
619.079	-0.03
619.268	0.01
619.456	-0.02
619.644	-0.01
619.833	-0
620.021	-0.01
620.209	-0.06
620.398	-0
620.586	-0
620.774	0.03
620.962	-0.01
621.151	0.04
621.339	-0.04
621.527	-0.05
621.715	-0.05
621.903	-0.03
622.092	-0.06
622.28	-0.01
622.468	-0.01
622.656	-0.01
622.844	-0.01
623.032	-0.02
623.22	-0.06
623.408	0.01
623.596	0
623.784	-0.02
623.972	-0.04
624.16	-0.02
624.348	0.03
624.536	-0.01
624.724	-0.02
624.912	0.06
625.1	0.02
625.288	0
625.476	-0.02
625.664	0.02
625.851	-0.06
626.039	-0
626.227	-0
626.415	-0.01
626.603	-0.05
626.79	0.01
626.978	-0.02
627.166	-0.01
627.354	0
627.541	-0.02
627.729	-0.06
627.917	0.02
628.104	0.03
628.292	-0
628.48	-0.01
628.667	0
628.855	0.01
629.042	-0.01
629.23	-0.02
629.418	-0.01
629.605	-0.01
629.793	-0.03
629.98	-0.02
630.168	-0.03
630.355	-0.02
630.543	0.03
630.73	-0.06
630.917	0.04
631.105	0.06
631.292	-0.02
631.48	-0.01
631.667	0.06
631.854	-0
632.042	-0.02
632.229	-0.03
632.416	0
632.604	-0.02
632.791	-0.05
632.978	0.03
633.165	0.04
633.353	0.06
633.54	0.01
633.727	-0.03
633.914	-0.02
634.101	-0.06
634.289	0.01
634.476	-0.01
634.663	-0.04
634.85	0.01
635.037	-0.02
635.224	-0.04
635.411	0.04
635.598	0.05
635.785	0.03
635.972	0.01
636.159	0.01
636.346	-0.04
636.533	0.01
636.72	0.01
636.907	-0.02
637.094	0.03
637.281	-0
637.468	0.05
637.655	0.01
637.842	0.02
638.029	-0
638.215	0.02
638.402	0.03
638.589	-0.06
638.776	-0
638.963	-0.01
639.149	0.04
639.336	0.06
639.523	-0.01
639.709	-0
639.896	-0.01
640.083	0.07
640.27	0.01
640.456	-0
640.643	0.05
640.829	-0.04
641.016	-0.02
641.203	-0.01
641.389	0.04
641.576	0.03
641.762	0.03
641.949	0
642.135	0.05
642.322	0.03
642.508	-0.03
642.695	0.02
642.881	0.04
643.068	0.02
643.254	0.04
643.441	0.06
643.627	0
643.813	0.01
644	0.04
644.186	0
644.372	0.03
644.559	0.06
644.745	-0
644.931	0.01
645.118	0.03
645.304	0.04
645.49	-0
645.676	0.02
645.862	0.06
646.049	0.06
646.235	0.03
646.421	0.13
646.607	0.06
646.793	0.03
646.979	-0.01
647.165	0.04
647.352	0.01
647.538	0.05
647.724	0.04
647.91	0.08
648.096	0.05
648.282	0.07
648.468	0.04
648.654	0.04
648.84	0.07
649.026	0.05
649.212	0.03
649.397	0.02
649.583	-0.01
649.769	0.08
649.955	0.04
650.141	0.08
650.327	0.09
650.513	0
650.698	0.07
650.884	-0
651.07	0.03
651.256	0.05
651.442	0.05
651.627	0.02
651.813	0.05
651.999	0.08
652.184	0.09
652.37	0.05
652.556	0.04
652.741	0.1
652.927	-0.02
653.113	0.07
653.298	0.05
653.484	0.06
653.669	0.01
653.855	0.07
654.04	0.1
654.226	0.06
654.412	0.08
654.597	0.04
654.782	0.05
654.968	0.08
655.153	0.12
655.339	0.02
655.524	0.06
655.71	0.1
655.895	0.06
656.08	0.09
656.266	0.14
656.451	0.11
656.636	0.08
656.822	0.09
657.007	0.04
657.192	0.09
657.378	0.04
657.563	0.08
657.748	0.08
657.933	0.09
658.118	0.06
658.304	0.06
658.489	0.1
658.674	0.11
658.859	0.09
659.044	0.13
659.229	0.12
659.414	0.07
659.599	0.08
659.785	0.06
659.97	0.09
660.155	0.15
660.34	0.12
660.525	0.11
660.71	0.08
660.895	0.11
661.08	0.06
661.264	0.05
661.449	0.11
661.634	0.13
661.819	0.1
662.004	0.1
662.189	-0
662.374	0.04
662.559	0.03
662.743	0.03
662.928	0.02
663.113	0.03
663.298	0.02
663.483	0.04
663.667	0.06
663.852	-0.02
664.037	0.12
664.221	0.02
664.406	0.06
664.591	0.07
664.775	0.06
664.96	0.02
665.145	0.02
665.329	0.02
665.514	0.02
665.698	0.03
665.883	-0.04
666.068	0.08
666.252	0.03
666.437	-0.02
666.621	0.06
666.806	0.06
666.99	0.01
667.174	-0.04
667.359	0.08
667.543	0.01
667.728	-0.01
667.912	-0.03
668.096	-0.01
668.281	-0.01
668.465	-0.02
668.649	0.02
668.834	0.02
669.018	-0.02
669.202	0.01
669.387	0.01
669.571	0.04
669.755	-0
669.939	0.01
670.124	0.03
670.308	0.03
670.492	0.01
670.676	0.01
670.86	-0
671.044	-0.03
671.228	0.02
671.413	-0.05
671.597	-0
671.781	-0.05
671.965	0.03
672.149	-0.01
672.333	-0
672.517	-0.03
672.701	0.02
672.885	-0.01
673.069	-0.06
673.253	0.05
673.437	-0.01
673.621	-0.05
673.804	-0.02
673.988	-0
674.172	0.01
674.356	-0.06
674.54	0
674.724	0.09
674.908	-0.03
675.091	0.02
675.275	-0.01
675.459	0.04
675.643	0.05
675.826	0.01
676.01	-0.03
676.194	0
676.377	0.01
676.561	0.02
676.745	0.01
676.928	0.01
677.112	0.03
677.296	-0
677.479	0.01
677.663	-0.07
677.846	-0.01
678.03	0.02
678.213	-0.02
678.397	0.05
678.58	-0.03
678.764	-0.01
678.947	-0.07
679.131	-0.1
679.314	0.09
679.498	-0
679.681	0.01
679.865	0.01
680.048	0
680.231	-0.02
680.415	-0.04
680.598	-0.02
680.781	-0.05
680.965	-0.03
681.148	-0.01
681.331	-0.03
681.514	0.03
681.698	-0.03
681.881	-0.01
682.064	0
682.247	-0.02
682.43	-0.11
682.614	-0.01
682.797	0.01
682.98	0
683.163	-0.07
683.346	0.03
683.529	-0.08
683.712	-0.09
683.895	-0.02
684.078	-0.04
684.261	-0.04
684.444	-0.02
684.627	-0.04
684.81	-0.06
684.993	-0.07
685.176	-0
685.359	-0.03
685.542	-0.04
685.725	-0.01
685.908	-0.03
686.091	-0.04
686.274	-0.02
686.457	0
686.639	-0.02
686.822	0.01
687.005	0.01
687.188	0.03
687.371	0.03
687.553	0.02
687.736	0
687.919	0.06
688.102	0.05
688.284	-0.04
688.467	-0.01
688.65	-0.01
688.832	-0
689.015	-0.04
689.197	-0.05
689.38	0.06
689.563	0.05
689.745	0.01
689.928	-0.05
690.11	-0.06
690.293	-0
690.475	-0.08
690.658	0.03
690.84	-0.03
691.023	0.01
691.205	0.02
691.388	-0.02
691.57	0.01
691.752	-0.01
691.935	-0.05
692.117	0.01
692.3	0.01
692.482	-0
692.664	-0.04
692.847	-0.05
693.029	0.02
693.211	0.02
693.393	0.01
693.576	-0.03
693.758	-0
693.94	-0.05
694.122	-0.06
694.304	-0.08
694.487	0.02
694.669	0.03
694.851	-0.03
695.033	-0.02
695.215	-0.01
695.397	-0.06
695.579	0
695.761	-0.08
695.943	-0.1
696.125	0.02
696.308	-0.02
696.49	-0.1
696.671	0.1
696.853	-0.05
697.035	0.08
697.217	-0.02
697.399	-0.01
697.581	-0.05
697.763	0.04
697.945	-0.04
698.127	0.01
698.309	0.04
698.491	0.02
698.672	0.02
698.854	0.05
699.036	0.05
699.218	0
699.399	0.06
699.581	-0
699.763	0.01
699.945	-0.08
700.126	-0.08
700.308	-0.01
700.49	-0
700.671	-0.1
700.853	-0.03
701.035	0.02
701.216	-0.04
701.398	-0.06
701.579	-0.06
701.761	0.04
701.943	-0.11
702.124	-0.04
702.306	-0.02
702.487	0.06
702.669	0.02
702.85	-0.08
703.031	-0.07
703.213	0.07
703.394	-0.01
703.576	-0
703.757	0.07
703.938	0.04
704.12	0.1
704.301	0.01
704.483	-0.09
704.664	0.03
704.845	0.04
705.026	-0.01
705.208	0.01
705.389	-0.03
705.57	-0.02
705.751	-0
705.933	0
706.114	0.05
706.295	-0.04
706.476	-0.09
706.657	0.02
706.838	-0.02
707.02	0.05
707.201	-0.06
707.382	-0.03
707.563	-0.06
707.744	-0.03
707.925	-0.05
708.106	-0.05
708.287	-0.02
708.468	0.08
708.649	-0
708.83	0.05
709.011	-0.03
709.192	0.05
709.373	-0.06
709.554	-0.06
709.734	0.02
709.915	0.04
710.096	0
710.277	-0.11
710.458	-0.04
710.639	0.07
710.819	-0.1
711	-0.06
711.181	-0.01
711.362	0.09
711.542	0.01
711.723	-0.03
711.904	-0
712.085	-0.01
712.265	-0.03
712.446	0.03
712.627	-0.05
712.807	-0.01
712.988	0.01
713.168	-0.07
713.349	0.06
713.53	-0.14
713.71	-0.04
713.891	-0.06
714.071	-0.02
714.252	-0.01
714.432	-0
714.613	-0.07
714.793	-0.03
714.974	0.01
715.154	-0.04
715.334	0.04
715.515	0.04
715.695	-0.07
715.876	0.05
716.056	0.03
716.236	-0.05
716.417	-0.05
716.597	-0.05
716.777	0.12
716.957	-0.02
717.138	-0.04
717.318	0.06
717.498	-0.05
717.678	-0
717.859	-0.04
718.039	-0.04
718.219	0.09
718.399	0.14
718.579	-0.02
718.759	-0.01
718.939	0.05
719.12	0.01
719.3	-0.01
719.48	-0.08
719.66	-0.09
719.84	0.1
720.02	0.01
720.2	-0.02
720.38	0.04
720.56	0.05
720.74	-0.04
720.92	-0
721.1	0.1
721.279	0.07
721.459	-0
721.639	-0.09
721.819	0.05
721.999	0.04
722.179	0.05
722.359	-0.12
722.538	0.07
722.718	0.06
722.898	-0.05
723.078	-0.03
723.257	0.03
723.437	0.08
723.617	-0.02
723.797	-0.05
723.976	0.02
724.156	0.07
724.336	0.11
724.515	0.1
724.695	-0.12
724.874	0.06
725.054	0.14
725.234	-0.09
725.413	0.05
725.593	0.01
725.772	0.06
725.952	0.04
726.131	0.04
726.311	0.02
726.49	-0.02
726.67	-0.07
726.849	-0.06
727.028	0.01
727.208	-0.07
727.387	0.06
727.567	-0.11
727.746	0.12
727.925	-0
728.105	-0.01
728.284	-0.01
728.463	0.04
728.643	0.04
728.822	-0.07
729.001	0.12
729.18	-0.01
729.359	0.17
729.539	-0.01
729.718	0.12
729.897	0.09
730.076	-0.05
730.255	-0.05
730.434	0.12
730.614	0.09
730.793	0.15
730.972	0.04
731.151	0
731.33	0.13
731.509	0.12
731.688	-0.02
731.867	0.03
732.046	-0.07
732.225	0.22
732.404	-0.03
732.583	-0.08
732.762	0.04
732.941	0.04
733.12	0.17
733.298	-0.01
733.477	0.1
733.656	0.01
733.835	-0.09
734.014	0.16
734.193	0.08
734.371	0.13
734.55	0.07
734.729	-0.09
734.908	0.08
735.086	0.17
735.265	0.02
735.444	-0.01
735.623	-0.02
735.801	-0.03
735.98	0.02
736.159	-0.01
736.337	0.11
736.516	0.02
736.694	0.02
736.873	0.03
737.052	0.15
737.23	0.16
737.409	-0.03
737.587	0.2
737.766	-0.11
737.944	-0.02
738.123	0.13
738.301	0.2
738.479	0.03
738.658	0.17
738.836	-0.1
739.015	0.05
739.193	0.1
739.371	0.02
739.55	0.16
739.728	-0.08
739.906	0.21
740.085	0.16
740.263	0.03
740.441	-0.1
740.62	0.24
740.798	0.17
740.976	-0.06
741.154	0.02
741.332	0.18
741.511	-0.03
741.689	0.1
741.867	0.17
742.045	-0.06
742.223	0.05
742.401	-0.01
742.579	0
742.757	0.08
742.935	-0.11
743.114	0.05
743.292	-0.04
743.47	-0
743.648	0.07
743.826	-0.08
744.004	0.18
744.181	-0.03
744.359	-0
744.537	0.01
744.715	-0.06
744.893	0.01
745.071	0.01
745.249	-0.04
745.427	0.03
745.605	-0
745.782	-0.1
745.96	0.06
746.138	-0
746.316	0.02
746.493	0.04
746.671	-0
746.849	-0.05
747.027	0.1
747.204	-0.08
747.382	0.09
747.56	-0.12
747.737	-0
747.915	-0.05
748.093	0.01
748.27	-0.06
748.448	0.06
748.625	-0.16
748.803	-0.13
748.98	-0.08
749.158	0.08
749.335	0.07
749.513	0.01
749.69	0.05
749.868	-0
750.045	-0.04
750.223	-0.11
750.4	-0.24
750.578	0.11
750.755	0
750.932	-0.15
751.11	0.24
751.287	-0.29
751.464	0.15
751.642	-0.07
751.819	0
751.996	0.01
752.173	-0.07
752.351	-0.24
752.528	-0.06
752.705	-0.05
752.882	-0.02
753.06	0.01
753.237	0.01
753.414	0.17
753.591	0.08
753.768	0.04
753.945	-0.03
754.122	0.01
754.299	0.01
754.476	-0.17
754.654	-0.05
754.831	0.06
755.008	-0.01
755.185	-0.06
755.362	-0.1
755.539	0.02
755.716	-0.14
755.892	-0.03
756.069	-0.03
756.246	-0.16
756.423	-0.02
756.6	0.06
756.777	-0.04
756.954	0.15
757.131	0.06
757.307	-0.15
757.484	-0.12
757.661	-0.09
757.838	-0.04
758.015	-0.06
758.191	0.09
758.368	0.01
758.545	0.08
758.721	-0.02
758.898	-0.07
759.075	-0.04
759.251	0.18
759.428	0.11
759.605	-0.15
759.781	-0.06
759.958	-0.07
760.134	-0.03
760.311	-0.19
760.488	0.09
760.664	0.03
760.841	0.03
761.017	-0.14
761.194	0.01
761.37	-0.04
761.547	-0.08
761.723	-0.06
761.899	0.09
762.076	-0.05
762.252	-0.13
762.429	-0.08
762.605	-0.01
762.781	-0.03
762.958	0.01
763.134	-0.07
763.31	-0.11
763.486	0.09
763.663	-0.17
763.839	0.07
764.015	-0.19
764.191	-0.05
764.368	-0.03
764.544	-0.17
764.72	-0.02
764.896	0.03
765.072	-0.11
765.248	-0.07
765.425	-0.12
765.601	-0.07
765.777	0.03
765.953	-0.26
766.129	-0.14
766.305	-0.14
766.481	-0.01
766.657	-0.04
766.833	0.07
767.009	-0.17
767.185	0
767.361	-0.1
767.537	-0.17
767.713	-0.04
767.889	-0.08
768.065	-0.05
768.24	-0.29
768.416	-0.04
768.592	-0.22
768.768	-0.08
768.944	-0.01
769.12	-0.27
769.295	-0.18
769.471	-0.02
769.647	-0.06
769.823	0.1
769.998	-0.11
770.174	-0.11
770.35	0.3
770.525	0.15
770.701	0.01
770.877	-0.03
771.052	-0.13
771.228	-0.02
771.403	-0.13
771.579	0.08
771.755	0.2
771.93	-0.07
772.106	-0.32
772.281	-0.33
772.457	0.01
772.632	-0.04
772.808	-0.03
772.983	-0.06
773.159	-0.14
773.334	0.12
773.509	-0.01
773.685	-0.09
773.86	0.27
774.036	0
774.211	-0
774.386	-0.13
774.562	-0.06
774.737	-0.06
774.912	-0.11
775.087	0.06
775.263	0.03
775.438	0.06
775.613	-0.08
775.788	0.04
775.964	-0.05
776.139	0.28
776.314	-0.2
776.489	-0.03
776.664	-0.08
776.839	-0.14
777.014	0.07
777.19	0.06
777.365	0.11
777.54	0.25
777.715	-0.07
777.89	0.03
778.065	-0.21
778.24	-0.07
778.415	-0.09
778.59	-0.2
778.765	-0.22
778.94	0.14
779.115	-0.04
779.289	-0.04
779.464	-0.11
779.639	-0.12
779.814	-0.29
779.989	-0.26
780.164	0.11
780.339	0.1
780.513	0.03
780.688	-0.16
780.863	-0.17
781.038	0.13
781.212	-0.18
781.387	-0.05
781.562	0.12
781.737	0.02
781.911	0.13
782.086	-0.16
782.261	-0
782.435	0.26
782.61	-0.14
782.784	-0.21
782.959	0.04
783.134	-0.14
783.308	-0.21
783.483	-0.18
783.657	0.18
783.832	-0.09
784.006	-0.22
784.181	0.03
784.355	0.12
784.53	-0.08
784.704	-0.05
784.878	0.14
785.053	0.13
785.227	0.32
785.402	0.27
785.576	-0.27
785.75	0.01
785.925	-0.24
786.099	-0.15
786.273	-0.06
786.448	-0.08
786.622	-0.1
786.796	-0.16
786.97	-0.04
787.145	0.35
787.319	-0.27
787.493	-0.24
787.667	-0.36
787.841	-0.04
788.015	0.16
788.19	-0.25
788.364	-0.1
788.538	0.21
788.712	0.01
788.886	-0.13
789.06	0.16
789.234	-0.08
789.408	-0.21
789.582	-0.07
789.756	0.03
789.93	-0.26
790.104	-0
790.278	-0.15
790.452	-0.15
790.626	0.07
790.8	-0.27
790.973	0.14
791.147	0.01
791.321	0.21
791.495	-0.07
791.669	-0.13
791.843	0.17
792.016	0.07
792.19	0.27
792.364	-0.14
792.538	0.24
792.711	0.02
792.885	-0.1
793.059	-0.1
793.233	-0.49
793.406	0
793.58	-0.09
793.754	0.15
793.927	-0.12
794.101	0.16
794.274	0.06
794.448	0.13
794.622	-0.16
794.795	0.01
794.969	-0.12
795.142	0.18
795.316	-0.1
795.489	-0.21
795.663	0.1
795.836	0.04
796.009	-0.4
796.183	0.23
796.356	0.08
796.53	-0.08
796.703	-0.08
796.876	0.33
797.05	-0.01
797.223	-0.15
797.396	0.05
797.57	-0.15
797.743	0.07
797.916	0.05
798.09	-0.05
798.263	0.33
798.436	0.23
798.609	-0.03
798.782	-0.02
798.956	0.23
799.129	0.02
799.302	-0.36
799.475	-0.07
799.648	-0.27
799.821	-0.25
799.994	0
800.167	-0.32
800.34	0.03
800.514	-0.12
800.687	-0.09
800.86	-0.08
801.033	-0.1
801.206	-0.17
801.379	-0.31
801.551	0.33
801.724	0.02
801.897	0.21
802.07	-0.22
802.243	-0.4
802.416	0.01
802.589	-0.34
802.762	-0.2
802.935	-0.28
803.107	0.07
803.28	0.2
803.453	-0.03
803.626	-0.31
803.798	0.01
803.971	-0.21
804.144	-0.18
804.317	0.18
804.489	-0.04
804.662	-0.3
804.835	0.06
805.007	-0.28
805.18	0.3
805.353	0.16
805.525	-0.28
805.698	-0.22
805.87	0.14
806.043	0.19
806.215	-0.48
806.388	-0.25
806.56	0.21
806.733	0.15
806.905	-0.05
807.078	-0.07
807.25	-0.2
807.423	-0.08
807.595	0.07
807.768	-0
807.94	0.13
808.112	-0.05
808.285	-0.02
808.457	-0.27
808.629	-0.08
808.802	0.22
808.974	-0.07
809.146	-0.21
809.318	-0.35
809.491	-0.07
809.663	-0
809.835	-0.37
810.007	-0.08
810.18	-0.36
810.352	-0.36
810.524	-0.28
810.696	0.06
810.868	0.07
811.04	0.07
811.212	-0.34
811.384	0.36
811.556	-0.21
811.728	0.03
811.901	0.46
812.073	-0.3
812.245	-0.11
812.417	-0.08
812.589	-0.69
812.76	-0.23
812.932	-0.02
813.104	0.1
813.276	-0.23
813.448	0.32
813.62	0.03
813.792	0.48
813.964	-0.53
814.136	0.04
814.307	-0.34
814.479	-0.29
814.651	-0.36
814.823	0.28
814.995	-0.17
815.166	-0.17
815.338	-0.55
815.51	-0.58
815.681	0.87
815.853	-0.17
816.025	-0.08
816.196	0.17
816.368	-0.18
816.54	-0.45
816.711	-0.59
816.883	-0.01
817.054	1.14
817.226	-0.58
817.398	0.36
817.569	-0.31
817.741	-0.08
817.912	-0.44
818.084	-0.4
818.255	0.07
818.426	-0.02
818.598	-0.18
818.769	-0.51
818.941	-0.06
819.112	0.33
819.283	-0.5
819.455	-0.4
819.626	0.11
819.798	0.07
819.969	0.36
820.14	-0.37
820.311	-0.01
820.483	-0.03
820.654	-0.22
820.825	-0.12
820.996	-0.59
821.168	-0.44
821.339	-0.33
821.51	-0.37
821.681	-0.2
821.852	-0.46
822.023	-0.4
822.195	-0.45
822.366	0.45
822.537	0.09
822.708	0.12
822.879	-0.3
823.05	0.74
823.221	-0.25
823.392	0.08
823.563	-0.03
823.734	-0.41
823.905	-0.17
824.076	-0.55
824.247	-0.79
824.418	-1.14
824.589	0.56
824.759	-0
824.93	-0.17
825.101	-0.63
825.272	0.03
825.443	0.76
825.614	0.15
825.784	-0.98
825.955	0.97
826.126	0.02
826.297	-0.04
826.467	1.07
826.638	0.54
826.809	-0.87
826.98	-0.36
827.15	0.3
827.321	-0.19
827.492	0.71
827.662	0.66
827.833	0.42
828.003	0.07
828.174	-0.66
828.345	-0.89
828.515	0.43
828.686	0.46
828.856	-0.05
829.027	-0.49
829.197	-0.67
829.368	0.47
829.538	-0.34
829.709	-0.15
829.879	0.35
830.049	-0.07
830.22	-0.51
830.39	-0.26
830.56	0.74
830.731	-0.16
830.901	0
831.072	-0.09
831.242	-0.01
831.412	0.05
831.582	-0.11
831.753	-0
831.923	0.28
832.093	-0.54
832.263	-0.35
832.434	-0.76
832.604	-0.46
832.774	0.46
832.944	-0.47
833.114	0.16
833.284	-0.13
833.454	-0.35
833.624	-0.62
833.795	-0.56
833.965	0.43
834.135	0.73
834.305	-0.84
834.475	-0.5
834.645	-0.15
834.815	-0.49
834.985	-0.76
835.155	-0.38
835.325	0.26
835.494	0.03
835.664	0.02
835.834	-1.66
836.004	-0.07
836.174	0.46
836.344	-0.28
836.514	-0.55
836.684	-0.09
836.853	0.19
837.023	0.58
837.193	-0.22
837.363	0.29
837.532	0.39
837.702	-0.29
837.872	-0.36
838.041	0.62
838.211	1.43
838.381	-0.63
838.55	-0.34
838.72	1.63
838.89	1.19
839.059	-0.39
839.229	0
839.398	0.71
839.568	0.42
839.738	0.39
839.907	0.7
840.077	0.23
840.246	-0.05
840.416	-0.74
840.585	-1.02
840.755	0.66
840.924	0.53
841.093	-1.53
841.263	-0.84
841.432	0.58
841.602	-1.57
841.771	-0.83
841.94	0.39
842.11	1.48
842.279	1.02
842.448	-1.19
842.617	-0.33
842.787	0.71
842.956	-0.41
843.125	0.21
843.294	0.57
843.464	0.26
843.633	-0.7
843.802	-1.04
843.971	-0.86
844.14	0.1
844.309	0.39
844.479	-0.3
844.648	-0.91
844.817	-0.67
844.986	-0.52
845.155	-0.59
845.324	-0.08
845.493	-0.24
845.662	-0.28
845.831	0.26
846	-0.11
846.169	-0.84
846.338	0.57
846.507	-0.85
846.676	0.13
846.844	-0.83
847.013	0.54
847.182	-0.21
847.351	-0.09
847.52	-0.78
847.689	0.13
847.858	-0.2
848.026	-0.5
848.195	-0.2
848.364	-0.14
848.533	-0.3
848.701	-1.56
848.87	0.27
849.039	0.28
849.207	0.65
849.376	1.44
849.545	0.28
849.713	-0.13
849.882	-0.87
850.051	-0.47
850.219	-0.7
850.388	0.52
850.556	-0.34
850.725	-1.26
850.893	-0.4
851.062	-0.32
851.23	0.44
851.399	-2
851.567	-0.62
851.736	-0.52
851.904	-1.67
852.073	-0.33
852.241	1.05
852.41	-0.22
852.578	-0.04
852.746	-0.5
852.915	-0.2
853.083	0.35
853.251	-1.23
853.42	-0.74
853.588	0.19
853.756	0.29
853.924	-0.06
854.093	-0.63
854.261	-0.79
854.429	-0.71
854.597	-0.82
854.765	-0.47
854.934	0.07
855.102	0.56
855.27	0.49
855.438	0.81
855.606	0.34
855.774	1.27
855.942	-1.02
856.11	-2.23
856.278	0.98
856.446	1.24
856.614	-0.12
856.782	-0.2
856.95	0.21
857.118	0.66
857.286	-0.05
857.454	-1.56
857.622	-0.04
857.79	-0.06
857.958	-1.4
858.126	0.05
858.294	-2.17
858.462	0.18
858.629	-1.4
858.797	-1.6
858.965	0.71
859.133	0.03
859.301	0.01
859.468	0.52
859.636	-0.42
859.804	-0.1
859.971	0.32
860.139	-0.77
860.307	0.44
860.474	0.56
860.642	-1.07
860.81	-0.68
860.977	-1.25
861.145	1.18
861.313	-0.3
861.48	-0.67
861.648	1.06
861.815	-0.56
861.983	-2.45
862.15	-0.27
862.318	1.49
862.485	0.94
862.653	-0.7
862.82	-2.06
862.988	1.67
863.155	0.2
863.322	-2.02
863.49	0.01
863.657	-0.15
863.824	0.88
863.992	0.24
864.159	1.59
864.326	0.33
864.494	-1.59
864.661	2.25
864.828	-1.45
864.996	-0.07
865.163	2.22
865.33	-1.57
865.497	-1.29
865.664	-1.07
865.832	-1.1
865.999	-0.88
866.166	-1.96
866.333	-2.66
866.5	-3.21
866.667	-1.73
866.834	-1.14
867.001	1.61
867.168	-1.92
867.335	0.88
867.502	-3.14
867.669	-0.11
867.836	1.15
868.003	0.53
868.17	1.2
868.337	-1.23
868.504	0.45
868.671	-3.19
868.838	-0.94
869.005	0.49
869.172	0.73
869.339	0.31
869.505	0.12
869.672	-2.76
869.839	0.31
870.006	0.09
870.173	-2.5
870.339	0.23
870.506	0.59
870.673	-1.74
870.84	0.15
871.006	0.41
871.173	-0.77
871.34	-0.55
871.506	-2.64
871.673	0.94
871.839	-1.54
872.006	-1.31
872.173	-1.91
872.339	0.24
872.506	2.06
872.672	-0.4
872.839	-2.42
873.005	0.11
873.172	3.66
873.338	-0.56
873.505	-0.61
873.671	-0.78
873.838	0.5
874.004	-1.59
874.171	-0.62
874.337	0.37
874.503	-0.99
874.67	-0.04
874.836	-2.08
875.002	1.9
875.169	-0.77
875.335	-0.04
875.501	-0.99
875.668	0.56
875.834	-1.88
876	0.33
876.166	0.69
876.332	-1.08
876.499	2.77
876.665	-0.44
876.831	0.07
876.997	2.34
877.163	0.42
877.329	-1.51
877.495	-1.05
877.662	1.55
877.828	0.21
877.994	-3.14
878.16	-2.26
878.326	-2.48
878.492	0.51
878.658	-1.28
878.824	-0.19
878.99	0.29
879.156	-2.17
879.322	1.38
879.487	-0.27
879.653	-0.59
879.819	-0.02
879.985	1
880.151	-0.21
880.317	0.39
880.483	-0.45
880.648	0.7
880.814	-4.43
880.98	-2.71
881.146	-1.11
881.312	-1.09
881.477	-1.73
881.643	0.76
881.809	1.44
881.974	0.97
882.14	-2.03
882.306	-0.67
882.471	0.22
882.637	-0.91
882.803	0.01
882.968	0.67
883.134	3.7
883.299	-0.74
883.465	0.12
883.63	1.71
883.796	0.07
883.961	-1.17
884.127	0.37
884.292	-5
884.458	-3.37
884.623	-3.36
