Data from Apollo_Calib_20240827__AbsoluteIrradiance__323__04-32-02-428.txt Node

Date: Wed Aug 28 04:32:02 BST 2024
User: biology
Spectrometer: FLMT08252
Trigger mode: 0
Integration Time (sec): 5.000000E-1
Scans to average: 5
Electric dark correction enabled: true
Nonlinearity correction enabled: false
Boxcar width: 0
XAxis mode: Wavelengths
Number of Pixels in Spectrum: 3648
>>>>>Begin Spectral Data<<<<<
179.588	-0
179.809	-0
180.03	-0
180.251	-0
180.473	-0
180.694	0
180.915	0
181.136	-0
181.357	0
181.578	-0
181.799	-0
182.02	-0
182.241	-0
182.462	-0
182.683	0
182.904	-0
183.125	-0
183.346	-0
183.567	-0
183.788	-0
184.009	-0
184.23	0
184.451	0
184.672	-0
184.892	-0
185.113	0
185.334	0
185.555	-0
185.776	-0
185.996	-0
186.217	0
186.438	-0
186.659	-0
186.879	0
187.1	0
187.321	-0
187.541	-0
187.762	0
187.983	-0
188.203	0
188.424	-0
188.644	-0
188.865	0
189.086	-0
189.306	-0
189.527	-0
189.747	0
189.968	-0
190.188	0
190.409	-0
190.629	0
190.849	-0
191.07	-0
191.29	0
191.511	0
191.731	-0
191.951	-0
192.172	0
192.392	0
192.612	0
192.833	-0
193.053	0
193.273	0
193.493	-0
193.714	-0
193.934	0
194.154	0
194.374	0
194.594	-0
194.815	0
195.035	-0
195.255	0
195.475	-0
195.695	0
195.915	0
196.135	0
196.355	0
196.575	0
196.795	0
197.015	-0
197.235	-0
197.455	-0
197.675	0
197.895	-0
198.115	-0
198.335	0
198.555	-0
198.775	-0
198.995	0
199.214	0
199.434	0
199.654	-0
199.874	-0
200.094	0.95
200.313	-0.12
200.533	-0.67
200.753	-1.22
200.973	0.59
201.192	1.32
201.412	-0.65
201.632	-0.35
201.851	1.02
202.071	-0.2
202.291	-0.17
202.51	-0.33
202.73	0.27
202.95	-0.37
203.169	-0.93
203.389	-0.09
203.608	-0.1
203.828	-0.21
204.047	-0.32
204.267	0.38
204.486	-0
204.706	0.14
204.925	0.34
205.145	-0.37
205.364	0.45
205.583	0.69
205.803	-0.27
206.022	-0.49
206.242	0.18
206.461	0.33
206.68	-0.43
206.9	0.15
207.119	0.65
207.338	0.6
207.557	-0.28
207.777	-0.54
207.996	-0.29
208.215	0.72
208.434	-0.25
208.654	-0.6
208.873	0.22
209.092	0.51
209.311	-0.17
209.53	-0.23
209.749	-0.02
209.968	-0.11
210.187	-0.14
210.407	-0.53
210.626	-0.13
210.845	0.28
211.064	-0.19
211.283	-0.18
211.502	0.21
211.721	0.15
211.94	-0.03
212.159	0.08
212.377	0.38
212.596	0.16
212.815	0.11
213.034	-0.04
213.253	0.24
213.472	0.24
213.691	-0.2
213.91	-0.23
214.128	-0.01
214.347	0.38
214.566	-0.38
214.785	-0.37
215.003	0.35
215.222	0.01
215.441	-0.21
215.66	-0.34
215.878	0.04
216.097	0.35
216.316	-0.13
216.534	0.04
216.753	0.09
216.972	0.02
217.19	-0.04
217.409	-0.04
217.627	-0.12
217.846	0.12
218.064	0.06
218.283	-0.13
218.501	0.42
218.72	0.2
218.938	-0.31
219.157	-0.15
219.375	0.23
219.594	0.14
219.812	-0.28
220.031	-0.05
220.249	0.26
220.467	0.37
220.686	-0.14
220.904	-0.21
221.122	-0.07
221.341	0.43
221.559	-0.03
221.777	-0.24
221.995	0.11
222.214	0.11
222.432	-0.18
222.65	0
222.868	0.15
223.086	0.11
223.305	0.06
223.523	-0.05
223.741	0.32
223.959	-0.05
224.177	-0.34
224.395	-0.15
224.613	0.09
224.831	0.25
225.049	-0.2
225.267	-0.01
225.485	-0.03
225.703	0.05
225.921	0.04
226.139	-0.03
226.357	0.16
226.575	0.06
226.793	-0.1
227.011	0.62
227.229	0.07
227.447	0.15
227.665	-0.06
227.883	-0.13
228.1	-0.03
228.318	0.07
228.536	-0.2
228.754	-0.15
228.972	0.19
229.189	0.06
229.407	-0.12
229.625	-0.04
229.843	0.25
230.06	0.17
230.278	-0.04
230.496	-0.06
230.713	0.1
230.931	0.16
231.149	-0.03
231.366	-0.25
231.584	-0.07
231.801	0.42
232.019	-0.08
232.236	-0.09
232.454	-0.14
232.671	0.1
232.889	0.06
233.106	-0.15
233.324	0.01
233.541	0.02
233.759	0.06
233.976	-0.02
234.194	0.06
234.411	-0.07
234.628	-0.12
234.846	-0.03
235.063	-0.04
235.28	-0.03
235.498	-0.08
235.715	-0.11
235.932	0.16
236.149	0.04
236.367	-0.06
236.584	-0.03
236.801	0.01
237.018	0.02
237.236	0.02
237.453	-0.08
237.67	0.14
237.887	0.07
238.104	0.01
238.321	-0.13
238.538	-0.07
238.755	0.21
238.973	-0.18
239.19	0.06
239.407	0.07
239.624	0.07
239.841	-0.15
240.058	-0.15
240.275	0.08
240.492	0.03
240.709	-0.02
240.925	0.01
241.142	-0.04
241.359	-0.14
241.576	-0.04
241.793	-0.06
242.01	0.07
242.227	0.12
242.444	-0.01
242.66	0.09
242.877	0.04
243.094	0
243.311	0.12
243.527	0
243.744	0.02
243.961	0.1
244.178	0
244.394	-0
244.611	0.16
244.828	0.16
245.044	-0.11
245.261	-0.09
245.477	0.02
245.694	0.08
245.911	-0.01
246.127	-0.04
246.344	0.13
246.56	0.09
246.777	0.02
246.993	-0.01
247.21	0.05
247.426	0.1
247.643	-0.05
247.859	-0.09
248.076	-0.03
248.292	0.22
248.508	-0.11
248.725	0.03
248.941	0.11
249.157	0.14
249.374	0.03
249.59	-0.02
249.806	0.01
250.023	0.17
250.239	-0.03
250.455	-0.07
250.671	-0.01
250.888	0.1
251.104	0.12
251.32	-0.06
251.536	0.05
251.752	-0.12
251.969	0.05
252.185	-0.01
252.401	0.22
252.617	0.03
252.833	-0.06
253.049	0.04
253.265	0.05
253.481	0.08
253.697	-0.1
253.913	-0.06
254.129	0.01
254.345	0.02
254.561	-0.01
254.777	0.04
254.993	0.09
255.209	0.04
255.425	-0.01
255.641	-0.1
255.857	0.16
256.073	0.06
256.288	-0.02
256.504	-0.01
256.72	0.07
256.936	0.14
257.152	-0.05
257.367	-0.08
257.583	-0.02
257.799	0.09
258.015	-0.07
258.23	-0.07
258.446	0.16
258.662	-0.08
258.877	-0.06
259.093	-0.04
259.309	0.07
259.524	0.05
259.74	-0.04
259.955	-0.06
260.171	0.03
260.387	0.09
260.602	0.12
260.818	0.05
261.033	-0.09
261.249	-0.03
261.464	0.01
261.68	-0.13
261.895	0.02
262.11	0.11
262.326	-0.05
262.541	-0.15
262.757	0.12
262.972	0.05
263.187	0.04
263.403	0.01
263.618	0.08
263.833	-0
264.049	-0.06
264.264	-0
264.479	0.05
264.694	0.11
264.91	-0.04
265.125	-0.06
265.34	0.07
265.555	0.17
265.77	0.11
265.986	-0.04
266.201	0.1
266.416	0.17
266.631	-0.05
266.846	-0.01
267.061	0.1
267.276	0.1
267.491	-0.17
267.706	0.09
267.921	0.04
268.136	0.04
268.351	0.01
268.566	-0.09
268.781	0.11
268.996	0.11
269.211	0.04
269.426	-0.15
269.641	0.05
269.856	0.09
270.071	-0.03
270.285	-0.08
270.5	0.04
270.715	0.12
270.93	-0
271.145	0.05
271.359	0.04
271.574	-0.04
271.789	-0.05
272.004	-0.03
272.218	0.03
272.433	0.09
272.648	-0.01
272.862	0.12
273.077	0
273.292	0.05
273.506	-0.05
273.721	0.02
273.936	0.03
274.15	0.13
274.365	-0.03
274.579	0.07
274.794	0.09
275.008	0.06
275.223	-0.12
275.437	0.01
275.652	0.12
275.866	0.08
276.081	0.05
276.295	0.04
276.509	0
276.724	0.06
276.938	-0
277.153	0.02
277.367	0.1
277.581	0.01
277.796	0
278.01	-0.04
278.224	0.11
278.438	0.1
278.653	-0.04
278.867	-0.02
279.081	-0.19
279.295	0.01
279.51	0.03
279.724	-0.08
279.938	0.07
280.152	0.07
280.366	-0.01
280.58	0.05
280.794	0.11
281.008	0.04
281.222	0.06
281.437	0.12
281.651	0
281.865	0.06
282.079	0
282.293	-0.07
282.507	-0.07
282.721	0.04
282.935	0.07
283.148	-0.1
283.362	-0.03
283.576	-0.05
283.79	0.02
284.004	-0.05
284.218	0.08
284.432	-0.03
284.646	0.02
284.859	0.01
285.073	0.03
285.287	0.04
285.501	-0.01
285.714	0.02
285.928	0.06
286.142	0.05
286.356	-0.05
286.569	-0.01
286.783	0.1
286.997	0.08
287.21	0.03
287.424	0.1
287.637	0.08
287.851	-0.02
288.065	0.01
288.278	-0.01
288.492	-0
288.705	0.01
288.919	0.04
289.132	-0.07
289.346	0.13
289.559	-0.06
289.773	-0.04
289.986	0.04
290.2	0.01
290.413	0.07
290.626	0.01
290.84	-0
291.053	0.01
291.267	0.13
291.48	0.01
291.693	0.01
291.906	0.01
292.12	0.05
292.333	-0.03
292.546	0.02
292.76	0.14
292.973	-0.02
293.186	0.08
293.399	-0.03
293.612	0.06
293.826	0.05
294.039	0.02
294.252	0
294.465	0.12
294.678	0.02
294.891	0.02
295.104	-0.02
295.317	0.01
295.53	0.04
295.743	-0.01
295.956	0.04
296.169	0.12
296.382	0.08
296.595	0.02
296.808	-0.04
297.021	0.07
297.234	0.08
297.447	0.01
297.66	0.04
297.873	0.09
298.086	0.07
298.299	-0.02
298.511	-0.08
298.724	-0.03
298.937	-0.01
299.15	-0.06
299.363	0.02
299.575	0.06
299.788	0.05
300.001	-0.03
300.213	-0.02
300.426	0.02
300.639	-0.01
300.852	-0.01
301.064	0.03
301.277	0.12
301.489	0.09
301.702	0.06
301.915	0.03
302.127	0.05
302.34	0.06
302.552	0.04
302.765	-0.03
302.977	0.11
303.19	0.03
303.402	-0.02
303.615	0.04
303.827	0.02
304.04	0.02
304.252	0.04
304.464	0.04
304.677	0.14
304.889	0.07
305.102	0.01
305.314	-0
305.526	0.04
305.739	0.09
305.951	0
306.163	-0
306.375	0.11
306.588	0.03
306.8	0.02
307.012	-0.02
307.224	0.05
307.436	0.1
307.649	-0.03
307.861	0.06
308.073	0.11
308.285	-0
308.497	-0.04
308.709	-0.02
308.921	0.05
309.133	0.1
309.346	0.03
309.558	0.01
309.77	0.1
309.982	0.13
310.194	0.07
310.406	-0.02
310.617	0.12
310.829	0.08
311.041	0.09
311.253	-0.05
311.465	0.04
311.677	0.02
311.889	-0.01
312.101	-0.02
312.313	0.09
312.524	0.09
312.736	0.01
312.948	0.01
313.16	0.12
313.372	0.05
313.583	0.05
313.795	0.02
314.007	0.02
314.218	0.05
314.43	0
314.642	-0.01
314.853	-0.02
315.065	0.03
315.277	-0
315.488	0.02
315.7	0.08
315.912	0.07
316.123	0.07
316.335	0.02
316.546	0.11
316.758	0.02
316.969	-0.01
317.181	0
317.392	0.04
317.604	0.07
317.815	0.01
318.026	-0.03
318.238	0
318.449	0.04
318.661	-0.05
318.872	-0.04
319.083	-0.05
319.295	0.03
319.506	-0
319.717	0.1
319.929	0.08
320.14	0.05
320.351	0.04
320.562	-0.02
320.774	0.01
320.985	0.07
321.196	-0.08
321.407	-0.07
321.618	0.05
321.829	0.06
322.041	0.08
322.252	0.03
322.463	0.03
322.674	0.05
322.885	0
323.096	-0
323.307	0.03
323.518	0.03
323.729	-0
323.94	0.01
324.151	0.06
324.362	0.04
324.573	0.04
324.784	-0.01
324.995	0.04
325.206	0.01
325.417	-0.02
325.628	-0
325.838	0.06
326.049	0.04
326.26	0.11
326.471	0.01
326.682	0.04
326.892	0.04
327.103	-0.05
327.314	-0.02
327.525	0.1
327.735	0.04
327.946	0.05
328.157	-0.01
328.368	0.05
328.578	0.02
328.789	0.06
328.999	0.02
329.21	0.02
329.421	0.11
329.631	-0.02
329.842	0.01
330.052	0.08
330.263	0.07
330.473	0.04
330.684	0.04
330.894	0.01
331.105	0.05
331.315	0.04
331.526	-0.04
331.736	0.09
331.947	0.01
332.157	0.03
332.367	-0
332.578	0.08
332.788	0.11
332.999	0.09
333.209	0.04
333.419	-0.03
333.629	0.06
333.84	0.06
334.05	0.01
334.26	0.11
334.47	0.08
334.681	0.07
334.891	0.02
335.101	0.08
335.311	0.15
335.521	0.04
335.732	-0.03
335.942	0.08
336.152	0.02
336.362	0.03
336.572	0
336.782	0.1
336.992	-0.01
337.202	0.02
337.412	-0.02
337.622	0.04
337.832	0.03
338.042	0.02
338.252	0.02
338.462	0.03
338.672	0.01
338.882	-0.03
339.092	0.06
339.302	0.12
339.511	0.03
339.721	-0.02
339.931	-0
340.141	0.09
340.351	0.06
340.561	0.08
340.77	0.03
340.98	-0.02
341.19	0.09
341.4	0.01
341.609	-0.03
341.819	0.01
342.029	-0.02
342.238	0.07
342.448	0.01
342.658	0.05
342.867	0.05
343.077	0.03
343.286	0.02
343.496	0.03
343.706	0.1
343.915	-0
344.125	0.03
344.334	0.03
344.544	-0.02
344.753	-0.01
344.963	0.02
345.172	0.03
345.381	0.04
345.591	-0.01
345.8	0.02
346.01	0.1
346.219	0.05
346.428	-0.07
346.638	0.04
346.847	0.03
347.056	0.06
347.266	-0.03
347.475	0.01
347.684	0.05
347.893	0.07
348.103	0.03
348.312	-0
348.521	0.02
348.73	-0
348.94	0.05
349.149	0.03
349.358	0.02
349.567	0.02
349.776	-0.04
349.985	0.04
350.194	0.06
350.403	0.08
350.612	-0.01
350.821	-0.01
351.03	0.01
351.239	0
351.448	0.02
351.657	0.02
351.866	0.12
352.075	0.05
352.284	0.06
352.493	-0.01
352.702	0.09
352.911	0.03
353.12	0.02
353.329	-0.01
353.538	0.03
353.746	0.03
353.955	-0.02
354.164	0.05
354.373	0.01
354.582	0.08
354.79	0.03
354.999	0.07
355.208	-0.01
355.416	0.1
355.625	-0.03
355.834	-0.01
356.042	0.07
356.251	0.01
356.46	-0
356.668	0.01
356.877	0.15
357.085	0.11
357.294	-0.05
357.503	0.03
357.711	0.04
357.92	0.15
358.128	0.03
358.337	0.01
358.545	0.03
358.754	0.01
358.962	0.03
359.17	0.02
359.379	0.07
359.587	0.03
359.796	0.04
360.004	0.07
360.212	0.04
360.421	0.12
360.629	0
360.837	0
361.046	0.1
361.254	0.11
361.462	0.03
361.67	-0.01
361.879	0.03
362.087	0.11
362.295	0.02
362.503	0.01
362.711	0.01
362.92	-0.01
363.128	0.01
363.336	0
363.544	0
363.752	-0.01
363.96	0.02
364.168	0.07
364.376	0.02
364.584	0.04
364.792	0.07
365	0.03
365.208	0.03
365.416	0.08
365.624	0.07
365.832	0.02
366.04	0.06
366.248	0.06
366.456	0.03
366.664	0.04
366.872	0.06
367.079	0
367.287	0.02
367.495	-0.01
367.703	0.02
367.911	0.02
368.118	0.01
368.326	0.01
368.534	-0.03
368.742	0.04
368.949	0
369.157	-0.01
369.365	0.05
369.572	0.02
369.78	-0.02
369.988	0.07
370.195	0.01
370.403	0.04
370.61	0
370.818	0.05
371.026	0.1
371.233	-0.03
371.441	0.08
371.648	0.03
371.856	0.06
372.063	0.07
372.271	0.05
372.478	0.02
372.685	0.01
372.893	0.09
373.1	-0
373.308	-0.03
373.515	0.1
373.722	0.05
373.93	-0.01
374.137	0.1
374.344	0.13
374.552	0.08
374.759	0.07
374.966	0.02
375.173	-0.02
375.381	0.08
375.588	0.02
375.795	-0.05
376.002	0.02
376.209	-0
376.417	0.05
376.624	0.04
376.831	0.07
377.038	0.04
377.245	-0.06
377.452	-0.01
377.659	0.07
377.866	0.03
378.073	0.02
378.28	-0
378.487	0.13
378.694	0.05
378.901	-0.03
379.108	0.01
379.315	0.09
379.522	0.11
379.729	0.05
379.936	0.03
380.143	0.03
380.35	0.05
380.557	0.01
380.763	0.02
380.97	0.03
381.177	0.05
381.384	0.02
381.591	-0.04
381.797	0.02
382.004	0.07
382.211	0.07
382.418	0.06
382.624	0.06
382.831	0.06
383.038	-0.04
383.244	0.06
383.451	0.03
383.658	0.02
383.864	0.01
384.071	0.02
384.277	0.12
384.484	-0
384.69	0.05
384.897	0.02
385.103	0.03
385.31	0.01
385.516	0.02
385.723	-0.03
385.929	0.05
386.136	0
386.342	0.02
386.549	0.04
386.755	0.08
386.961	0.06
387.168	0.05
387.374	0.08
387.58	0.06
387.787	0.01
387.993	0.02
388.199	0.07
388.406	0
388.612	0.01
388.818	0.02
389.024	0.02
389.231	0.06
389.437	0.04
389.643	0.09
389.849	0.01
390.055	0.04
390.261	0.04
390.467	0.06
390.674	-0.01
390.88	0.03
391.086	0.08
391.292	-0.02
391.498	0.02
391.704	0.05
391.91	0.04
392.116	0.01
392.322	-0.05
392.528	0.04
392.734	0.04
392.94	0.03
393.146	-0.01
393.352	0.04
393.557	0.01
393.763	0.04
393.969	0.04
394.175	0.04
394.381	0.04
394.587	0.01
394.792	0.04
394.998	0.07
395.204	0.08
395.41	0.02
395.615	0.07
395.821	0.05
396.027	0.1
396.233	-0.01
396.438	0.08
396.644	0.09
396.85	0.03
397.055	0.02
397.261	0.03
397.466	0.12
397.672	0.03
397.878	0.05
398.083	0.07
398.289	-0
398.494	0.09
398.7	0.04
398.905	-0
399.111	0.14
399.316	0.05
399.522	0.02
399.727	0.06
399.932	0.07
400.138	0.02
400.343	0.1
400.549	0.1
400.754	0.09
400.959	0.08
401.165	0.04
401.37	0.06
401.575	0.14
401.78	0.1
401.986	0
402.191	0.02
402.396	0.03
402.601	0.08
402.807	0.04
403.012	0.04
403.217	0.12
403.422	0.04
403.627	0.04
403.832	0.05
404.037	0.06
404.243	0.02
404.448	0.01
404.653	0.05
404.858	0
405.063	0.1
405.268	0.03
405.473	-0.01
405.678	-0.01
405.883	0.18
406.088	0.09
406.293	-0.01
406.498	0.05
406.703	0.09
406.907	0.07
407.112	0.02
407.317	0.06
407.522	0.14
407.727	-0.05
407.932	0.1
408.136	0.12
408.341	0.06
408.546	0.09
408.751	0.06
408.956	0.07
409.16	0.09
409.365	0.04
409.57	0.07
409.774	0.08
409.979	0.12
410.184	0.13
410.388	0
410.593	0.12
410.798	0.07
411.002	0.05
411.207	0.09
411.411	0.08
411.616	0.07
411.82	0.08
412.025	0.17
412.229	0.08
412.434	0.17
412.638	0.11
412.843	0.09
413.047	0.12
413.252	0.07
413.456	0.09
413.66	0.18
413.865	0.08
414.069	0.2
414.273	0.12
414.478	0.12
414.682	0.07
414.886	0.15
415.091	0.11
415.295	0.07
415.499	0.23
415.703	0.15
415.908	0.19
416.112	0.09
416.316	0.24
416.52	0.24
416.724	0.13
416.929	0.11
417.133	0.36
417.337	0.18
417.541	0.13
417.745	0.22
417.949	0.28
418.153	0.27
418.357	0.2
418.561	0.44
418.765	0.32
418.969	0.46
419.173	0.36
419.377	0.33
419.581	0.46
419.785	0.39
419.989	0.32
420.193	0.37
420.397	0.41
420.601	0.5
420.804	0.47
421.008	0.47
421.212	0.48
421.416	0.53
421.62	0.42
421.823	0.48
422.027	0.64
422.231	0.52
422.435	0.51
422.638	0.55
422.842	0.61
423.046	0.61
423.249	0.66
423.453	0.67
423.657	0.77
423.86	0.69
424.064	0.67
424.268	0.86
424.471	0.77
424.675	0.84
424.878	0.94
425.082	0.86
425.285	0.97
425.489	0.91
425.692	0.95
425.896	0.94
426.099	1.06
426.303	0.97
426.506	1.09
426.71	1.18
426.913	1.27
427.116	1.28
427.32	1.31
427.523	1.23
427.726	1.39
427.93	1.35
428.133	1.53
428.336	1.5
428.54	1.51
428.743	1.59
428.946	1.67
429.149	1.74
429.353	1.74
429.556	1.77
429.759	1.77
429.962	1.76
430.165	1.8
430.368	1.73
430.571	1.79
430.775	1.88
430.978	1.8
431.181	1.86
431.384	1.93
431.587	1.88
431.79	2.03
431.993	2.1
432.196	2.14
432.399	2.15
432.602	2.36
432.805	2.25
433.008	2.4
433.211	2.35
433.414	2.54
433.616	2.58
433.819	2.52
434.022	2.52
434.225	2.73
434.428	2.68
434.631	2.93
434.833	2.8
435.036	2.92
435.239	2.98
435.442	3.02
435.645	3.05
435.847	3.07
436.05	3.27
436.253	3.34
436.455	3.34
436.658	3.37
436.861	3.44
437.063	3.46
437.266	3.55
437.468	3.71
437.671	3.93
437.874	3.89
438.076	3.75
438.279	4.04
438.481	4.15
438.684	4.36
438.886	4.44
439.089	4.44
439.291	4.51
439.494	4.74
439.696	4.75
439.899	4.99
440.101	5.28
440.303	5.38
440.506	5.73
440.708	5.66
440.91	5.89
441.113	5.95
441.315	6.12
441.517	6.2
441.72	6.55
441.922	6.41
442.124	6.5
442.326	6.69
442.529	6.86
442.731	7.02
442.933	7.33
443.135	7.25
443.337	7.36
443.539	7.73
443.742	7.71
443.944	8.08
444.146	8.15
444.348	8.15
444.55	8.31
444.752	8.45
444.954	8.49
445.156	8.62
445.358	8.91
445.56	9.26
445.762	9.17
445.964	9.52
446.166	9.44
446.368	9.59
446.57	9.73
446.772	9.55
446.974	9.53
447.175	9.95
447.377	9.68
447.579	10.13
447.781	9.93
447.983	9.98
448.184	9.72
448.386	10.05
448.588	9.91
448.79	9.95
448.991	10.21
449.193	10.23
449.395	10.02
449.597	9.75
449.798	9.62
450	9.5
450.202	9.43
450.403	9.46
450.605	9.51
450.806	9.14
451.008	9.2
451.21	9.05
451.411	8.77
451.613	8.29
451.814	8.39
452.016	8.42
452.217	7.98
452.419	7.99
452.62	7.74
452.821	7.61
453.023	7.48
453.224	7.29
453.426	6.98
453.627	6.49
453.828	6.62
454.03	6.61
454.231	6.55
454.432	6.3
454.634	6.2
454.835	5.95
455.036	5.86
455.238	5.69
455.439	5.58
455.64	5.33
455.841	5.3
456.042	5.33
456.244	5.08
456.445	4.89
456.646	4.67
456.847	4.67
457.048	4.6
457.249	4.6
457.45	4.49
457.651	4.08
457.852	4.03
458.054	3.85
458.255	3.79
458.456	3.83
458.657	3.77
458.858	3.49
459.058	3.5
459.259	3.5
459.46	3.37
459.661	3.23
459.862	3.34
460.063	3.29
460.264	3.14
460.465	3
460.666	3.17
460.866	2.91
461.067	2.77
461.268	2.82
461.469	2.71
461.67	2.66
461.87	2.61
462.071	2.6
462.272	2.52
462.473	2.5
462.673	2.61
462.874	2.5
463.075	2.52
463.275	2.47
463.476	2.58
463.676	2.42
463.877	2.43
464.078	2.29
464.278	2.39
464.479	2.22
464.679	2.21
464.88	2.19
465.08	2.11
465.281	2
465.481	1.91
465.682	1.88
465.882	1.9
466.083	1.75
466.283	1.75
466.483	1.68
466.684	1.63
466.884	1.55
467.085	1.53
467.285	1.59
467.485	1.45
467.686	1.45
467.886	1.35
468.086	1.33
468.286	1.31
468.487	1.37
468.687	1.21
468.887	1.21
469.087	1.26
469.287	1.2
469.488	1.08
469.688	1.15
469.888	1.13
470.088	1.12
470.288	1.08
470.488	1.06
470.688	0.94
470.888	0.91
471.088	0.87
471.288	0.9
471.488	0.86
471.688	0.81
471.888	0.78
472.088	0.89
472.288	0.81
472.488	0.76
472.688	0.7
472.888	0.79
473.088	0.76
473.288	0.68
473.488	0.66
473.688	0.77
473.887	0.67
474.087	0.59
474.287	0.66
474.487	0.57
474.687	0.62
474.886	0.57
475.086	0.54
475.286	0.55
475.486	0.53
475.685	0.55
475.885	0.46
476.085	0.49
476.284	0.5
476.484	0.54
476.684	0.49
476.883	0.57
477.083	0.49
477.282	0.38
477.482	0.5
477.681	0.43
477.881	0.41
478.08	0.38
478.28	0.4
478.479	0.43
478.679	0.48
478.878	0.34
479.078	0.35
479.277	0.37
479.477	0.35
479.676	0.36
479.875	0.32
480.075	0.28
480.274	0.36
480.473	0.35
480.673	0.28
480.872	0.35
481.071	0.31
481.271	0.34
481.47	0.28
481.669	0.28
481.868	0.23
482.067	0.26
482.267	0.26
482.466	0.22
482.665	0.23
482.864	0.2
483.063	0.22
483.262	0.26
483.461	0.26
483.661	0.25
483.86	0.22
484.059	0.23
484.258	0.24
484.457	0.2
484.656	0.2
484.855	0.23
485.054	0.15
485.253	0.17
485.452	0.14
485.651	0.18
485.849	0.16
486.048	0.16
486.247	0.16
486.446	0.15
486.645	0.12
486.844	0.17
487.043	0.16
487.241	0.17
487.44	0.14
487.639	0.13
487.838	0.14
488.037	0.15
488.235	0.18
488.434	0.12
488.633	0.1
488.831	0.13
489.03	0.14
489.229	0.11
489.427	0.11
489.626	0.16
489.825	0.17
490.023	0.11
490.222	0.09
490.42	0.12
490.619	0.14
490.817	0.09
491.016	0.08
491.214	0.12
491.413	0.1
491.611	0.09
491.81	0.08
492.008	0.11
492.207	0.12
492.405	0.08
492.604	0.05
492.802	0.08
493	0.08
493.199	0.07
493.397	0.06
493.595	0.08
493.794	0.06
493.992	0.1
494.19	0.07
494.388	0.09
494.587	0.06
494.785	0.07
494.983	0.02
495.181	0.07
495.379	0.06
495.578	0.06
495.776	0.08
495.974	0.07
496.172	0.06
496.37	0.05
496.568	0.03
496.766	0.04
496.964	0.05
497.162	0.06
497.36	0.04
497.558	0.07
497.756	0.09
497.954	0.05
498.152	0.05
498.35	0.06
498.548	0.06
498.746	0.05
498.944	0.02
499.142	0.04
499.34	0.01
499.538	0.04
499.736	0.02
499.933	0.07
500.131	0.07
500.329	0.07
500.527	0.08
500.725	0.08
500.922	0.09
501.12	0.06
501.318	0.05
501.516	0.02
501.713	0.07
501.911	0.02
502.109	-0.01
502.306	0.07
502.504	0.02
502.701	0.02
502.899	0.04
503.097	0.09
503.294	0.06
503.492	0.04
503.689	0.06
503.887	0.04
504.084	0.09
504.282	0.04
504.479	-0.01
504.677	0.04
504.874	0.01
505.072	0.03
505.269	0.02
505.466	0.04
505.664	0.04
505.861	-0.03
506.059	0.03
506.256	0.05
506.453	0.03
506.651	0.06
506.848	0.03
507.045	0.06
507.242	0.02
507.44	0.02
507.637	0.03
507.834	0.03
508.031	0.05
508.229	0.01
508.426	0.04
508.623	0.05
508.82	0.02
509.017	0
509.214	-0.02
509.411	0.04
509.608	0.02
509.805	0.02
510.003	0.01
510.2	-0.01
510.397	0.05
510.594	-0.01
510.791	-0.02
510.988	0.02
511.184	0.07
511.381	0.02
511.578	0.01
511.775	0.07
511.972	0.03
512.169	0.02
512.366	0.02
512.563	0.05
512.76	-0
512.956	0.05
513.153	0
513.35	0.04
513.547	-0
513.744	0.04
513.94	-0.04
514.137	0.03
514.334	0.02
514.53	0.01
514.727	0.02
514.924	0.09
515.12	0.02
515.317	-0.03
515.514	0
515.71	-0.01
515.907	-0.01
516.103	0.04
516.3	0.04
516.497	0.04
516.693	0.04
516.89	0.03
517.086	-0.02
517.283	0.07
517.479	0.04
517.676	-0
517.872	-0.01
518.068	-0.01
518.265	0.01
518.461	0.02
518.658	-0.01
518.854	0.02
519.05	0.01
519.247	-0.02
519.443	0.04
519.639	0.02
519.836	0.03
520.032	-0.01
520.228	0.02
520.424	0.07
520.621	0.04
520.817	0.01
521.013	0.04
521.209	0.02
521.405	0.06
521.601	0.01
521.798	0.02
521.994	0.05
522.19	0
522.386	0
522.582	0.01
522.778	0.02
522.974	0
523.17	0.02
523.366	0.01
523.562	0.04
523.758	-0
523.954	-0.03
524.15	0
524.346	0.03
524.542	-0
524.738	0
524.934	0.01
525.129	0.02
525.325	0.01
525.521	0.02
525.717	0.04
525.913	0.03
526.109	0.01
526.304	0.02
526.5	0.03
526.696	0.05
526.892	0.01
527.087	0.03
527.283	-0.02
527.479	0.02
527.674	-0.01
527.87	-0.01
528.066	0.01
528.261	0.04
528.457	0.03
528.653	-0
528.848	0.01
529.044	0.01
529.239	0.02
529.435	0.03
529.63	0.02
529.826	0.03
530.021	0.03
530.217	0.03
530.412	0.01
530.608	0.01
530.803	0.02
530.999	0
531.194	-0.04
531.389	0.01
531.585	-0.05
531.78	0.02
531.975	0.01
532.171	0.04
532.366	0.02
532.561	0.01
532.757	0
532.952	0
533.147	0.02
533.342	0
533.538	0.01
533.733	0.03
533.928	0.01
534.123	-0.01
534.318	-0.02
534.513	0.02
534.709	0.02
534.904	-0.01
535.099	-0.01
535.294	0.02
535.489	0.03
535.684	0.01
535.879	-0.01
536.074	0.02
536.269	-0.01
536.464	0.03
536.659	-0
536.854	0.02
537.049	0.02
537.244	0.02
537.439	0.01
537.634	0.04
537.828	0.03
538.023	0.01
538.218	-0.01
538.413	0.01
538.608	-0.02
538.803	0.03
538.997	-0.03
539.192	0.02
539.387	0.02
539.582	0.01
539.776	0.01
539.971	0
540.166	0.01
540.36	-0.03
540.555	0.01
540.75	-0.01
540.944	0
541.139	-0.06
541.334	0.01
541.528	0.03
541.723	0.05
541.917	-0
542.112	-0.04
542.306	0.01
542.501	0
542.695	0.02
542.89	-0
543.084	0.02
543.279	0
543.473	-0
543.668	-0
543.862	-0.01
544.056	0.04
544.251	-0.01
544.445	0.01
544.64	-0.01
544.834	-0.02
545.028	0.02
545.222	0.01
545.417	0.03
545.611	0.01
545.805	0.01
546	0.01
546.194	-0.01
546.388	0
546.582	0.03
546.776	0
546.97	0.01
547.165	0.01
547.359	0.02
547.553	0.01
547.747	-0.01
547.941	-0
548.135	-0.02
548.329	0.01
548.523	0.03
548.717	-0.01
548.911	-0.01
549.105	-0
549.299	0
549.493	0.02
549.687	0.01
549.881	0.02
550.075	0.01
550.269	-0.02
550.463	0.01
550.657	-0.02
550.85	0.02
551.044	-0
551.238	0.02
551.432	-0
551.626	-0.01
551.82	0.02
552.013	-0.01
552.207	0.01
552.401	0.03
552.594	0.03
552.788	0
552.982	0.01
553.176	0.01
553.369	0.03
553.563	0.01
553.756	-0.04
553.95	-0.01
554.144	0
554.337	0.04
554.531	0.02
554.724	0.03
554.918	-0
555.111	0.01
555.305	-0
555.498	0.05
555.692	0.03
555.885	-0.02
556.079	0.01
556.272	0.02
556.466	0.03
556.659	0.02
556.852	-0
557.046	0.02
557.239	0.03
557.432	-0.03
557.626	-0
557.819	0.01
558.012	0.04
558.206	0.02
558.399	0.01
558.592	0.05
558.785	-0.01
558.979	0.03
559.172	0.01
559.365	0.03
559.558	0.02
559.751	0
559.944	0.01
560.138	0.01
560.331	0
560.524	-0.02
560.717	0.01
560.91	0
561.103	0.03
561.296	0.01
561.489	0.03
561.682	0.01
561.875	0.02
562.068	0.02
562.261	0.01
562.454	0.04
562.647	0.04
562.84	0.02
563.032	-0.02
563.225	0.03
563.418	0.01
563.611	0
563.804	-0
563.997	-0.02
564.19	-0.03
564.382	0.03
564.575	-0
564.768	0
564.961	0
565.153	-0.01
565.346	0.03
565.539	0.03
565.731	0.02
565.924	0.03
566.117	0.03
566.309	0
566.502	-0.01
566.695	0
566.887	0.02
567.08	-0.01
567.272	0.01
567.465	-0.02
567.657	0
567.85	0.03
568.042	0.02
568.235	0.04
568.427	0.01
568.62	0.02
568.812	0.02
569.005	0.02
569.197	-0.05
569.389	0.03
569.582	0.02
569.774	0
569.966	-0.02
570.159	-0.01
570.351	0.03
570.543	-0.01
570.736	0.01
570.928	-0.02
571.12	0.01
571.312	0
571.505	-0.03
571.697	0.04
571.889	-0.02
572.081	-0.01
572.273	-0
572.465	0.05
572.658	0.01
572.85	0.03
573.042	-0.01
573.234	-0
573.426	0.03
573.618	-0.01
573.81	0.01
574.002	0.05
574.194	0.04
574.386	-0.05
574.578	-0.06
574.77	-0.03
574.962	0.01
575.154	-0.04
575.346	-0.02
575.538	0.01
575.729	-0.03
575.921	-0.03
576.113	-0.01
576.305	0.02
576.497	0
576.689	-0.01
576.88	-0.01
577.072	0.03
577.264	-0
577.456	-0.01
577.647	-0.07
577.839	0.01
578.031	0.04
578.223	-0.03
578.414	-0.05
578.606	0.04
578.798	0.01
578.989	-0.04
579.181	-0.01
579.372	0.01
579.564	-0.02
579.755	0
579.947	0.03
580.139	0.01
580.33	-0.06
580.522	-0.03
580.713	-0.08
580.905	0.02
581.096	0.04
581.287	0.01
581.479	-0
581.67	0.02
581.862	0.03
582.053	-0.01
582.244	-0.03
582.436	0
582.627	0.02
582.818	-0.02
583.01	-0.01
583.201	0.02
583.392	0.03
583.583	0.01
583.775	-0.01
583.966	-0
584.157	0
584.348	-0.02
584.54	-0.03
584.731	0.03
584.922	0.01
585.113	-0.03
585.304	0
585.495	0.05
585.686	0.01
585.877	0.01
586.068	0.01
586.259	0
586.45	0.01
586.641	-0.02
586.832	-0.06
587.023	0.02
587.214	-0
587.405	-0
587.596	-0.01
587.787	0.03
587.978	0.01
588.169	-0.03
588.36	-0.02
588.551	0.01
588.742	-0
588.932	-0.01
589.123	0.01
589.314	0.03
589.505	0.02
589.696	0.01
589.886	-0.03
590.077	-0.02
590.268	0
590.458	-0.04
590.649	-0.05
590.84	0.02
591.03	-0.01
591.221	-0.04
591.412	-0.03
591.602	0.03
591.793	0.04
591.984	-0.06
592.174	-0.01
592.365	0.06
592.555	-0.02
592.746	0.03
592.936	0.01
593.127	0.02
593.317	0.02
593.508	0
593.698	-0.02
593.889	0.01
594.079	0.01
594.269	-0.01
594.46	-0.01
594.65	0.01
594.84	0.01
595.031	-0.03
595.221	-0.04
595.411	-0.03
595.602	0.02
595.792	0.02
595.982	-0.01
596.172	0.05
596.363	0.01
596.553	0
596.743	-0
596.933	0.01
597.123	0.03
597.314	-0.02
597.504	-0.02
597.694	0.04
597.884	0.01
598.074	-0.01
598.264	-0.02
598.454	0.02
598.644	0
598.834	-0
599.024	-0.04
599.214	-0.01
599.404	0.03
599.594	-0.05
599.784	-0.01
599.974	0.05
600.164	0.05
600.354	-0.03
600.544	-0.05
600.734	0.03
600.924	0.05
601.114	-0.02
601.303	0.01
601.493	-0
601.683	-0.02
601.873	0.02
602.063	-0.04
602.252	0.04
602.442	-0.1
602.632	-0.03
602.821	-0.04
603.011	0.06
603.201	-0.01
603.39	-0
603.58	-0.03
603.77	0.01
603.959	0.01
604.149	0.01
604.339	-0
604.528	0.03
604.718	0.03
604.907	-0.01
605.097	-0.01
605.286	-0.04
605.476	0.02
605.665	0.03
605.855	0.01
606.044	0.02
606.234	0.02
606.423	-0.02
606.612	-0.02
606.802	-0.01
606.991	0
607.181	-0.01
607.37	-0.05
607.559	0.02
607.749	-0.05
607.938	0.01
608.127	-0.02
608.316	-0.02
608.506	0.04
608.695	-0.02
608.884	-0.01
609.073	-0
609.263	0
609.452	0.02
609.641	0.03
609.83	-0.04
610.019	0
610.208	-0.03
610.397	-0.01
610.586	0.03
610.775	-0.02
610.965	-0.03
611.154	0
611.343	0.03
611.532	0.03
611.721	-0.03
611.91	-0.08
612.099	0.02
612.287	-0.05
612.476	-0.03
612.665	0.01
612.854	-0.04
613.043	0.04
613.232	-0.03
613.421	-0.04
613.61	-0.01
613.798	-0.03
613.987	0.03
614.176	0.01
614.365	0.01
614.554	0.04
614.742	0.03
614.931	-0.02
615.12	0.04
615.309	-0.01
615.497	0.01
615.686	-0.02
615.875	-0.01
616.063	0.01
616.252	-0.05
616.44	-0.01
616.629	-0
616.818	0.05
617.006	0.01
617.195	-0.03
617.383	0.02
617.572	-0
617.76	0
617.949	-0.03
618.137	0.03
618.326	0.06
618.514	0
618.703	-0.04
618.891	0.05
619.079	-0.05
619.268	-0
619.456	-0.03
619.644	0.07
619.833	-0.03
620.021	-0
620.209	-0.07
620.398	-0.01
620.586	0.01
620.774	0.01
620.962	-0.01
621.151	0.06
621.339	0.01
621.527	-0.04
621.715	-0.07
621.903	-0.03
622.092	-0.04
622.28	0.02
622.468	0
622.656	0.01
622.844	0.02
623.032	-0
623.22	-0.06
623.408	0.06
623.596	0.01
623.784	0.04
623.972	-0.04
624.16	-0.02
624.348	0.01
624.536	-0.02
624.724	-0
624.912	0.04
625.1	0.01
625.288	-0.02
625.476	-0.05
625.664	0.03
625.851	-0.02
626.039	0.01
626.227	0.01
626.415	-0.01
626.603	-0.07
626.79	0
626.978	-0
627.166	0.03
627.354	-0.01
627.541	-0.01
627.729	-0.05
627.917	0.03
628.104	0.04
628.292	-0.01
628.48	0
628.667	0.01
628.855	0.02
629.042	0.05
629.23	0.01
629.418	0
629.605	-0.02
629.793	-0.02
629.98	-0
630.168	0.01
630.355	-0.01
630.543	-0
630.73	-0.01
630.917	0.04
631.105	0.05
631.292	-0.03
631.48	0
631.667	0.08
631.854	0.02
632.042	0.01
632.229	-0.07
632.416	0.02
632.604	-0.01
632.791	-0.03
632.978	0.04
633.165	-0
633.353	0.08
633.54	0.05
633.727	-0.05
633.914	-0.02
634.101	-0.09
634.289	0.03
634.476	-0.02
634.663	-0.04
634.85	0.02
635.037	-0.02
635.224	-0.09
635.411	0.02
635.598	0.03
635.785	-0
635.972	-0.01
636.159	0.02
636.346	-0.04
636.533	0
636.72	-0.01
636.907	-0.02
637.094	0
637.281	-0.01
637.468	0.01
637.655	-0.02
637.842	-0.01
638.029	-0.01
638.215	0.05
638.402	0.01
638.589	-0.04
638.776	-0.02
638.963	-0.03
639.149	0.02
639.336	0.07
639.523	-0.01
639.709	-0.04
639.896	-0.01
640.083	0.04
640.27	-0.02
640.456	-0.06
640.643	0.05
640.829	-0.03
641.016	-0.01
641.203	-0.04
641.389	0.01
641.576	-0.01
641.762	0
641.949	-0.04
642.135	0
642.322	0.01
642.508	-0.06
642.695	0.01
642.881	-0.01
643.068	0.01
643.254	0
643.441	0.01
643.627	0
643.813	-0.04
644	0.03
644.186	-0.05
644.372	0.02
644.559	0.02
644.745	-0
644.931	-0.04
645.118	-0.01
645.304	-0.02
645.49	-0.02
645.676	-0.01
645.862	-0.02
646.049	0.05
646.235	-0.04
646.421	0.07
646.607	0.05
646.793	-0.02
646.979	-0.05
647.165	0
647.352	-0.01
647.538	0.05
647.724	-0.03
647.91	0.02
648.096	0.04
648.282	0.04
648.468	-0.03
648.654	-0.01
648.84	0.02
649.026	0.02
649.212	-0.02
649.397	-0.02
649.583	-0.03
649.769	-0.01
649.955	0.01
650.141	0.01
650.327	0.06
650.513	-0.01
650.698	0.06
650.884	-0.08
651.07	-0.01
651.256	0.03
651.442	-0.01
651.627	-0.02
651.813	-0.01
651.999	-0.03
652.184	0.02
652.37	-0.04
652.556	-0.04
652.741	0.04
652.927	-0.07
653.113	0.01
653.298	0
653.484	-0.01
653.669	-0.05
653.855	0
654.04	0.05
654.226	-0.01
654.412	-0.03
654.597	-0.05
654.782	0
654.968	0.03
655.153	0.01
655.339	-0.05
655.524	-0.04
655.71	0.02
655.895	-0.04
656.08	-0.01
656.266	0.06
656.451	0.01
656.636	-0.05
656.822	-0.03
657.007	-0.03
657.192	-0.02
657.378	-0.08
657.563	-0.02
657.748	-0
657.933	0.01
658.118	-0.02
658.304	-0.03
658.489	0.02
658.674	0.03
658.859	-0.04
659.044	0.01
659.229	0.02
659.414	-0.01
659.599	-0
659.785	-0.05
659.97	-0.01
660.155	0.01
660.34	-0.02
660.525	0
660.71	-0.04
660.895	0.06
661.08	-0.02
661.264	-0.04
661.449	0.06
661.634	0.08
661.819	-0.01
662.004	0.01
662.189	-0.07
662.374	-0.04
662.559	-0.02
662.743	-0.07
662.928	-0.01
663.113	-0.03
663.298	-0.1
663.483	-0.02
663.667	0.03
663.852	-0.06
664.037	0.05
664.221	-0.06
664.406	0.01
664.591	-0.01
664.775	0
664.96	-0.04
665.145	0.01
665.329	0.03
665.514	-0.02
665.698	0.01
665.883	-0.08
666.068	0.1
666.252	0.01
666.437	-0.04
666.621	-0.01
666.806	0.03
666.99	-0.01
667.174	-0.04
667.359	0.06
667.543	-0.01
667.728	-0.04
667.912	-0.05
668.096	0.01
668.281	0.01
668.465	-0.01
668.649	0
668.834	-0.05
669.018	-0.04
669.202	-0.02
669.387	-0.08
669.571	0.04
669.755	-0.03
669.939	-0.03
670.124	-0.05
670.308	0.04
670.492	0
670.676	0.01
670.86	-0.01
671.044	-0.02
671.228	-0.01
671.413	-0.07
671.597	-0.01
671.781	-0.04
671.965	0.04
672.149	0.01
672.333	-0.01
672.517	-0.04
672.701	0.03
672.885	-0.01
673.069	-0.08
673.253	0.03
673.437	-0.03
673.621	-0.07
673.804	0
673.988	0.04
674.172	-0.01
674.356	-0.1
674.54	-0
674.724	0.11
674.908	-0
675.091	0.06
675.275	-0.01
675.459	0.04
675.643	0.06
675.826	0.01
676.01	-0.01
676.194	-0.01
676.377	0.03
676.561	-0
676.745	-0.02
676.928	-0.03
677.112	0.04
677.296	-0.03
677.479	-0.04
677.663	-0.04
677.846	0.01
678.03	-0.02
678.213	-0.01
678.397	0.03
678.58	-0.01
678.764	-0.03
678.947	-0.04
679.131	-0.03
679.314	0.06
679.498	-0.04
679.681	-0
679.865	0.07
680.048	0.02
680.231	-0.01
680.415	-0.02
680.598	-0.04
680.781	-0.02
680.965	-0.02
681.148	0.04
681.331	0.01
681.514	0.02
681.698	-0.05
681.881	-0
682.064	-0.02
682.247	0.02
682.43	-0.07
682.614	0.07
682.797	0.06
682.98	0.04
683.163	-0.03
683.346	0.02
683.529	-0.05
683.712	-0.09
683.895	0.02
684.078	-0.05
684.261	-0.06
684.444	0.04
684.627	0.01
684.81	-0.03
684.993	0.02
685.176	0.01
685.359	-0.08
685.542	-0.06
685.725	0.06
685.908	-0.01
686.091	-0.01
686.274	0.02
686.457	0.04
686.639	0.01
686.822	0.05
687.005	0.02
687.188	0.01
687.371	0.11
687.553	-0.03
687.736	0.01
687.919	0.05
688.102	0.08
688.284	-0.02
688.467	-0
688.65	0.03
688.832	-0.03
689.015	0.01
689.197	-0.07
689.38	0.08
689.563	0.04
689.745	-0.05
689.928	-0.07
690.11	0
690.293	0
690.475	-0.04
690.658	0.05
690.84	0
691.023	-0.02
691.205	-0.05
691.388	-0.03
691.57	0.04
691.752	0.05
691.935	-0.12
692.117	-0.06
692.3	0.01
692.482	0.05
692.664	-0.03
692.847	0.05
693.029	0.11
693.211	-0.01
693.393	-0.05
693.576	0.02
693.758	-0.01
693.94	-0.06
694.122	-0.02
694.304	-0.03
694.487	-0.04
694.669	0.08
694.851	-0.01
695.033	-0.03
695.215	-0.06
695.397	-0.01
695.579	0.03
695.761	-0.03
695.943	-0.1
696.125	0.06
696.308	0.02
696.49	-0.1
696.671	0.1
696.853	-0.04
697.035	0.16
697.217	0.03
697.399	0.03
697.581	-0.06
697.763	-0.04
697.945	-0.1
698.127	0.03
698.309	0.02
698.491	0.05
698.672	0.03
698.854	0.11
699.036	0.09
699.218	-0.03
699.399	-0.01
699.581	0.06
699.763	0.02
699.945	-0.02
700.126	-0.1
700.308	0.04
700.49	0
700.671	-0.14
700.853	-0.09
701.035	-0.01
701.216	-0.02
701.398	-0.1
701.579	0.01
701.761	0
701.943	-0.06
702.124	-0.04
702.306	-0.03
702.487	0.03
702.669	0.02
702.85	-0.07
703.031	-0.04
703.213	0.08
703.394	0.1
703.576	-0.04
703.757	0.03
703.938	0.04
704.12	0.13
704.301	-0.06
704.483	-0.06
704.664	0.02
704.845	0.15
705.026	0.04
705.208	-0.04
705.389	0.05
705.57	0.07
705.751	-0.02
705.933	-0
706.114	0.07
706.295	-0.04
706.476	-0.06
706.657	0.09
706.838	0.07
707.02	0.09
707.201	-0.06
707.382	-0.06
707.563	0.11
707.744	0.01
707.925	0.02
708.106	-0.04
708.287	0.02
708.468	0.05
708.649	0.02
708.83	0.04
709.011	-0.05
709.192	0.06
709.373	-0.07
709.554	0
709.734	0.03
709.915	0.06
710.096	-0.04
710.277	-0.13
710.458	-0.03
710.639	0.03
710.819	-0.14
711	0.01
711.181	0.1
711.362	0.05
711.542	0.06
711.723	-0.02
711.904	0.03
712.085	0.07
712.265	-0.01
712.446	-0.06
712.627	-0.02
712.807	-0.01
712.988	-0
713.168	-0.13
713.349	0.07
713.53	-0.12
713.71	-0.07
713.891	-0.09
714.071	-0.01
714.252	-0.05
714.432	-0.08
714.613	-0.11
714.793	-0.02
714.974	0.05
715.154	0.1
715.334	0.01
715.515	0.07
715.695	-0.08
715.876	-0.01
716.056	-0.03
716.236	-0.03
716.417	-0.04
716.597	-0.08
716.777	0.12
716.957	0.03
717.138	-0.07
717.318	-0
717.498	-0.12
717.678	0.04
717.859	0.03
718.039	-0.09
718.219	0.03
718.399	0.05
718.579	-0.03
718.759	-0.1
718.939	0.01
719.12	0.02
719.3	0.02
719.48	-0.12
719.66	-0.11
719.84	0.11
720.02	-0.06
720.2	-0.07
720.38	-0.05
720.56	0.13
720.74	-0.04
720.92	0.01
721.1	0.04
721.279	0.04
721.459	0.03
721.639	-0.07
721.819	0.02
721.999	-0.01
722.179	0.05
722.359	-0.07
722.538	-0.02
722.718	0.01
722.898	-0.05
723.078	-0.07
723.257	-0.04
723.437	0.03
723.617	0.05
723.797	0.03
723.976	0.02
724.156	0.03
724.336	0.11
724.515	0.14
724.695	-0.15
724.874	0
725.054	0.14
725.234	-0.1
725.413	0.08
725.593	-0.01
725.772	-0.05
725.952	0.02
726.131	-0.05
726.311	-0.01
726.49	-0.05
726.67	-0.09
726.849	-0.06
727.028	0.04
727.208	0.04
727.387	-0.02
727.567	-0.1
727.746	0.04
727.925	-0
728.105	-0.09
728.284	-0.04
728.463	0.03
728.643	0.02
728.822	-0.12
729.001	-0.06
729.18	-0.02
729.359	0.02
729.539	0.04
729.718	0.03
729.897	0.04
730.076	-0.04
730.255	-0.15
730.434	-0.03
730.614	0.04
730.793	0.11
730.972	-0.07
731.151	-0.01
731.33	0.1
731.509	0.06
731.688	0.02
731.867	0.03
732.046	-0.16
732.225	0.2
732.404	-0.09
732.583	-0.12
732.762	0.1
732.941	0.02
733.12	-0.02
733.298	-0.05
733.477	0.14
733.656	-0.07
733.835	-0.11
734.014	0.01
734.193	-0.05
734.371	0.05
734.55	-0.05
734.729	-0.14
734.908	0
735.086	0.03
735.265	0.05
735.444	-0.13
735.623	-0.11
735.801	-0
735.98	0.07
736.159	-0.01
736.337	0.08
736.516	-0.04
736.694	-0.02
736.873	-0.06
737.052	0.12
737.23	0.15
737.409	-0.08
737.587	0.08
737.766	-0.06
737.944	0.02
738.123	0.04
738.301	0.03
738.479	-0.11
738.658	0.02
738.836	-0.13
739.015	0.1
739.193	0.1
739.371	-0.08
739.55	-0.14
739.728	-0.09
739.906	0.16
740.085	0.22
740.263	0.08
740.441	-0.15
740.62	0.22
740.798	0
740.976	-0.09
741.154	-0.03
741.332	0.15
741.511	-0.08
741.689	-0.02
741.867	0.06
742.045	0.04
742.223	-0.02
742.401	-0.13
742.579	-0.01
742.757	-0.02
742.935	-0.07
743.114	-0.09
743.292	0.05
743.47	0.1
743.648	0.02
743.826	0.07
744.004	-0.07
744.181	0.16
744.359	-0.08
744.537	-0.02
744.715	-0.08
744.893	-0.01
745.071	0.08
745.249	0.02
745.427	-0.01
745.605	0.01
745.782	0.02
745.96	0.05
746.138	0.04
746.316	0.11
746.493	0.05
746.671	-0.05
746.849	0.1
747.027	0.24
747.204	-0.15
747.382	0.03
747.56	-0.16
747.737	0.07
747.915	-0.05
748.093	0.07
748.27	-0.08
748.448	-0.13
748.625	-0.13
748.803	-0.18
748.98	-0.02
749.158	0.08
749.335	0.02
749.513	-0.05
749.69	-0.07
749.868	-0.08
750.045	0.03
750.223	-0.02
750.4	-0.21
750.578	0.19
750.755	0.07
750.932	-0.06
751.11	0.25
751.287	-0.22
751.464	0.06
751.642	-0.09
751.819	0
751.996	0.06
752.173	-0.02
752.351	-0.14
752.528	-0.02
752.705	0.02
752.882	-0.07
753.06	-0.01
753.237	0.04
753.414	0.13
753.591	0.27
753.768	0.09
753.945	-0.03
754.122	-0.03
754.299	0.04
754.476	-0.11
754.654	0.03
754.831	0.14
755.008	0.11
755.185	-0.02
755.362	-0.05
755.539	0.01
755.716	-0.14
755.892	-0.02
756.069	-0.02
756.246	-0.01
756.423	-0.07
756.6	0.07
756.777	-0.05
756.954	0.2
757.131	-0.03
757.307	-0.09
757.484	-0.11
757.661	-0.02
757.838	0
758.015	-0.23
758.191	0.04
758.368	0
758.545	0.1
758.721	0.02
758.898	-0.09
759.075	0.01
759.251	0.16
759.428	-0.03
759.605	-0.08
759.781	-0.04
759.958	0
760.134	-0.02
760.311	-0.02
760.488	0.09
760.664	0.03
760.841	-0.02
761.017	-0.21
761.194	0.07
761.37	0.03
761.547	0
761.723	-0.09
761.899	0.02
762.076	-0.04
762.252	-0.1
762.429	-0.1
762.605	0.04
762.781	-0.04
762.958	0.27
763.134	-0.1
763.31	-0.17
763.486	0.1
763.663	-0.16
763.839	0.01
764.015	-0.19
764.191	-0.07
764.368	0.06
764.544	0.01
764.72	0.08
764.896	0.09
765.072	0.03
765.248	0.09
765.425	0.05
765.601	-0.04
765.777	-0.03
765.953	-0.16
766.129	-0.11
766.305	-0.07
766.481	0.03
766.657	-0.04
766.833	0.18
767.009	-0.15
767.185	-0.12
767.361	-0.04
767.537	-0.01
767.713	0.15
767.889	-0.01
768.065	0.05
768.24	0.11
768.416	-0.02
768.592	-0.07
768.768	-0.01
768.944	0.19
769.12	-0.21
769.295	-0.01
769.471	-0.06
769.647	-0.01
769.823	0.17
769.998	-0.1
770.174	-0.19
770.35	0.22
770.525	0.35
770.701	-0.09
770.877	-0.02
771.052	0.01
771.228	0.02
771.403	0.07
771.579	0.01
771.755	0.34
771.93	-0.14
772.106	-0.16
772.281	-0.15
772.457	-0.11
772.632	0.05
772.808	-0.16
772.983	-0.1
773.159	-0.22
773.334	0.27
773.509	0.1
773.685	-0.11
773.86	0.48
774.036	0.2
774.211	-0.01
774.386	-0.22
774.562	-0.01
774.737	0.14
774.912	-0.12
775.087	0.15
775.263	0.12
775.438	0.01
775.613	-0.17
775.788	-0.03
775.964	0.21
776.139	0.45
776.314	-0.13
776.489	-0.02
776.664	-0.09
776.839	-0.17
777.014	0.14
777.19	0.03
777.365	0.1
777.54	0.21
777.715	-0.15
777.89	-0.05
778.065	-0.08
778.24	0.07
778.415	0.1
778.59	-0.2
778.765	0.03
778.94	0.08
779.115	0.02
779.289	-0.08
779.464	-0.04
779.639	-0.08
779.814	-0.11
779.989	-0.18
780.164	0.22
780.339	0.13
780.513	-0.15
780.688	-0.16
780.863	0.03
781.038	0.18
781.212	-0.14
781.387	-0.14
781.562	0.31
781.737	-0.07
781.911	0.32
782.086	-0.21
782.261	0.03
782.435	0.14
782.61	-0.21
782.784	-0.22
782.959	0.26
783.134	-0.29
783.308	-0.36
783.483	-0.06
783.657	0.4
783.832	0.14
784.006	-0.42
784.181	-0
784.355	0.31
784.53	-0.21
784.704	-0.32
784.878	0.23
785.053	0.07
785.227	0.17
785.402	0.18
785.576	-0.3
785.75	-0.22
785.925	0.02
786.099	0.09
786.273	0.14
786.448	0.09
786.622	0.06
786.796	-0.1
786.97	0.01
787.145	0.56
787.319	-0.17
787.493	0.04
787.667	-0.45
787.841	-0.08
788.015	0.21
788.19	-0.12
788.364	0.19
788.538	0.03
788.712	0.21
788.886	0.13
789.06	0.1
789.234	0.12
789.408	-0.22
789.582	-0.16
789.756	-0.04
789.93	-0.25
790.104	-0.09
790.278	-0.18
790.452	-0.12
790.626	0.15
790.8	-0.13
790.973	0.22
791.147	0.31
791.321	0.24
791.495	0.05
791.669	-0.01
791.843	0.17
792.016	-0.05
792.19	0.36
792.364	-0.22
792.538	0.49
792.711	0.27
792.885	-0.04
793.059	-0.06
793.233	-0.56
793.406	0.27
793.58	0.06
793.754	-0.03
793.927	0.12
794.101	0.35
794.274	-0.01
794.448	0.29
794.622	-0.2
794.795	0.28
794.969	-0.34
795.142	0.28
795.316	-0.03
795.489	-0.33
795.663	0.72
795.836	0.09
796.009	-0.09
796.183	0.26
796.356	0.18
796.53	0.06
796.703	-0.19
796.876	0.61
797.05	-0.22
797.223	0.05
797.396	0
797.57	0.09
797.743	0.39
797.916	-0.1
798.09	-0.1
798.263	0.06
798.436	0.18
798.609	0.07
798.782	-0.11
798.956	0.1
799.129	0.07
799.302	-0.19
799.475	-0.15
799.648	-0.11
799.821	0.04
799.994	0.03
800.167	-0.54
800.34	0.07
800.514	0.14
800.687	-0.33
800.86	-0.13
801.033	-0.02
801.206	-0.16
801.379	-0.19
801.551	0.26
801.724	0.32
801.897	0.15
802.07	-0.21
802.243	-0.32
802.416	0.11
802.589	-0.04
802.762	0.16
802.935	-0.06
803.107	0.02
803.28	0.46
803.453	0.14
803.626	-0.14
803.798	0.11
803.971	-0.12
804.144	-0.07
804.317	-0
804.489	0.28
804.662	0.16
804.835	0.22
805.007	-0.18
805.18	0.42
805.353	0.1
805.525	-0.2
805.698	-0.21
805.87	0.47
806.043	0.31
806.215	-0.17
806.388	-0.24
806.56	0.45
806.733	0.27
806.905	0.04
807.078	-0.16
807.25	-0.47
807.423	0.11
807.595	-0.31
807.768	-0.24
807.94	0.14
808.112	-0.21
808.285	-0.25
808.457	-0.32
808.629	0.02
808.802	0.48
808.974	-0.1
809.146	-0.38
809.318	-0.3
809.491	0.18
809.663	0.36
809.835	-0.33
810.007	0.12
810.18	0.1
810.352	-0.16
810.524	0.02
810.696	0.09
810.868	0.56
811.04	-0.24
811.212	-0.37
811.384	0.42
811.556	-0.07
811.728	-0.12
811.901	0.89
812.073	-0.21
812.245	-0.31
812.417	0.1
812.589	-0.62
812.76	0.04
812.932	0.25
813.104	0.59
813.276	-0.31
813.448	0.38
813.62	-0.08
813.792	0.06
813.964	-0.17
814.136	-0.15
814.307	-0.03
814.479	-0.29
814.651	-0.1
814.823	0.38
814.995	-0.55
815.166	0.27
815.338	-0.19
815.51	-0.74
815.681	0.72
815.853	-0.04
816.025	0.12
816.196	0.94
816.368	0.42
816.54	-0.09
816.711	-0.51
816.883	0.19
817.054	0.72
817.226	-0.64
817.398	-0.16
817.569	0.29
817.741	0.04
817.912	-0.24
818.084	0.02
818.255	0.21
818.426	-0.23
818.598	0.07
818.769	-0.67
818.941	0.25
819.112	0.42
819.283	0.09
819.455	-0.5
819.626	0.17
819.798	0.64
819.969	0.1
820.14	-0.14
820.311	-0.4
820.483	-0.12
820.654	0.04
820.825	0.28
820.996	-0.22
821.168	-0.66
821.339	-0.1
821.51	-0.72
821.681	-0.21
821.852	-0.06
822.023	-0.36
822.195	-0.37
822.366	0.66
822.537	0.02
822.708	0.12
822.879	-0.49
823.05	0.36
823.221	-0.22
823.392	0.07
823.563	-0.06
823.734	-0.13
823.905	-0.5
824.076	-0.22
824.247	-0.47
824.418	-0.6
824.589	0.43
824.759	-0.73
824.93	-0.14
825.101	-0.43
825.272	0.01
825.443	0.7
825.614	0.21
825.784	-0.76
825.955	0.27
826.126	0.72
826.297	-0.25
826.467	0.66
826.638	1.25
826.809	-0.98
826.98	-0.08
827.15	0.2
827.321	0.17
827.492	0.72
827.662	-0.43
827.833	1.45
828.003	0.96
828.174	-0.67
828.345	-0.18
828.515	0.4
828.686	0.45
828.856	-0.21
829.027	0
829.197	0.29
829.368	0.2
829.538	-0.14
829.709	-0.25
829.879	0.06
830.049	0.31
830.22	-0.61
830.39	0.56
830.56	1.04
830.731	-0.13
830.901	-0.32
831.072	0.5
831.242	0.14
831.412	0.08
831.582	-0.29
831.753	-0.41
831.923	-0.21
832.093	-0.06
832.263	-0.46
832.434	-0.46
832.604	-0.37
832.774	0.46
832.944	-0.29
833.114	-0.13
833.284	0.14
833.454	-0.24
833.624	-0.21
833.795	-0.3
833.965	0.28
834.135	0.64
834.305	-1.43
834.475	-0.75
834.645	0.73
834.815	0.11
834.985	-0.52
835.155	-1
835.325	-0.15
835.494	0.19
835.664	-0.36
835.834	-0.32
836.004	-0.29
836.174	-0.18
836.344	-0.06
836.514	-0.82
836.684	-0.07
836.853	-0.33
837.023	-0.99
837.193	-0.51
837.363	0.4
837.532	0.69
837.702	0.34
837.872	-0.09
838.041	0.73
838.211	1.14
838.381	-0.79
838.55	0.45
838.72	2.13
838.89	1.19
839.059	-0.41
839.229	-0.33
839.398	0.9
839.568	-0.35
839.738	-0.77
839.907	1.02
840.077	0.63
840.246	-0.67
840.416	-0.81
840.585	-0.47
840.755	1.29
840.924	0.88
841.093	-0.55
841.263	0.03
841.432	0.08
841.602	-0.17
841.771	-1.25
841.94	0.04
842.11	1.41
842.279	1.56
842.448	-0.78
842.617	0.33
842.787	1.39
842.956	-0.78
843.125	0.07
843.294	-0.74
843.464	0.77
843.633	0.41
843.802	-0.42
843.971	-0.13
844.14	0.59
844.309	0.99
844.479	-0.84
844.648	-0.54
844.817	-0.69
844.986	0.31
845.155	-0.29
845.324	-0.3
845.493	-0.43
845.662	0.06
845.831	0.23
846	0.23
846.169	0.29
846.338	1.17
846.507	0.19
846.676	0.03
846.844	-0.85
847.013	1.77
847.182	0.28
847.351	-0.26
847.52	-0.4
847.689	0.36
847.858	-0.13
848.026	-1.1
848.195	-1
848.364	-0.14
848.533	-1.31
848.701	-0.47
848.87	0.17
849.039	0.54
849.207	0.93
849.376	1.07
849.545	2.22
849.713	-1.29
849.882	0.02
850.051	-0.2
850.219	0.89
850.388	0.77
850.556	-1.8
850.725	-1.01
850.893	0.31
851.062	-0.85
851.23	0.75
851.399	-1.08
851.567	-0.41
851.736	0.24
851.904	-0.83
852.073	0.41
852.241	1.39
852.41	-1.43
852.578	-0.43
852.746	-1.35
852.915	0.24
853.083	0.07
853.251	-2.07
853.42	-0.37
853.588	0.12
853.756	2.86
853.924	-0.6
854.093	-0.35
854.261	-0.08
854.429	-1.26
854.597	-0.77
854.765	-1.26
854.934	1.43
855.102	1.49
855.27	0.55
855.438	0.51
855.606	1.39
855.774	2.44
855.942	-1.18
856.11	-1.75
856.278	-0.27
856.446	1.38
856.614	0.02
856.782	-0.19
856.95	0.14
857.118	0.22
857.286	0.04
857.454	-0.94
857.622	1.4
857.79	0.45
857.958	-1.34
858.126	-0.71
858.294	-2.8
858.462	-0.31
858.629	-0.15
858.797	-1.69
858.965	0.66
859.133	0.46
859.301	-0.42
859.468	-0.02
859.636	0.98
859.804	1.21
859.971	0.72
860.139	-1.13
860.307	0.65
860.474	-0.06
860.642	-1.36
860.81	-0.78
860.977	-0.86
861.145	2.27
861.313	-0.53
861.48	-0.04
861.648	0.72
861.815	-1.52
861.983	-1.17
862.15	-1.5
862.318	1.11
862.485	1.23
862.653	-0.53
862.82	-1.92
862.988	2.26
863.155	1.42
863.322	-0.77
863.49	-1.97
863.657	-0.66
863.824	1.33
863.992	0.68
864.159	-0.22
864.326	2.27
864.494	0.05
864.661	2.48
864.828	-1.09
864.996	0.92
865.163	2.46
865.33	-0.72
865.497	-2.63
865.664	-0.84
865.832	-2.53
865.999	-1.38
866.166	-1.22
866.333	-1.02
866.5	-1.16
866.667	-0.14
866.834	-0.64
867.001	2.63
867.168	-1.39
867.335	0.64
867.502	-1.27
867.669	-0.57
867.836	3.02
868.003	-0.35
868.17	0.18
868.337	3.22
868.504	2.76
868.671	-2.11
868.838	-1.81
869.005	1.71
869.172	1.08
869.339	-0.7
869.505	-0.81
869.672	0.24
869.839	3.34
870.006	-0.53
870.173	-1.52
870.339	1.06
870.506	3.48
870.673	-0.21
870.84	1.68
871.006	0.58
871.173	-0.03
871.34	-0.17
871.506	-2.72
871.673	1.05
871.839	-1.25
872.006	0.2
872.173	-2.11
872.339	-0.85
872.506	3.15
872.672	-0.38
872.839	-1.04
873.005	-0.59
873.172	3.27
873.338	-0.69
873.505	-0.18
873.671	0.18
873.838	1.26
874.004	-1.54
874.171	-0.33
874.337	2.46
874.503	1.09
874.67	-1.34
874.836	-0.48
875.002	1.75
875.169	1.19
875.335	-0.76
875.501	0.5
875.668	0.54
875.834	1.58
876	-0.19
876.166	0.51
876.332	1.34
876.499	2.8
876.665	-1.41
876.831	-0.05
876.997	2.99
877.163	1.57
877.329	0.3
877.495	-0.76
877.662	0.78
877.828	1.77
877.994	-0.08
878.16	-2.99
878.326	-0.25
878.492	-0.16
878.658	-0.4
878.824	0.08
878.99	0.75
879.156	-0.2
879.322	0.57
879.487	-0.98
879.653	-0.12
879.819	1.87
879.985	-2.35
880.151	-0.03
880.317	0.91
880.483	0.85
880.648	0.72
880.814	-2.59
880.98	1.26
881.146	-4.59
881.312	-0.2
881.477	-0.52
881.643	0.36
881.809	1.82
881.974	0.23
882.14	-2.06
882.306	1.06
882.471	4.91
882.637	-1.18
882.803	0.7
882.968	2.21
883.134	3.43
883.299	-1.19
883.465	-0.03
883.63	1.28
883.796	0.85
883.961	1.06
884.127	1.38
884.292	-3.52
884.458	-2.37
884.623	-2.37
