Data from Apollo_Calib_20240827__AbsoluteIrradiance__196__02-25-03-018.txt Node

Date: Wed Aug 28 02:25:03 BST 2024
User: biology
Spectrometer: FLMT08252
Trigger mode: 0
Integration Time (sec): 5.000000E-1
Scans to average: 5
Electric dark correction enabled: true
Nonlinearity correction enabled: false
Boxcar width: 0
XAxis mode: Wavelengths
Number of Pixels in Spectrum: 3648
>>>>>Begin Spectral Data<<<<<
179.588	-0
179.809	-0
180.03	-0
180.251	-0
180.473	-0
180.694	0
180.915	0
181.136	-0
181.357	0
181.578	-0
181.799	-0
182.02	-0
182.241	-0
182.462	-0
182.683	0
182.904	-0
183.125	-0
183.346	0
183.567	0
183.788	0
184.009	-0
184.23	0
184.451	0
184.672	-0
184.892	-0
185.113	0
185.334	0
185.555	-0
185.776	-0
185.996	0
186.217	0
186.438	0
186.659	0
186.879	0
187.1	0
187.321	-0
187.541	-0
187.762	0
187.983	0
188.203	0
188.424	0
188.644	0
188.865	-0
189.086	-0
189.306	-0
189.527	0
189.747	0
189.968	-0
190.188	0
190.409	-0
190.629	0
190.849	-0
191.07	-0
191.29	0
191.511	0
191.731	-0
191.951	-0
192.172	0
192.392	0
192.612	-0
192.833	0
193.053	0
193.273	0
193.493	-0
193.714	-0
193.934	0
194.154	0
194.374	-0
194.594	0
194.815	0
195.035	0
195.255	0
195.475	-0
195.695	0
195.915	0
196.135	0
196.355	0
196.575	0
196.795	0
197.015	-0
197.235	-0
197.455	0
197.675	0
197.895	-0
198.115	-0
198.335	0
198.555	0
198.775	0
198.995	0
199.214	0
199.434	0
199.654	-0
199.874	-0
200.094	1.22
200.313	0.19
200.533	0.19
200.753	-1.04
200.973	0.91
201.192	1
201.412	-0.75
201.632	-0.72
201.851	1.17
202.071	-0.19
202.291	0.2
202.51	-0.43
202.73	0.69
202.95	0.11
203.169	-0.61
203.389	-0.19
203.608	0.44
203.828	0.16
204.047	0.43
204.267	0.41
204.486	0.35
204.706	0.54
204.925	0.05
205.145	0.01
205.364	0.9
205.583	0.95
205.803	-0.14
206.022	-0.59
206.242	0.3
206.461	0.36
206.68	0.02
206.9	0.03
207.119	0.74
207.338	0.53
207.557	-0.07
207.777	0.19
207.996	0.09
208.215	0.53
208.434	-0.27
208.654	-0.1
208.873	0.41
209.092	0.7
209.311	0.05
209.53	0
209.749	0.04
209.968	-0
210.187	-0.04
210.407	-0.23
210.626	-0
210.845	0.23
211.064	-0.02
211.283	-0.22
211.502	0.48
211.721	0.11
211.94	0.07
212.159	0.19
212.377	0.24
212.596	0.44
212.815	0.19
213.034	0.26
213.253	0.52
213.472	0.42
213.691	0.08
213.91	-0.17
214.128	-0.24
214.347	0.6
214.566	-0.24
214.785	-0.34
215.003	0.39
215.222	0.39
215.441	0.02
215.66	-0.27
215.878	0.03
216.097	0.23
216.316	-0.21
216.534	-0.19
216.753	0.16
216.972	-0.05
217.19	0.05
217.409	-0.17
217.627	-0.15
217.846	-0.08
218.064	0.02
218.283	-0.06
218.501	0.57
218.72	0.39
218.938	-0.09
219.157	-0.17
219.375	0.06
219.594	0.26
219.812	-0.14
220.031	-0.18
220.249	0.42
220.467	0.27
220.686	-0.17
220.904	-0.21
221.122	-0.07
221.341	0.38
221.559	0.04
221.777	-0.18
221.995	0.1
222.214	0.22
222.432	-0.09
222.65	0.1
222.868	0.14
223.086	0.05
223.305	0.1
223.523	0.1
223.741	0.41
223.959	0.02
224.177	-0.07
224.395	-0.09
224.613	0.25
224.831	0.21
225.049	-0.05
225.267	-0
225.485	0.08
225.703	-0.04
225.921	0.02
226.139	-0.07
226.357	0.21
226.575	0.22
226.793	-0
227.011	0.7
227.229	0.01
227.447	0.16
227.665	-0.06
227.883	-0.13
228.1	-0.03
228.318	0.14
228.536	-0.2
228.754	-0.03
228.972	0.04
229.189	0.19
229.407	-0.15
229.625	0.01
229.843	0.21
230.06	0.09
230.278	-0.15
230.496	-0.08
230.713	0.15
230.931	0.35
231.149	0.01
231.366	-0.3
231.584	0.05
231.801	0.43
232.019	-0.11
232.236	-0.18
232.454	-0.18
232.671	0.12
232.889	-0.03
233.106	-0.12
233.324	0.13
233.541	0.04
233.759	0.04
233.976	-0.07
234.194	0.01
234.411	0.08
234.628	-0.1
234.846	0.08
235.063	0.13
235.28	0.16
235.498	-0
235.715	-0.17
235.932	0.16
236.149	0.09
236.367	-0.07
236.584	0.1
236.801	-0.02
237.018	0.09
237.236	0.05
237.453	-0.11
237.67	0.18
237.887	0.04
238.104	0.04
238.321	-0.04
238.538	-0.04
238.755	0.27
238.973	-0.04
239.19	0.11
239.407	0.06
239.624	0.06
239.841	-0.07
240.058	-0.04
240.275	0.08
240.492	0.03
240.709	-0.01
240.925	0.02
241.142	0.08
241.359	-0.1
241.576	-0.03
241.793	-0
242.01	0.1
242.227	0.11
242.444	0.08
242.66	0.16
242.877	0.12
243.094	-0.02
243.311	0.09
243.527	0.05
243.744	0.09
243.961	0.14
244.178	-0.08
244.394	0.01
244.611	0.18
244.828	0.21
245.044	-0.11
245.261	0.02
245.477	0.07
245.694	0.07
245.911	0.04
246.127	0.01
246.344	0.15
246.56	0.11
246.777	-0.05
246.993	0.02
247.21	0.09
247.426	0.12
247.643	-0.01
247.859	-0.05
248.076	-0.02
248.292	0.23
248.508	0.01
248.725	0.05
248.941	0.1
249.157	0.21
249.374	-0.08
249.59	0.04
249.806	0.03
250.023	0.07
250.239	0.01
250.455	-0.03
250.671	0.08
250.888	0.07
251.104	0.06
251.32	-0.02
251.536	0.04
251.752	-0
251.969	0.09
252.185	0.09
252.401	0.24
252.617	0.04
252.833	0.01
253.049	0.01
253.265	0.02
253.481	-0.04
253.697	0.03
253.913	-0.05
254.129	0.07
254.345	0
254.561	-0.02
254.777	-0.03
254.993	0.09
255.209	0.04
255.425	0.03
255.641	-0
255.857	0.16
256.073	0.05
256.288	-0.06
256.504	0
256.72	0.07
256.936	0.18
257.152	-0.05
257.367	-0.08
257.583	0.03
257.799	0.1
258.015	-0.07
258.23	-0.09
258.446	0.18
258.662	0.03
258.877	-0.03
259.093	-0.09
259.309	0.05
259.524	0.03
259.74	-0.03
259.955	-0.05
260.171	0.02
260.387	0.1
260.602	0.13
260.818	0.09
261.033	-0.03
261.249	-0
261.464	-0.02
261.68	-0.02
261.895	0.11
262.11	0.08
262.326	0.04
262.541	-0.17
262.757	0.05
262.972	0.01
263.187	0.1
263.403	0.07
263.618	0.17
263.833	0.05
264.049	-0.04
264.264	-0.01
264.479	0.14
264.694	0.16
264.91	-0.04
265.125	0.05
265.34	0.08
265.555	0.26
265.77	0.07
265.986	-0.03
266.201	0.12
266.416	0.16
266.631	0.01
266.846	0.05
267.061	0.05
267.276	0.05
267.491	-0.12
267.706	-0
267.921	0.12
268.136	0.09
268.351	0.04
268.566	-0.08
268.781	0.1
268.996	0.11
269.211	-0.01
269.426	-0.06
269.641	-0
269.856	0.08
270.071	-0.03
270.285	-0.08
270.5	0.06
270.715	0.06
270.93	-0.07
271.145	0.11
271.359	0.09
271.574	-0.01
271.789	0.05
272.004	0.02
272.218	0.04
272.433	0.12
272.648	-0
272.862	0.13
273.077	-0.01
273.292	0.07
273.506	-0.01
273.721	-0
273.936	0.02
274.15	0.12
274.365	-0.05
274.579	0.09
274.794	0.1
275.008	0.08
275.223	-0.07
275.437	0.05
275.652	0.12
275.866	0.07
276.081	0.02
276.295	0.05
276.509	0.04
276.724	0.02
276.938	0.03
277.153	0.04
277.367	0.12
277.581	-0.03
277.796	-0.02
278.01	-0.01
278.224	0.08
278.438	0.2
278.653	0.03
278.867	-0.02
279.081	-0.09
279.295	0.02
279.51	0.05
279.724	-0.05
279.938	0.05
280.152	0.1
280.366	-0.03
280.58	0.07
280.794	0.13
281.008	0.07
281.222	0.07
281.437	0.11
281.651	0.08
281.865	0.1
282.079	-0.03
282.293	-0.05
282.507	0.01
282.721	0.05
282.935	0.01
283.148	-0.05
283.362	0
283.576	0
283.79	0.03
284.004	-0.02
284.218	0.07
284.432	0.01
284.646	0.04
284.859	0.06
285.073	-0.02
285.287	0.04
285.501	-0.02
285.714	0.02
285.928	0.02
286.142	0.07
286.356	-0.02
286.569	-0.01
286.783	0.1
286.997	0.12
287.21	-0
287.424	0.06
287.637	0.05
287.851	0.01
288.065	0.05
288.278	0.03
288.492	0.04
288.705	0.03
288.919	0.04
289.132	-0.03
289.346	0.09
289.559	-0.04
289.773	-0.02
289.986	0.02
290.2	0.04
290.413	0.11
290.626	-0.03
290.84	0.03
291.053	0.05
291.267	0.13
291.48	0.04
291.693	0.05
291.906	-0.01
292.12	0.03
292.333	-0
292.546	0
292.76	0.12
292.973	0.04
293.186	0.05
293.399	-0.03
293.612	0.1
293.826	-0.02
294.039	0.07
294.252	0.03
294.465	0.1
294.678	0.1
294.891	0.06
295.104	-0.02
295.317	0.04
295.53	0.04
295.743	-0.01
295.956	0.01
296.169	0.08
296.382	0.08
296.595	0.07
296.808	-0.01
297.021	0.13
297.234	0.05
297.447	0.04
297.66	0.06
297.873	0.13
298.086	0.09
298.299	-0.04
298.511	-0.03
298.724	0.01
298.937	0.02
299.15	0.01
299.363	0.05
299.575	0.08
299.788	0.09
300.001	0.02
300.213	-0.04
300.426	0.04
300.639	-0.03
300.852	0.02
301.064	0.09
301.277	0.06
301.489	0.06
301.702	0.06
301.915	0.09
302.127	0.04
302.34	0.05
302.552	0.01
302.765	0.02
302.977	0.08
303.19	0.04
303.402	0
303.615	-0.01
303.827	0.03
304.04	0.02
304.252	0.05
304.464	-0.01
304.677	0.18
304.889	0.04
305.102	0.02
305.314	-0.01
305.526	0.05
305.739	0.1
305.951	0.03
306.163	0.01
306.375	0.13
306.588	0
306.8	0
307.012	-0.04
307.224	0.05
307.436	0.09
307.649	-0.02
307.861	0.07
308.073	0.04
308.285	0.02
308.497	-0
308.709	-0.03
308.921	0.04
309.133	0.06
309.346	0.03
309.558	0.03
309.77	0.04
309.982	0.1
310.194	0.08
310.406	0.02
310.617	0.07
310.829	0.09
311.041	0.07
311.253	0.02
311.465	0.04
311.677	0.05
311.889	0.08
312.101	-0
312.313	0.09
312.524	0.13
312.736	-0.04
312.948	0
313.16	0.13
313.372	0.06
313.583	0.05
313.795	0.03
314.007	-0.01
314.218	0.09
314.43	0.06
314.642	-0
314.853	-0.03
315.065	0.08
315.277	0.01
315.488	0.05
315.7	0.09
315.912	0.08
316.123	0.03
316.335	0
316.546	0.14
316.758	0.07
316.969	0.02
317.181	0.04
317.392	0.09
317.604	0.1
317.815	0.02
318.026	-0.03
318.238	0.02
318.449	0.09
318.661	-0.03
318.872	-0.04
319.083	-0.06
319.295	0.07
319.506	-0.01
319.717	0.03
319.929	0.08
320.14	0.06
320.351	0.05
320.562	0
320.774	0.06
320.985	-0
321.196	-0.01
321.407	-0.02
321.618	0.1
321.829	0.05
322.041	0.02
322.252	0.06
322.463	0.08
322.674	0.09
322.885	0.02
323.096	0
323.307	0.01
323.518	0.05
323.729	0.01
323.94	0.02
324.151	0.05
324.362	0.03
324.573	0.03
324.784	-0
324.995	0.06
325.206	0.04
325.417	0.01
325.628	0.04
325.838	0.04
326.049	0.07
326.26	0.09
326.471	0.03
326.682	0.05
326.892	0.04
327.103	0.01
327.314	-0.02
327.525	0.11
327.735	0.08
327.946	-0
328.157	0.01
328.368	0.1
328.578	-0.01
328.789	0.06
328.999	0.03
329.21	0
329.421	0.06
329.631	-0.02
329.842	-0.02
330.052	0.03
330.263	0.08
330.473	0.05
330.684	0.08
330.894	0.04
331.105	0.04
331.315	0.02
331.526	-0.02
331.736	0.13
331.947	0.05
332.157	0.07
332.367	0.02
332.578	0.1
332.788	0.08
332.999	0.08
333.209	0.03
333.419	0
333.629	0.06
333.84	0.06
334.05	0.04
334.26	0.16
334.47	0.06
334.681	0.08
334.891	-0.01
335.101	0.08
335.311	0.16
335.521	0.06
335.732	-0.03
335.942	0.11
336.152	0.09
336.362	0.08
336.572	0.06
336.782	0.09
336.992	0.04
337.202	-0
337.412	0.02
337.622	0.03
337.832	0.02
338.042	0.03
338.252	0.02
338.462	0.04
338.672	0.03
338.882	0.07
339.092	0.02
339.302	0.16
339.511	0.09
339.721	0.03
339.931	-0
340.141	0.1
340.351	0.12
340.561	0.08
340.77	0.09
340.98	0.06
341.19	0.05
341.4	0.02
341.609	0
341.819	0.03
342.029	-0.01
342.238	0.05
342.448	0
342.658	0.09
342.867	0.06
343.077	0.05
343.286	0.07
343.496	0.04
343.706	0.12
343.915	0
344.125	0.05
344.334	0.09
344.544	-0.07
344.753	0.05
344.963	0.02
345.172	0.05
345.381	0.02
345.591	-0.02
345.8	0.07
346.01	0.07
346.219	0.07
346.428	-0.09
346.638	0.03
346.847	0.07
347.056	0.13
347.266	-0.01
347.475	0.06
347.684	0.07
347.893	0.04
348.103	0.08
348.312	0.06
348.521	0.05
348.73	0.07
348.94	0.05
349.149	-0
349.358	0.04
349.567	-0.01
349.776	-0.03
349.985	0.03
350.194	0.09
350.403	0.09
350.612	-0.01
350.821	0.03
351.03	0.01
351.239	-0
351.448	0.05
351.657	0.05
351.866	0.08
352.075	0.05
352.284	0.01
352.493	-0.01
352.702	0.11
352.911	0.07
353.12	0.05
353.329	0.01
353.538	0.1
353.746	0.04
353.955	-0.01
354.164	0.08
354.373	0.04
354.582	0.13
354.79	0.08
354.999	0.05
355.208	0.03
355.416	0.15
355.625	0.02
355.834	0.03
356.042	0.1
356.251	-0.02
356.46	0.02
356.668	0.07
356.877	0.17
357.085	0.08
357.294	-0.03
357.503	0.04
357.711	0.05
357.92	0.15
358.128	0.08
358.337	0.07
358.545	0.08
358.754	0.04
358.962	0.06
359.17	0.05
359.379	0.07
359.587	0.07
359.796	0.05
360.004	0.12
360.212	0.05
360.421	0.07
360.629	0.04
360.837	0.03
361.046	0.06
361.254	0.12
361.462	0.08
361.67	0.03
361.879	0.07
362.087	0.08
362.295	0.05
362.503	0.04
362.711	0.01
362.92	0.02
363.128	-0.01
363.336	0.02
363.544	0
363.752	0.05
363.96	0.01
364.168	0.02
364.376	0.07
364.584	0.09
364.792	0.12
365	0.06
365.208	0.09
365.416	0.08
365.624	0.11
365.832	0.04
366.04	0.15
366.248	0.05
366.456	0.06
366.664	0.09
366.872	0.04
367.079	0.09
367.287	0.05
367.495	0.08
367.703	0.06
367.911	0.07
368.118	0.06
368.326	0.05
368.534	0.03
368.742	0.15
368.949	0.03
369.157	0.04
369.365	0.07
369.572	0.04
369.78	0.02
369.988	0.1
370.195	0.14
370.403	0.09
370.61	0.04
370.818	0.08
371.026	0.12
371.233	0.06
371.441	0.12
371.648	0.03
371.856	0.12
372.063	0.07
372.271	0.08
372.478	0.03
372.685	0.02
372.893	0.08
373.1	0.09
373.308	0.05
373.515	0.17
373.722	0.11
373.93	0.05
374.137	0.09
374.344	0.15
374.552	0.1
374.759	0.12
374.966	0.1
375.173	0.08
375.381	0.13
375.588	0.05
375.795	0.02
376.002	0.04
376.209	0.07
376.417	0.08
376.624	0.11
376.831	0.13
377.038	0.08
377.245	0.01
377.452	0.09
377.659	0.11
377.866	0.09
378.073	0.13
378.28	0.11
378.487	0.14
378.694	0.14
378.901	0.06
379.108	0.14
379.315	0.16
379.522	0.2
379.729	0.1
379.936	0.11
380.143	0.14
380.35	0.11
380.557	0.11
380.763	0.11
380.97	0.13
381.177	0.14
381.384	0.17
381.591	0.11
381.797	0.16
382.004	0.18
382.211	0.16
382.418	0.19
382.624	0.16
382.831	0.17
383.038	0.15
383.244	0.16
383.451	0.09
383.658	0.23
383.864	0.15
384.071	0.15
384.277	0.26
384.484	0.15
384.69	0.26
384.897	0.19
385.103	0.18
385.31	0.16
385.516	0.2
385.723	0.25
385.929	0.21
386.136	0.24
386.342	0.28
386.549	0.26
386.755	0.35
386.961	0.32
387.168	0.3
387.374	0.36
387.58	0.37
387.787	0.33
387.993	0.36
388.199	0.37
388.406	0.34
388.612	0.41
388.818	0.42
389.024	0.36
389.231	0.47
389.437	0.51
389.643	0.54
389.849	0.58
390.055	0.57
390.261	0.6
390.467	0.67
390.674	0.68
390.88	0.65
391.086	0.72
391.292	0.78
391.498	0.87
391.704	0.87
391.91	0.88
392.116	0.91
392.322	0.92
392.528	1.03
392.734	1.11
392.94	1.1
393.146	1.15
393.352	1.27
393.557	1.28
393.763	1.3
393.969	1.43
394.175	1.47
394.381	1.57
394.587	1.63
394.792	1.7
394.998	1.91
395.204	1.98
395.41	1.96
395.615	2.09
395.821	2.24
396.027	2.39
396.233	2.53
396.438	2.59
396.644	2.82
396.85	2.94
397.055	3.03
397.261	3.23
397.466	3.48
397.672	3.46
397.878	3.72
398.083	3.82
398.289	3.86
398.494	4.04
398.7	4.24
398.905	4.24
399.111	4.62
399.316	4.63
399.522	4.86
399.727	5.01
399.932	5.25
400.138	5.4
400.343	5.77
400.549	5.81
400.754	6.3
400.959	6.45
401.165	6.83
401.37	7.02
401.575	7.4
401.78	7.6
401.986	7.96
402.191	8.26
402.396	8.6
402.601	8.87
402.807	9.22
403.012	9.46
403.217	10.18
403.422	10.19
403.627	10.68
403.832	11.26
404.037	11.32
404.243	11.49
404.448	11.78
404.653	12.23
404.858	12.5
405.063	12.33
405.268	12.9
405.473	13.12
405.678	13.31
405.883	13.83
406.088	13.93
406.293	14.07
406.498	14.34
406.703	14.22
406.907	14.7
407.112	15.19
407.317	15.57
407.522	15.6
407.727	15.89
407.932	16
408.136	16.4
408.341	15.93
408.546	15.94
408.751	16.05
408.956	15.76
409.16	16.24
409.365	16.03
409.57	15.56
409.774	15.51
409.979	15.5
410.184	15.28
410.388	14.98
410.593	15.14
410.798	14.97
411.002	15.01
411.207	14.64
411.411	14.59
411.616	13.96
411.82	14
412.025	13.59
412.229	13.39
412.434	12.87
412.638	12.66
412.843	12.27
413.047	11.91
413.252	11.62
413.456	11.72
413.66	11.23
413.865	10.73
414.069	10.5
414.273	10.38
414.478	9.91
414.682	9.7
414.886	9.58
415.091	9.02
415.295	9.01
415.499	8.81
415.703	8.36
415.908	8.38
416.112	7.85
416.316	8.02
416.52	7.65
416.724	7.45
416.929	7.17
417.133	7.4
417.337	6.95
417.541	6.83
417.745	6.7
417.949	6.51
418.153	6.54
418.357	6.28
418.561	6.27
418.765	6.02
418.969	6
419.173	5.99
419.377	5.68
419.581	5.7
419.785	5.61
419.989	5.28
420.193	5.39
420.397	5.19
420.601	5.02
420.804	5.03
421.008	4.77
421.212	4.73
421.416	4.45
421.62	4.39
421.823	4.24
422.027	4.22
422.231	3.93
422.435	3.82
422.638	3.69
422.842	3.56
423.046	3.51
423.249	3.47
423.453	3.33
423.657	3.27
423.86	3.15
424.064	3.08
424.268	3.08
424.471	2.94
424.675	2.91
424.878	2.88
425.082	2.67
425.285	2.79
425.489	2.59
425.692	2.53
425.896	2.38
426.099	2.4
426.303	2.29
426.506	2.26
426.71	2.24
426.913	2.23
427.116	2.18
427.32	2.08
427.523	2.05
427.726	2.07
427.93	1.92
428.133	1.99
428.336	1.89
428.54	1.84
428.743	1.9
428.946	1.86
429.149	1.81
429.353	1.74
429.556	1.7
429.759	1.6
429.962	1.57
430.165	1.59
430.368	1.43
430.571	1.43
430.775	1.38
430.978	1.34
431.181	1.32
431.384	1.26
431.587	1.21
431.79	1.26
431.993	1.25
432.196	1.24
432.399	1.21
432.602	1.22
432.805	1.14
433.008	1.24
433.211	1.11
433.414	1.23
433.616	1.19
433.819	1.09
434.022	1
434.225	1.18
434.428	1.12
434.631	1.24
434.833	0.97
435.036	1.02
435.239	1.05
435.442	0.98
435.645	0.9
435.847	0.98
436.05	0.99
436.253	0.92
436.455	0.88
436.658	0.87
436.861	0.97
437.063	0.87
437.266	0.78
437.468	0.89
437.671	0.96
437.874	0.78
438.076	0.68
438.279	0.73
438.481	0.75
438.684	0.77
438.886	0.76
439.089	0.61
439.291	0.78
439.494	0.72
439.696	0.64
439.899	0.66
440.101	0.7
440.303	0.61
440.506	0.76
440.708	0.67
440.91	0.69
441.113	0.61
441.315	0.64
441.517	0.56
441.72	0.62
441.922	0.56
442.124	0.53
442.326	0.61
442.529	0.6
442.731	0.48
442.933	0.6
443.135	0.47
443.337	0.47
443.539	0.47
443.742	0.46
443.944	0.51
444.146	0.43
444.348	0.45
444.55	0.44
444.752	0.46
444.954	0.43
445.156	0.42
445.358	0.36
445.56	0.47
445.762	0.4
445.964	0.33
446.166	0.34
446.368	0.35
446.57	0.46
446.772	0.35
446.974	0.34
447.175	0.37
447.377	0.36
447.579	0.34
447.781	0.31
447.983	0.39
448.184	0.35
448.386	0.35
448.588	0.25
448.79	0.28
448.991	0.33
449.193	0.33
449.395	0.32
449.597	0.35
449.798	0.33
450	0.32
450.202	0.31
450.403	0.3
450.605	0.38
450.806	0.28
451.008	0.2
451.21	0.31
451.411	0.28
451.613	0.2
451.814	0.31
452.016	0.34
452.217	0.26
452.419	0.34
452.62	0.27
452.821	0.3
453.023	0.34
453.224	0.31
453.426	0.23
453.627	0.26
453.828	0.28
454.03	0.28
454.231	0.31
454.432	0.22
454.634	0.36
454.835	0.18
455.036	0.16
455.238	0.28
455.439	0.34
455.64	0.18
455.841	0.24
456.042	0.4
456.244	0.3
456.445	0.28
456.646	0.11
456.847	0.21
457.048	0.3
457.249	0.29
457.45	0.51
457.651	0.21
457.852	0.31
458.054	0.23
458.255	0.18
458.456	0.25
458.657	0.24
458.858	0.18
459.058	0.25
459.259	0.31
459.46	0.22
459.661	0.16
459.862	0.37
460.063	0.21
460.264	0.3
460.465	0.14
460.666	0.36
460.866	0.22
461.067	0.19
461.268	0.28
461.469	0.18
461.67	0.24
461.87	0.18
462.071	0.19
462.272	0.2
462.473	0.19
462.673	0.29
462.874	0.14
463.075	0.21
463.275	0.17
463.476	0.24
463.676	0.26
463.877	0.24
464.078	0.24
464.278	0.3
464.479	0.17
464.679	0.22
464.88	0.24
465.08	0.33
465.281	0.19
465.481	0.16
465.682	0.21
465.882	0.18
466.083	0.23
466.283	0.21
466.483	0.19
466.684	0.15
466.884	0.16
467.085	0.17
467.285	0.26
467.485	0.17
467.686	0.17
467.886	0.16
468.086	0.18
468.286	0.21
468.487	0.25
468.687	0.16
468.887	0.2
469.087	0.24
469.287	0.19
469.488	0.16
469.688	0.19
469.888	0.21
470.088	0.24
470.288	0.2
470.488	0.23
470.688	0.12
470.888	0.16
471.088	0.16
471.288	0.25
471.488	0.16
471.688	0.18
471.888	0.14
472.088	0.24
472.288	0.22
472.488	0.13
472.688	0.16
472.888	0.17
473.088	0.19
473.288	0.15
473.488	0.15
473.688	0.24
473.887	0.15
474.087	0.14
474.287	0.18
474.487	0.14
474.687	0.2
474.886	0.08
475.086	0.13
475.286	0.13
475.486	0.18
475.685	0.15
475.885	0.14
476.085	0.17
476.284	0.15
476.484	0.16
476.684	0.16
476.883	0.21
477.083	0.17
477.282	0.14
477.482	0.21
477.681	0.19
477.881	0.13
478.08	0.11
478.28	0.11
478.479	0.17
478.679	0.19
478.878	0.11
479.078	0.09
479.277	0.1
479.477	0.12
479.676	0.17
479.875	0.11
480.075	0.06
480.274	0.11
480.473	0.13
480.673	0.08
480.872	0.17
481.071	0.12
481.271	0.15
481.47	0.1
481.669	0.11
481.868	0.08
482.067	0.09
482.267	0.08
482.466	0.06
482.665	0.05
482.864	0.06
483.063	0.09
483.262	0.1
483.461	0.15
483.661	0.13
483.86	0.11
484.059	0.11
484.258	0.09
484.457	0.09
484.656	0.1
484.855	0.15
485.054	0.05
485.253	0.07
485.452	0.05
485.651	0.08
485.849	0.11
486.048	0.07
486.247	0.06
486.446	0.09
486.645	0.07
486.844	0.06
487.043	0.07
487.241	0.1
487.44	0.06
487.639	0.07
487.838	0.09
488.037	0.11
488.235	0.16
488.434	0.07
488.633	0.07
488.831	0.09
489.03	0.11
489.229	0.09
489.427	0.08
489.626	0.14
489.825	0.14
490.023	0.07
490.222	0.06
490.42	0.1
490.619	0.11
490.817	0.08
491.016	0.07
491.214	0.12
491.413	0.08
491.611	0.05
491.81	0.07
492.008	0.09
492.207	0.11
492.405	0.08
492.604	0.02
492.802	0.05
493	0.08
493.199	0.03
493.397	0.07
493.595	0.05
493.794	0.06
493.992	0.12
494.19	0.07
494.388	0.09
494.587	0.07
494.785	0.07
494.983	0.04
495.181	0.07
495.379	0.08
495.578	0.07
495.776	0.06
495.974	0.1
496.172	0.08
496.37	0.05
496.568	0.04
496.766	0.05
496.964	0.1
497.162	0.06
497.36	0.03
497.558	0.08
497.756	0.09
497.954	0.06
498.152	0.05
498.35	0.06
498.548	0.05
498.746	0.07
498.944	0.05
499.142	0.06
499.34	0.05
499.538	0.06
499.736	0.05
499.933	0.1
500.131	0.12
500.329	0.06
500.527	0.1
500.725	0.1
500.922	0.08
501.12	0.07
501.318	0.09
501.516	0.05
501.713	0.06
501.911	0.06
502.109	0.03
502.306	0.06
502.504	0.04
502.701	0.04
502.899	0.06
503.097	0.11
503.294	0.07
503.492	0.07
503.689	0.08
503.887	0.08
504.084	0.11
504.282	0.05
504.479	0.02
504.677	0.08
504.874	0.04
505.072	0.06
505.269	0.06
505.466	0.08
505.664	0.07
505.861	0.04
506.059	0.02
506.256	0.07
506.453	0.05
506.651	0.09
506.848	0.08
507.045	0.07
507.242	0.04
507.44	0.03
507.637	0.05
507.834	0.05
508.031	0.07
508.229	0.04
508.426	0.06
508.623	0.09
508.82	0.03
509.017	0.03
509.214	0.04
509.411	0.05
509.608	0.03
509.805	0.05
510.003	0.03
510.2	0.04
510.397	0.08
510.594	0.03
510.791	0.03
510.988	0.02
511.184	0.06
511.381	0.05
511.578	0.03
511.775	0.08
511.972	0.06
512.169	0.05
512.366	0.05
512.563	0.05
512.76	0.05
512.956	0.08
513.153	0.05
513.35	0.05
513.547	0.03
513.744	0.02
513.94	0.01
514.137	0.04
514.334	0.04
514.53	0.06
514.727	0.06
514.924	0.11
515.12	0.03
515.317	0.01
515.514	0.04
515.71	0.01
515.907	0.03
516.103	0.05
516.3	0.05
516.497	0.08
516.693	0.07
516.89	0.02
517.086	0.01
517.283	0.1
517.479	0.04
517.676	0.02
517.872	0.05
518.068	0.03
518.265	0.03
518.461	0.02
518.658	0.02
518.854	0.03
519.05	0.02
519.247	0.01
519.443	0.06
519.639	0.04
519.836	0.04
520.032	0.05
520.228	0.03
520.424	0.08
520.621	0.03
520.817	0.02
521.013	0.05
521.209	0.05
521.405	0.07
521.601	0.04
521.798	0.03
521.994	0.06
522.19	0.01
522.386	0.01
522.582	0.05
522.778	0.02
522.974	0.03
523.17	0.03
523.366	0.04
523.562	0.07
523.758	0.04
523.954	0.04
524.15	0.02
524.346	0.06
524.542	0.04
524.738	0.01
524.934	0.03
525.129	0.03
525.325	0.04
525.521	0.04
525.717	0.05
525.913	0.04
526.109	0.05
526.304	0.03
526.5	0.03
526.696	0.06
526.892	0.04
527.087	0.04
527.283	0.01
527.479	0.02
527.674	0.03
527.87	0.03
528.066	0.02
528.261	0.06
528.457	0.05
528.653	0.03
528.848	0.04
529.044	0.05
529.239	0.03
529.435	0.05
529.63	0.03
529.826	0.07
530.021	0.05
530.217	0.04
530.412	0
530.608	0.02
530.803	0.06
530.999	0.02
531.194	0
531.389	0.02
531.585	-0.03
531.78	0.01
531.975	0.02
532.171	0.04
532.366	0.02
532.561	0.06
532.757	0
532.952	0.03
533.147	0.05
533.342	0.02
533.538	0.01
533.733	0.06
533.928	0.03
534.123	0.02
534.318	-0.01
534.513	0.02
534.709	0.03
534.904	0.03
535.099	-0
535.294	0.04
535.489	0.04
535.684	0
535.879	0.01
536.074	0.04
536.269	0.01
536.464	0.04
536.659	0.02
536.854	0.03
537.049	0.04
537.244	0.03
537.439	0.02
537.634	0.06
537.828	0.05
538.023	0.03
538.218	-0
538.413	0.01
538.608	-0.02
538.803	0.03
538.997	-0.01
539.192	0.05
539.387	0.04
539.582	0.04
539.776	0.05
539.971	0.01
540.166	0.03
540.36	-0.01
540.555	0.03
540.75	0
540.944	0.01
541.139	0
541.334	0.01
541.528	0.07
541.723	0.05
541.917	0.01
542.112	-0.02
542.306	0
542.501	0.02
542.695	0.03
542.89	0
543.084	0.03
543.279	-0
543.473	0.03
543.668	0.01
543.862	0.01
544.056	0.05
544.251	0.02
544.445	0.03
544.64	0.01
544.834	0.02
545.028	0.02
545.222	0.03
545.417	0.04
545.611	0.03
545.805	0.02
546	0.01
546.194	0.01
546.388	0.03
546.582	0.05
546.776	-0
546.97	0.02
547.165	0.03
547.359	0.04
547.553	0
547.747	0.04
547.941	0.02
548.135	0.03
548.329	0.03
548.523	0.02
548.717	0.03
548.911	0.01
549.105	0.03
549.299	0.02
549.493	0.02
549.687	0.02
549.881	0.04
550.075	0.04
550.269	0
550.463	0.03
550.657	0
550.85	0.02
551.044	0.01
551.238	0
551.432	0.02
551.626	-0.02
551.82	0.05
552.013	-0
552.207	0.01
552.401	0.03
552.594	0.03
552.788	0.02
552.982	0.01
553.176	0.01
553.369	0.04
553.563	0.02
553.756	-0.01
553.95	-0
554.144	0.03
554.337	0.05
554.531	0.03
554.724	0.01
554.918	0.01
555.111	0.04
555.305	0.02
555.498	0.09
555.692	0.04
555.885	-0
556.079	0.03
556.272	0.01
556.466	0.03
556.659	0.02
556.852	0.02
557.046	0.02
557.239	0.05
557.432	-0.02
557.626	0.02
557.819	0.04
558.012	0.05
558.206	0.04
558.399	0.03
558.592	0.02
558.785	0.02
558.979	0.03
559.172	0.02
559.365	0.04
559.558	0.04
559.751	0.02
559.944	0.01
560.138	0.02
560.331	0.04
560.524	0.01
560.717	0.02
560.91	0.02
561.103	0.02
561.296	0.02
561.489	0.03
561.682	0.02
561.875	0.05
562.068	0.03
562.261	0.03
562.454	0.06
562.647	0.02
562.84	0.05
563.032	-0.01
563.225	0.01
563.418	0.02
563.611	0
563.804	0
563.997	-0.01
564.19	-0.01
564.382	0.01
564.575	0.01
564.768	0.02
564.961	0.02
565.153	-0.02
565.346	0.04
565.539	0.03
565.731	0.05
565.924	0.06
566.117	0.05
566.309	0.04
566.502	0.02
566.695	0.02
566.887	0.02
567.08	0.01
567.272	0.01
567.465	0.01
567.657	0.02
567.85	0.04
568.042	0.03
568.235	0.06
568.427	0.03
568.62	0.04
568.812	0.04
569.005	0.02
569.197	-0.01
569.389	0.04
569.582	0.03
569.774	0.01
569.966	0.01
570.159	-0.04
570.351	0.02
570.543	-0.01
570.736	0.01
570.928	0.03
571.12	0.02
571.312	0
571.505	-0.01
571.697	0.05
571.889	0.01
572.081	0.02
572.273	-0.02
572.465	0.08
572.658	-0
572.85	0.01
573.042	0.02
573.234	-0.01
573.426	0.06
573.618	-0.04
573.81	0.03
574.002	0.02
574.194	0.04
574.386	-0.01
574.578	-0.06
574.77	-0.01
574.962	0.01
575.154	-0.03
575.346	0.03
575.538	0.02
575.729	0
575.921	-0.02
576.113	-0.02
576.305	0.05
576.497	0.02
576.689	0.01
576.88	0.01
577.072	0.07
577.264	0.02
577.456	0.01
577.647	-0.03
577.839	0
578.031	0.04
578.223	-0.01
578.414	-0.01
578.606	0.04
578.798	0.03
578.989	-0.01
579.181	-0
579.372	-0
579.564	-0
579.755	0.02
579.947	0.01
580.139	0.06
580.33	-0.04
580.522	-0
580.713	-0.06
580.905	-0.02
581.096	0.04
581.287	0.02
581.479	0.02
581.67	0.04
581.862	-0.01
582.053	-0.01
582.244	-0.04
582.436	0.03
582.627	0.02
582.818	-0.02
583.01	-0.02
583.201	0.04
583.392	0.05
583.583	-0.01
583.775	0
583.966	-0.01
584.157	0
584.348	-0.03
584.54	-0.03
584.731	0.03
584.922	-0
585.113	-0.01
585.304	0.05
585.495	0.04
585.686	0.04
585.877	0.04
586.068	0.02
586.259	0.02
586.45	0.01
586.641	-0.02
586.832	-0.05
587.023	0.02
587.214	0.01
587.405	0.04
587.596	-0
587.787	0.03
587.978	0
588.169	-0.01
588.36	-0.01
588.551	0.03
588.742	0
588.932	0.02
589.123	0.03
589.314	0.04
589.505	0.05
589.696	0.03
589.886	-0
590.077	-0.03
590.268	0.03
590.458	-0
590.649	-0.02
590.84	0.04
591.03	-0.02
591.221	-0.01
591.412	-0.04
591.602	0.04
591.793	0.05
591.984	-0.01
592.174	0.01
592.365	0.08
592.555	-0.02
592.746	0.02
592.936	0.03
593.127	0.02
593.317	0.05
593.508	-0.02
593.698	-0.01
593.889	0.02
594.079	0.01
594.269	-0.03
594.46	0.03
594.65	-0
594.84	0.01
595.031	-0.01
595.221	-0.03
595.411	-0.05
595.602	0.06
595.792	-0.03
595.982	0
596.172	0.09
596.363	0.03
596.553	0.01
596.743	0.01
596.933	0
597.123	0.03
597.314	-0
597.504	-0.03
597.694	0.03
597.884	0.03
598.074	-0.02
598.264	-0.02
598.454	0.03
598.644	0.03
598.834	-0
599.024	-0.05
599.214	-0
599.404	0.04
599.594	-0.01
599.784	-0.02
599.974	0.06
600.164	0.05
600.354	-0.04
600.544	-0.04
600.734	0.04
600.924	0.05
601.114	-0.02
601.303	-0
601.493	0.01
601.683	0.01
601.873	0.02
602.063	-0.04
602.252	0.04
602.442	-0.07
602.632	-0.02
602.821	-0
603.011	0.04
603.201	-0.01
603.39	-0.04
603.58	-0.02
603.77	0
603.959	0.03
604.149	0
604.339	-0.02
604.528	0.01
604.718	0.04
604.907	-0
605.097	-0.02
605.286	0
605.476	-0.01
605.665	0.03
605.855	-0.02
606.044	0.09
606.234	0.01
606.423	0.01
606.612	-0.04
606.802	0.01
606.991	0.04
607.181	-0
607.37	-0.03
607.559	0.01
607.749	-0.06
607.938	0.01
608.127	0.01
608.316	-0.02
608.506	0.01
608.695	-0.01
608.884	-0.03
609.073	-0.01
609.263	0.04
609.452	0.05
609.641	0.02
609.83	-0.01
610.019	0.01
610.208	-0
610.397	0.01
610.586	0.02
610.775	-0.02
610.965	-0
611.154	-0.02
611.343	0.02
611.532	0.03
611.721	-0.03
611.91	-0.01
612.099	0.03
612.287	0
612.476	-0.04
612.665	0.03
612.854	-0.01
613.043	0.05
613.232	0.01
613.421	-0.03
613.61	0
613.798	-0.02
613.987	0.03
614.176	-0.01
614.365	0.05
614.554	0
614.742	0.02
614.931	-0.03
615.12	0.05
615.309	-0.01
615.497	0.02
615.686	-0.03
615.875	-0.01
616.063	0.01
616.252	-0.04
616.44	0.02
616.629	0.04
616.818	0.05
617.006	0.02
617.195	-0.02
617.383	0.03
617.572	0.01
617.76	-0.02
617.949	-0.04
618.137	0.01
618.326	0.05
618.514	-0.01
618.703	-0.03
618.891	0.08
619.079	-0.03
619.268	0.02
619.456	-0.02
619.644	0.07
619.833	0.02
620.021	-0.02
620.209	-0.05
620.398	0.03
620.586	0
620.774	0.02
620.962	0.01
621.151	0.06
621.339	-0
621.527	-0.03
621.715	-0.02
621.903	-0.03
622.092	-0
622.28	0.03
622.468	-0.02
622.656	0.02
622.844	0.07
623.032	-0.01
623.22	-0.03
623.408	0.04
623.596	0.01
623.784	0.03
623.972	-0.03
624.16	-0.01
624.348	0.07
624.536	-0.04
624.724	-0.01
624.912	0.06
625.1	0.05
625.288	-0.02
625.476	0
625.664	0.05
625.851	-0.02
626.039	-0.02
626.227	0
626.415	-0.01
626.603	-0.06
626.79	-0
626.978	-0.01
627.166	0.04
627.354	0.03
627.541	-0.02
627.729	-0.05
627.917	-0
628.104	0.09
628.292	-0
628.48	0.01
628.667	0.02
628.855	0.01
629.042	0
629.23	-0.01
629.418	-0.01
629.605	-0.01
629.793	-0
629.98	-0.01
630.168	0.02
630.355	0.02
630.543	0.02
630.73	-0.05
630.917	0.07
631.105	0.06
631.292	-0.02
631.48	0.02
631.667	0.07
631.854	0.01
632.042	-0.03
632.229	-0.05
632.416	0.01
632.604	0.03
632.791	-0.03
632.978	0.01
633.165	0.02
633.353	0.08
633.54	0.06
633.727	-0.07
633.914	-0.02
634.101	-0.06
634.289	0.05
634.476	-0.04
634.663	-0.03
634.85	0.01
635.037	-0.03
635.224	-0.06
635.411	0.03
635.598	0.06
635.785	-0.01
635.972	-0.01
636.159	0.06
636.346	-0.02
636.533	0.02
636.72	0.01
636.907	-0.02
637.094	0.04
637.281	-0.01
637.468	0.01
637.655	0.02
637.842	-0
638.029	-0.02
638.215	0.02
638.402	0.01
638.589	-0.02
638.776	-0.03
638.963	-0.03
639.149	0.04
639.336	0.02
639.523	-0.01
639.709	0.03
639.896	-0.01
640.083	0.04
640.27	-0.01
640.456	0
640.643	0.01
640.829	-0.03
641.016	-0.01
641.203	-0.05
641.389	0.03
641.576	0.04
641.762	0.01
641.949	-0.03
642.135	0
642.322	0.01
642.508	-0.05
642.695	-0.02
642.881	0.02
643.068	-0.03
643.254	-0.02
643.441	0.06
643.627	-0
643.813	-0.01
644	0.04
644.186	-0
644.372	0.03
644.559	0.05
644.745	-0.03
644.931	-0.01
645.118	-0.02
645.304	-0.06
645.49	-0.01
645.676	-0.03
645.862	0.04
646.049	0.07
646.235	0
646.421	0.07
646.607	0.05
646.793	-0.03
646.979	-0.05
647.165	-0
647.352	-0.01
647.538	0.05
647.724	-0.02
647.91	0
648.096	0.04
648.282	0.05
648.468	-0.02
648.654	0
648.84	-0.02
649.026	0.01
649.212	0.01
649.397	-0.03
649.583	-0.03
649.769	0.03
649.955	-0.02
650.141	0.03
650.327	0.05
650.513	-0.03
650.698	0.03
650.884	-0.09
651.07	-0
651.256	0.01
651.442	-0.01
651.627	-0
651.813	-0.02
651.999	-0.01
652.184	0.04
652.37	-0.03
652.556	-0.02
652.741	0.02
652.927	-0.04
653.113	0.01
653.298	-0.02
653.484	-0.03
653.669	-0.04
653.855	-0.01
654.04	0.01
654.226	0.01
654.412	0
654.597	-0.04
654.782	0.04
654.968	0.04
655.153	0.04
655.339	-0.01
655.524	-0.04
655.71	0.04
655.895	-0.03
656.08	-0.02
656.266	0.03
656.451	0.05
656.636	-0.03
656.822	-0
657.007	-0.04
657.192	0.02
657.378	-0.04
657.563	-0
657.748	0.02
657.933	0.03
658.118	-0.01
658.304	-0.03
658.489	0.08
658.674	-0
658.859	-0.04
659.044	0.01
659.229	0.03
659.414	-0.04
659.599	-0.05
659.785	-0.04
659.97	-0.03
660.155	0.04
660.34	0.01
660.525	-0.02
660.71	-0.01
660.895	0.03
661.08	-0.04
661.264	-0.06
661.449	0.07
661.634	0.06
661.819	0.01
662.004	0.01
662.189	-0.08
662.374	-0.01
662.559	-0.07
662.743	-0.03
662.928	-0.03
663.113	-0.01
663.298	-0.07
663.483	-0.02
663.667	0
663.852	-0.04
664.037	0.04
664.221	-0.02
664.406	0.02
664.591	0.04
664.775	0.01
664.96	-0.02
665.145	0
665.329	0.02
665.514	-0.02
665.698	-0.01
665.883	-0.07
666.068	0.05
666.252	0.01
666.437	-0.05
666.621	-0.01
666.806	0.02
666.99	-0.01
667.174	-0.06
667.359	0.07
667.543	-0.03
667.728	-0.03
667.912	-0.07
668.096	0.02
668.281	0.01
668.465	-0.02
668.649	0.01
668.834	-0.02
669.018	-0.01
669.202	-0.07
669.387	-0.06
669.571	0.03
669.755	-0.06
669.939	-0.01
670.124	0.01
670.308	0.04
670.492	0.02
670.676	-0.02
670.86	-0.01
671.044	-0.06
671.228	0.05
671.413	-0.04
671.597	-0.02
671.781	-0.03
671.965	0.04
672.149	-0.02
672.333	-0.05
672.517	-0.03
672.701	0.03
672.885	-0
673.069	-0.02
673.253	0.05
673.437	-0
673.621	-0.05
673.804	-0.01
673.988	0.05
674.172	0
674.356	-0.06
674.54	-0.03
674.724	0.09
674.908	0
675.091	0.01
675.275	-0.03
675.459	0.03
675.643	0.04
675.826	-0.02
676.01	-0.02
676.194	-0.02
676.377	0.04
676.561	0.01
676.745	0.02
676.928	0.02
677.112	0.05
677.296	-0.02
677.479	-0.03
677.663	-0
677.846	0.01
678.03	-0.01
678.213	-0.03
678.397	0.05
678.58	-0.01
678.764	-0.03
678.947	-0.06
679.131	-0.09
679.314	0.03
679.498	-0.04
679.681	0.01
679.865	0.02
680.048	-0.01
680.231	-0.01
680.415	-0.03
680.598	-0.02
680.781	-0.02
680.965	-0
681.148	0.01
681.331	-0.01
681.514	-0.01
681.698	-0.04
681.881	-0.03
682.064	-0.01
682.247	-0.02
682.43	-0.08
682.614	0.01
682.797	0.09
682.98	0.01
683.163	-0.04
683.346	0.05
683.529	-0.06
683.712	-0.03
683.895	0.03
684.078	-0.04
684.261	-0.04
684.444	0.02
684.627	0.02
684.81	-0.05
684.993	0.01
685.176	0.04
685.359	-0.02
685.542	-0.02
685.725	0.06
685.908	0.01
686.091	0.01
686.274	0.04
686.457	0.04
686.639	-0.01
686.822	0.05
687.005	0.01
687.188	0.04
687.371	0.11
687.553	0.01
687.736	0.01
687.919	0.08
688.102	0.06
688.284	-0.01
688.467	0.02
688.65	0.01
688.832	-0.01
689.015	-0.03
689.197	-0.04
689.38	0.15
689.563	0.08
689.745	0
689.928	-0.04
690.11	-0.04
690.293	0.01
690.475	-0.08
690.658	0.01
690.84	-0.01
691.023	0
691.205	-0.05
691.388	-0.06
691.57	0.03
691.752	0.04
691.935	-0.09
692.117	0
692.3	0
692.482	0.03
692.664	-0.01
692.847	0.03
693.029	0.07
693.211	0
693.393	-0.03
693.576	-0.03
693.758	0
693.94	-0.04
694.122	-0.02
694.304	-0.04
694.487	0.01
694.669	0.06
694.851	-0.07
695.033	-0.02
695.215	-0.04
695.397	-0.03
695.579	0.03
695.761	-0.04
695.943	-0.07
696.125	0.08
696.308	0.03
696.49	-0.09
696.671	0.13
696.853	-0.03
697.035	0.16
697.217	-0.01
697.399	0.09
697.581	0.01
697.763	-0.03
697.945	-0.05
698.127	0.03
698.309	-0.02
698.491	-0.01
698.672	0.06
698.854	0.06
699.036	0.04
699.218	-0.07
699.399	0.03
699.581	0.04
699.763	0.04
699.945	0.01
700.126	-0.05
700.308	0.01
700.49	-0.09
700.671	-0.09
700.853	-0.02
701.035	-0.04
701.216	-0.05
701.398	-0.05
701.579	-0.02
701.761	0.05
701.943	-0.01
702.124	0.01
702.306	0
702.487	0.1
702.669	-0.02
702.85	-0.01
703.031	-0.01
703.213	0.08
703.394	0.11
703.576	-0.04
703.757	0.09
703.938	-0
704.12	0.14
704.301	-0.02
704.483	-0.02
704.664	-0.01
704.845	0.08
705.026	0.07
705.208	-0.03
705.389	-0
705.57	-0
705.751	-0.04
705.933	-0.06
706.114	0.01
706.295	-0.04
706.476	-0.05
706.657	0.08
706.838	0.04
707.02	0.1
707.201	-0.02
707.382	-0.07
707.563	0.01
707.744	-0.03
707.925	-0.06
708.106	-0.03
708.287	0.01
708.468	0.07
708.649	-0.01
708.83	0
709.011	-0.01
709.192	0.03
709.373	-0.08
709.554	-0.05
709.734	0.04
709.915	0.09
710.096	-0
710.277	-0.12
710.458	-0
710.639	0.07
710.819	-0.08
711	0.04
711.181	0.05
711.362	0.06
711.542	0.05
711.723	-0.05
711.904	0.11
712.085	0.06
712.265	-0.06
712.446	-0.13
712.627	-0.03
712.807	0.09
712.988	-0.04
713.168	-0.07
713.349	0.05
713.53	-0.15
713.71	-0.07
713.891	-0.08
714.071	-0
714.252	-0.02
714.432	-0.08
714.613	-0.07
714.793	0.04
714.974	-0.02
715.154	0.08
715.334	0.01
715.515	0.07
715.695	-0.1
715.876	-0.02
716.056	-0.05
716.236	-0.02
716.417	-0.04
716.597	-0
716.777	0.19
716.957	-0.02
717.138	0.03
717.318	-0.07
717.498	-0.06
717.678	0.02
717.859	0.08
718.039	-0.08
718.219	0.05
718.399	0.02
718.579	-0.07
718.759	-0.04
718.939	0.06
719.12	0.04
719.3	-0.01
719.48	-0.13
719.66	-0.15
719.84	-0.01
720.02	-0.06
720.2	-0.07
720.38	-0.07
720.56	0.16
720.74	-0.01
720.92	0.02
721.1	0.04
721.279	0.02
721.459	-0.02
721.639	-0.08
721.819	-0.03
721.999	0.01
722.179	0.04
722.359	-0.1
722.538	0.01
722.718	-0.01
722.898	-0.05
723.078	-0.01
723.257	-0.05
723.437	-0.01
723.617	0.04
723.797	-0.05
723.976	-0
724.156	0.02
724.336	0.13
724.515	0.12
724.695	-0.12
724.874	-0.03
725.054	0.11
725.234	-0.01
725.413	0.07
725.593	-0.05
725.772	-0.02
725.952	-0
726.131	-0.09
726.311	0.02
726.49	0.01
726.67	-0.09
726.849	-0.14
727.028	0.1
727.208	-0.03
727.387	-0.01
727.567	-0.14
727.746	-0.06
727.925	-0.13
728.105	-0.12
728.284	-0.03
728.463	-0.08
728.643	0.04
728.822	-0.08
729.001	-0.1
729.18	0.04
729.359	0.02
729.539	-0.02
729.718	0.02
729.897	0.1
730.076	-0.04
730.255	-0.07
730.434	-0.03
730.614	0.08
730.793	0.09
730.972	-0.04
731.151	-0
731.33	0.06
731.509	0.13
731.688	0.12
731.867	0.03
732.046	-0.16
732.225	0.25
732.404	-0.08
732.583	-0.05
732.762	-0.01
732.941	0.1
733.12	0.01
733.298	-0.04
733.477	0.15
733.656	0.05
733.835	-0.07
734.014	0.02
734.193	0.05
734.371	0.01
734.55	0.05
734.729	-0.14
734.908	0.02
735.086	0.06
735.265	0.05
735.444	-0.17
735.623	-0.19
735.801	-0.13
735.98	-0.09
736.159	-0.12
736.337	-0.01
736.516	0.05
736.694	0.05
736.873	-0.03
737.052	0.17
737.23	0.17
737.409	0.04
737.587	0.16
737.766	-0.2
737.944	0.03
738.123	-0
738.301	0.06
738.479	0.07
738.658	0.08
738.836	-0.3
739.015	0.06
739.193	0.09
739.371	-0.18
739.55	-0.06
739.728	-0.08
739.906	0.14
740.085	0.15
740.263	-0.03
740.441	-0.12
740.62	0.13
740.798	0.06
740.976	-0.13
741.154	-0.21
741.332	0.13
741.511	-0.09
741.689	-0.01
741.867	0.11
742.045	0.03
742.223	0.04
742.401	-0.15
742.579	-0.07
742.757	-0.01
742.935	-0.05
743.114	-0.1
743.292	-0.06
743.47	0.02
743.648	0.07
743.826	-0.02
744.004	0.04
744.181	0.11
744.359	0.05
744.537	-0.06
744.715	-0.04
744.893	-0.09
745.071	0.01
745.249	-0.09
745.427	-0.04
745.605	0.11
745.782	0.03
745.96	0.02
746.138	-0
746.316	0.11
746.493	-0.06
746.671	-0
746.849	0.03
747.027	0.08
747.204	-0.07
747.382	-0.01
747.56	-0.13
747.737	-0.03
747.915	-0.14
748.093	-0.12
748.27	-0.06
748.448	-0
748.625	-0.15
748.803	-0.11
748.98	0
749.158	0.11
749.335	0.08
749.513	-0.07
749.69	-0.01
749.868	-0.01
750.045	0.04
750.223	-0.05
750.4	-0.16
750.578	0.22
750.755	0.04
750.932	-0.12
751.11	0.1
751.287	-0.07
751.464	0.04
751.642	-0.08
751.819	0.03
751.996	0.11
752.173	-0.08
752.351	-0.13
752.528	0.06
752.705	-0.01
752.882	-0.05
753.06	-0
753.237	0.09
753.414	0.11
753.591	0.21
753.768	-0.06
753.945	0
754.122	-0.03
754.299	0.09
754.476	-0.08
754.654	0.03
754.831	0.13
755.008	-0.01
755.185	-0.06
755.362	-0.1
755.539	0.02
755.716	-0.06
755.892	-0.05
756.069	-0.02
756.246	-0.09
756.423	-0.04
756.6	0.18
756.777	-0.13
756.954	0.12
757.131	-0.1
757.307	-0.13
757.484	-0.13
757.661	0.02
757.838	0.03
758.015	-0.14
758.191	0.12
758.368	0.06
758.545	0.28
758.721	-0.04
758.898	-0.2
759.075	0.06
759.251	0.07
759.428	0.11
759.605	-0.14
759.781	-0
759.958	-0.02
760.134	0.02
760.311	0.02
760.488	0.13
760.664	0.21
760.841	-0
761.017	-0.09
761.194	-0.03
761.37	0.22
761.547	0.06
761.723	-0.01
761.899	0.11
762.076	-0.11
762.252	-0.15
762.429	-0.13
762.605	0.09
762.781	-0.08
762.958	-0.02
763.134	-0.09
763.31	0.05
763.486	0.04
763.663	-0.22
763.839	0.02
764.015	-0.24
764.191	-0.16
764.368	-0.07
764.544	-0.01
764.72	0.01
764.896	0.11
765.072	0.05
765.248	-0.01
765.425	-0.02
765.601	-0.05
765.777	-0
765.953	-0.16
766.129	-0.2
766.305	-0.13
766.481	0.05
766.657	0.02
766.833	0.26
767.009	0
767.185	-0.15
767.361	-0.03
767.537	-0.07
767.713	0.06
767.889	-0.01
768.065	0.04
768.24	-0.05
768.416	0.08
768.592	-0.19
768.768	0.03
768.944	-0.02
769.12	0.02
769.295	-0.12
769.471	-0.09
769.647	-0.04
769.823	0.15
769.998	-0.01
770.174	-0.14
770.35	0.22
770.525	0.36
770.701	-0.04
770.877	0.09
771.052	-0.05
771.228	0.12
771.403	0.1
771.579	0.06
771.755	0.3
771.93	-0.06
772.106	-0.17
772.281	-0.21
772.457	0.04
772.632	0.09
772.808	-0.17
772.983	-0.15
773.159	-0.11
773.334	0.05
773.509	-0.04
773.685	-0.2
773.86	0.43
774.036	0.24
774.211	-0.06
774.386	-0.21
774.562	-0.03
774.737	0.06
774.912	-0.03
775.087	0.21
775.263	0.06
775.438	0
775.613	-0.03
775.788	-0.1
775.964	0.15
776.139	0.32
776.314	-0.25
776.489	0.14
776.664	-0.05
776.839	-0.05
777.014	0.07
777.19	0.18
777.365	0.21
777.54	0.14
777.715	-0.12
777.89	-0.1
778.065	-0.17
778.24	-0.12
778.415	0.13
778.59	-0.06
778.765	-0.12
778.94	0.01
779.115	-0.09
779.289	-0.04
779.464	-0
779.639	-0.02
779.814	-0.3
779.989	-0.25
780.164	0.14
780.339	0.22
780.513	-0.12
780.688	-0.03
780.863	-0.05
781.038	0.11
781.212	-0.29
781.387	-0.03
781.562	0.38
781.737	0.08
781.911	0.18
782.086	-0.09
782.261	0.01
782.435	0.32
782.61	-0.29
782.784	0.08
782.959	0.18
783.134	-0.11
783.308	-0.24
783.483	0.02
783.657	0.29
783.832	0.24
784.006	-0.35
784.181	0.16
784.355	0.31
784.53	0.06
784.704	-0.14
784.878	0.37
785.053	0.09
785.227	0.24
785.402	0.45
785.576	-0.34
785.75	-0.07
785.925	-0.17
786.099	-0.03
786.273	0.03
786.448	0.36
786.622	-0.04
786.796	-0.06
786.97	-0.12
787.145	0.35
787.319	-0.16
787.493	-0.01
787.667	-0.39
787.841	-0.12
788.015	0.28
788.19	-0.04
788.364	0.05
788.538	0.17
788.712	0.27
788.886	0.03
789.06	0.31
789.234	0.04
789.408	-0.3
789.582	-0.08
789.756	-0.09
789.93	-0.17
790.104	0.06
790.278	-0.2
790.452	-0.15
790.626	0.14
790.8	0.07
790.973	0.12
791.147	0.17
791.321	0.38
791.495	0.31
791.669	0.15
791.843	0.19
792.016	0.1
792.19	0.53
792.364	-0.23
792.538	0.51
792.711	0.24
792.885	0.08
793.059	-0.11
793.233	-0.67
793.406	0.22
793.58	-0.03
793.754	0.06
793.927	0.08
794.101	0.25
794.274	0.13
794.448	0.22
794.622	-0.32
794.795	0.39
794.969	-0.28
795.142	0.33
795.316	-0.25
795.489	-0.27
795.663	0.42
795.836	-0.02
796.009	-0.35
796.183	0.34
796.356	-0.01
796.53	0.07
796.703	-0.1
796.876	0.58
797.05	-0.06
797.223	-0.02
797.396	0.03
797.57	0.08
797.743	0.31
797.916	-0.16
798.09	-0.04
798.263	0.09
798.436	0.12
798.609	-0.07
798.782	-0.33
798.956	0
799.129	-0.04
799.302	0.05
799.475	-0.15
799.648	-0.08
799.821	-0.32
799.994	-0.03
800.167	-0.38
800.34	-0.11
800.514	-0.01
800.687	-0.04
800.86	-0.1
801.033	0.06
801.206	0.04
801.379	-0.37
801.551	0.39
801.724	0
801.897	0.42
802.07	-0.27
802.243	-0.47
802.416	0.19
802.589	-0.3
802.762	0.16
802.935	0.16
803.107	0.1
803.28	0.11
803.453	0.16
803.626	-0.17
803.798	0.18
803.971	-0.14
804.144	0.16
804.317	0.09
804.489	0.45
804.662	-0.1
804.835	0.33
805.007	0.05
805.18	0.44
805.353	0.08
805.525	-0.27
805.698	-0.23
805.87	0.1
806.043	0.14
806.215	-0.16
806.388	-0.08
806.56	0.19
806.733	0.05
806.905	-0.06
807.078	-0.18
807.25	-0.01
807.423	0.34
807.595	0.26
807.768	-0.15
807.94	0.37
808.112	-0.12
808.285	0.13
808.457	-0.44
808.629	-0.15
808.802	0.22
808.974	-0.15
809.146	-0.39
809.318	-0.53
809.491	0.1
809.663	0.27
809.835	0.16
810.007	0.17
810.18	0.21
810.352	-0.6
810.524	-0.34
810.696	0.25
810.868	0.57
811.04	0.15
811.212	-0.17
811.384	0.42
811.556	-0.02
811.728	-0.12
811.901	0.52
812.073	-0.04
812.245	0.37
812.417	0.13
812.589	-0.76
812.76	0.37
812.932	0.24
813.104	0.26
813.276	-0.23
813.448	0.43
813.62	0.04
813.792	0.04
813.964	-0.18
814.136	0.18
814.307	-0.28
814.479	-0.04
814.651	0
814.823	0.91
814.995	-0.1
815.166	0.31
815.338	-0.41
815.51	-0.92
815.681	0.93
815.853	-0.13
816.025	0.26
816.196	0.81
816.368	0.26
816.54	-0.45
816.711	-0.53
816.883	0.05
817.054	1.19
817.226	-0.84
817.398	0.14
817.569	-0.06
817.741	0.13
817.912	-0.11
818.084	-0.1
818.255	0.6
818.426	-0.2
818.598	0.03
818.769	0.03
818.941	0.75
819.112	0.56
819.283	0.07
819.455	-0.49
819.626	0.34
819.798	0.32
819.969	0.08
820.14	-0.15
820.311	0.07
820.483	0.24
820.654	0.39
820.825	-0.16
820.996	0.06
821.168	-0.31
821.339	0.05
821.51	-0.73
821.681	-0.15
821.852	0.07
822.023	-0.33
822.195	-0.36
822.366	0.29
822.537	0.08
822.708	-0.24
822.879	-0.47
823.05	0.62
823.221	0.06
823.392	0.57
823.563	0.09
823.734	0.04
823.905	0.19
824.076	-0.67
824.247	-0.15
824.418	-0.42
824.589	0.24
824.759	0.04
824.93	-0.06
825.101	-0.74
825.272	0.22
825.443	0.83
825.614	0.8
825.784	-0.96
825.955	1.56
826.126	0.73
826.297	0.06
826.467	0.63
826.638	0.98
826.809	-0.6
826.98	-0.26
827.15	0.09
827.321	-0.17
827.492	1.16
827.662	-0.19
827.833	1.22
828.003	0.48
828.174	-0.68
828.345	-1
828.515	0.9
828.686	-0.06
828.856	-0.09
829.027	0.33
829.197	-0.05
829.368	0.34
829.538	-0.49
829.709	-0.3
829.879	0.07
830.049	0.02
830.22	-0.25
830.39	-0.12
830.56	0.6
830.731	0.23
830.901	-0.44
831.072	-0.02
831.242	0.03
831.412	-0.25
831.582	-0.11
831.753	-0.28
831.923	-0.08
832.093	-0.07
832.263	-0.07
832.434	-0.36
832.604	-0.68
832.774	0.81
832.944	-0.46
833.114	-0.32
833.284	0.29
833.454	-0.65
833.624	-0.18
833.795	-0.99
833.965	0.14
834.135	0.93
834.305	-0.53
834.475	-0.2
834.645	0.27
834.815	0.24
834.985	-0.67
835.155	-0.54
835.325	0.39
835.494	0.46
835.664	-0.35
835.834	-0.83
836.004	-0.03
836.174	0.13
836.344	-0.66
836.514	-1.14
836.684	-0.53
836.853	-0
837.023	0.27
837.193	0.01
837.363	0.68
837.532	0.57
837.702	0.17
837.872	-0.64
838.041	0.71
838.211	1.5
838.381	-0.28
838.55	-0.29
838.72	2.81
838.89	1.04
839.059	0.05
839.229	-0.19
839.398	1.31
839.568	0.36
839.738	-0.55
839.907	0.98
840.077	-0.01
840.246	-0.48
840.416	-1.1
840.585	-0.34
840.755	1.63
840.924	0.01
841.093	-0.88
841.263	0.02
841.432	0.5
841.602	-0.06
841.771	-0.85
841.94	-0.06
842.11	2.13
842.279	1.94
842.448	-0.27
842.617	-0.79
842.787	1.14
842.956	-1.26
843.125	-0.04
843.294	0.52
843.464	0.81
843.633	0.49
843.802	-0.66
843.971	0.22
844.14	0.44
844.309	0.55
844.479	-0.82
844.648	-0.97
844.817	-0.54
844.986	0.43
845.155	-0.84
845.324	-0.35
845.493	-0.1
845.662	-0.08
845.831	0.25
846	0.61
846.169	0.28
846.338	1.17
846.507	1.26
846.676	0.34
846.844	-0.06
847.013	0.22
847.182	0.43
847.351	-0.49
847.52	-0.21
847.689	0.36
847.858	-0.38
848.026	-0.02
848.195	0.24
848.364	-1.12
848.533	0.03
848.701	-0.21
848.87	-0.41
849.039	0.54
849.207	0.92
849.376	1.57
849.545	0.92
849.713	-0.54
849.882	-0.05
850.051	0.42
850.219	0.79
850.388	0.73
850.556	-1.5
850.725	-0.97
850.893	0.22
851.062	0.08
851.23	0.96
851.399	-1.73
851.567	0.11
851.736	-0.04
851.904	-1.13
852.073	-0.18
852.241	1.27
852.41	0.12
852.578	-0.33
852.746	-0.14
852.915	1.12
853.083	0.22
853.251	-0.59
853.42	0.12
853.588	0.81
853.756	1.59
853.924	-0.55
854.093	-0.56
854.261	-0.92
854.429	-1.67
854.597	0.64
854.765	-0.88
854.934	0.79
855.102	0.8
855.27	-0.05
855.438	1
855.606	1.4
855.774	2.04
855.942	-1.54
856.11	-1.41
856.278	-0.6
856.446	1.19
856.614	-0.69
856.782	-1.09
856.95	0.93
857.118	0.98
857.286	-0.27
857.454	-0.98
857.622	1.71
857.79	0.23
857.958	-0.91
858.126	0.15
858.294	-3.16
858.462	0.31
858.629	-0.37
858.797	-0.22
858.965	0.28
859.133	-0.57
859.301	0.01
859.468	0.61
859.636	-1.6
859.804	2.26
859.971	0.77
860.139	-0.26
860.307	0.83
860.474	0.75
860.642	-0.77
860.81	-1.44
860.977	-0.4
861.145	0.71
861.313	0.4
861.48	0.19
861.648	0.4
861.815	1.21
861.983	-2.18
862.15	-0.64
862.318	0.33
862.485	1.54
862.653	-1.78
862.82	-0.73
862.988	0.2
863.155	0.29
863.322	-1.91
863.49	-0.12
863.657	-1.75
863.824	1.94
863.992	0.61
864.159	1.05
864.326	1.06
864.494	0.11
864.661	2.27
864.828	-1.82
864.996	1.93
865.163	1.32
865.33	-2.07
865.497	-1.93
865.664	0.08
865.832	-2.5
865.999	-0.83
866.166	-0.95
866.333	-1.18
866.5	0.72
866.667	0.16
866.834	-0.92
867.001	2.59
867.168	-0.91
867.335	0.9
867.502	-1.3
867.669	1.21
867.836	2.74
868.003	-0.93
868.17	0.52
868.337	2.65
868.504	2.57
868.671	-1.32
868.838	-1.12
869.005	-0.25
869.172	1.03
869.339	-1.43
869.505	0.19
869.672	0.36
869.839	2.41
870.006	0.23
870.173	-2.78
870.339	1.7
870.506	2.86
870.673	-1.38
870.84	1.25
871.006	0.2
871.173	0.4
871.34	-0.19
871.506	-1.81
871.673	0.1
871.839	-1.24
872.006	1.36
872.173	-0.22
872.339	0.41
872.506	1.11
872.672	-0.1
872.839	-1.77
873.005	-1.48
873.172	2.48
873.338	1.63
873.505	2.43
873.671	-0.1
873.838	0.74
874.004	-3.27
874.171	-1.18
874.337	0.72
874.503	1.44
874.67	-1.4
874.836	-0.95
875.002	0.76
875.169	0.64
875.335	0.59
875.501	0.05
875.668	0.3
875.834	-0.5
876	-0.43
876.166	0.95
876.332	1.08
876.499	2.99
876.665	-0.56
876.831	0.95
876.997	3.71
877.163	0.6
877.329	-2.49
877.495	-0.31
877.662	-0.4
877.828	2.31
877.994	-0.5
878.16	-2.46
878.326	-0.61
878.492	-0
878.658	-1.69
878.824	-0.21
878.99	0.63
879.156	-0.93
879.322	2.52
879.487	0.91
879.653	1.98
879.819	-0.43
879.985	0.17
880.151	-1.48
880.317	0.62
880.483	1.03
880.648	1.31
880.814	-2.04
880.98	0.02
881.146	-3.02
881.312	-0.79
881.477	-0.28
881.643	-0.36
881.809	1.13
881.974	1.5
882.14	-1.47
882.306	2.16
882.471	1.79
882.637	-2.09
882.803	2.13
882.968	4.58
883.134	4.34
883.299	-0.92
883.465	0.24
883.63	2.67
883.796	0.07
883.961	-0.02
884.127	0.61
884.292	-3.05
884.458	-1.57
884.623	-1.57
