Data from Apollo_Calib_20240827__AbsoluteIrradiance__137__01-26-00-754.txt Node

Date: Wed Aug 28 01:26:00 BST 2024
User: biology
Spectrometer: FLMT08252
Trigger mode: 0
Integration Time (sec): 5.000000E-1
Scans to average: 5
Electric dark correction enabled: true
Nonlinearity correction enabled: false
Boxcar width: 0
XAxis mode: Wavelengths
Number of Pixels in Spectrum: 3648
>>>>>Begin Spectral Data<<<<<
179.588	-0
179.809	-0
180.03	-0
180.251	-0
180.473	-0
180.694	0
180.915	0
181.136	-0
181.357	0
181.578	-0
181.799	-0
182.02	-0
182.241	0
182.462	-0
182.683	0
182.904	-0
183.125	-0
183.346	-0
183.567	0
183.788	-0
184.009	-0
184.23	-0
184.451	0
184.672	-0
184.892	-0
185.113	0
185.334	0
185.555	-0
185.776	-0
185.996	-0
186.217	0
186.438	-0
186.659	-0
186.879	0
187.1	-0
187.321	-0
187.541	-0
187.762	-0
187.983	-0
188.203	-0
188.424	-0
188.644	-0
188.865	-0
189.086	-0
189.306	-0
189.527	-0
189.747	0
189.968	-0
190.188	0
190.409	-0
190.629	0
190.849	-0
191.07	-0
191.29	0
191.511	-0
191.731	-0
191.951	-0
192.172	-0
192.392	-0
192.612	-0
192.833	-0
193.053	0
193.273	0
193.493	-0
193.714	-0
193.934	0
194.154	0
194.374	-0
194.594	0
194.815	-0
195.035	-0
195.255	-0
195.475	-0
195.695	0
195.915	-0
196.135	-0
196.355	0
196.575	0
196.795	0
197.015	-0
197.235	-0
197.455	-0
197.675	0
197.895	-0
198.115	-0
198.335	0
198.555	-0
198.775	-0
198.995	0
199.214	0
199.434	0
199.654	-0
199.874	-0
200.094	1.02
200.313	-0.39
200.533	-0.9
200.753	-0.66
200.973	0.51
201.192	0.4
201.412	-1.19
201.632	-0.14
201.851	0.63
202.071	-0.63
202.291	-0.66
202.51	-0.63
202.73	-0.04
202.95	-0.35
203.169	-0.42
203.389	-0.15
203.608	-0.05
203.828	-0.72
204.047	-0.67
204.267	0.12
204.486	-0.1
204.706	0.1
204.925	-0.19
205.145	-0.28
205.364	0.5
205.583	0.5
205.803	-0.24
206.022	-0.57
206.242	-0.19
206.461	0.35
206.68	-0.32
206.9	0.01
207.119	0.29
207.338	0.56
207.557	-0.29
207.777	-0.28
207.996	-0.56
208.215	0.47
208.434	-0.04
208.654	-0.31
208.873	-0.06
209.092	0.43
209.311	-0.11
209.53	-0.23
209.749	0.05
209.968	-0.41
210.187	-0.14
210.407	-0.57
210.626	0
210.845	-0.11
211.064	0.05
211.283	-0.22
211.502	0.31
211.721	-0.29
211.94	-0.32
212.159	0.1
212.377	0.15
212.596	0.21
212.815	0.02
213.034	-0.2
213.253	0.38
213.472	0.03
213.691	-0.05
213.91	-0.32
214.128	-0.26
214.347	0.3
214.566	-0.27
214.785	-0.32
215.003	-0.16
215.222	0.05
215.441	0
215.66	-0.23
215.878	0.19
216.097	0.25
216.316	-0.43
216.534	-0.19
216.753	0.07
216.972	-0.26
217.19	-0.18
217.409	-0.22
217.627	-0.03
217.846	-0.02
218.064	0
218.283	-0.16
218.501	0.43
218.72	0.16
218.938	-0.38
219.157	-0.11
219.375	-0.06
219.594	0.04
219.812	-0.07
220.031	-0.16
220.249	0.1
220.467	0.26
220.686	-0.01
220.904	-0.25
221.122	-0.14
221.341	0.32
221.559	-0.02
221.777	-0.23
221.995	-0.06
222.214	0.13
222.432	-0.17
222.65	-0.07
222.868	0
223.086	0.06
223.305	0.08
223.523	-0.07
223.741	0.18
223.959	-0.19
224.177	-0.27
224.395	-0.21
224.613	-0.08
224.831	0.13
225.049	-0.22
225.267	-0.12
225.485	0.02
225.703	-0.04
225.921	-0.04
226.139	-0.15
226.357	0.01
226.575	-0.03
226.793	-0.13
227.011	0.41
227.229	-0.06
227.447	0.02
227.665	-0.05
227.883	-0.2
228.1	0.06
228.318	0.04
228.536	-0.34
228.754	-0.2
228.972	0.03
229.189	0.1
229.407	-0.04
229.625	-0.07
229.843	0.04
230.06	0.06
230.278	-0.17
230.496	-0.02
230.713	0.04
230.931	0.15
231.149	-0.06
231.366	-0.17
231.584	-0
231.801	0.26
232.019	-0.01
232.236	-0.22
232.454	-0.08
232.671	0.02
232.889	0.08
233.106	-0.18
233.324	-0.16
233.541	-0.09
233.759	-0.06
233.976	-0.14
234.194	0.03
234.411	-0.04
234.628	-0.04
234.846	-0.03
235.063	-0.08
235.28	-0.07
235.498	0.02
235.715	-0.03
235.932	0.09
236.149	0.04
236.367	-0.1
236.584	-0.04
236.801	-0.02
237.018	0.05
237.236	-0.02
237.453	-0.23
237.67	0.05
237.887	-0.09
238.104	-0.11
238.321	-0.12
238.538	-0.04
238.755	0.14
238.973	-0.12
239.19	0.02
239.407	-0.02
239.624	0.02
239.841	-0.21
240.058	-0.15
240.275	-0.04
240.492	-0.08
240.709	-0.03
240.925	-0.06
241.142	0.06
241.359	-0.15
241.576	-0.16
241.793	-0.1
242.01	-0.06
242.227	0.13
242.444	-0.01
242.66	0.13
242.877	0.01
243.094	-0.05
243.311	-0.05
243.527	0
243.744	0.01
243.961	0.13
244.178	-0.23
244.394	-0.06
244.611	0.05
244.828	0.16
245.044	-0.17
245.261	-0.04
245.477	-0.05
245.694	0.05
245.911	-0.08
246.127	0.09
246.344	0.14
246.56	-0.03
246.777	-0.06
246.993	-0.05
247.21	0
247.426	0.04
247.643	-0.02
247.859	-0.09
248.076	-0.1
248.292	0.09
248.508	-0.04
248.725	0.05
248.941	0.03
249.157	0.12
249.374	-0.06
249.59	-0.08
249.806	-0.02
250.023	0.02
250.239	-0.12
250.455	-0.09
250.671	-0.06
250.888	0.08
251.104	0.06
251.32	-0.09
251.536	-0.05
251.752	-0.03
251.969	0.03
252.185	-0
252.401	0.17
252.617	-0.12
252.833	-0.1
253.049	-0.02
253.265	-0.06
253.481	0.04
253.697	-0.05
253.913	-0.09
254.129	-0.01
254.345	-0.12
254.561	-0.06
254.777	-0.05
254.993	0.07
255.209	-0.01
255.425	-0.03
255.641	-0.09
255.857	0.15
256.073	-0.02
256.288	-0.09
256.504	-0.05
256.72	-0.02
256.936	0.12
257.152	-0.02
257.367	-0.06
257.583	-0.01
257.799	0
258.015	-0.11
258.23	-0.06
258.446	0.11
258.662	-0.05
258.877	-0.09
259.093	-0.05
259.309	0.06
259.524	0.01
259.74	-0.06
259.955	-0.08
260.171	0.03
260.387	-0.04
260.602	0.09
260.818	0.01
261.033	-0.06
261.249	-0.07
261.464	-0.05
261.68	-0.08
261.895	0.03
262.11	0.08
262.326	-0
262.541	-0.09
262.757	0.06
262.972	0.05
263.187	0
263.403	-0.06
263.618	0.02
263.833	-0.05
264.049	-0.11
264.264	-0.06
264.479	0.06
264.694	0.09
264.91	-0.09
265.125	-0.05
265.34	0.04
265.555	0.16
265.77	0
265.986	-0.06
266.201	-0.01
266.416	0.06
266.631	-0.1
266.846	-0.03
267.061	0.05
267.276	0.02
267.491	-0.2
267.706	0.01
267.921	0.03
268.136	0.04
268.351	0.01
268.566	-0.1
268.781	0.12
268.996	-0.1
269.211	0.01
269.426	-0.09
269.641	-0.07
269.856	0.07
270.071	-0.07
270.285	-0.07
270.5	0.09
270.715	-0.04
270.93	-0.03
271.145	0.04
271.359	0.02
271.574	-0.07
271.789	-0.02
272.004	-0.09
272.218	-0.01
272.433	0.08
272.648	-0.07
272.862	0.1
273.077	-0.01
273.292	0
273.506	-0.08
273.721	-0.05
273.936	0.03
274.15	-0
274.365	-0.02
274.579	0.01
274.794	0.03
275.008	0
275.223	-0.07
275.437	-0
275.652	0.1
275.866	0.03
276.081	-0
276.295	0.01
276.509	0.02
276.724	0.03
276.938	0.03
277.153	0.07
277.367	0.11
277.581	-0.03
277.796	-0.01
278.01	-0.01
278.224	0.01
278.438	0.15
278.653	-0.02
278.867	-0.02
279.081	-0.2
279.295	-0.01
279.51	-0.02
279.724	-0.08
279.938	0.04
280.152	0.02
280.366	-0.05
280.58	0.02
280.794	0.07
281.008	0.01
281.222	0.01
281.437	0.11
281.651	-0.02
281.865	0.07
282.079	-0.01
282.293	-0.13
282.507	-0.05
282.721	0.01
282.935	-0.04
283.148	-0.1
283.362	-0.05
283.576	-0.1
283.79	-0.01
284.004	-0.03
284.218	-0.02
284.432	-0.05
284.646	-0.01
284.859	-0.04
285.073	-0.05
285.287	-0.04
285.501	-0.02
285.714	-0.03
285.928	0.03
286.142	0.01
286.356	-0.04
286.569	-0.07
286.783	0.06
286.997	0.03
287.21	0.02
287.424	0.01
287.637	-0.04
287.851	0.01
288.065	-0.02
288.278	-0.03
288.492	-0.02
288.705	-0.03
288.919	0.01
289.132	-0.08
289.346	0.01
289.559	-0.05
289.773	-0.04
289.986	-0
290.2	0.03
290.413	0.02
290.626	-0.05
290.84	-0
291.053	-0.02
291.267	0.04
291.48	0.02
291.693	-0.01
291.906	0
292.12	-0.01
292.333	0
292.546	-0.03
292.76	0.08
292.973	0.03
293.186	0.04
293.399	-0.05
293.612	0.01
293.826	0.03
294.039	-0.02
294.252	0.01
294.465	-0.01
294.678	0.03
294.891	-0.02
295.104	-0.07
295.317	-0.04
295.53	0
295.743	-0.02
295.956	-0.02
296.169	0.06
296.382	0.04
296.595	0.02
296.808	-0.02
297.021	0.04
297.234	0.05
297.447	-0.01
297.66	0.03
297.873	0.01
298.086	0.03
298.299	-0.05
298.511	-0.03
298.724	-0.02
298.937	-0.02
299.15	-0.02
299.363	0.02
299.575	0.03
299.788	-0.01
300.001	-0.01
300.213	-0.04
300.426	-0.04
300.639	0.01
300.852	-0.04
301.064	0.03
301.277	0.07
301.489	0.05
301.702	-0
301.915	0.03
302.127	-0
302.34	0.01
302.552	0.03
302.765	0
302.977	0.03
303.19	-0
303.402	-0.02
303.615	0.02
303.827	-0.05
304.04	-0.06
304.252	0
304.464	-0.02
304.677	0.1
304.889	0.02
305.102	-0.05
305.314	-0.03
305.526	0.04
305.739	0.02
305.951	0.01
306.163	-0.04
306.375	0.06
306.588	-0.06
306.8	-0.02
307.012	-0.02
307.224	-0.02
307.436	0.1
307.649	-0.04
307.861	-0
308.073	-0
308.285	-0.01
308.497	-0.04
308.709	-0.07
308.921	-0
309.133	0.02
309.346	-0.01
309.558	-0.01
309.77	0.06
309.982	0.06
310.194	0.07
310.406	-0.05
310.617	0.08
310.829	0.05
311.041	0.02
311.253	0.01
311.465	-0.01
311.677	-0.01
311.889	0.03
312.101	0
312.313	0.03
312.524	0.05
312.736	-0.05
312.948	-0.02
313.16	0.06
313.372	0.04
313.583	0.01
313.795	0.02
314.007	-0.04
314.218	0.02
314.43	-0.02
314.642	-0.03
314.853	-0.01
315.065	0.01
315.277	0.01
315.488	0.02
315.7	0.01
315.912	0.03
316.123	-0.04
316.335	-0.02
316.546	0.13
316.758	-0.03
316.969	-0.04
317.181	0.02
317.392	-0
317.604	0.05
317.815	0
318.026	-0.06
318.238	-0.04
318.449	0.01
318.661	-0.09
318.872	-0.07
319.083	-0.04
319.295	-0.01
319.506	0
319.717	0.02
319.929	0.03
320.14	-0.03
320.351	0.01
320.562	-0.03
320.774	0.02
320.985	0.04
321.196	-0.07
321.407	-0.08
321.618	0.04
321.829	0
322.041	0.01
322.252	0.01
322.463	0.04
322.674	-0.01
322.885	-0.05
323.096	-0.04
323.307	-0.02
323.518	-0
323.729	-0.04
323.94	0
324.151	-0.05
324.362	0
324.573	0
324.784	-0.03
324.995	0.04
325.206	0.02
325.417	-0.04
325.628	-0.02
325.838	-0.01
326.049	-0.04
326.26	0.06
326.471	-0.02
326.682	-0
326.892	0
327.103	-0.1
327.314	-0.01
327.525	0.04
327.735	-0.02
327.946	-0.03
328.157	-0.04
328.368	0.01
328.578	-0.05
328.789	0.02
328.999	-0.02
329.21	-0
329.421	0
329.631	-0.05
329.842	-0.04
330.052	0.02
330.263	0.06
330.473	0.03
330.684	0.01
330.894	0.01
331.105	-0.03
331.315	0.03
331.526	-0.07
331.736	0.05
331.947	-0.02
332.157	-0.04
332.367	-0.03
332.578	0.01
332.788	0.04
332.999	-0.02
333.209	-0.02
333.419	-0.01
333.629	-0.01
333.84	0.04
334.05	0.03
334.26	0.07
334.47	-0.02
334.681	0.03
334.891	-0.02
335.101	0.02
335.311	0.07
335.521	0.01
335.732	-0.06
335.942	0.03
336.152	-0.01
336.362	-0.02
336.572	0.01
336.782	0.02
336.992	-0.03
337.202	-0.03
337.412	-0.09
337.622	-0.03
337.832	0.03
338.042	-0.01
338.252	-0.03
338.462	-0.02
338.672	0.01
338.882	-0.01
339.092	0.02
339.302	0.08
339.511	0.03
339.721	-0.06
339.931	-0.05
340.141	0.02
340.351	0.05
340.561	0.03
340.77	-0
340.98	0.01
341.19	0.01
341.4	-0.06
341.609	-0.09
341.819	-0.03
342.029	-0.02
342.238	-0.01
342.448	-0.03
342.658	0.02
342.867	-0.04
343.077	-0.01
343.286	-0.01
343.496	0.03
343.706	0.05
343.915	-0.05
344.125	0.01
344.334	0.06
344.544	-0.05
344.753	0.01
344.963	0
345.172	-0.02
345.381	-0.02
345.591	-0.04
345.8	-0.03
346.01	0.05
346.219	0.06
346.428	-0.16
346.638	0.01
346.847	0.01
347.056	0.04
347.266	-0.05
347.475	0
347.684	0.01
347.893	-0.01
348.103	-0.01
348.312	0
348.521	0.03
348.73	-0.01
348.94	0
349.149	-0.01
349.358	0.01
349.567	-0.04
349.776	-0.05
349.985	-0.05
350.194	0.06
350.403	0.01
350.612	-0.04
350.821	0.02
351.03	-0.01
351.239	-0.03
351.448	0
351.657	-0.03
351.866	0.08
352.075	-0.02
352.284	0.04
352.493	-0.01
352.702	0.04
352.911	0.01
353.12	-0.02
353.329	-0.03
353.538	0.03
353.746	-0
353.955	-0.01
354.164	-0
354.373	-0.05
354.582	0.05
354.79	0
354.999	0.03
355.208	0.01
355.416	0.05
355.625	-0.05
355.834	-0.04
356.042	0.03
356.251	-0.01
356.46	-0.05
356.668	0
356.877	0.03
357.085	0
357.294	-0.09
357.503	0.02
357.711	0.01
357.92	0.09
358.128	0.01
358.337	-0.01
358.545	-0
358.754	-0.03
358.962	0.02
359.17	0
359.379	0.02
359.587	0.05
359.796	-0.02
360.004	-0
360.212	0.02
360.421	0.08
360.629	-0.01
360.837	-0
361.046	-0
361.254	0.06
361.462	-0.02
361.67	-0.01
361.879	0.04
362.087	0.06
362.295	0.02
362.503	0.03
362.711	-0.04
362.92	-0.06
363.128	-0.03
363.336	-0.06
363.544	-0.06
363.752	-0.03
363.96	-0.01
364.168	-0.05
364.376	-0.01
364.584	0.02
364.792	-0
365	0.01
365.208	-0
365.416	0
365.624	-0.02
365.832	-0.02
366.04	0.07
366.248	0.01
366.456	0.02
366.664	0.02
366.872	-0
367.079	-0
367.287	0.03
367.495	0.02
367.703	0.03
367.911	-0.03
368.118	0
368.326	-0.01
368.534	-0.06
368.742	0.05
368.949	-0.02
369.157	0.02
369.365	0.04
369.572	-0.05
369.78	-0.04
369.988	0.03
370.195	-0.01
370.403	-0.02
370.61	-0.03
370.818	-0.02
371.026	0.04
371.233	-0.05
371.441	-0.03
371.648	-0.02
371.856	-0
372.063	-0.01
372.271	-0.01
372.478	-0.03
372.685	-0.04
372.893	0.02
373.1	-0.03
373.308	0.01
373.515	0.06
373.722	-0.02
373.93	-0.01
374.137	0.05
374.344	0.06
374.552	0.05
374.759	0.02
374.966	-0.01
375.173	-0
375.381	-0.02
375.588	-0.02
375.795	-0.07
376.002	-0.03
376.209	-0.05
376.417	-0.02
376.624	-0.06
376.831	0.02
377.038	-0.03
377.245	-0.07
377.452	-0.01
377.659	-0
377.866	-0.02
378.073	-0.02
378.28	-0.03
378.487	0.01
378.694	-0.01
378.901	-0.04
379.108	0.02
379.315	-0.02
379.522	0.05
379.729	0.03
379.936	-0.03
380.143	-0.04
380.35	-0.04
380.557	0.02
380.763	-0.01
380.97	-0.03
381.177	-0.02
381.384	0
381.591	-0.02
381.797	0.04
382.004	0.02
382.211	0.04
382.418	-0.01
382.624	0.06
382.831	-0.01
383.038	-0.02
383.244	-0
383.451	-0.05
383.658	0.03
383.864	-0.03
384.071	-0.04
384.277	0.07
384.484	-0.05
384.69	0.02
384.897	-0
385.103	-0.03
385.31	-0.05
385.516	-0.02
385.723	-0.04
385.929	-0.01
386.136	-0.03
386.342	0.03
386.549	-0.02
386.755	0.03
386.961	0.04
387.168	-0.01
387.374	-0.03
387.58	0.03
387.787	-0.01
387.993	-0.04
388.199	-0.02
388.406	-0.05
388.612	-0.01
388.818	-0.02
389.024	-0
389.231	0.02
389.437	0.09
389.643	-0.03
389.849	-0.04
390.055	0.02
390.261	-0
390.467	-0.01
390.674	-0.07
390.88	-0.04
391.086	-0.01
391.292	-0.04
391.498	0.03
391.704	-0.02
391.91	-0.03
392.116	-0.04
392.322	-0.08
392.528	-0.05
392.734	-0.01
392.94	-0.01
393.146	-0.04
393.352	0.01
393.557	-0.03
393.763	-0.01
393.969	0.03
394.175	-0.03
394.381	-0.01
394.587	-0.05
394.792	0.01
394.998	0.02
395.204	0.02
395.41	-0.05
395.615	-0.03
395.821	0.06
396.027	0.03
396.233	-0.04
396.438	0.01
396.644	0.07
396.85	0.05
397.055	0.02
397.261	0
397.466	0
397.672	-0.06
397.878	0
398.083	0.03
398.289	-0.02
398.494	0.06
398.7	0.01
398.905	-0.05
399.111	0.07
399.316	-0.04
399.522	-0.04
399.727	0.01
399.932	-0
400.138	-0.02
400.343	0.07
400.549	-0
400.754	-0.02
400.959	0.04
401.165	-0.01
401.37	0.04
401.575	-0.03
401.78	0
401.986	-0.03
402.191	-0
402.396	-0.05
402.601	0.03
402.807	0.03
403.012	0.02
403.217	0.04
403.422	-0.01
403.627	-0.02
403.832	-0.05
404.037	0.06
404.243	0.02
404.448	-0.02
404.653	0
404.858	0.01
405.063	0.04
405.268	-0.06
405.473	0.01
405.678	0.01
405.883	0.1
406.088	0.04
406.293	-0.05
406.498	-0
406.703	0.05
406.907	-0.04
407.112	-0.02
407.317	0.07
407.522	0.04
407.727	-0.03
407.932	0.05
408.136	0.11
408.341	-0.02
408.546	0.04
408.751	0.03
408.956	-0.02
409.16	0.05
409.365	0.02
409.57	0.01
409.774	0.01
409.979	0.08
410.184	0.01
410.388	0.02
410.593	0.07
410.798	0.04
411.002	-0.02
411.207	0.04
411.411	0.04
411.616	-0.04
411.82	-0.05
412.025	0.01
412.229	-0.04
412.434	0.06
412.638	0.08
412.843	-0.05
413.047	0.01
413.252	-0.02
413.456	-0.03
413.66	0.04
413.865	-0.02
414.069	0.05
414.273	-0.02
414.478	-0.04
414.682	-0.05
414.886	-0.01
415.091	-0.06
415.295	-0.1
415.499	-0.01
415.703	-0.03
415.908	0.03
416.112	-0.08
416.316	-0
416.52	-0
416.724	-0.06
416.929	-0.05
417.133	0.1
417.337	-0.05
417.541	0
417.745	-0.04
417.949	0.02
418.153	-0.01
418.357	-0.04
418.561	0.07
418.765	0.02
418.969	0.07
419.173	0.03
419.377	-0.02
419.581	0.09
419.785	-0.03
419.989	-0.06
420.193	-0.01
420.397	-0.01
420.601	-0.01
420.804	0.05
421.008	-0.03
421.212	0.02
421.416	0.06
421.62	-0.04
421.823	0.01
422.027	0.1
422.231	0
422.435	0.03
422.638	0.05
422.842	0.01
423.046	-0.04
423.249	0
423.453	-0
423.657	0.02
423.86	0.01
424.064	-0.03
424.268	0.06
424.471	-0.02
424.675	0.02
424.878	0.07
425.082	0.03
425.285	0.05
425.489	-0
425.692	-0
425.896	-0.01
426.099	0.03
426.303	-0.07
426.506	-0.07
426.71	0.05
426.913	0.02
427.116	0.05
427.32	-0
427.523	-0.02
427.726	0.13
427.93	-0.03
428.133	-0
428.336	-0.06
428.54	-0.05
428.743	0.06
428.946	0.07
429.149	-0.05
429.353	-0.01
429.556	0.06
429.759	0.02
429.962	-0.02
430.165	-0.02
430.368	0.02
430.571	0.01
430.775	0.02
430.978	-0.03
431.181	0.03
431.384	0.01
431.587	-0.01
431.79	0.01
431.993	0.04
432.196	0.01
432.399	-0.05
432.602	-0
432.805	0.02
433.008	-0
433.211	-0.04
433.414	0.01
433.616	0.01
433.819	0.05
434.022	-0.05
434.225	0.13
434.428	0.02
434.631	0.08
434.833	-0
435.036	-0
435.239	0.07
435.442	0.03
435.645	0.02
435.847	0.06
436.05	0.04
436.253	0.03
436.455	-0.06
436.658	-0.02
436.861	0.09
437.063	-0.02
437.266	0
437.468	-0.01
437.671	0.13
437.874	0.05
438.076	-0.06
438.279	-0.05
438.481	0.02
438.684	-0.03
438.886	0.06
439.089	-0.05
439.291	0.01
439.494	0.05
439.696	-0.01
439.899	0.01
440.101	0.01
440.303	-0.02
440.506	0.01
440.708	0.01
440.91	0.05
441.113	-0.03
441.315	0.05
441.517	-0.01
441.72	0.04
441.922	-0.02
442.124	-0.03
442.326	0.08
442.529	0.09
442.731	0
442.933	0.11
443.135	-0.01
443.337	-0.02
443.539	0
443.742	0.02
443.944	0.05
444.146	0.02
444.348	0.05
444.55	0.03
444.752	0.02
444.954	-0.02
445.156	0.02
445.358	0.01
445.56	0.08
445.762	0.05
445.964	0.08
446.166	-0.01
446.368	0.04
446.57	0.09
446.772	0.05
446.974	0.03
447.175	0.01
447.377	0.03
447.579	0.03
447.781	0.01
447.983	0.16
448.184	0.04
448.386	0.08
448.588	-0.01
448.79	0.02
448.991	-0.01
449.193	0.04
449.395	-0.01
449.597	0.12
449.798	0
450	0.03
450.202	0.08
450.403	0.06
450.605	0.06
450.806	0.06
451.008	-0.02
451.21	0.05
451.411	0.11
451.613	0.04
451.814	0.05
452.016	0.04
452.217	0.08
452.419	0.08
452.62	0.06
452.821	0.1
453.023	0.13
453.224	0.07
453.426	0
453.627	0.04
453.828	0.08
454.03	0.05
454.231	0.09
454.432	-0.04
454.634	0.14
454.835	0.01
455.036	-0.02
455.238	0.05
455.439	0.14
455.64	-0.01
455.841	-0
456.042	0.14
456.244	0.01
456.445	-0.02
456.646	-0.03
456.847	0.03
457.048	0.08
457.249	0.07
457.45	0.2
457.651	-0.04
457.852	0.03
458.054	-0
458.255	0.01
458.456	0.03
458.657	0.03
458.858	-0
459.058	0.01
459.259	0.08
459.46	-0.02
459.661	0.02
459.862	0.12
460.063	-0
460.264	0.09
460.465	-0.07
460.666	0.1
460.866	0.02
461.067	0.03
461.268	0.03
461.469	0.02
461.67	-0
461.87	-0.02
462.071	0.05
462.272	-0.04
462.473	0.02
462.673	0.05
462.874	-0
463.075	0.05
463.275	-0
463.476	0.03
463.676	0
463.877	-0.01
464.078	-0.01
464.278	0.06
464.479	-0
464.679	-0.02
464.88	-0.04
465.08	0.07
465.281	-0.06
465.481	0.03
465.682	0.03
465.882	0.01
466.083	0
466.283	0.02
466.483	0.01
466.684	-0.03
466.884	-0.02
467.085	-0.01
467.285	0.05
467.485	-0.02
467.686	-0.03
467.886	0
468.086	-0.01
468.286	0
468.487	0.07
468.687	-0.03
468.887	-0.03
469.087	0.02
469.287	-0.02
469.488	-0.03
469.688	0.02
469.888	0.04
470.088	0.07
470.288	0.05
470.488	0.06
470.688	-0.05
470.888	0.01
471.088	-0.07
471.288	0.04
471.488	-0
471.688	-0.01
471.888	0
472.088	0.05
472.288	0.01
472.488	-0.02
472.688	-0
472.888	0.02
473.088	0.03
473.288	0.04
473.488	0.01
473.688	0.08
473.887	0.01
474.087	0
474.287	-0.02
474.487	-0
474.687	0.05
474.886	0
475.086	-0.02
475.286	-0
475.486	-0.03
475.685	0.01
475.885	-0.02
476.085	-0
476.284	0.01
476.484	-0.03
476.684	0.01
476.883	0.05
477.083	0.02
477.282	-0.02
477.482	0.03
477.681	0.08
477.881	0.02
478.08	-0.02
478.28	-0.03
478.479	0.04
478.679	0.06
478.878	-0.01
479.078	-0.03
479.277	-0
479.477	0.01
479.676	0.03
479.875	-0
480.075	-0.05
480.274	0.01
480.473	0.01
480.673	-0.03
480.872	0
481.071	-0.02
481.271	0.01
481.47	-0.02
481.669	-0.01
481.868	-0.02
482.067	-0.03
482.267	-0.03
482.466	-0.04
482.665	-0.03
482.864	-0.04
483.063	-0.03
483.262	0
483.461	0.05
483.661	0.02
483.86	-0.01
484.059	0
484.258	-0.02
484.457	-0.02
484.656	-0.01
484.855	0.03
485.054	-0.05
485.253	-0.05
485.452	-0.04
485.651	-0.01
485.849	-0.03
486.048	-0.04
486.247	-0.03
486.446	-0.03
486.645	-0.06
486.844	-0.04
487.043	-0.02
487.241	0.01
487.44	-0.03
487.639	-0
487.838	0.03
488.037	0.01
488.235	0.02
488.434	-0.01
488.633	-0.03
488.831	0
489.03	0.04
489.229	-0
489.427	-0.02
489.626	0.03
489.825	0.07
490.023	0
490.222	-0.04
490.42	0.03
490.619	0.02
490.817	-0
491.016	-0.04
491.214	0.03
491.413	-0.01
491.611	-0.01
491.81	0
492.008	0.01
492.207	0.01
492.405	-0
492.604	-0.04
492.802	-0.03
493	-0.01
493.199	-0.05
493.397	-0
493.595	-0.01
493.794	-0.02
493.992	0.05
494.19	0.01
494.388	0.02
494.587	-0.03
494.785	-0
494.983	-0.04
495.181	-0.01
495.379	-0.01
495.578	-0.01
495.776	0.02
495.974	0
496.172	0.01
496.37	-0.01
496.568	-0.01
496.766	-0.02
496.964	0.02
497.162	-0
497.36	-0.02
497.558	-0
497.756	0.01
497.954	-0.01
498.152	-0.04
498.35	-0
498.548	-0
498.746	-0
498.944	-0.02
499.142	-0.02
499.34	-0.04
499.538	-0.02
499.736	-0.04
499.933	-0
500.131	0.04
500.329	-0.02
500.527	0.04
500.725	0.03
500.922	0.03
501.12	0.01
501.318	0
501.516	-0.02
501.713	0.01
501.911	-0.01
502.109	-0.03
502.306	0.03
502.504	0.01
502.701	-0.01
502.899	-0.03
503.097	0.01
503.294	0
503.492	-0
503.689	-0
503.887	0.03
504.084	0.02
504.282	-0.01
504.479	-0.02
504.677	0
504.874	-0.04
505.072	0
505.269	-0.01
505.466	0.02
505.664	0.01
505.861	-0.05
506.059	-0.03
506.256	0.05
506.453	-0.02
506.651	0.02
506.848	0.03
507.045	0.03
507.242	-0.01
507.44	-0.01
507.637	-0.02
507.834	-0.01
508.031	-0
508.229	-0.03
508.426	-0.01
508.623	0.03
508.82	-0.02
509.017	-0.02
509.214	-0.03
509.411	-0.01
509.608	-0.02
509.805	-0.02
510.003	-0.01
510.2	-0.03
510.397	0.04
510.594	-0.01
510.791	-0.02
510.988	-0.01
511.184	0.02
511.381	-0.01
511.578	-0.02
511.775	0.03
511.972	-0.01
512.169	-0.01
512.366	0.01
512.563	-0.01
512.76	-0.01
512.956	-0.02
513.153	-0.02
513.35	-0
513.547	-0.02
513.744	-0.01
513.94	-0.01
514.137	0.01
514.334	0.01
514.53	-0.01
514.727	0.01
514.924	0.03
515.12	-0.04
515.317	-0.02
515.514	-0.03
515.71	-0.01
515.907	-0.03
516.103	0
516.3	0.01
516.497	0
516.693	0.01
516.89	0
517.086	-0.04
517.283	0.02
517.479	0
517.676	-0.02
517.872	-0.01
518.068	-0.03
518.265	-0.01
518.461	-0.01
518.658	-0.04
518.854	0
519.05	0
519.247	-0.01
519.443	0.03
519.639	-0
519.836	-0.01
520.032	0
520.228	-0.01
520.424	0.02
520.621	0.03
520.817	-0.01
521.013	-0.01
521.209	0.01
521.405	0.03
521.601	-0.01
521.798	-0.02
521.994	0.02
522.19	-0.03
522.386	-0.04
522.582	-0.01
522.778	-0.02
522.974	-0.01
523.17	-0.01
523.366	-0.01
523.562	0.03
523.758	-0
523.954	-0
524.15	-0.01
524.346	0
524.542	-0.01
524.738	-0.01
524.934	-0.01
525.129	-0.01
525.325	-0
525.521	-0.02
525.717	0.02
525.913	-0.02
526.109	-0.02
526.304	-0.02
526.5	-0.01
526.696	-0.01
526.892	0
527.087	0.01
527.283	-0.01
527.479	-0.01
527.674	-0.02
527.87	-0.03
528.066	-0.02
528.261	0.02
528.457	-0.01
528.653	-0
528.848	-0.02
529.044	0.02
529.239	-0
529.435	0.02
529.63	0.01
529.826	0.02
530.021	0
530.217	0.02
530.412	-0.02
530.608	-0.02
530.803	-0.01
530.999	-0.02
531.194	-0.05
531.389	0.01
531.585	-0.05
531.78	-0
531.975	-0.02
532.171	0.02
532.366	0.01
532.561	-0.02
532.757	-0.02
532.952	-0.02
533.147	-0
533.342	-0.03
533.538	-0.02
533.733	0.03
533.928	-0.01
534.123	-0.02
534.318	-0.03
534.513	-0.01
534.709	-0
534.904	-0.03
535.099	0.01
535.294	-0.02
535.489	0.01
535.684	-0
535.879	-0.03
536.074	-0
536.269	-0.03
536.464	0
536.659	0
536.854	-0
537.049	0.01
537.244	-0
537.439	-0.01
537.634	0.01
537.828	0.01
538.023	0
538.218	-0.04
538.413	-0
538.608	-0.02
538.803	0.03
538.997	-0.03
539.192	0.01
539.387	0.01
539.582	-0.01
539.776	0
539.971	-0.02
540.166	-0.01
540.36	-0.02
540.555	-0
540.75	-0
540.944	0.01
541.139	-0.03
541.334	-0.01
541.528	0.01
541.723	-0
541.917	-0.03
542.112	-0.04
542.306	-0.02
542.501	-0.02
542.695	-0
542.89	-0.02
543.084	0.01
543.279	0.01
543.473	-0.02
543.668	-0.01
543.862	-0.02
544.056	0.02
544.251	0.02
544.445	0
544.64	-0
544.834	-0.02
545.028	0
545.222	0.01
545.417	0.01
545.611	-0.01
545.805	-0.01
546	-0.02
546.194	-0.02
546.388	0
546.582	0.01
546.776	-0.01
546.97	-0
547.165	-0
547.359	0.02
547.553	-0.03
547.747	-0
547.941	-0.02
548.135	0.01
548.329	0.01
548.523	-0
548.717	-0.03
548.911	-0.02
549.105	-0
549.299	-0.01
549.493	0.01
549.687	-0
549.881	-0.01
550.075	-0.01
550.269	-0.04
550.463	-0
550.657	-0.01
550.85	-0.01
551.044	-0.02
551.238	-0.01
551.432	-0.02
551.626	-0.02
551.82	0.01
552.013	-0.02
552.207	-0
552.401	0.04
552.594	0
552.788	-0
552.982	0.01
553.176	-0.02
553.369	0.01
553.563	0
553.756	-0.04
553.95	-0.04
554.144	-0.02
554.337	0.02
554.531	0.01
554.724	-0.01
554.918	-0.03
555.111	0.03
555.305	-0.02
555.498	0.05
555.692	0.02
555.885	0
556.079	0.02
556.272	-0.01
556.466	-0.02
556.659	-0.02
556.852	-0.02
557.046	-0.03
557.239	0.03
557.432	-0.04
557.626	-0.03
557.819	-0.01
558.012	-0.01
558.206	-0
558.399	-0
558.592	-0
558.785	-0.03
558.979	0.01
559.172	0.02
559.365	0.02
559.558	0
559.751	-0.02
559.944	0.01
560.138	-0
560.331	-0.02
560.524	-0.01
560.717	-0.01
560.91	-0.02
561.103	-0.01
561.296	0.02
561.489	0.02
561.682	0.01
561.875	0.01
562.068	-0
562.261	0.01
562.454	0.04
562.647	0.01
562.84	-0
563.032	-0.01
563.225	-0.01
563.418	-0.01
563.611	-0.02
563.804	0.01
563.997	-0.03
564.19	-0.05
564.382	0.01
564.575	-0.01
564.768	-0.03
564.961	-0.03
565.153	-0.02
565.346	-0.01
565.539	0.03
565.731	0
565.924	0.04
566.117	-0.01
566.309	-0
566.502	-0.01
566.695	0.01
566.887	0.01
567.08	0
567.272	-0.03
567.465	-0.02
567.657	-0.01
567.85	0.01
568.042	0
568.235	0.03
568.427	-0
568.62	-0.01
568.812	0
569.005	-0.03
569.197	-0.05
569.389	-0
569.582	-0.01
569.774	0
569.966	-0.06
570.159	-0.03
570.351	0.01
570.543	-0.02
570.736	0
570.928	-0.02
571.12	-0.01
571.312	-0.03
571.505	-0.03
571.697	-0
571.889	-0.02
572.081	-0
572.273	-0.02
572.465	0.05
572.658	-0.05
572.85	-0.01
573.042	-0.01
573.234	-0.01
573.426	0.03
573.618	-0.02
573.81	0.02
574.002	0.03
574.194	0.02
574.386	-0.06
574.578	-0.06
574.77	-0.04
574.962	-0.01
575.154	-0.04
575.346	-0.01
575.538	-0
575.729	-0.03
575.921	-0.02
576.113	-0
576.305	0.02
576.497	-0.03
576.689	-0.01
576.88	-0.05
577.072	-0
577.264	-0.02
577.456	-0
577.647	-0.07
577.839	0.01
578.031	0.03
578.223	-0.04
578.414	-0.04
578.606	-0.01
578.798	0
578.989	-0.03
579.181	-0.01
579.372	-0.01
579.564	-0.03
579.755	-0.02
579.947	-0.01
580.139	0.01
580.33	-0.07
580.522	-0.02
580.713	-0.07
580.905	-0.01
581.096	-0.01
581.287	0.01
581.479	-0.01
581.67	0.01
581.862	-0.01
582.053	-0.03
582.244	-0.05
582.436	-0.02
582.627	-0.01
582.818	0
583.01	-0.05
583.201	0.03
583.392	0.03
583.583	-0.02
583.775	-0.01
583.966	-0.01
584.157	-0.02
584.348	-0.01
584.54	-0.04
584.731	0.02
584.922	-0.01
585.113	-0.05
585.304	0.02
585.495	0.03
585.686	-0.02
585.877	-0.02
586.068	-0
586.259	0.02
586.45	-0.01
586.641	-0.03
586.832	-0.05
587.023	-0.01
587.214	-0.02
587.405	-0
587.596	-0.01
587.787	0.02
587.978	-0
588.169	-0.05
588.36	-0.04
588.551	-0.01
588.742	-0.02
588.932	-0
589.123	0
589.314	0.04
589.505	-0.01
589.696	-0.02
589.886	-0.04
590.077	-0.08
590.268	0.02
590.458	-0.03
590.649	-0.04
590.84	0.02
591.03	-0.06
591.221	-0.06
591.412	-0.04
591.602	-0
591.793	0.01
591.984	-0.04
592.174	-0.01
592.365	0.05
592.555	-0.04
592.746	0
592.936	0.01
593.127	-0.01
593.317	0
593.508	-0.02
593.698	-0.03
593.889	-0.03
594.079	-0.02
594.269	0
594.46	-0.02
594.65	-0.01
594.84	-0
595.031	-0.04
595.221	-0.03
595.411	-0.04
595.602	-0
595.792	-0.02
595.982	-0
596.172	0.02
596.363	0.01
596.553	0.01
596.743	-0.01
596.933	-0.02
597.123	0.02
597.314	-0.02
597.504	-0.02
597.694	0.03
597.884	-0.01
598.074	-0.01
598.264	-0.02
598.454	0.02
598.644	-0.01
598.834	-0.01
599.024	-0.07
599.214	-0.02
599.404	0.02
599.594	-0.03
599.784	-0.06
599.974	0.03
600.164	0.02
600.354	-0.06
600.544	-0.04
600.734	0.02
600.924	0.02
601.114	-0.02
601.303	-0.02
601.493	-0
601.683	0.02
601.873	-0.02
602.063	-0.04
602.252	0.02
602.442	-0.06
602.632	-0.03
602.821	-0.04
603.011	0.01
603.201	-0.01
603.39	-0.04
603.58	-0.04
603.77	0.02
603.959	0.02
604.149	-0.02
604.339	-0.02
604.528	0.02
604.718	0.02
604.907	-0.01
605.097	-0.03
605.286	-0.07
605.476	0.03
605.665	0.02
605.855	-0.01
606.044	0.03
606.234	0.01
606.423	0.02
606.612	-0.02
606.802	-0.01
606.991	0.01
607.181	0.02
607.37	-0.03
607.559	-0
607.749	-0.03
607.938	-0.01
608.127	-0.02
608.316	-0.02
608.506	-0
608.695	-0.02
608.884	-0.01
609.073	-0
609.263	-0.01
609.452	0
609.641	0.01
609.83	-0.05
610.019	-0.01
610.208	-0.03
610.397	-0
610.586	0.02
610.775	-0.05
610.965	-0.03
611.154	-0.02
611.343	-0.02
611.532	0.01
611.721	-0.04
611.91	-0.03
612.099	-0.01
612.287	-0.03
612.476	-0.03
612.665	-0.01
612.854	-0.03
613.043	0.02
613.232	-0.03
613.421	-0.06
613.61	-0.02
613.798	-0.01
613.987	-0.01
614.176	0.01
614.365	0
614.554	-0.02
614.742	0.03
614.931	-0.04
615.12	0.04
615.309	-0.02
615.497	0.01
615.686	-0.03
615.875	-0.01
616.063	0
616.252	-0.02
616.44	-0.02
616.629	-0.02
616.818	-0
617.006	-0
617.195	-0.01
617.383	0.02
617.572	-0.03
617.76	-0.01
617.949	-0.02
618.137	0.01
618.326	0.03
618.514	-0.04
618.703	-0.03
618.891	0.01
619.079	-0.07
619.268	0.01
619.456	-0.02
619.644	0.02
619.833	-0.01
620.021	-0
620.209	-0.03
620.398	-0.01
620.586	-0.02
620.774	0.03
620.962	-0.01
621.151	0.06
621.339	-0.01
621.527	-0.03
621.715	-0.01
621.903	-0.05
622.092	-0.04
622.28	0
622.468	0.01
622.656	-0.06
622.844	0.02
623.032	0.01
623.22	-0.05
623.408	0.03
623.596	0.01
623.784	0.04
623.972	0.01
624.16	-0.03
624.348	0.03
624.536	-0.02
624.724	-0.01
624.912	0.05
625.1	0.05
625.288	-0.05
625.476	-0.04
625.664	0.02
625.851	-0.04
626.039	0.01
626.227	0.01
626.415	-0.02
626.603	-0.06
626.79	0.01
626.978	-0.04
627.166	-0.01
627.354	-0
627.541	-0.02
627.729	-0.05
627.917	0.03
628.104	0.05
628.292	-0.02
628.48	-0.01
628.667	0.01
628.855	0.02
629.042	0.03
629.23	-0
629.418	-0.01
629.605	0.01
629.793	0
629.98	-0.03
630.168	-0
630.355	-0.01
630.543	-0.01
630.73	-0.05
630.917	0.03
631.105	0.03
631.292	-0.04
631.48	-0.01
631.667	0.04
631.854	0.01
632.042	-0
632.229	-0.03
632.416	0
632.604	-0.03
632.791	0
632.978	0.01
633.165	0.01
633.353	0.06
633.54	0.02
633.727	-0.03
633.914	-0.02
634.101	-0.05
634.289	0.04
634.476	-0.02
634.663	-0.03
634.85	0.02
635.037	-0.03
635.224	-0.06
635.411	0.03
635.598	0.06
635.785	0.03
635.972	0
636.159	0.04
636.346	-0.03
636.533	0.01
636.72	-0
636.907	-0.02
637.094	0.01
637.281	-0.02
637.468	0.05
637.655	0.04
637.842	-0.01
638.029	0
638.215	0.02
638.402	0.01
638.589	-0.01
638.776	-0.03
638.963	-0
639.149	0.04
639.336	0.05
639.523	0.01
639.709	0.02
639.896	-0
640.083	0.03
640.27	0.05
640.456	0.02
640.643	0.05
640.829	-0.01
641.016	0.01
641.203	-0.02
641.389	0.03
641.576	0.05
641.762	0.01
641.949	-0.02
642.135	0.03
642.322	0.07
642.508	-0.04
642.695	0.01
642.881	-0
643.068	0.01
643.254	-0
643.441	0.04
643.627	0.03
643.813	-0.02
644	0.04
644.186	0.01
644.372	0.04
644.559	0.04
644.745	0.04
644.931	0.02
645.118	0.01
645.304	0.03
645.49	0.01
645.676	0
645.862	0.03
646.049	0.06
646.235	0.01
646.421	0.1
646.607	0.09
646.793	-0.01
646.979	-0.01
647.165	0.08
647.352	0.03
647.538	0.04
647.724	0.04
647.91	0.05
648.096	0.07
648.282	0.09
648.468	0.04
648.654	0.08
648.84	0.05
649.026	0.04
649.212	0.06
649.397	0.05
649.583	0.03
649.769	0.05
649.955	0.03
650.141	0.09
650.327	0.07
650.513	0.02
650.698	0.1
650.884	-0.01
651.07	0.07
651.256	0.06
651.442	0.05
651.627	0.08
651.813	0.04
651.999	0.07
652.184	0.07
652.37	0.07
652.556	0.08
652.741	0.14
652.927	-0.03
653.113	0.09
653.298	0.09
653.484	0.08
653.669	0.02
653.855	0.08
654.04	0.11
654.226	0.07
654.412	0.07
654.597	0.02
654.782	0.09
654.968	0.09
655.153	0.08
655.339	0.06
655.524	0.06
655.71	0.12
655.895	0.06
656.08	0.08
656.266	0.16
656.451	0.1
656.636	0.06
656.822	0.09
657.007	0.06
657.192	0.07
657.378	0.07
657.563	0.1
657.748	0.15
657.933	0.08
658.118	0.08
658.304	0.05
658.489	0.15
658.674	0.12
658.859	0.08
659.044	0.12
659.229	0.12
659.414	0.1
659.599	0.09
659.785	0.08
659.97	0.09
660.155	0.11
660.34	0.06
660.525	0.08
660.71	0.07
660.895	0.14
661.08	0.08
661.264	0.11
661.449	0.1
661.634	0.13
661.819	0.08
662.004	0.08
662.189	0.03
662.374	0.07
662.559	0.06
662.743	0.01
662.928	0.07
663.113	0.04
663.298	0.03
663.483	0.05
663.667	0.08
663.852	0.01
664.037	0.11
664.221	0.02
664.406	0.1
664.591	0.09
664.775	0.03
664.96	0.06
665.145	0.01
665.329	0.06
665.514	0.03
665.698	0.05
665.883	-0.01
666.068	0.08
666.252	0.04
666.437	-0.03
666.621	0.06
666.806	0.06
666.99	0
667.174	-0.06
667.359	0.09
667.543	0
667.728	-0.01
667.912	-0.04
668.096	0.02
668.281	-0.03
668.465	0
668.649	0.01
668.834	0.07
669.018	0.01
669.202	0.05
669.387	0.02
669.571	0.05
669.755	-0.02
669.939	0.04
670.124	0.01
670.308	0.07
670.492	0.07
670.676	-0.02
670.86	0.01
671.044	-0.07
671.228	0.04
671.413	0
671.597	-0.03
671.781	-0.01
671.965	0.04
672.149	-0.01
672.333	-0.01
672.517	-0.02
672.701	0.02
672.885	0.01
673.069	-0.08
673.253	0.03
673.437	-0.02
673.621	-0.03
673.804	-0.03
673.988	0.04
674.172	-0.02
674.356	-0.09
674.54	0.01
674.724	0.1
674.908	-0.02
675.091	-0.01
675.275	-0
675.459	0.04
675.643	0.05
675.826	-0.03
676.01	-0.01
676.194	0
676.377	0.02
676.561	0.04
676.745	0
676.928	-0
677.112	0.06
677.296	-0.02
677.479	-0.01
677.663	-0.05
677.846	0.03
678.03	0.02
678.213	-0.02
678.397	0
678.58	-0.03
678.764	-0
678.947	-0.03
679.131	-0.05
679.314	0.01
679.498	-0.01
679.681	0.01
679.865	0.04
680.048	-0
680.231	0.02
680.415	-0
680.598	-0.06
680.781	-0.03
680.965	-0.04
681.148	0.01
681.331	0.01
681.514	-0
681.698	-0.03
681.881	-0.03
682.064	-0
682.247	0.01
682.43	-0.06
682.614	-0.03
682.797	0.06
682.98	0.03
683.163	-0.11
683.346	-0.02
683.529	-0.04
683.712	-0.04
683.895	0
684.078	-0.05
684.261	-0.03
684.444	-0.02
684.627	-0.01
684.81	-0
684.993	-0.02
685.176	-0.01
685.359	-0.04
685.542	-0.04
685.725	0.09
685.908	-0
686.091	-0.01
686.274	0.05
686.457	0.05
686.639	0.04
686.822	0
687.005	0.05
687.188	0.02
687.371	0.05
687.553	0.01
687.736	0.01
687.919	0.09
688.102	0.02
688.284	-0.03
688.467	-0.01
688.65	-0.04
688.832	-0.01
689.015	0
689.197	-0.05
689.38	0.08
689.563	0.08
689.745	-0.07
689.928	-0.08
690.11	0.02
690.293	-0.01
690.475	-0.07
690.658	-0
690.84	-0.04
691.023	-0.02
691.205	-0.04
691.388	0.02
691.57	0.05
691.752	0.03
691.935	-0.1
692.117	-0.04
692.3	-0.04
692.482	0
692.664	-0.04
692.847	-0.02
693.029	0.04
693.211	-0
693.393	-0.02
693.576	-0.01
693.758	-0.01
693.94	-0.05
694.122	0.01
694.304	-0.02
694.487	-0.01
694.669	0.04
694.851	-0.05
695.033	-0.03
695.215	-0.05
695.397	-0.07
695.579	0.01
695.761	-0.08
695.943	-0.06
696.125	0.11
696.308	0.01
696.49	-0.05
696.671	0.13
696.853	-0.02
697.035	0.14
697.217	0.02
697.399	0.01
697.581	-0.09
697.763	0
697.945	-0.05
698.127	0
698.309	0.03
698.491	0.03
698.672	0.01
698.854	0.06
699.036	0.06
699.218	-0.02
699.399	0.05
699.581	0.08
699.763	-0.05
699.945	-0.03
700.126	-0.07
700.308	0.02
700.49	0.02
700.671	-0.1
700.853	-0.02
701.035	-0.02
701.216	0.04
701.398	-0
701.579	-0.01
701.761	0.01
701.943	-0.04
702.124	-0.04
702.306	-0.04
702.487	0.09
702.669	-0.01
702.85	-0.01
703.031	-0.04
703.213	0.11
703.394	0.02
703.576	-0.04
703.757	0
703.938	0.04
704.12	0.13
704.301	-0.03
704.483	-0.07
704.664	-0.01
704.845	0.13
705.026	0.03
705.208	-0.03
705.389	-0.01
705.57	-0
705.751	-0.07
705.933	-0.05
706.114	0.07
706.295	-0.06
706.476	-0.05
706.657	0.07
706.838	0.04
707.02	0.07
707.201	-0.03
707.382	-0.04
707.563	0.03
707.744	-0.05
707.925	-0.11
708.106	-0.03
708.287	0.02
708.468	0.1
708.649	0.02
708.83	0.03
709.011	-0.06
709.192	0.04
709.373	-0.09
709.554	0.02
709.734	0.01
709.915	0.04
710.096	-0.03
710.277	-0.15
710.458	-0.05
710.639	0.06
710.819	-0.14
711	-0.02
711.181	0.07
711.362	0.04
711.542	0.04
711.723	0.01
711.904	0.02
712.085	0.01
712.265	0.05
712.446	-0.09
712.627	0.05
712.807	0.04
712.988	0.03
713.168	-0.09
713.349	0.04
713.53	-0.16
713.71	-0.12
713.891	-0.11
714.071	0.09
714.252	-0.05
714.432	-0.02
714.613	-0.06
714.793	0.02
714.974	0.08
715.154	0.11
715.334	0.05
715.515	0.07
715.695	-0.07
715.876	0.01
716.056	0.01
716.236	0.05
716.417	0.03
716.597	0.01
716.777	0.11
716.957	0.01
717.138	0.04
717.318	0.03
717.498	-0.06
717.678	-0.02
717.859	-0.02
718.039	-0.09
718.219	0.05
718.399	0.07
718.579	-0.06
718.759	-0.04
718.939	0.04
719.12	0.05
719.3	0.03
719.48	-0.1
719.66	-0.08
719.84	0.09
720.02	0.02
720.2	-0.03
720.38	0.08
720.56	0.05
720.74	0.01
720.92	0.04
721.1	0.04
721.279	0.08
721.459	0.05
721.639	-0.07
721.819	0.08
721.999	-0.05
722.179	0.13
722.359	-0.05
722.538	0.05
722.718	0.04
722.898	-0.01
723.078	-0.07
723.257	0.06
723.437	0.13
723.617	0.04
723.797	0.07
723.976	0.02
724.156	0.06
724.336	0.16
724.515	0.15
724.695	-0.11
724.874	-0.01
725.054	0.07
725.234	-0.03
725.413	0.12
725.593	0.04
725.772	0
725.952	-0.05
726.131	0.01
726.311	0.11
726.49	0.07
726.67	-0.02
726.849	0.09
727.028	0.01
727.208	0.05
727.387	0.14
727.567	0.02
727.746	0.01
727.925	0.01
728.105	0.08
728.284	0.05
728.463	0.01
728.643	0.09
728.822	-0.13
729.001	0.11
729.18	0.06
729.359	0.1
729.539	0.05
729.718	0.04
729.897	0.08
730.076	0.15
730.255	-0.06
730.434	0.14
730.614	0.05
730.793	0.1
730.972	0.07
731.151	0.04
731.33	0.08
731.509	0.08
731.688	0.09
731.867	0.07
732.046	-0.05
732.225	0.31
732.404	-0.01
732.583	-0.02
732.762	0.1
732.941	0.09
733.12	0.08
733.298	0.05
733.477	0.12
733.656	0.06
733.835	-0.03
734.014	0.21
734.193	0.1
734.371	0.2
734.55	0.05
734.729	-0.06
734.908	0.07
735.086	0.12
735.265	0.15
735.444	-0.04
735.623	0.02
735.801	0.04
735.98	0.03
736.159	0.02
736.337	0.13
736.516	0.09
736.694	0.13
736.873	0.06
737.052	0.12
737.23	0.23
737.409	-0.02
737.587	0.23
737.766	-0.07
737.944	0.08
738.123	0.05
738.301	0.22
738.479	0
738.658	0.06
738.836	-0.09
739.015	0.15
739.193	0.22
739.371	-0
739.55	-0.05
739.728	-0.02
739.906	0.23
740.085	0.2
740.263	0.09
740.441	-0.17
740.62	0.27
740.798	0.06
740.976	0.04
741.154	0
741.332	0.22
741.511	0.08
741.689	0.14
741.867	0.13
742.045	0.01
742.223	0.1
742.401	-0.03
742.579	0.02
742.757	0
742.935	-0.04
743.114	-0.06
743.292	0.03
743.47	0.07
743.648	0.08
743.826	-0
744.004	0.14
744.181	0.04
744.359	0
744.537	0.05
744.715	0.1
744.893	0.1
745.071	-0.05
745.249	0
745.427	0.02
745.605	0.03
745.782	0.04
745.96	0.11
746.138	0.08
746.316	0.03
746.493	-0.13
746.671	-0.03
746.849	0.03
747.027	0.13
747.204	-0.01
747.382	0.09
747.56	-0.17
747.737	-0.04
747.915	-0.01
748.093	0.08
748.27	0.05
748.448	-0.03
748.625	-0.17
748.803	-0.09
748.98	0.09
749.158	-0.05
749.335	0
749.513	-0
749.69	0.01
749.868	0.05
750.045	0.14
750.223	-0.07
750.4	-0.19
750.578	0.19
750.755	-0.07
750.932	-0.2
751.11	0.11
751.287	-0.1
751.464	0.05
751.642	0.01
751.819	-0.03
751.996	-0.05
752.173	0.04
752.351	-0.12
752.528	0.06
752.705	-0.05
752.882	-0.09
753.06	0.08
753.237	0.04
753.414	0.16
753.591	0.1
753.768	0.01
753.945	-0.02
754.122	-0.1
754.299	-0.02
754.476	-0.12
754.654	0.07
754.831	0.02
755.008	0
755.185	-0.21
755.362	-0.05
755.539	0.06
755.716	-0.16
755.892	-0.06
756.069	-0.08
756.246	-0.02
756.423	-0.02
756.6	0.12
756.777	-0.01
756.954	0.13
757.131	0.01
757.307	-0.13
757.484	-0.1
757.661	0.03
757.838	-0.01
758.015	-0.14
758.191	0.09
758.368	0.06
758.545	0.22
758.721	-0.03
758.898	-0.2
759.075	0.06
759.251	0.07
759.428	0.03
759.605	-0.09
759.781	-0.08
759.958	-0.02
760.134	-0.02
760.311	-0.19
760.488	0.17
760.664	0.13
760.841	0.02
761.017	-0.18
761.194	-0.08
761.37	0.02
761.547	-0.03
761.723	-0.02
761.899	-0.07
762.076	-0.18
762.252	-0.07
762.429	0.01
762.605	0.06
762.781	-0.08
762.958	0.01
763.134	-0.04
763.31	-0.11
763.486	0.03
763.663	-0.12
763.839	0.05
764.015	-0.18
764.191	-0.15
764.368	0
764.544	-0.02
764.72	-0.06
764.896	0.01
765.072	-0.08
765.248	-0.17
765.425	-0.08
765.601	0.02
765.777	0.01
765.953	-0.3
766.129	-0.04
766.305	-0.08
766.481	0.13
766.657	-0.04
766.833	0.15
767.009	-0.01
767.185	-0.03
767.361	0
767.537	-0.23
767.713	0.11
767.889	-0.16
768.065	-0.16
768.24	-0.17
768.416	0.12
768.592	-0.02
768.768	-0.01
768.944	0.02
769.12	-0.11
769.295	-0.03
769.471	0.03
769.647	0.04
769.823	0.17
769.998	-0.01
770.174	-0.09
770.35	0.41
770.525	0.19
770.701	-0
770.877	-0.12
771.052	-0.2
771.228	0.07
771.403	0.02
771.579	0.13
771.755	0.16
771.93	-0.11
772.106	-0.15
772.281	-0.16
772.457	-0.11
772.632	0.05
772.808	-0.13
772.983	-0.11
773.159	-0.13
773.334	0.18
773.509	-0.04
773.685	0.01
773.86	0.28
774.036	0.14
774.211	-0.05
774.386	0.06
774.562	0.04
774.737	-0.11
774.912	-0.1
775.087	0.02
775.263	-0.03
775.438	0.12
775.613	-0.14
775.788	-0.14
775.964	0.09
776.139	0.44
776.314	-0.11
776.489	-0.07
776.664	-0.12
776.839	-0.08
777.014	0.14
777.19	-0.06
777.365	0.06
777.54	0.08
777.715	-0.26
777.89	0.04
778.065	-0.02
778.24	-0.1
778.415	0.11
778.59	-0.27
778.765	-0.09
778.94	0.04
779.115	-0.08
779.289	-0.06
779.464	-0.2
779.639	-0.07
779.814	-0.12
779.989	-0.09
780.164	0.14
780.339	0.03
780.513	-0.08
780.688	-0.2
780.863	-0.13
781.038	-0.04
781.212	-0.14
781.387	-0.19
781.562	0.22
781.737	0.07
781.911	0.19
782.086	-0.21
782.261	-0.04
782.435	0.33
782.61	-0.13
782.784	0.04
782.959	0.13
783.134	-0.13
783.308	-0.17
783.483	-0.01
783.657	0.09
783.832	0.06
784.006	-0.29
784.181	0.09
784.355	0.11
784.53	-0.05
784.704	-0.06
784.878	0.36
785.053	0.23
785.227	0.28
785.402	0.19
785.576	-0.29
785.75	-0.06
785.925	0.11
786.099	0.06
786.273	-0.06
786.448	0.08
786.622	0.05
786.796	0.04
786.97	-0.07
787.145	0.26
787.319	-0.14
787.493	-0.01
787.667	-0.29
787.841	0.02
788.015	0.26
788.19	-0.05
788.364	0.01
788.538	0.05
788.712	0.16
788.886	-0.15
789.06	0.21
789.234	0.19
789.408	-0.36
789.582	-0.21
789.756	-0.05
789.93	-0.31
790.104	0.18
790.278	-0.08
790.452	-0.16
790.626	0.08
790.8	-0.23
790.973	0.05
791.147	0.19
791.321	0.26
791.495	0.15
791.669	0.04
791.843	-0.09
792.016	0.06
792.19	0.43
792.364	-0.29
792.538	0.38
792.711	0.09
792.885	-0.14
793.059	-0.21
793.233	-0.43
793.406	0.13
793.58	-0.06
793.754	-0.01
793.927	-0.01
794.101	0.11
794.274	0.18
794.448	0.06
794.622	-0.28
794.795	0.06
794.969	0.12
795.142	0.3
795.316	-0.26
795.489	-0.1
795.663	0.3
795.836	0.03
796.009	-0.23
796.183	0.26
796.356	0.04
796.53	-0.09
796.703	-0
796.876	0.32
797.05	0.06
797.223	-0.06
797.396	0.12
797.57	0.07
797.743	0.21
797.916	0.09
798.09	-0.19
798.263	0.35
798.436	-0.1
798.609	-0.08
798.782	0.07
798.956	-0.01
799.129	0.14
799.302	-0.16
799.475	-0.13
799.648	-0.07
799.821	-0.19
799.994	-0.04
800.167	-0.36
800.34	-0.26
800.514	-0.19
800.687	-0.04
800.86	-0.3
801.033	-0.13
801.206	-0.18
801.379	-0.27
801.551	0.3
801.724	0.37
801.897	0.01
802.07	-0.25
802.243	-0.45
802.416	-0.12
802.589	-0.24
802.762	0.02
802.935	-0.08
803.107	0.22
803.28	0.17
803.453	0.13
803.626	-0.37
803.798	-0.15
803.971	-0.1
804.144	-0.01
804.317	0.15
804.489	0.15
804.662	-0.14
804.835	-0.09
805.007	-0.28
805.18	0.36
805.353	-0.03
805.525	-0.39
805.698	0.05
805.87	0.28
806.043	0.2
806.215	-0.13
806.388	-0.41
806.56	0.22
806.733	0.33
806.905	0.15
807.078	-0.03
807.25	-0.39
807.423	0.07
807.595	0.08
807.768	-0.13
807.94	0.32
808.112	0.33
808.285	0.26
808.457	-0.13
808.629	0.04
808.802	0.33
808.974	0.08
809.146	-0.28
809.318	-0.04
809.491	0.13
809.663	0.42
809.835	0
810.007	0.02
810.18	-0.23
810.352	-0.38
810.524	0.05
810.696	0.25
810.868	-0.22
811.04	-0.07
811.212	-0.12
811.384	0.47
811.556	-0.13
811.728	0.22
811.901	0.5
812.073	-0.48
812.245	0.09
812.417	-0.21
812.589	-0.4
812.76	0.25
812.932	0.24
813.104	-0.03
813.276	-0.21
813.448	0.2
813.62	-0
813.792	-0.12
813.964	0.11
814.136	0.15
814.307	-0.24
814.479	-0.21
814.651	-0.46
814.823	0.49
814.995	0.28
815.166	0.34
815.338	-0.07
815.51	-0.35
815.681	0.8
815.853	0.24
816.025	-0.24
816.196	0.78
816.368	-0.11
816.54	-0.34
816.711	-0.15
816.883	-0.09
817.054	0.53
817.226	-0.6
817.398	0.6
817.569	-0.31
817.741	0.24
817.912	0.21
818.084	-0.37
818.255	0.1
818.426	-0.09
818.598	0.04
818.769	-0.45
818.941	0.04
819.112	0.32
819.283	0.46
819.455	-0.34
819.626	-0.34
819.798	0.26
819.969	0.23
820.14	0.08
820.311	-0.1
820.483	0.18
820.654	-0.11
820.825	0.02
820.996	-0.42
821.168	-0.58
821.339	-0.14
821.51	-0.6
821.681	0.14
821.852	-0.14
822.023	-0.32
822.195	-0.59
822.366	0.18
822.537	0.23
822.708	0.12
822.879	0.04
823.05	0.54
823.221	0.13
823.392	0.4
823.563	-0.09
823.734	-0.24
823.905	-0.07
824.076	-0.1
824.247	-0.74
824.418	-0.18
824.589	0.77
824.759	-0.43
824.93	0.18
825.101	-0.4
825.272	0.39
825.443	0.22
825.614	0.36
825.784	-1.01
825.955	0.72
826.126	0.17
826.297	0.23
826.467	0.57
826.638	0.52
826.809	-0.84
826.98	-0.03
827.15	0.54
827.321	-0.3
827.492	0.69
827.662	0.07
827.833	1.13
828.003	0.02
828.174	-0.48
828.345	-0.39
828.515	0.32
828.686	0
828.856	-0.48
829.027	0.16
829.197	0.54
829.368	-0.2
829.538	0.01
829.709	-0.28
829.879	-0.1
830.049	0
830.22	-0.27
830.39	-0.29
830.56	0.36
830.731	0.17
830.901	-0.33
831.072	0.41
831.242	-0.17
831.412	0.16
831.582	-0.29
831.753	-0.63
831.923	0.39
832.093	-0.32
832.263	-0.5
832.434	-0.8
832.604	-0.02
832.774	0.5
832.944	-0.67
833.114	-0.12
833.284	0.05
833.454	-0.59
833.624	-0.44
833.795	-1.03
833.965	0.49
834.135	0.43
834.305	-0.91
834.475	-0.91
834.645	0.01
834.815	0.41
834.985	-0.35
835.155	-0.85
835.325	0.9
835.494	0.3
835.664	-0.05
835.834	-0.72
836.004	0.22
836.174	0.23
836.344	-0.15
836.514	-0.59
836.684	-0.11
836.853	0.21
837.023	0.04
837.193	0.1
837.363	0.57
837.532	0.73
837.702	-0.24
837.872	-0.3
838.041	0.2
838.211	1.31
838.381	-0.28
838.55	-0.21
838.72	1.76
838.89	1.01
839.059	0
839.229	-0.31
839.398	1.28
839.568	0.01
839.738	0.24
839.907	0.91
840.077	0.3
840.246	-0.82
840.416	-0.58
840.585	-0.41
840.755	1.59
840.924	1.1
841.093	-0.8
841.263	-0.58
841.432	0.19
841.602	-0.89
841.771	-0.19
841.94	-0.24
842.11	1.64
842.279	0.45
842.448	-0.58
842.617	-0.61
842.787	1.14
842.956	-0.69
843.125	0.03
843.294	0.1
843.464	0.33
843.633	0.13
843.802	-0.72
843.971	0.12
844.14	0.36
844.309	0.87
844.479	-0.94
844.648	-0.71
844.817	-0.33
844.986	-0.37
845.155	-0.15
845.324	-0.18
845.493	-0.06
845.662	-1.32
845.831	0.11
846	0.59
846.169	0.69
846.338	1.46
846.507	-0.28
846.676	0.28
846.844	-0.23
847.013	0.51
847.182	0.39
847.351	-0.38
847.52	0.77
847.689	0.7
847.858	-0.96
848.026	-0.54
848.195	-0.27
848.364	-0.42
848.533	-0.24
848.701	-0.75
848.87	-0.03
849.039	0.83
849.207	0.47
849.376	1.28
849.545	0.72
849.713	-0.78
849.882	-0.61
850.051	0.3
850.219	0.23
850.388	1.09
850.556	-1.1
850.725	0.2
850.893	-0.45
851.062	0.26
851.23	0.42
851.399	-1.43
851.567	-0.92
851.736	-0.27
851.904	-0.63
852.073	-0.11
852.241	0.84
852.41	-0.62
852.578	-0.26
852.746	-1.29
852.915	0.81
853.083	-0.55
853.251	-0.52
853.42	-0.06
853.588	-0.25
853.756	0.82
853.924	-0.63
854.093	-0.99
854.261	0.06
854.429	-1.51
854.597	0.8
854.765	-0.78
854.934	0.42
855.102	0.12
855.27	-1.3
855.438	-0.91
855.606	-0.03
855.774	0.06
855.942	-1.46
856.11	-1.18
856.278	-0.08
856.446	0.71
856.614	0.15
856.782	-0.15
856.95	1.51
857.118	-0.35
857.286	0.08
857.454	-0.85
857.622	0.53
857.79	0.73
857.958	-0.34
858.126	-0.1
858.294	-2.43
858.462	-0.26
858.629	-0.6
858.797	-0.89
858.965	0.06
859.133	-0.22
859.301	-0.26
859.468	0.74
859.636	-1.03
859.804	1.15
859.971	1.19
860.139	-0.42
860.307	1.02
860.474	-0.11
860.642	-1.45
860.81	0
860.977	-0.97
861.145	1.89
861.313	-1.14
861.48	0.64
861.648	1.91
861.815	-0.65
861.983	-1.53
862.15	-0.09
862.318	1.09
862.485	1.41
862.653	-2.01
862.82	-0.75
862.988	1.03
863.155	-1.19
863.322	-1.89
863.49	-1.34
863.657	-1.06
863.824	2
863.992	1.55
864.159	0.02
864.326	1.01
864.494	-0.67
864.661	2.1
864.828	-0.25
864.996	1.07
865.163	1.22
865.33	-0.59
865.497	-2.86
865.664	0.12
865.832	-2.27
865.999	-0.13
866.166	-1.37
866.333	-1.5
866.5	-1.53
866.667	-0.04
866.834	0.11
867.001	1.85
867.168	-2.32
867.335	0.7
867.502	-2.28
867.669	-0.31
867.836	2.51
868.003	0.03
868.17	0.44
868.337	1.39
868.504	2.13
868.671	-0.92
868.838	-1.04
869.005	-0.95
869.172	1.25
869.339	-1.06
869.505	-0.61
869.672	-0.52
869.839	0.77
870.006	0.16
870.173	-2.12
870.339	-0.66
870.506	3.1
870.673	-1.42
870.84	0.9
871.006	0
871.173	0.39
871.34	0.24
871.506	-1.54
871.673	-0.42
871.839	-2.41
872.006	-0.62
872.173	-0.37
872.339	1.26
872.506	-0.41
872.672	1.08
872.839	-1.68
873.005	0.54
873.172	2.92
873.338	1.09
873.505	-0.11
873.671	-0.92
873.838	1.6
874.004	-1.41
874.171	-1.6
874.337	-0.66
874.503	0.23
874.67	-1.17
874.836	-0.13
875.002	1.77
875.169	1.08
875.335	0.14
875.501	0.16
875.668	-0.38
875.834	1.09
876	-0.74
876.166	1.67
876.332	0.08
876.499	2.19
876.665	0.24
876.831	-1.46
876.997	1.25
877.163	0.83
877.329	-1.06
877.495	0.13
877.662	0.52
877.828	1.89
877.994	-0.49
878.16	-3.03
878.326	0.97
878.492	1.43
878.658	-0.46
878.824	0.38
878.99	1.79
879.156	-2.62
879.322	1.46
879.487	-0.57
879.653	0.36
879.819	-0.61
879.985	-1.84
880.151	0.06
880.317	0.42
880.483	0.86
880.648	0.88
880.814	-2.65
880.98	0.49
881.146	-3.28
881.312	-0.54
881.477	-2.08
881.643	1.66
881.809	0.87
881.974	1.45
882.14	-3.34
882.306	-1.14
882.471	2.15
882.637	-0.09
882.803	1.58
882.968	1.95
883.134	2.3
883.299	-0.97
883.465	0.32
883.63	2.06
883.796	0.41
883.961	2.32
884.127	0.62
884.292	-3.19
884.458	-2.1
884.623	-2.1
