Data from Apollo_Calib_20240827__AbsoluteIrradiance__234__03-03-01-330.txt Node

Date: Wed Aug 28 03:03:01 BST 2024
User: biology
Spectrometer: FLMT08252
Trigger mode: 0
Integration Time (sec): 5.000000E-1
Scans to average: 5
Electric dark correction enabled: true
Nonlinearity correction enabled: false
Boxcar width: 0
XAxis mode: Wavelengths
Number of Pixels in Spectrum: 3648
>>>>>Begin Spectral Data<<<<<
179.588	-0
179.809	-0
180.03	-0
180.251	-0
180.473	-0
180.694	0
180.915	0
181.136	-0
181.357	0
181.578	-0
181.799	-0
182.02	-0
182.241	0
182.462	-0
182.683	0
182.904	-0
183.125	0
183.346	0
183.567	0
183.788	0
184.009	-0
184.23	0
184.451	0
184.672	-0
184.892	-0
185.113	-0
185.334	0
185.555	-0
185.776	-0
185.996	0
186.217	0
186.438	0
186.659	-0
186.879	0
187.1	-0
187.321	-0
187.541	-0
187.762	-0
187.983	-0
188.203	-0
188.424	-0
188.644	-0
188.865	-0
189.086	-0
189.306	-0
189.527	-0
189.747	0
189.968	-0
190.188	-0
190.409	0
190.629	0
190.849	-0
191.07	-0
191.29	0
191.511	0
191.731	-0
191.951	-0
192.172	-0
192.392	-0
192.612	0
192.833	0
193.053	0
193.273	0
193.493	-0
193.714	-0
193.934	0
194.154	0
194.374	-0
194.594	0
194.815	-0
195.035	0
195.255	-0
195.475	-0
195.695	0
195.915	0
196.135	-0
196.355	0
196.575	0
196.795	0
197.015	-0
197.235	-0
197.455	-0
197.675	0
197.895	-0
198.115	-0
198.335	0
198.555	-0
198.775	-0
198.995	0
199.214	0
199.434	-0
199.654	-0
199.874	-0
200.094	0.76
200.313	-0.65
200.533	-0.78
200.753	-0.92
200.973	0.36
201.192	0.29
201.412	-1.26
201.632	-0.36
201.851	0.64
202.071	-0.83
202.291	-0.61
202.51	-0.93
202.73	-0
202.95	-0.35
203.169	-1.12
203.389	-0.1
203.608	0.02
203.828	-0.65
204.047	-0.77
204.267	0.46
204.486	-0.1
204.706	0.39
204.925	0.23
205.145	-0.48
205.364	0.34
205.583	0.48
205.803	-0.35
206.022	-0.83
206.242	-0.05
206.461	-0.32
206.68	-0.75
206.9	0.03
207.119	0.42
207.338	0.53
207.557	-0.35
207.777	-0.32
207.996	-0.04
208.215	0.4
208.434	-0.54
208.654	-0.68
208.873	0.24
209.092	0.46
209.311	-0.3
209.53	-0.28
209.749	-0.07
209.968	-0.3
210.187	-0.26
210.407	-0.52
210.626	-0.19
210.845	-0.02
211.064	0.13
211.283	-0.48
211.502	0.14
211.721	-0.25
211.94	-0.3
212.159	-0.03
212.377	0.24
212.596	0.38
212.815	-0.08
213.034	-0.02
213.253	0.21
213.472	0.09
213.691	-0.09
213.91	-0.46
214.128	-0.31
214.347	0.37
214.566	-0.37
214.785	-0.35
215.003	0.05
215.222	0.13
215.441	-0.09
215.66	-0.41
215.878	-0.06
216.097	0.17
216.316	-0.39
216.534	-0.06
216.753	0.14
216.972	-0.25
217.19	-0.24
217.409	-0.29
217.627	-0.28
217.846	-0.24
218.064	-0.06
218.283	-0.12
218.501	0.24
218.72	0.08
218.938	-0.34
219.157	-0.41
219.375	0.33
219.594	0.2
219.812	-0.21
220.031	-0.16
220.249	0.33
220.467	0.22
220.686	-0.21
220.904	-0.13
221.122	-0.15
221.341	0.41
221.559	-0.23
221.777	-0.26
221.995	-0.04
222.214	0.13
222.432	-0.11
222.65	0.06
222.868	-0.05
223.086	0.07
223.305	0.08
223.523	-0.18
223.741	0.2
223.959	-0.12
224.177	-0.33
224.395	-0.25
224.613	0.01
224.831	0.17
225.049	-0.17
225.267	-0.14
225.485	-0.06
225.703	-0.1
225.921	0.01
226.139	-0.18
226.357	0.09
226.575	0.07
226.793	-0.14
227.011	0.53
227.229	0.06
227.447	0.11
227.665	-0.08
227.883	-0.29
228.1	-0.03
228.318	0.16
228.536	-0.37
228.754	-0.23
228.972	0.04
229.189	0.07
229.407	-0.02
229.625	-0.14
229.843	0.14
230.06	0.09
230.278	-0.09
230.496	-0.11
230.713	-0.03
230.931	0.17
231.149	-0.03
231.366	-0.2
231.584	-0.04
231.801	0.42
232.019	-0.05
232.236	-0.2
232.454	-0.1
232.671	0
232.889	-0.09
233.106	-0.18
233.324	-0.02
233.541	0.01
233.759	-0.03
233.976	-0.17
234.194	-0.04
234.411	0.01
234.628	-0.24
234.846	-0.02
235.063	0.06
235.28	-0.04
235.498	-0.04
235.715	-0.16
235.932	0.03
236.149	-0.1
236.367	-0.14
236.584	-0.08
236.801	-0.03
237.018	0.02
237.236	0
237.453	-0.13
237.67	0.1
237.887	-0.11
238.104	-0.14
238.321	-0.11
238.538	-0.08
238.755	0.06
238.973	-0.22
239.19	-0
239.407	0.01
239.624	-0.12
239.841	-0.26
240.058	-0.12
240.275	0.11
240.492	-0.07
240.709	-0.11
240.925	-0.07
241.142	-0.13
241.359	-0.1
241.576	-0.14
241.793	-0.15
242.01	-0.03
242.227	0.03
242.444	0.11
242.66	0.05
242.877	-0.06
243.094	-0.11
243.311	-0.02
243.527	-0.09
243.744	0.03
243.961	0.03
244.178	-0.12
244.394	-0.06
244.611	0.07
244.828	0.17
245.044	-0.17
245.261	-0.07
245.477	-0.08
245.694	-0.01
245.911	-0.12
246.127	-0.07
246.344	0.07
246.56	0.07
246.777	-0.06
246.993	-0.07
247.21	0.08
247.426	-0.04
247.643	-0.01
247.859	-0.08
248.076	-0.05
248.292	0.14
248.508	-0.13
248.725	0.02
248.941	0.14
249.157	0.14
249.374	-0.1
249.59	-0.11
249.806	-0.01
250.023	0.05
250.239	-0.13
250.455	-0.09
250.671	-0.02
250.888	0.03
251.104	-0.05
251.32	-0.07
251.536	-0.04
251.752	-0.09
251.969	-0.02
252.185	0.02
252.401	0.23
252.617	0.03
252.833	-0.02
253.049	0
253.265	-0.01
253.481	-0.01
253.697	-0.01
253.913	-0.12
254.129	0.05
254.345	0.03
254.561	-0.04
254.777	-0.04
254.993	0.03
255.209	0.02
255.425	-0.05
255.641	-0.12
255.857	0
256.073	-0.01
256.288	-0.13
256.504	-0.09
256.72	-0.03
256.936	0.14
257.152	0.02
257.367	-0.05
257.583	0.01
257.799	0.02
258.015	-0.08
258.23	-0.05
258.446	0.11
258.662	-0.05
258.877	-0.07
259.093	-0.1
259.309	0.03
259.524	0.02
259.74	-0.1
259.955	-0.11
260.171	-0.04
260.387	0
260.602	0.01
260.818	-0.01
261.033	-0.13
261.249	-0
261.464	-0.02
261.68	-0.12
261.895	0.09
262.11	0.06
262.326	-0.04
262.541	-0.11
262.757	0.06
262.972	-0
263.187	0.03
263.403	0.05
263.618	0.01
263.833	-0.04
264.049	-0.06
264.264	-0.03
264.479	0.01
264.694	0.09
264.91	-0.1
265.125	-0.1
265.34	0.06
265.555	0.12
265.77	-0.04
265.986	-0.11
266.201	0.02
266.416	0.05
266.631	-0.04
266.846	-0.05
267.061	-0.02
267.276	0.01
267.491	-0.21
267.706	-0.02
267.921	0.05
268.136	-0
268.351	-0.06
268.566	-0.09
268.781	0.11
268.996	0.04
269.211	0.02
269.426	-0.19
269.641	-0.07
269.856	0.06
270.071	-0.12
270.285	-0.13
270.5	-0.02
270.715	0.05
270.93	-0.01
271.145	-0.01
271.359	0.01
271.574	-0.03
271.789	-0.03
272.004	-0.09
272.218	-0.03
272.433	0.08
272.648	-0.05
272.862	0.04
273.077	-0.06
273.292	0.06
273.506	-0.07
273.721	-0.08
273.936	-0.02
274.15	0.02
274.365	-0.07
274.579	0.01
274.794	-0.03
275.008	0.07
275.223	-0.07
275.437	-0.02
275.652	0.07
275.866	0.04
276.081	-0
276.295	0.01
276.509	-0.01
276.724	0.01
276.938	-0.08
277.153	-0.02
277.367	0.05
277.581	-0.04
277.796	-0.06
278.01	-0.08
278.224	0.06
278.438	0.12
278.653	-0.04
278.867	-0.09
279.081	-0.14
279.295	-0.06
279.51	-0.01
279.724	-0.11
279.938	0.09
280.152	0.07
280.366	-0.03
280.58	0.01
280.794	0.11
281.008	0.02
281.222	0.05
281.437	0.06
281.651	0
281.865	0.1
282.079	-0.03
282.293	-0.11
282.507	-0.01
282.721	0
282.935	0.02
283.148	-0.05
283.362	-0.04
283.576	-0.03
283.79	-0.03
284.004	-0.04
284.218	0.04
284.432	-0.03
284.646	0.01
284.859	-0.01
285.073	-0.06
285.287	-0.03
285.501	-0.03
285.714	0.01
285.928	-0.02
286.142	-0.04
286.356	-0.05
286.569	-0.01
286.783	0.08
286.997	0
287.21	0.03
287.424	-0.03
287.637	-0.03
287.851	-0.02
288.065	0.03
288.278	-0.05
288.492	-0.01
288.705	-0.03
288.919	0.03
289.132	-0.04
289.346	0.06
289.559	-0.1
289.773	-0.08
289.986	-0.01
290.2	-0
290.413	0.05
290.626	-0.05
290.84	-0.06
291.053	0.05
291.267	0.11
291.48	0.01
291.693	0
291.906	-0.02
292.12	-0.01
292.333	-0.04
292.546	-0.05
292.76	0.09
292.973	0.01
293.186	0.01
293.399	-0.06
293.612	0.03
293.826	-0
294.039	-0.05
294.252	0.03
294.465	-0
294.678	0.04
294.891	-0.01
295.104	-0.09
295.317	0.02
295.53	-0
295.743	0.01
295.956	0.02
296.169	0.1
296.382	0.07
296.595	-0.02
296.808	-0.04
297.021	0.03
297.234	0.02
297.447	0.01
297.66	-0.01
297.873	0.06
298.086	0.05
298.299	0.01
298.511	-0.09
298.724	-0.02
298.937	-0.07
299.15	-0.01
299.363	-0.01
299.575	0.04
299.788	0.05
300.001	-0.06
300.213	-0.05
300.426	0.04
300.639	-0.02
300.852	-0.03
301.064	0.04
301.277	0.08
301.489	0.05
301.702	0.04
301.915	-0.01
302.127	0
302.34	0.02
302.552	0.01
302.765	-0.04
302.977	0.02
303.19	-0.01
303.402	-0.01
303.615	-0.02
303.827	-0.01
304.04	-0.02
304.252	0.01
304.464	-0.02
304.677	0.11
304.889	0.06
305.102	-0.03
305.314	-0.08
305.526	0.04
305.739	0.03
305.951	-0.06
306.163	0.05
306.375	0.08
306.588	-0.02
306.8	-0.01
307.012	-0.06
307.224	0.02
307.436	0.03
307.649	-0.12
307.861	0
308.073	0.04
308.285	-0.01
308.497	-0.05
308.709	-0.02
308.921	0
309.133	0.05
309.346	-0.01
309.558	-0.01
309.77	0.08
309.982	0.05
310.194	0.03
310.406	-0.06
310.617	0.09
310.829	0.01
311.041	0.01
311.253	-0.03
311.465	-0.05
311.677	-0.06
311.889	0.01
312.101	-0.04
312.313	0.05
312.524	0.02
312.736	-0.09
312.948	-0.01
313.16	0.09
313.372	0.07
313.583	0.03
313.795	-0.03
314.007	-0
314.218	0.06
314.43	-0.03
314.642	-0.01
314.853	-0.08
315.065	0.03
315.277	0.02
315.488	-0.02
315.7	0.05
315.912	0.02
316.123	0
316.335	0.02
316.546	0.1
316.758	-0.03
316.969	-0.02
317.181	0.01
317.392	0.04
317.604	0.08
317.815	-0.05
318.026	-0.04
318.238	-0.04
318.449	0.01
318.661	-0.08
318.872	-0.05
319.083	-0.02
319.295	0.06
319.506	-0.06
319.717	0.01
319.929	0.03
320.14	-0.02
320.351	-0.02
320.562	-0.02
320.774	0.03
320.985	0.03
321.196	-0.05
321.407	-0.1
321.618	0.04
321.829	-0.01
322.041	0.05
322.252	0.03
322.463	0.06
322.674	0.03
322.885	-0.08
323.096	-0.01
323.307	-0.01
323.518	-0
323.729	-0.04
323.94	-0.04
324.151	-0.03
324.362	-0
324.573	0
324.784	-0.04
324.995	0.04
325.206	-0
325.417	-0.01
325.628	-0.06
325.838	-0.02
326.049	0.02
326.26	0.03
326.471	-0.07
326.682	0.01
326.892	0
327.103	-0.08
327.314	-0.04
327.525	0.03
327.735	-0
327.946	-0.06
328.157	-0.07
328.368	0.04
328.578	-0.04
328.789	0.01
328.999	-0.05
329.21	-0.02
329.421	0.05
329.631	-0.05
329.842	-0.02
330.052	0.03
330.263	0.02
330.473	0.03
330.684	-0.04
330.894	0.03
331.105	-0.01
331.315	0
331.526	-0.06
331.736	0.06
331.947	0
332.157	0
332.367	-0.06
332.578	0.04
332.788	0.04
332.999	0.02
333.209	0.01
333.419	-0.02
333.629	0.04
333.84	0
334.05	0.01
334.26	0.07
334.47	-0.01
334.681	0.02
334.891	-0.04
335.101	0.04
335.311	0.11
335.521	0.01
335.732	-0.07
335.942	0.07
336.152	0.01
336.362	-0
336.572	0.05
336.782	0.08
336.992	-0.09
337.202	-0.03
337.412	-0.06
337.622	0.01
337.832	0.01
338.042	-0.02
338.252	-0.05
338.462	-0.04
338.672	0.01
338.882	-0
339.092	-0.03
339.302	0.07
339.511	0.04
339.721	-0.03
339.931	-0.05
340.141	0.06
340.351	0.04
340.561	0.01
340.77	-0.01
340.98	0.03
341.19	0.03
341.4	-0.03
341.609	-0.02
341.819	-0.02
342.029	-0.04
342.238	0.02
342.448	-0.02
342.658	0.01
342.867	0.02
343.077	0
343.286	-0.01
343.496	0.01
343.706	0.08
343.915	-0.07
344.125	-0.03
344.334	0.01
344.544	-0.03
344.753	-0.06
344.963	-0.03
345.172	-0.04
345.381	-0.06
345.591	-0.02
345.8	-0
346.01	0.06
346.219	0.04
346.428	-0.12
346.638	0.01
346.847	0.03
347.056	0.08
347.266	-0.04
347.475	0.02
347.684	0.05
347.893	0.05
348.103	0.03
348.312	0
348.521	0.02
348.73	0.01
348.94	0.02
349.149	-0.01
349.358	-0.02
349.567	-0.01
349.776	-0.08
349.985	0
350.194	0.02
350.403	0.04
350.612	-0.04
350.821	-0.03
351.03	-0.03
351.239	-0.05
351.448	-0.01
351.657	-0.04
351.866	0.07
352.075	-0.01
352.284	0.03
352.493	-0.01
352.702	0.1
352.911	0.01
353.12	0.03
353.329	0.03
353.538	0.04
353.746	0
353.955	-0.03
354.164	-0
354.373	-0.01
354.582	0.04
354.79	0.01
354.999	0.04
355.208	-0.02
355.416	0.05
355.625	-0.06
355.834	-0.03
356.042	0.05
356.251	-0.04
356.46	-0.04
356.668	0.01
356.877	0.08
357.085	0.06
357.294	-0.11
357.503	0.02
357.711	0.02
357.92	0.12
358.128	0
358.337	-0.01
358.545	0.02
358.754	0.01
358.962	0.03
359.17	0
359.379	0.02
359.587	0.05
359.796	-0.05
360.004	0.06
360.212	0.05
360.421	0.07
360.629	0.02
360.837	0.01
361.046	0.04
361.254	0.14
361.462	0.01
361.67	-0.06
361.879	0.01
362.087	0.05
362.295	-0
362.503	-0.08
362.711	-0.03
362.92	-0.03
363.128	-0.01
363.336	-0.04
363.544	-0.02
363.752	0.01
363.96	-0.02
364.168	0.01
364.376	-0.01
364.584	-0.03
364.792	0
365	0.01
365.208	0.03
365.416	0.05
365.624	0.03
365.832	-0.01
366.04	0.08
366.248	-0.01
366.456	0
366.664	-0.01
366.872	-0.01
367.079	-0.02
367.287	-0.03
367.495	0.01
367.703	-0
367.911	-0.04
368.118	0.01
368.326	-0.01
368.534	-0.05
368.742	0.05
368.949	-0.04
369.157	-0.01
369.365	0.05
369.572	0.03
369.78	-0.02
369.988	0.04
370.195	0.04
370.403	0.01
370.61	-0.05
370.818	0.02
371.026	0.08
371.233	-0.02
371.441	0
371.648	-0.02
371.856	0.02
372.063	-0
372.271	-0.03
372.478	-0.04
372.685	-0.03
372.893	0.06
373.1	-0
373.308	-0.01
373.515	0.11
373.722	0.01
373.93	-0.01
374.137	0.06
374.344	0.06
374.552	0.04
374.759	0.03
374.966	-0.03
375.173	-0
375.381	0.01
375.588	0
375.795	-0.05
376.002	-0.05
376.209	-0.07
376.417	-0.01
376.624	0.03
376.831	0.03
377.038	0.01
377.245	-0.05
377.452	0
377.659	-0.01
377.866	-0.01
378.073	-0.01
378.28	-0.01
378.487	0.05
378.694	0.01
378.901	-0.05
379.108	0
379.315	0.1
379.522	0.07
379.729	0.01
379.936	-0
380.143	0
380.35	0.04
380.557	0.03
380.763	-0
380.97	0.02
381.177	-0.03
381.384	-0.01
381.591	-0.05
381.797	0.01
382.004	0.04
382.211	0.01
382.418	-0
382.624	0.05
382.831	0.04
383.038	-0.03
383.244	0.04
383.451	-0.03
383.658	0.01
383.864	-0
384.071	-0.08
384.277	0.08
384.484	-0.02
384.69	-0.01
384.897	-0.02
385.103	0.01
385.31	-0.05
385.516	-0.03
385.723	-0.03
385.929	-0
386.136	-0.03
386.342	-0.01
386.549	-0.02
386.755	0.06
386.961	0.05
387.168	-0.05
387.374	0.02
387.58	0.04
387.787	-0.01
387.993	-0.02
388.199	-0.02
388.406	-0.03
388.612	-0.03
388.818	-0.04
389.024	-0.06
389.231	-0.02
389.437	0.08
389.643	0.04
389.849	-0.02
390.055	0.01
390.261	-0
390.467	0
390.674	-0.02
390.88	-0.06
391.086	0.01
391.292	-0.05
391.498	0.01
391.704	0.01
391.91	-0.01
392.116	0.01
392.322	-0.11
392.528	0.03
392.734	-0.01
392.94	-0.03
393.146	-0.04
393.352	0.01
393.557	0.02
393.763	-0.04
393.969	0.01
394.175	0.02
394.381	0.03
394.587	-0.07
394.792	-0.04
394.998	0.04
395.204	0.02
395.41	-0.03
395.615	-0.02
395.821	0
396.027	0.05
396.233	-0.06
396.438	0.03
396.644	0.04
396.85	-0
397.055	-0
397.261	0.03
397.466	-0.01
397.672	0.02
397.878	0.02
398.083	-0
398.289	-0.01
398.494	0.04
398.7	0.06
398.905	-0.09
399.111	0.08
399.316	-0.03
399.522	0.02
399.727	0.02
399.932	-0.01
400.138	0.03
400.343	0.07
400.549	0.04
400.754	0.02
400.959	0.04
401.165	0.01
401.37	0.03
401.575	0.1
401.78	0.05
401.986	0
402.191	0.05
402.396	0.01
402.601	0.07
402.807	0.02
403.012	0.01
403.217	0.1
403.422	0.07
403.627	0.08
403.832	0.03
404.037	0.06
404.243	0.12
404.448	0.02
404.653	0.11
404.858	0.11
405.063	0.1
405.268	0.05
405.473	0.03
405.678	0.06
405.883	0.25
406.088	0.08
406.293	0.03
406.498	0.07
406.703	0.15
406.907	0.07
407.112	0.06
407.317	0.11
407.522	0.14
407.727	0.05
407.932	0.07
408.136	0.22
408.341	0.19
408.546	0.17
408.751	0.13
408.956	0.13
409.16	0.18
409.365	0.14
409.57	0.15
409.774	0.25
409.979	0.23
410.184	0.24
410.388	0.12
410.593	0.31
410.798	0.26
411.002	0.21
411.207	0.25
411.411	0.31
411.616	0.25
411.82	0.21
412.025	0.32
412.229	0.26
412.434	0.42
412.638	0.37
412.843	0.36
413.047	0.38
413.252	0.32
413.456	0.36
413.66	0.42
413.865	0.41
414.069	0.49
414.273	0.42
414.478	0.37
414.682	0.48
414.886	0.53
415.091	0.43
415.295	0.42
415.499	0.59
415.703	0.55
415.908	0.59
416.112	0.55
416.316	0.67
416.52	0.65
416.724	0.58
416.929	0.69
417.133	0.85
417.337	0.7
417.541	0.75
417.745	0.74
417.949	0.86
418.153	0.88
418.357	0.86
418.561	0.99
418.765	0.94
418.969	1.03
419.173	1.07
419.377	1.02
419.581	1.18
419.785	1.1
419.989	1.06
420.193	1.18
420.397	1.19
420.601	1.28
420.804	1.3
421.008	1.23
421.212	1.31
421.416	1.33
421.62	1.27
421.823	1.31
422.027	1.43
422.231	1.36
422.435	1.31
422.638	1.28
422.842	1.33
423.046	1.33
423.249	1.4
423.453	1.36
423.657	1.41
423.86	1.36
424.064	1.34
424.268	1.42
424.471	1.3
424.675	1.43
424.878	1.4
425.082	1.34
425.285	1.47
425.489	1.34
425.692	1.31
425.896	1.3
426.099	1.3
426.303	1.22
426.506	1.2
426.71	1.28
426.913	1.31
427.116	1.31
427.32	1.23
427.523	1.17
427.726	1.25
427.93	1.04
428.133	1.06
428.336	1.03
428.54	1.02
428.743	1.09
428.946	1.1
429.149	0.94
429.353	0.99
429.556	0.94
429.759	0.94
429.962	0.77
430.165	0.86
430.368	0.75
430.571	0.71
430.775	0.73
430.978	0.66
431.181	0.74
431.384	0.67
431.587	0.59
431.79	0.62
431.993	0.62
432.196	0.61
432.399	0.6
432.602	0.63
432.805	0.51
433.008	0.55
433.211	0.45
433.414	0.57
433.616	0.54
433.819	0.48
434.022	0.37
434.225	0.53
434.428	0.48
434.631	0.56
434.833	0.44
435.036	0.43
435.239	0.45
435.442	0.41
435.645	0.35
435.847	0.4
436.05	0.44
436.253	0.38
436.455	0.33
436.658	0.34
436.861	0.39
437.063	0.35
437.266	0.31
437.468	0.37
437.671	0.46
437.874	0.34
438.076	0.24
438.279	0.25
438.481	0.29
438.684	0.27
438.886	0.29
439.089	0.16
439.291	0.26
439.494	0.28
439.696	0.17
439.899	0.26
440.101	0.23
440.303	0.15
440.506	0.28
440.708	0.25
440.91	0.32
441.113	0.17
441.315	0.24
441.517	0.11
441.72	0.24
441.922	0.15
442.124	0.15
442.326	0.19
442.529	0.27
442.731	0.13
442.933	0.28
443.135	0.13
443.337	0.08
443.539	0.11
443.742	0.12
443.944	0.21
444.146	0.1
444.348	0.13
444.55	0.12
444.752	0.08
444.954	0.08
445.156	0.16
445.358	0.07
445.56	0.17
445.762	0.08
445.964	0.1
446.166	0.06
446.368	0.04
446.57	0.19
446.772	0.11
446.974	0.05
447.175	0.11
447.377	0.08
447.579	0.09
447.781	0
447.983	0.15
448.184	0.11
448.386	0.07
448.588	0.02
448.79	0.09
448.991	0.02
449.193	0.03
449.395	0.07
449.597	0.13
449.798	0.08
450	0.05
450.202	0.04
450.403	0.07
450.605	0.03
450.806	0.06
451.008	-0.03
451.21	0.09
451.411	0.08
451.613	0.02
451.814	0.03
452.016	0.12
452.217	0.09
452.419	0.09
452.62	0.03
452.821	0.04
453.023	0.12
453.224	0.06
453.426	0.07
453.627	0.08
453.828	0.13
454.03	0.05
454.231	0.08
454.432	0.01
454.634	0.1
454.835	-0.01
455.036	-0.03
455.238	0.07
455.439	0.12
455.64	-0.02
455.841	-0.01
456.042	0.04
456.244	0.08
456.445	0.02
456.646	-0.04
456.847	0
457.048	0.08
457.249	0.07
457.45	0.23
457.651	-0
457.852	0.07
458.054	0.02
458.255	0.03
458.456	0.06
458.657	0.03
458.858	0.04
459.058	0.03
459.259	0.09
459.46	0.03
459.661	0
459.862	0.11
460.063	-0.04
460.264	0.07
460.465	-0.07
460.666	0.13
460.866	-0
461.067	0.04
461.268	0.02
461.469	-0.02
461.67	0.04
461.87	-0.06
462.071	-0.02
462.272	-0
462.473	0.01
462.673	0.05
462.874	-0.1
463.075	0.02
463.275	-0.01
463.476	0.01
463.676	0.03
463.877	-0.01
464.078	-0.01
464.278	0.02
464.479	0.02
464.679	-0.02
464.88	0
465.08	0.09
465.281	-0.02
465.481	0
465.682	-0.01
465.882	0.04
466.083	-0.01
466.283	-0.01
466.483	-0.01
466.684	-0.06
466.884	-0.04
467.085	-0.04
467.285	0.04
467.485	-0.01
467.686	0.03
467.886	-0.04
468.086	0
468.286	0
468.487	-0
468.687	-0.03
468.887	0.04
469.087	0.06
469.287	-0.01
469.488	-0.06
469.688	0.06
469.888	0.07
470.088	0.03
470.288	0.04
470.488	0.04
470.688	-0.02
470.888	-0.02
471.088	-0.02
471.288	0.04
471.488	0.07
471.688	0.02
471.888	-0.05
472.088	0.06
472.288	0.05
472.488	-0.03
472.688	-0.01
472.888	0.03
473.088	0.01
473.288	0.01
473.488	0.01
473.688	0.09
473.887	0
474.087	-0.03
474.287	0.01
474.487	-0.01
474.687	0.05
474.886	-0.02
475.086	-0
475.286	0.05
475.486	0.04
475.685	0
475.885	-0
476.085	-0
476.284	0.01
476.484	-0.02
476.684	0.04
476.883	0.06
477.083	0.01
477.282	-0.01
477.482	0.04
477.681	0.06
477.881	0.04
478.08	-0.03
478.28	-0.04
478.479	0.03
478.679	0.07
478.878	-0.03
479.078	-0.03
479.277	0
479.477	0
479.676	0.03
479.875	-0.02
480.075	-0.05
480.274	0.04
480.473	0.02
480.673	-0.02
480.872	0.03
481.071	0.01
481.271	0.01
481.47	-0.02
481.669	-0.03
481.868	-0.03
482.067	-0.02
482.267	-0
482.466	-0.05
482.665	-0.03
482.864	-0.05
483.063	-0.03
483.262	0.05
483.461	0.06
483.661	0.04
483.86	-0.01
484.059	0
484.258	0.01
484.457	-0.02
484.656	-0.03
484.855	0.05
485.054	-0.02
485.253	-0.03
485.452	-0.03
485.651	-0.01
485.849	0
486.048	-0.03
486.247	-0.03
486.446	0.01
486.645	-0.04
486.844	-0.03
487.043	-0.01
487.241	0.01
487.44	-0.03
487.639	-0.01
487.838	0.02
488.037	-0
488.235	0.06
488.434	0.01
488.633	-0.01
488.831	0.02
489.03	0.06
489.229	-0.02
489.427	0
489.626	0.05
489.825	0.05
490.023	-0.01
490.222	-0.03
490.42	0.03
490.619	0.04
490.817	0.01
491.016	-0
491.214	0.02
491.413	-0.01
491.611	-0.02
491.81	-0.01
492.008	0.02
492.207	0.03
492.405	-0.01
492.604	-0.05
492.802	-0.01
493	0
493.199	-0
493.397	0
493.595	-0.02
493.794	-0
493.992	0.05
494.19	-0.02
494.388	0.01
494.587	-0
494.785	-0.01
494.983	-0.03
495.181	0
495.379	-0
495.578	-0.01
495.776	-0
495.974	-0.01
496.172	-0.01
496.37	-0.03
496.568	-0.03
496.766	-0.04
496.964	0.03
497.162	0.02
497.36	-0.03
497.558	0.02
497.756	0.01
497.954	-0.01
498.152	-0.04
498.35	0.01
498.548	-0.02
498.746	0.02
498.944	-0.02
499.142	-0.02
499.34	-0.05
499.538	-0.01
499.736	-0.04
499.933	0.04
500.131	0.02
500.329	-0.01
500.527	0.03
500.725	0.03
500.922	0.01
501.12	-0
501.318	-0
501.516	-0.04
501.713	0.01
501.911	-0
502.109	-0.03
502.306	0.01
502.504	-0.01
502.701	-0.03
502.899	-0
503.097	0.03
503.294	0.02
503.492	-0
503.689	0.02
503.887	0.01
504.084	0.04
504.282	0
504.479	-0.05
504.677	0.01
504.874	-0.02
505.072	0.01
505.269	-0.02
505.466	0.02
505.664	0.01
505.861	-0.04
506.059	-0.01
506.256	0.02
506.453	-0.02
506.651	0.04
506.848	0.02
507.045	0.01
507.242	0.01
507.44	-0.02
507.637	-0.01
507.834	-0.01
508.031	-0
508.229	-0.01
508.426	-0.02
508.623	0.03
508.82	-0.03
509.017	-0.04
509.214	-0.01
509.411	0.01
509.608	-0.03
509.805	-0.01
510.003	-0.02
510.2	-0.02
510.397	0.02
510.594	-0.05
510.791	-0.02
510.988	-0.02
511.184	0.04
511.381	0
511.578	-0.01
511.775	0.04
511.972	-0.03
512.169	0
512.366	0.03
512.563	0.03
512.76	-0.02
512.956	0.01
513.153	0
513.35	0.02
513.547	-0.02
513.744	-0.03
513.94	-0.03
514.137	0
514.334	0
514.53	0.01
514.727	-0.02
514.924	0.05
515.12	-0.02
515.317	-0.03
515.514	-0.02
515.71	-0.01
515.907	-0.02
516.103	0.03
516.3	0
516.497	0.02
516.693	0.02
516.89	0
517.086	-0.05
517.283	0.04
517.479	-0
517.676	0.02
517.872	-0.01
518.068	-0.02
518.265	-0.01
518.461	-0.02
518.658	-0.03
518.854	0.01
519.05	-0.02
519.247	-0.03
519.443	0.02
519.639	-0
519.836	0
520.032	-0.01
520.228	0
520.424	0.04
520.621	0.01
520.817	-0.01
521.013	0.01
521.209	0
521.405	0.05
521.601	0.02
521.798	-0
521.994	0.03
522.19	-0.02
522.386	-0.04
522.582	-0
522.778	-0
522.974	-0.01
523.17	0.01
523.366	-0
523.562	0.02
523.758	0.02
523.954	-0.03
524.15	-0.01
524.346	-0
524.542	-0.03
524.738	-0.04
524.934	0
525.129	-0.01
525.325	0.01
525.521	0.02
525.717	0.01
525.913	0.01
526.109	-0.01
526.304	-0.01
526.5	0.02
526.696	0.03
526.892	-0
527.087	-0
527.283	-0.02
527.479	-0
527.674	-0.01
527.87	-0.01
528.066	-0.01
528.261	0.02
528.457	-0.01
528.653	-0.02
528.848	-0.01
529.044	0.02
529.239	-0.01
529.435	0.01
529.63	0.01
529.826	0.04
530.021	0.01
530.217	0.02
530.412	0
530.608	-0.03
530.803	0.01
530.999	-0
531.194	-0.04
531.389	-0.02
531.585	-0.05
531.78	-0.02
531.975	-0.01
532.171	0.02
532.366	-0.01
532.561	0.02
532.757	-0.02
532.952	0
533.147	0.02
533.342	0
533.538	-0
533.733	0.01
533.928	0.01
534.123	-0.02
534.318	-0.03
534.513	0
534.709	-0.01
534.904	-0.01
535.099	-0.03
535.294	-0.01
535.489	-0
535.684	-0.01
535.879	-0.02
536.074	0.02
536.269	-0.01
536.464	0.01
536.659	-0
536.854	-0.01
537.049	0.01
537.244	0.01
537.439	-0.02
537.634	0.03
537.828	-0.01
538.023	-0.01
538.218	-0.04
538.413	0
538.608	-0.04
538.803	0.03
538.997	-0.06
539.192	0.02
539.387	-0.01
539.582	-0
539.776	0
539.971	-0
540.166	0.01
540.36	-0.02
540.555	-0.02
540.75	0.01
540.944	0
541.139	-0.04
541.334	-0.02
541.528	0.02
541.723	0.03
541.917	-0.03
542.112	-0.04
542.306	-0.03
542.501	-0.03
542.695	-0
542.89	-0.03
543.084	-0
543.279	0.01
543.473	-0.01
543.668	-0
543.862	-0.02
544.056	0.03
544.251	-0.01
544.445	0.01
544.64	-0.01
544.834	-0.01
545.028	-0
545.222	-0.01
545.417	0.02
545.611	-0
545.805	0.02
546	-0.03
546.194	-0.01
546.388	-0.02
546.582	0.01
546.776	-0.01
546.97	-0
547.165	-0
547.359	0
547.553	-0.02
547.747	0.01
547.941	0.01
548.135	-0
548.329	0
548.523	0
548.717	-0.02
548.911	-0.03
549.105	-0.01
549.299	-0.01
549.493	0
549.687	-0
549.881	0
550.075	-0
550.269	-0.04
550.463	-0
550.657	-0.02
550.85	-0.04
551.044	-0.05
551.238	0
551.432	-0.02
551.626	-0.04
551.82	0.03
552.013	-0.03
552.207	0.01
552.401	0.03
552.594	0
552.788	-0.01
552.982	0.01
553.176	-0.01
553.369	-0
553.563	0.01
553.756	-0.03
553.95	-0.01
554.144	-0.01
554.337	0.02
554.531	-0.02
554.724	-0
554.918	-0.02
555.111	0.02
555.305	-0.01
555.498	0.04
555.692	0.03
555.885	-0.02
556.079	0.01
556.272	-0.01
556.466	0.02
556.659	0.01
556.852	-0.01
557.046	-0
557.239	0.01
557.432	-0.03
557.626	-0.03
557.819	-0
558.012	0.01
558.206	0.01
558.399	-0
558.592	0.02
558.785	-0.03
558.979	0.02
559.172	-0
559.365	0.02
559.558	0.02
559.751	0
559.944	0.01
560.138	-0.02
560.331	0.01
560.524	-0
560.717	-0.01
560.91	0.01
561.103	-0.01
561.296	0
561.489	0.01
561.682	0.01
561.875	0.01
562.068	0.01
562.261	-0.01
562.454	0.03
562.647	0
562.84	0.03
563.032	0.01
563.225	0.01
563.418	-0.01
563.611	-0.01
563.804	-0.03
563.997	-0.05
564.19	-0.03
564.382	-0
564.575	-0.01
564.768	-0.02
564.961	0.01
565.153	-0.04
565.346	0
565.539	0
565.731	0.01
565.924	0.02
566.117	0.01
566.309	-0.01
566.502	-0.03
566.695	-0.02
566.887	-0
567.08	-0.04
567.272	-0.03
567.465	-0
567.657	-0
567.85	-0
568.042	0.01
568.235	0.04
568.427	-0
568.62	0
568.812	0.01
569.005	-0
569.197	-0.05
569.389	0.01
569.582	0.01
569.774	-0
569.966	-0.05
570.159	-0.01
570.351	0.01
570.543	-0.01
570.736	-0.02
570.928	-0.05
571.12	-0.01
571.312	-0.01
571.505	-0.03
571.697	0.03
571.889	-0.03
572.081	-0.02
572.273	-0.04
572.465	0.01
572.658	-0.01
572.85	-0
573.042	-0
573.234	-0.01
573.426	0.06
573.618	-0.05
573.81	0.02
574.002	0.03
574.194	0.03
574.386	-0.04
574.578	-0.09
574.77	-0.02
574.962	0.01
575.154	-0.04
575.346	-0.02
575.538	-0.01
575.729	-0.02
575.921	-0.01
576.113	0.01
576.305	0.03
576.497	-0
576.689	-0.02
576.88	-0.03
577.072	0.02
577.264	-0.01
577.456	-0.03
577.647	-0.08
577.839	0
578.031	0.02
578.223	-0.04
578.414	-0.05
578.606	0.03
578.798	0.01
578.989	-0.05
579.181	-0.01
579.372	-0
579.564	-0.04
579.755	-0.01
579.947	0.01
580.139	0.01
580.33	-0.06
580.522	-0.03
580.713	-0.08
580.905	-0.03
581.096	0.02
581.287	-0
581.479	-0
581.67	0.02
581.862	0
582.053	-0.04
582.244	-0.06
582.436	-0
582.627	0.01
582.818	-0.04
583.01	-0.05
583.201	0.02
583.392	0.02
583.583	-0
583.775	-0.02
583.966	-0.04
584.157	-0.01
584.348	0
584.54	-0.05
584.731	0.02
584.922	-0
585.113	-0.05
585.304	-0
585.495	0.02
585.686	-0
585.877	-0.01
586.068	-0.02
586.259	0
586.45	-0
586.641	-0.03
586.832	-0.06
587.023	0.01
587.214	-0.01
587.405	0
587.596	-0.03
587.787	0.02
587.978	0
588.169	-0.05
588.36	-0.02
588.551	0
588.742	-0.03
588.932	0.01
589.123	-0.02
589.314	0.01
589.505	0.01
589.696	0.02
589.886	-0.03
590.077	-0.03
590.268	-0.01
590.458	-0.04
590.649	-0.04
590.84	-0
591.03	-0
591.221	-0.04
591.412	-0.05
591.602	0.02
591.793	0.03
591.984	-0.03
592.174	0.01
592.365	0.04
592.555	-0.04
592.746	0.01
592.936	0.01
593.127	0.01
593.317	0.02
593.508	-0.04
593.698	-0.03
593.889	0.01
594.079	-0.02
594.269	-0.02
594.46	-0
594.65	-0.02
594.84	-0
595.031	-0.06
595.221	-0.02
595.411	-0.05
595.602	0.04
595.792	-0.02
595.982	-0.01
596.172	0.04
596.363	-0.01
596.553	0.01
596.743	-0.02
596.933	-0.02
597.123	0.03
597.314	-0.03
597.504	-0.02
597.694	0.04
597.884	0.01
598.074	-0.04
598.264	-0.03
598.454	-0.01
598.644	-0.03
598.834	-0.02
599.024	-0.06
599.214	-0.04
599.404	0.01
599.594	-0.04
599.784	-0.03
599.974	0.02
600.164	0.02
600.354	-0.04
600.544	-0.06
600.734	0
600.924	0
601.114	-0.06
601.303	-0.01
601.493	0.03
601.683	-0.02
601.873	-0.01
602.063	-0.06
602.252	0.03
602.442	-0.08
602.632	-0.05
602.821	-0.06
603.011	0.01
603.201	-0.01
603.39	-0.05
603.58	-0.03
603.77	-0.02
603.959	0.02
604.149	-0.01
604.339	-0.04
604.528	0.01
604.718	0.03
604.907	-0.04
605.097	-0.02
605.286	-0.04
605.476	0.02
605.665	-0.01
605.855	-0.03
606.044	0.03
606.234	-0
606.423	-0.03
606.612	-0.05
606.802	-0.01
606.991	0.01
607.181	-0
607.37	-0.07
607.559	-0
607.749	-0.06
607.938	0.01
608.127	-0.01
608.316	-0.03
608.506	0.01
608.695	-0.01
608.884	-0.05
609.073	0
609.263	0.02
609.452	0.01
609.641	-0
609.83	0
610.019	-0
610.208	-0.04
610.397	-0.01
610.586	0.03
610.775	-0
610.965	-0
611.154	-0.02
611.343	0.01
611.532	0.01
611.721	-0.05
611.91	-0.02
612.099	-0.01
612.287	-0.04
612.476	-0.05
612.665	0
612.854	-0.01
613.043	0.02
613.232	-0.02
613.421	-0.06
613.61	0
613.798	-0.03
613.987	-0
614.176	-0.03
614.365	0.02
614.554	0
614.742	0.01
614.931	-0.04
615.12	0.03
615.309	0.02
615.497	0.01
615.686	-0.05
615.875	-0.03
616.063	-0.02
616.252	0
616.44	-0.04
616.629	-0.01
616.818	0.03
617.006	-0.03
617.195	0
617.383	-0
617.572	-0.02
617.76	-0.05
617.949	-0.02
618.137	0.03
618.326	0.01
618.514	-0.04
618.703	-0.03
618.891	0.04
619.079	-0.07
619.268	-0.01
619.456	-0.03
619.644	0.04
619.833	-0.03
620.021	-0.05
620.209	-0.07
620.398	-0
620.586	-0.03
620.774	-0.02
620.962	-0.04
621.151	0.05
621.339	0.01
621.527	-0.07
621.715	-0.03
621.903	-0.04
622.092	-0.06
622.28	-0.02
622.468	-0.03
622.656	-0.01
622.844	0.01
623.032	-0.03
623.22	-0.06
623.408	0.03
623.596	0.02
623.784	0.03
623.972	-0.06
624.16	-0.02
624.348	0.06
624.536	-0.05
624.724	-0.04
624.912	0
625.1	0.01
625.288	-0.04
625.476	-0.05
625.664	-0.01
625.851	-0.06
626.039	-0.02
626.227	0.01
626.415	-0.04
626.603	-0.06
626.79	-0.01
626.978	-0.03
627.166	0.03
627.354	-0.01
627.541	-0.04
627.729	-0.07
627.917	0.03
628.104	0.03
628.292	0.01
628.48	-0.02
628.667	0
628.855	0.02
629.042	0.01
629.23	-0.02
629.418	-0.01
629.605	-0.01
629.793	-0.02
629.98	0.01
630.168	-0
630.355	0
630.543	-0
630.73	-0.07
630.917	0.03
631.105	0.01
631.292	-0.02
631.48	-0.05
631.667	0.05
631.854	-0
632.042	-0.03
632.229	-0.07
632.416	0.01
632.604	-0.02
632.791	-0.02
632.978	0
633.165	-0.02
633.353	0.09
633.54	0.02
633.727	-0.07
633.914	-0.04
634.101	-0.08
634.289	0.03
634.476	-0.04
634.663	-0.07
634.85	0.01
635.037	-0.01
635.224	-0.09
635.411	0.03
635.598	0.02
635.785	-0.02
635.972	-0.01
636.159	0.02
636.346	-0.03
636.533	-0.01
636.72	-0.01
636.907	-0.03
637.094	0
637.281	-0.03
637.468	0.02
637.655	-0.03
637.842	-0.01
638.029	-0.03
638.215	0.02
638.402	-0.01
638.589	-0.04
638.776	-0.03
638.963	-0.03
639.149	0.04
639.336	0.06
639.523	-0.02
639.709	-0.03
639.896	-0.01
640.083	0.02
640.27	0.01
640.456	-0.02
640.643	0.01
640.829	-0.07
641.016	-0.03
641.203	-0.07
641.389	0
641.576	0.02
641.762	-0.01
641.949	-0.05
642.135	-0.02
642.322	0.02
642.508	-0.05
642.695	-0.01
642.881	-0.04
643.068	-0.03
643.254	-0.03
643.441	0
643.627	-0.01
643.813	-0.04
644	0.01
644.186	-0.03
644.372	-0.01
644.559	0.03
644.745	-0.04
644.931	-0.03
645.118	-0.04
645.304	-0.04
645.49	-0.03
645.676	-0.07
645.862	-0
646.049	0.04
646.235	-0.01
646.421	0.06
646.607	0.05
646.793	-0.01
646.979	-0.04
647.165	0.01
647.352	0.02
647.538	0.02
647.724	-0.02
647.91	0.01
648.096	0.01
648.282	0.04
648.468	-0.01
648.654	-0.01
648.84	-0.01
649.026	0.01
649.212	-0.01
649.397	-0.05
649.583	-0.07
649.769	0.02
649.955	-0
650.141	0.01
650.327	0.06
650.513	-0.05
650.698	-0
650.884	-0.08
651.07	-0.02
651.256	0.02
651.442	0.01
651.627	-0.01
651.813	-0.01
651.999	0.01
652.184	0.02
652.37	-0.04
652.556	-0.05
652.741	0.06
652.927	-0.08
653.113	-0.02
653.298	-0
653.484	-0.02
653.669	-0.06
653.855	-0.02
654.04	0.04
654.226	-0
654.412	-0
654.597	-0.03
654.782	-0.01
654.968	0.03
655.153	-0
655.339	-0.02
655.524	-0.05
655.71	0.02
655.895	-0.05
656.08	-0.04
656.266	0.03
656.451	0
656.636	-0.05
656.822	0.01
657.007	-0.05
657.192	-0.05
657.378	-0.07
657.563	0
657.748	-0.02
657.933	0.01
658.118	-0.03
658.304	-0.04
658.489	-0
658.674	0.04
658.859	-0.05
659.044	0
659.229	0
659.414	-0.06
659.599	0.01
659.785	-0.08
659.97	-0.05
660.155	0
660.34	-0.02
660.525	-0.05
660.71	-0.02
660.895	-0.01
661.08	-0.04
661.264	-0.04
661.449	0.06
661.634	0.02
661.819	-0.02
662.004	-0.01
662.189	-0.08
662.374	-0.04
662.559	-0.04
662.743	-0.12
662.928	0.02
663.113	-0.02
663.298	-0.08
663.483	-0.04
663.667	-0
663.852	-0.03
664.037	0.01
664.221	-0.04
664.406	-0.01
664.591	0
664.775	0.02
664.96	-0.09
665.145	0.01
665.329	0.09
665.514	-0.04
665.698	-0.04
665.883	-0.11
666.068	0.04
666.252	-0.02
666.437	-0.04
666.621	-0.04
666.806	0.03
666.99	-0.05
667.174	-0.06
667.359	0.04
667.543	-0.02
667.728	-0.05
667.912	-0.1
668.096	0.01
668.281	-0.01
668.465	-0.02
668.649	-0.04
668.834	-0.07
669.018	-0.06
669.202	-0.05
669.387	-0.05
669.571	0.01
669.755	-0.03
669.939	-0.03
670.124	-0.04
670.308	0.07
670.492	0.03
670.676	-0
670.86	-0.05
671.044	-0.07
671.228	0.01
671.413	-0.06
671.597	-0.04
671.781	-0.06
671.965	-0
672.149	-0.03
672.333	-0.04
672.517	-0.05
672.701	0.02
672.885	-0.04
673.069	-0.07
673.253	0.04
673.437	-0.02
673.621	-0.02
673.804	0.01
673.988	-0.04
674.172	-0.06
674.356	-0.07
674.54	-0.02
674.724	0.09
674.908	-0.01
675.091	0.03
675.275	-0.01
675.459	-0.01
675.643	0.06
675.826	0.01
676.01	-0.03
676.194	-0.03
676.377	0.02
676.561	0.01
676.745	-0.05
676.928	-0
677.112	0.04
677.296	-0.05
677.479	-0.04
677.663	-0.05
677.846	0.02
678.03	-0.02
678.213	-0.03
678.397	0.03
678.58	-0.04
678.764	-0.02
678.947	-0.04
679.131	-0.03
679.314	0.06
679.498	-0.03
679.681	0
679.865	0.04
680.048	-0.01
680.231	-0.01
680.415	-0.05
680.598	-0.04
680.781	-0.04
680.965	-0.03
681.148	0.05
681.331	-0.04
681.514	0.01
681.698	-0.02
681.881	-0.06
682.064	-0.02
682.247	0.01
682.43	-0.08
682.614	-0.01
682.797	0.04
682.98	0.04
683.163	-0.06
683.346	-0
683.529	-0.02
683.712	-0.06
683.895	0
684.078	-0.01
684.261	-0.01
684.444	0
684.627	0.01
684.81	-0.02
684.993	-0.05
685.176	0.02
685.359	-0.09
685.542	-0.04
685.725	0.03
685.908	-0.01
686.091	-0.03
686.274	-0
686.457	0.03
686.639	-0.03
686.822	-0
687.005	-0.02
687.188	0.02
687.371	0.1
687.553	-0.05
687.736	0.01
687.919	0.02
688.102	0.05
688.284	-0.07
688.467	-0.04
688.65	-0.02
688.832	-0.04
689.015	-0.02
689.197	-0.08
689.38	0.07
689.563	0.07
689.745	-0.03
689.928	-0.07
690.11	-0.01
690.293	0.05
690.475	-0.05
690.658	0.01
690.84	0.01
691.023	-0
691.205	-0.07
691.388	0
691.57	-0
691.752	-0.04
691.935	-0.06
692.117	-0.05
692.3	0.03
692.482	-0.04
692.664	-0.04
692.847	0.01
693.029	0.07
693.211	-0.02
693.393	-0.01
693.576	-0.05
693.758	-0.03
693.94	-0.03
694.122	-0.08
694.304	-0.03
694.487	-0.05
694.669	0.05
694.851	-0.05
695.033	-0.02
695.215	-0.07
695.397	-0.07
695.579	-0.01
695.761	-0.05
695.943	-0.07
696.125	0.11
696.308	0.04
696.49	-0.15
696.671	0.14
696.853	0.02
697.035	0.11
697.217	0.01
697.399	0.02
697.581	-0.01
697.763	0.01
697.945	-0.06
698.127	-0.01
698.309	0.02
698.491	-0
698.672	0.06
698.854	0.06
699.036	0.1
699.218	-0.04
699.399	0.04
699.581	0.03
699.763	0
699.945	-0.07
700.126	-0.07
700.308	-0.05
700.49	-0.04
700.671	-0.08
700.853	-0.06
701.035	-0.03
701.216	0
701.398	-0.08
701.579	-0.05
701.761	0.03
701.943	-0.07
702.124	-0.02
702.306	-0.05
702.487	0.11
702.669	0.01
702.85	-0.02
703.031	-0.11
703.213	0.06
703.394	0.06
703.576	-0.05
703.757	0.07
703.938	0.06
704.12	0.08
704.301	0.02
704.483	-0.08
704.664	-0.04
704.845	0.03
705.026	0.03
705.208	-0.03
705.389	-0.05
705.57	0
705.751	-0.05
705.933	-0.04
706.114	0.07
706.295	-0.02
706.476	-0.14
706.657	0.09
706.838	0.03
707.02	0.02
707.201	-0.04
707.382	0.01
707.563	0
707.744	-0.06
707.925	-0.11
708.106	-0.08
708.287	-0.01
708.468	0.1
708.649	-0.07
708.83	0.01
709.011	-0.02
709.192	0.06
709.373	-0.12
709.554	-0.04
709.734	0.04
709.915	0.02
710.096	-0.05
710.277	-0.15
710.458	-0.03
710.639	0.01
710.819	-0.12
711	-0.09
711.181	0.1
711.362	0.03
711.542	0.02
711.723	-0.02
711.904	0.04
712.085	-0.02
712.265	0.03
712.446	-0.11
712.627	-0.07
712.807	0.02
712.988	-0.06
713.168	-0.09
713.349	0.09
713.53	-0.12
713.71	-0.07
713.891	-0.08
714.071	-0.02
714.252	-0.01
714.432	-0.04
714.613	-0.08
714.793	-0.03
714.974	0.07
715.154	0.04
715.334	0.06
715.515	0.06
715.695	-0.02
715.876	-0.07
716.056	-0.06
716.236	-0.01
716.417	-0.05
716.597	-0.07
716.777	0.11
716.957	-0.05
717.138	-0.07
717.318	-0.05
717.498	-0.12
717.678	0.05
717.859	0.02
718.039	-0.21
718.219	-0.01
718.399	0.05
718.579	-0.09
718.759	-0.08
718.939	-0.04
719.12	-0.03
719.3	-0.02
719.48	-0.15
719.66	-0.11
719.84	0.05
720.02	-0.01
720.2	-0.1
720.38	0.02
720.56	0.05
720.74	-0.01
720.92	0.02
721.1	0.06
721.279	0.12
721.459	-0
721.639	-0.09
721.819	0.05
721.999	-0.02
722.179	0.06
722.359	-0.14
722.538	0.03
722.718	-0.05
722.898	-0.08
723.078	-0.04
723.257	-0.1
723.437	-0.06
723.617	-0.02
723.797	-0.03
723.976	0.02
724.156	0
724.336	-0
724.515	0.09
724.695	-0.09
724.874	-0.06
725.054	0.12
725.234	-0.03
725.413	-0.03
725.593	-0.04
725.772	-0.08
725.952	-0.08
726.131	-0.03
726.311	-0.02
726.49	-0.04
726.67	-0.09
726.849	-0.05
727.028	-0.05
727.208	-0.04
727.387	-0.02
727.567	-0.09
727.746	-0.06
727.925	-0.05
728.105	-0.18
728.284	-0.03
728.463	-0.28
728.643	0.05
728.822	-0.09
729.001	-0.08
729.18	-0.04
729.359	0.01
729.539	-0.01
729.718	0.09
729.897	0.06
730.076	-0.05
730.255	-0.07
730.434	-0.02
730.614	0.08
730.793	0.11
730.972	-0.05
731.151	0.05
731.33	0.11
731.509	0.02
731.688	-0.07
731.867	-0.06
732.046	-0.13
732.225	0.22
732.404	-0.08
732.583	-0.15
732.762	0.02
732.941	0.05
733.12	0.05
733.298	-0.1
733.477	0.09
733.656	-0.05
733.835	-0.17
734.014	0.03
734.193	0.04
734.371	0.08
734.55	-0.01
734.729	-0.08
734.908	-0.04
735.086	-0.04
735.265	-0.01
735.444	-0.17
735.623	-0.2
735.801	-0.09
735.98	-0.11
736.159	0.01
736.337	-0.02
736.516	-0.04
736.694	0.1
736.873	-0.09
737.052	0.22
737.23	0.17
737.409	-0.03
737.587	0.14
737.766	-0.16
737.944	-0.05
738.123	-0.03
738.301	0.04
738.479	-0.05
738.658	0.03
738.836	-0.18
739.015	0.07
739.193	0.14
739.371	-0.18
739.55	-0.05
739.728	-0.09
739.906	0.15
740.085	0.2
740.263	-0.03
740.441	-0.25
740.62	0.13
740.798	0.11
740.976	-0.16
741.154	-0.12
741.332	0.17
741.511	-0.13
741.689	0.05
741.867	-0.02
742.045	-0.08
742.223	-0
742.401	-0.19
742.579	-0.09
742.757	-0.02
742.935	-0.18
743.114	-0.09
743.292	-0.19
743.47	-0.05
743.648	-0.02
743.826	-0.03
744.004	0.04
744.181	0.03
744.359	-0.05
744.537	0.02
744.715	0.02
744.893	-0.02
745.071	0.04
745.249	-0.03
745.427	-0.09
745.605	0.15
745.782	-0.02
745.96	-0.05
746.138	0.07
746.316	0.01
746.493	-0.05
746.671	-0.06
746.849	0.02
747.027	0.13
747.204	-0.1
747.382	0.06
747.56	-0.11
747.737	0.12
747.915	-0.03
748.093	0.07
748.27	-0.02
748.448	-0.1
748.625	-0.22
748.803	-0.1
748.98	-0.13
749.158	0.02
749.335	0.08
749.513	-0.03
749.69	-0.11
749.868	-0.02
750.045	0.1
750.223	-0.19
750.4	-0.26
750.578	0.11
750.755	-0.02
750.932	-0.16
751.11	0.02
751.287	-0.18
751.464	0.1
751.642	-0.14
751.819	-0.05
751.996	-0.03
752.173	-0.07
752.351	-0.19
752.528	0.01
752.705	-0.13
752.882	-0.05
753.06	-0.02
753.237	0.02
753.414	0.17
753.591	0.21
753.768	-0.1
753.945	-0.09
754.122	-0.03
754.299	-0.02
754.476	-0.07
754.654	0.01
754.831	-0.02
755.008	0.02
755.185	0.01
755.362	-0.21
755.539	0.01
755.716	-0.08
755.892	0.02
756.069	0.06
756.246	0.05
756.423	-0.05
756.6	0.1
756.777	-0.09
756.954	0.1
757.131	-0.05
757.307	-0.13
757.484	-0.06
757.661	0.08
757.838	0.02
758.015	-0.19
758.191	0.01
758.368	-0.01
758.545	0.21
758.721	-0
758.898	-0.13
759.075	-0.01
759.251	0
759.428	0.02
759.605	-0.15
759.781	-0.02
759.958	0.01
760.134	0.15
760.311	-0.14
760.488	0.09
760.664	0.14
760.841	0
761.017	-0.07
761.194	0.14
761.37	0.09
761.547	-0.01
761.723	-0.06
761.899	0.11
762.076	-0.08
762.252	-0.1
762.429	-0.08
762.605	0.09
762.781	-0.15
762.958	0.04
763.134	-0.18
763.31	-0.08
763.486	0.22
763.663	-0.22
763.839	0.14
764.015	-0.2
764.191	-0.18
764.368	-0.13
764.544	-0.08
764.72	-0.04
764.896	0.06
765.072	-0.09
765.248	-0.09
765.425	-0.01
765.601	0.05
765.777	0.02
765.953	-0.19
766.129	-0.07
766.305	-0.16
766.481	0.03
766.657	-0.16
766.833	0.08
767.009	-0.12
767.185	-0.06
767.361	-0.04
767.537	-0.2
767.713	0.16
767.889	-0.06
768.065	0.05
768.24	-0.01
768.416	0
768.592	-0.08
768.768	-0.04
768.944	0.1
769.12	-0.13
769.295	-0.12
769.471	-0.08
769.647	-0.09
769.823	0.29
769.998	-0.2
770.174	-0.15
770.35	0.33
770.525	0.16
770.701	0.01
770.877	-0.01
771.052	-0.09
771.228	0.1
771.403	0.03
771.579	0.07
771.755	0.31
771.93	0.01
772.106	-0.16
772.281	-0.2
772.457	-0.03
772.632	0.02
772.808	-0.16
772.983	-0.09
773.159	-0.26
773.334	0.08
773.509	-0.05
773.685	-0.2
773.86	0.28
774.036	0.14
774.211	0.14
774.386	-0.23
774.562	-0.02
774.737	0.03
774.912	-0.1
775.087	0
775.263	0.03
775.438	-0.06
775.613	-0.2
775.788	-0.02
775.964	0.06
776.139	0.49
776.314	-0.18
776.489	0.1
776.664	0.08
776.839	-0.07
777.014	0.02
777.19	0.21
777.365	0.13
777.54	0.22
777.715	-0.08
777.89	-0.01
778.065	-0.13
778.24	-0.01
778.415	-0.03
778.59	-0.17
778.765	-0.15
778.94	0.05
779.115	-0.14
779.289	-0.12
779.464	0.01
779.639	-0.12
779.814	-0.32
779.989	-0.17
780.164	0.25
780.339	-0.05
780.513	-0.09
780.688	-0.2
780.863	-0.03
781.038	0.13
781.212	-0.18
781.387	0.08
781.562	0.32
781.737	0.16
781.911	0.07
782.086	-0.16
782.261	-0.14
782.435	0.32
782.61	-0.21
782.784	-0.02
782.959	0.3
783.134	0.08
783.308	-0.35
783.483	-0.15
783.657	0.34
783.832	-0.09
784.006	-0.32
784.181	0.05
784.355	0.16
784.53	-0.14
784.704	-0.2
784.878	0.27
785.053	0.03
785.227	0.24
785.402	0.41
785.576	-0.37
785.75	-0.12
785.925	-0.04
786.099	-0.11
786.273	-0.15
786.448	0.29
786.622	0.11
786.796	-0.05
786.97	0.09
787.145	0.55
787.319	-0.04
787.493	-0.25
787.667	-0.31
787.841	-0.16
788.015	0.13
788.19	-0.3
788.364	-0.08
788.538	0.23
788.712	-0.1
788.886	-0.27
789.06	0.14
789.234	0.18
789.408	-0.3
789.582	-0.25
789.756	-0.11
789.93	-0.14
790.104	-0.11
790.278	-0.12
790.452	-0.22
790.626	0.13
790.8	-0.19
790.973	0.11
791.147	0.16
791.321	0.11
791.495	0.04
791.669	-0.06
791.843	0.23
792.016	0.19
792.19	0.27
792.364	-0.29
792.538	0.58
792.711	0.49
792.885	-0.16
793.059	-0.19
793.233	-0.53
793.406	0.03
793.58	0.05
793.754	-0.04
793.927	-0.11
794.101	0.37
794.274	0.06
794.448	0.08
794.622	-0.4
794.795	0.28
794.969	-0.21
795.142	0.11
795.316	-0.2
795.489	-0.2
795.663	0.37
795.836	-0.14
796.009	-0.41
796.183	0.25
796.356	0.09
796.53	-0.02
796.703	-0.02
796.876	0.49
797.05	-0.08
797.223	-0.1
797.396	-0.12
797.57	-0.04
797.743	0.25
797.916	0.03
798.09	-0.1
798.263	0.21
798.436	0.15
798.609	-0.23
798.782	-0.09
798.956	0.13
799.129	-0.05
799.302	-0.05
799.475	-0.28
799.648	-0.3
799.821	-0.51
799.994	0.25
800.167	-0.49
800.34	0
800.514	0.14
800.687	-0.02
800.86	-0.24
801.033	0.02
801.206	0.04
801.379	-0.55
801.551	0.37
801.724	-0.01
801.897	0.22
802.07	-0.01
802.243	-0.41
802.416	0.29
802.589	-0.25
802.762	-0.18
802.935	-0.02
803.107	0.01
803.28	0.3
803.453	0.29
803.626	-0.36
803.798	0.06
803.971	-0.16
804.144	-0.06
804.317	0.13
804.489	0.27
804.662	0.05
804.835	-0.18
805.007	-0.21
805.18	0.29
805.353	-0.13
805.525	-0.05
805.698	-0.04
805.87	0.36
806.043	0.11
806.215	-0.32
806.388	-0.18
806.56	0.1
806.733	0.31
806.905	-0.11
807.078	-0.07
807.25	-0.21
807.423	0.12
807.595	0.08
807.768	0.03
807.94	0.19
808.112	0.19
808.285	-0.1
808.457	-0.23
808.629	-0.15
808.802	0.39
808.974	-0.18
809.146	0.13
809.318	-0.35
809.491	0.16
809.663	-0
809.835	-0.07
810.007	-0.15
810.18	0.01
810.352	-0.3
810.524	-0.22
810.696	0.23
810.868	0.5
811.04	0.14
811.212	-0.12
811.384	0.56
811.556	0.1
811.728	-0.2
811.901	0.67
812.073	0.09
812.245	0.25
812.417	0
812.589	-0.69
812.76	-0.04
812.932	0.07
813.104	0.16
813.276	-0.5
813.448	0.47
813.62	0.01
813.792	-0.12
813.964	-0.23
814.136	0.19
814.307	-0.15
814.479	-0.25
814.651	0.01
814.823	0.19
814.995	0
815.166	-0.03
815.338	-0.41
815.51	-0.89
815.681	0.82
815.853	-0.12
816.025	-0.44
816.196	0.8
816.368	0.57
816.54	-0.68
816.711	-0.64
816.883	0.04
817.054	0.88
817.226	-0.57
817.398	0.09
817.569	-0.27
817.741	-0.01
817.912	-0.24
818.084	0.11
818.255	-0.18
818.426	-0.5
818.598	-0.04
818.769	-0.14
818.941	0.23
819.112	0.78
819.283	-0.27
819.455	-0.72
819.626	0.13
819.798	0.48
819.969	0.4
820.14	-0.6
820.311	0.09
820.483	0.19
820.654	0.34
820.825	-0.28
820.996	-0.24
821.168	0.06
821.339	-0.28
821.51	-0.54
821.681	-0.19
821.852	0.16
822.023	-0.45
822.195	-0.5
822.366	0.09
822.537	-0.1
822.708	-0.08
822.879	-0.3
823.05	0.7
823.221	-0.26
823.392	0.17
823.563	-0.38
823.734	-0.01
823.905	0.26
824.076	-0.44
824.247	-0.39
824.418	-0.85
824.589	0.41
824.759	0.1
824.93	-0.06
825.101	-0.98
825.272	0.3
825.443	0.11
825.614	0.55
825.784	-1.08
825.955	0.54
826.126	0.48
826.297	-0.06
826.467	0.19
826.638	0.98
826.809	-1.11
826.98	-0.27
827.15	0.17
827.321	-0.11
827.492	0.38
827.662	-0.15
827.833	0.45
828.003	0.21
828.174	-0.61
828.345	-0.62
828.515	0.75
828.686	0.13
828.856	-0.13
829.027	-0.1
829.197	-0.34
829.368	-0.1
829.538	-0.44
829.709	0.15
829.879	0.44
830.049	0.4
830.22	0.07
830.39	-0.34
830.56	1.12
830.731	-0.07
830.901	-0.26
831.072	-0.38
831.242	-0
831.412	0.19
831.582	0.16
831.753	-0.77
831.923	0.68
832.093	0.03
832.263	0.35
832.434	-0.57
832.604	-0.81
832.774	0.63
832.944	-0.27
833.114	-0.35
833.284	0.5
833.454	-0.39
833.624	-0.14
833.795	-0.39
833.965	0.42
834.135	1.1
834.305	-1.5
834.475	-0.89
834.645	0.02
834.815	-0.1
834.985	-0.71
835.155	-0.71
835.325	0.19
835.494	0.08
835.664	-0.82
835.834	-0.96
836.004	0.22
836.174	-0.43
836.344	-0.36
836.514	-1.04
836.684	-0.13
836.853	0.1
837.023	-0.02
837.193	-0.26
837.363	0.57
837.532	1.14
837.702	-0.16
837.872	-0.9
838.041	0.33
838.211	0.99
838.381	-0.82
838.55	-0.21
838.72	1.8
838.89	0.87
839.059	-0.31
839.229	-0.7
839.398	1.74
839.568	-0.3
839.738	-0.16
839.907	0.46
840.077	0.06
840.246	-0.8
840.416	-0.17
840.585	-0.63
840.755	1.39
840.924	1.15
841.093	-0.78
841.263	-0.25
841.432	-0.67
841.602	-1.01
841.771	-0.4
841.94	-0.08
842.11	1.64
842.279	0.99
842.448	-1.44
842.617	-0.7
842.787	1.31
842.956	-1.21
843.125	-0.73
843.294	0.01
843.464	1.43
843.633	0.12
843.802	-1.17
843.971	-0.75
844.14	1.15
844.309	0.64
844.479	-0.42
844.648	-0.4
844.817	-0.87
844.986	-0.54
845.155	-0.71
845.324	-0.17
845.493	-0.65
845.662	-1.05
845.831	0.48
846	-0.26
846.169	-0.07
846.338	1.32
846.507	0.74
846.676	-0.11
846.844	-0.54
847.013	-0.63
847.182	-0.63
847.351	-0.28
847.52	-0.8
847.689	0.07
847.858	-0.63
848.026	-0.06
848.195	0.65
848.364	-0.19
848.533	-1.26
848.701	-0.59
848.87	0.16
849.039	1.02
849.207	0.78
849.376	1.24
849.545	1.14
849.713	-0.58
849.882	-0.4
850.051	-0.12
850.219	1.54
850.388	1.51
850.556	-1.27
850.725	-1.08
850.893	0.06
851.062	-0.14
851.23	1.08
851.399	-1.34
851.567	-1.82
851.736	-0.69
851.904	-1.53
852.073	-0.4
852.241	1.03
852.41	-0.38
852.578	-0.14
852.746	-1.52
852.915	0.66
853.083	-0.59
853.251	-0.77
853.42	-0.82
853.588	-0.05
853.756	1.66
853.924	0.39
854.093	-0.52
854.261	-0.98
854.429	-0.91
854.597	0.58
854.765	-1.22
854.934	0.4
855.102	1.33
855.27	-0.53
855.438	0.89
855.606	-0.07
855.774	1.19
855.942	-1.45
856.11	-1.51
856.278	-0.01
856.446	1.21
856.614	-0.4
856.782	-0.69
856.95	0.4
857.118	1.48
857.286	-0.14
857.454	-0.01
857.622	1.07
857.79	0.25
857.958	-2.05
858.126	-0.37
858.294	-2.78
858.462	-0.14
858.629	-1.07
858.797	-1.18
858.965	-0.24
859.133	-0.06
859.301	0.32
859.468	1.06
859.636	-1.67
859.804	1.81
859.971	-0.38
860.139	-0.53
860.307	2.09
860.474	-0.87
860.642	-1.28
860.81	-0.74
860.977	-0.74
861.145	1.44
861.313	0.35
861.48	-0.89
861.648	0.34
861.815	0.43
861.983	-1.35
862.15	-1.05
862.318	-0.28
862.485	-0.02
862.653	-0.98
862.82	-1.31
862.988	0.73
863.155	0.72
863.322	-1.36
863.49	-0.9
863.657	-0.86
863.824	1.66
863.992	0.99
864.159	-0.74
864.326	0.52
864.494	-0.86
864.661	2.1
864.828	-2.21
864.996	1.02
865.163	1.35
865.33	-1.54
865.497	-1.59
865.664	-0.38
865.832	-1.33
865.999	-0.6
866.166	-1.21
866.333	-2.15
866.5	-1.74
866.667	-0.53
866.834	-0.78
867.001	1.71
867.168	-2.53
867.335	0.23
867.502	-2.53
867.669	0.99
867.836	2.41
868.003	-0.21
868.17	2.36
868.337	-0.93
868.504	2.92
868.671	-1.58
868.838	-1.36
869.005	0.89
869.172	1.2
869.339	0.23
869.505	-0.68
869.672	1.12
869.839	1.49
870.006	0.55
870.173	-1.36
870.339	0.22
870.506	1.47
870.673	-1.96
870.84	2.55
871.006	-0.62
871.173	-1.36
871.34	-1.76
871.506	-1.19
871.673	-0.33
871.839	-0.9
872.006	0.06
872.173	-0.18
872.339	0.36
872.506	2.32
872.672	0.71
872.839	-1.83
873.005	-0.15
873.172	4.5
873.338	1.92
873.505	-0.05
873.671	0.52
873.838	1.45
874.004	-2.28
874.171	-1.52
874.337	0.36
874.503	0.53
874.67	-0.81
874.836	-1.66
875.002	2.12
875.169	-0.21
875.335	-0.91
875.501	-0.67
875.668	0.82
875.834	0.63
876	-1.6
876.166	1.95
876.332	0.88
876.499	3.73
876.665	-0.66
876.831	0.03
876.997	4.02
877.163	1.48
877.329	-1.5
877.495	0.73
877.662	1.13
877.828	0.27
877.994	1.51
878.16	-4.29
878.326	-1.57
878.492	1.81
878.658	-1.32
878.824	-0.34
878.99	1.47
879.156	-0.97
879.322	0.63
879.487	0.39
879.653	0.02
879.819	0.28
879.985	-1.19
880.151	1.75
880.317	1.45
880.483	-0.34
880.648	0.41
880.814	-1.35
880.98	0.17
881.146	-2.12
881.312	-0.23
881.477	-0.94
881.643	0.24
881.809	1.94
881.974	0.77
882.14	-4.12
882.306	0.22
882.471	2.82
882.637	-1.28
882.803	0.56
882.968	2.41
883.134	2.22
883.299	-1.46
883.465	-0
883.63	0.33
883.796	0.67
883.961	-0.08
884.127	0.69
884.292	-4.03
884.458	-1.79
884.623	-1.79
