Data from Apollo_Calib_20240827__AbsoluteIrradiance__271__03-40-02-046.txt Node

Date: Wed Aug 28 03:40:02 BST 2024
User: biology
Spectrometer: FLMT08252
Trigger mode: 0
Integration Time (sec): 5.000000E-1
Scans to average: 5
Electric dark correction enabled: true
Nonlinearity correction enabled: false
Boxcar width: 0
XAxis mode: Wavelengths
Number of Pixels in Spectrum: 3648
>>>>>Begin Spectral Data<<<<<
179.588	-0
179.809	-0
180.03	-0
180.251	-0
180.473	-0
180.694	0
180.915	0
181.136	-0
181.357	0
181.578	-0
181.799	0
182.02	-0
182.241	0
182.462	-0
182.683	0
182.904	-0
183.125	-0
183.346	0
183.567	0
183.788	0
184.009	-0
184.23	0
184.451	0
184.672	-0
184.892	-0
185.113	0
185.334	0
185.555	0
185.776	-0
185.996	0
186.217	0
186.438	0
186.659	-0
186.879	0
187.1	-0
187.321	-0
187.541	-0
187.762	-0
187.983	0
188.203	0
188.424	0
188.644	-0
188.865	0
189.086	-0
189.306	-0
189.527	0
189.747	0
189.968	-0
190.188	0
190.409	0
190.629	0
190.849	-0
191.07	-0
191.29	0
191.511	0
191.731	-0
191.951	-0
192.172	0
192.392	0
192.612	-0
192.833	0
193.053	0
193.273	0
193.493	0
193.714	-0
193.934	0
194.154	0
194.374	0
194.594	0
194.815	0
195.035	0
195.255	0
195.475	-0
195.695	0
195.915	0
196.135	0
196.355	0
196.575	0
196.795	0
197.015	-0
197.235	-0
197.455	-0
197.675	0
197.895	-0
198.115	0
198.335	0
198.555	-0
198.775	0
198.995	0
199.214	0
199.434	0
199.654	-0
199.874	0
200.094	1.71
200.313	0.51
200.533	-0.77
200.753	-0.47
200.973	0.41
201.192	1.38
201.412	-1.03
201.632	-0.02
201.851	0.73
202.071	-0.36
202.291	-0.26
202.51	-0.64
202.73	0.66
202.95	-0.07
203.169	0.05
203.389	0.46
203.608	0.51
203.828	-0.29
204.047	0.03
204.267	0.31
204.486	0.53
204.706	0.79
204.925	-0.08
205.145	0.11
205.364	0.91
205.583	1.16
205.803	0.08
206.022	-0.22
206.242	0.36
206.461	0.52
206.68	-0.17
206.9	0.31
207.119	0.79
207.338	0.47
207.557	-0.12
207.777	-0.03
207.996	0.05
208.215	0.82
208.434	-0.29
208.654	-0.55
208.873	0.15
209.092	0.63
209.311	-0.1
209.53	-0.04
209.749	-0.12
209.968	0.2
210.187	-0.06
210.407	-0.26
210.626	0.34
210.845	0.49
211.064	0.26
211.283	-0.08
211.502	0.26
211.721	0.08
211.94	0.02
212.159	0.37
212.377	0.34
212.596	0.48
212.815	0.22
213.034	0.17
213.253	0.34
213.472	0.27
213.691	0.12
213.91	-0.2
214.128	-0.01
214.347	0.59
214.566	-0.2
214.785	-0.19
215.003	0.44
215.222	0.21
215.441	-0.04
215.66	-0.28
215.878	0.19
216.097	0.31
216.316	-0.06
216.534	-0.1
216.753	0.16
216.972	0.22
217.19	0.23
217.409	-0.06
217.627	-0.15
217.846	0.02
218.064	0.2
218.283	-0.04
218.501	0.57
218.72	0.44
218.938	0.09
219.157	-0.11
219.375	0.3
219.594	0.2
219.812	-0.04
220.031	-0.14
220.249	0.26
220.467	0.34
220.686	0.04
220.904	-0.17
221.122	-0.04
221.341	0.38
221.559	0.18
221.777	-0.06
221.995	0.06
222.214	0.25
222.432	0.09
222.65	0.19
222.868	0.13
223.086	0.15
223.305	0.2
223.523	0.04
223.741	0.39
223.959	0.06
224.177	-0.19
224.395	-0.14
224.613	0.15
224.831	0.34
225.049	-0.03
225.267	0.07
225.485	0.19
225.703	-0.11
225.921	0.05
226.139	-0.03
226.357	0.17
226.575	0.27
226.793	-0.04
227.011	0.71
227.229	0.15
227.447	0.19
227.665	0.09
227.883	-0.06
228.1	0.1
228.318	0.18
228.536	-0.14
228.754	0.02
228.972	0.2
229.189	0.1
229.407	0.03
229.625	0.09
229.843	0.26
230.06	0.17
230.278	-0.1
230.496	0.04
230.713	0.13
230.931	0.19
231.149	-0.01
231.366	-0.16
231.584	0.1
231.801	0.37
232.019	0.07
232.236	-0.08
232.454	-0.15
232.671	0.11
232.889	-0.02
233.106	-0.03
233.324	0.05
233.541	0.09
233.759	0.04
233.976	-0.07
234.194	0.01
234.411	0.05
234.628	-0.07
234.846	0.02
235.063	0.11
235.28	-0.03
235.498	-0.03
235.715	-0.1
235.932	0.22
236.149	0.02
236.367	-0.11
236.584	0.12
236.801	-0.03
237.018	0.07
237.236	0.1
237.453	-0.06
237.67	0.21
237.887	0.12
238.104	0.11
238.321	-0.08
238.538	-0.03
238.755	0.17
238.973	-0.13
239.19	-0
239.407	0.11
239.624	0.19
239.841	-0.14
240.058	-0.03
240.275	0.19
240.492	0.06
240.709	0.02
240.925	0.07
241.142	0.14
241.359	-0.08
241.576	-0.08
241.793	0.02
242.01	0.08
242.227	0.2
242.444	0.04
242.66	0.16
242.877	0.05
243.094	0.03
243.311	0.03
243.527	0.05
243.744	0.19
243.961	0.11
244.178	-0.01
244.394	0.04
244.611	0.14
244.828	0.28
245.044	-0.03
245.261	-0.02
245.477	0.07
245.694	0.04
245.911	-0.02
246.127	0.16
246.344	0.12
246.56	0.14
246.777	-0
246.993	0.03
247.21	0.06
247.426	0.11
247.643	-0.09
247.859	-0.01
248.076	0.01
248.292	0.37
248.508	0.04
248.725	0.06
248.941	0.13
249.157	0.17
249.374	0.03
249.59	0.01
249.806	0.11
250.023	0.06
250.239	0.01
250.455	-0.09
250.671	0.06
250.888	0.01
251.104	0.09
251.32	0.03
251.536	-0.02
251.752	0.01
251.969	0.07
252.185	0.03
252.401	0.23
252.617	0.08
252.833	0.02
253.049	-0.01
253.265	0.09
253.481	0.07
253.697	0.06
253.913	-0.1
254.129	0.06
254.345	0.08
254.561	-0.01
254.777	0.01
254.993	0.16
255.209	0.06
255.425	0.02
255.641	-0.04
255.857	0.12
256.073	0.2
256.288	-0.04
256.504	-0.05
256.72	0.08
256.936	0.19
257.152	-0.04
257.367	0.03
257.583	0.02
257.799	0.13
258.015	0.03
258.23	-0.04
258.446	0.17
258.662	0.11
258.877	-0.07
259.093	-0.07
259.309	0.05
259.524	0.03
259.74	-0.05
259.955	-0.01
260.171	0.07
260.387	0.08
260.602	0.08
260.818	0.05
261.033	-0.09
261.249	0.02
261.464	-0.03
261.68	-0
261.895	0.12
262.11	0.12
262.326	-0.03
262.541	-0.11
262.757	0.1
262.972	0.11
263.187	0.09
263.403	0.06
263.618	0
263.833	0.1
264.049	0.02
264.264	0.05
264.479	0.07
264.694	0.19
264.91	-0.06
265.125	0.02
265.34	0.11
265.555	0.19
265.77	0.12
265.986	-0.02
266.201	0.11
266.416	0.1
266.631	0.04
266.846	0.06
267.061	0.06
267.276	0.11
267.491	-0.06
267.706	0.05
267.921	0.08
268.136	0.04
268.351	0.08
268.566	-0.03
268.781	0.15
268.996	0.06
269.211	0.05
269.426	-0.05
269.641	-0.03
269.856	0.1
270.071	0.05
270.285	-0.07
270.5	0.1
270.715	0.09
270.93	0.04
271.145	0.08
271.359	0.12
271.574	-0.02
271.789	-0.02
272.004	-0.1
272.218	0.01
272.433	0.11
272.648	0.03
272.862	0.11
273.077	-0.01
273.292	0.06
273.506	0
273.721	0.01
273.936	0.06
274.15	0.16
274.365	-0.03
274.579	0.06
274.794	0.02
275.008	0.09
275.223	-0.09
275.437	0.05
275.652	0.09
275.866	0.05
276.081	0.02
276.295	0.11
276.509	0.08
276.724	0.1
276.938	0.05
277.153	0.08
277.367	0.21
277.581	0.02
277.796	0.03
278.01	0.06
278.224	0.02
278.438	0.17
278.653	-0.13
278.867	0.05
279.081	-0.13
279.295	-0.03
279.51	0.1
279.724	-0.07
279.938	0.12
280.152	0.07
280.366	-0.01
280.58	0.04
280.794	0.09
281.008	0.09
281.222	0.07
281.437	0.14
281.651	0.06
281.865	0.06
282.079	0.02
282.293	-0.04
282.507	0
282.721	0.03
282.935	0.02
283.148	-0.03
283.362	-0.03
283.576	-0.03
283.79	0.05
284.004	-0.04
284.218	0.13
284.432	-0
284.646	0.05
284.859	-0
285.073	0.03
285.287	0.05
285.501	0.05
285.714	0.03
285.928	0.02
286.142	-0
286.356	0.03
286.569	0.02
286.783	0.1
286.997	0.07
287.21	0.01
287.424	0.05
287.637	0.08
287.851	0.05
288.065	0.05
288.278	0.01
288.492	-0.01
288.705	-0.01
288.919	0.06
289.132	-0.02
289.346	0.1
289.559	-0.06
289.773	-0.01
289.986	0.03
290.2	0.04
290.413	0.11
290.626	0.01
290.84	0.02
291.053	0.07
291.267	0.08
291.48	0.05
291.693	0.04
291.906	-0.01
292.12	0.03
292.333	-0.03
292.546	0.02
292.76	0.13
292.973	0.07
293.186	0.08
293.399	-0.01
293.612	0.11
293.826	-0.02
294.039	0.04
294.252	0.01
294.465	0.06
294.678	0.08
294.891	0.04
295.104	0.02
295.317	0.03
295.53	0.04
295.743	0.06
295.956	0.04
296.169	0.05
296.382	0.08
296.595	0.04
296.808	0.01
297.021	0.11
297.234	0.11
297.447	0.07
297.66	0.02
297.873	0.11
298.086	0.06
298.299	-0.01
298.511	-0.02
298.724	0.01
298.937	-0.05
299.15	0.03
299.363	0.04
299.575	0.1
299.788	0.07
300.001	0.03
300.213	-0.02
300.426	0.02
300.639	-0.01
300.852	-0
301.064	0.05
301.277	0.08
301.489	0.1
301.702	0.1
301.915	0.03
302.127	0.05
302.34	0.08
302.552	0.08
302.765	-0.03
302.977	0.08
303.19	0
303.402	0.03
303.615	-0.01
303.827	0.05
304.04	0.03
304.252	0.07
304.464	0.03
304.677	0.15
304.889	0.1
305.102	0.04
305.314	0.03
305.526	0.09
305.739	0.08
305.951	-0
306.163	0.04
306.375	0.12
306.588	0.01
306.8	0.02
307.012	0
307.224	0.11
307.436	0.12
307.649	-0.04
307.861	0.08
308.073	0.11
308.285	0
308.497	0
308.709	0.02
308.921	0.05
309.133	0.06
309.346	0.06
309.558	0.02
309.77	0.09
309.982	0.12
310.194	0.08
310.406	0.04
310.617	0.17
310.829	0.08
311.041	0.07
311.253	0.01
311.465	0.05
311.677	-0.01
311.889	0.08
312.101	-0.01
312.313	0.1
312.524	0.09
312.736	-0.04
312.948	0.04
313.16	0.15
313.372	0.08
313.583	0.04
313.795	0.04
314.007	0.01
314.218	0.05
314.43	0.04
314.642	-0.01
314.853	0
315.065	0.12
315.277	0.02
315.488	0.04
315.7	0.07
315.912	0.06
316.123	0
316.335	0.01
316.546	0.15
316.758	0.01
316.969	0.01
317.181	0.06
317.392	0.01
317.604	0.1
317.815	-0
318.026	0.03
318.238	0.03
318.449	0.07
318.661	-0.02
318.872	-0.01
319.083	-0.01
319.295	0.11
319.506	0.03
319.717	0.03
319.929	0.11
320.14	0.06
320.351	0.01
320.562	-0
320.774	0.04
320.985	0.01
321.196	-0.02
321.407	-0.05
321.618	0.1
321.829	0.06
322.041	0.09
322.252	0.01
322.463	0.08
322.674	0.05
322.885	-0.02
323.096	-0.03
323.307	0.02
323.518	0.04
323.729	0
323.94	0.01
324.151	0.06
324.362	0.08
324.573	0.05
324.784	-0.02
324.995	0.09
325.206	0.05
325.417	0.02
325.628	0.03
325.838	0.1
326.049	0.08
326.26	0.06
326.471	0.03
326.682	0.06
326.892	0.03
327.103	-0.02
327.314	0
327.525	0.1
327.735	0.09
327.946	0.01
328.157	0.02
328.368	0.03
328.578	0.05
328.789	0.07
328.999	0.05
329.21	0.02
329.421	0.03
329.631	0.03
329.842	0.01
330.052	0.07
330.263	0.11
330.473	0.06
330.684	0.03
330.894	0.06
331.105	0.09
331.315	0.08
331.526	-0.03
331.736	0.13
331.947	0.04
332.157	0.06
332.367	0.01
332.578	0.05
332.788	0.08
332.999	0.13
333.209	0.07
333.419	-0.02
333.629	0.08
333.84	0.08
334.05	0.05
334.26	0.11
334.47	0.04
334.681	0.08
334.891	0.01
335.101	0.08
335.311	0.11
335.521	0.06
335.732	0.01
335.942	0.08
336.152	0.1
336.362	0.04
336.572	0.02
336.782	0.06
336.992	0.01
337.202	0.04
337.412	0.03
337.622	0.11
337.832	0.02
338.042	0.04
338.252	-0.01
338.462	0.01
338.672	0.06
338.882	-0.03
339.092	-0.02
339.302	0.1
339.511	0.15
339.721	-0.01
339.931	-0
340.141	0.1
340.351	0.09
340.561	0.08
340.77	0.03
340.98	0.07
341.19	0.07
341.4	0.05
341.609	-0.01
341.819	0.06
342.029	0
342.238	0.03
342.448	0.02
342.658	0.08
342.867	0.06
343.077	0.06
343.286	0.1
343.496	0.07
343.706	0.14
343.915	0.03
344.125	0.02
344.334	0.09
344.544	-0.01
344.753	0
344.963	-0.01
345.172	0.02
345.381	0.03
345.591	0.01
345.8	0.05
346.01	0.11
346.219	0.05
346.428	-0.1
346.638	0.03
346.847	0.04
347.056	0.11
347.266	0.01
347.475	0.1
347.684	0.04
347.893	0.09
348.103	0.05
348.312	0.03
348.521	0.05
348.73	0.07
348.94	0.05
349.149	0.02
349.358	0.04
349.567	0.04
349.776	-0.01
349.985	0.03
350.194	0.1
350.403	0.07
350.612	0.02
350.821	0.04
351.03	0.03
351.239	-0.01
351.448	0.08
351.657	-0.02
351.866	0.13
352.075	0.06
352.284	0.1
352.493	-0.01
352.702	0.12
352.911	0.02
353.12	0.05
353.329	0.05
353.538	0.06
353.746	0.05
353.955	0.01
354.164	0.07
354.373	0.03
354.582	0.09
354.79	0.08
354.999	0.1
355.208	0.02
355.416	0.13
355.625	-0
355.834	0.05
356.042	0.04
356.251	0
356.46	0
356.668	0.07
356.877	0.16
357.085	0.11
357.294	0.01
357.503	0.1
357.711	0.06
357.92	0.17
358.128	0.08
358.337	0.01
358.545	0.09
358.754	-0.01
358.962	0.08
359.17	0.03
359.379	0.09
359.587	0.05
359.796	0.04
360.004	0.14
360.212	0.08
360.421	0.11
360.629	0.04
360.837	0.04
361.046	0.08
361.254	0.15
361.462	0.08
361.67	0.04
361.879	0.08
362.087	0.09
362.295	0.07
362.503	0.04
362.711	0.01
362.92	0.01
363.128	0
363.336	0.01
363.544	0
363.752	0.08
363.96	0.04
364.168	0.02
364.376	0.05
364.584	0.08
364.792	0.09
365	0.07
365.208	0.06
365.416	0.06
365.624	0.07
365.832	0.02
366.04	0.12
366.248	0.05
366.456	0.05
366.664	0.06
366.872	0.03
367.079	0.06
367.287	0.04
367.495	0.05
367.703	0.04
367.911	0.02
368.118	0.05
368.326	0.04
368.534	0
368.742	0.14
368.949	0.02
369.157	0.04
369.365	0.12
369.572	0.02
369.78	0
369.988	0.1
370.195	0.08
370.403	0.1
370.61	0.05
370.818	0.06
371.026	0.15
371.233	0.02
371.441	0.1
371.648	0.03
371.856	0.06
372.063	0.06
372.271	0.04
372.478	0
372.685	0.02
372.893	0.1
373.1	0.05
373.308	0
373.515	0.14
373.722	0.08
373.93	0.03
374.137	0.09
374.344	0.14
374.552	0.05
374.759	0.07
374.966	0.05
375.173	0.08
375.381	0.1
375.588	0.07
375.795	-0
376.002	0.03
376.209	0.03
376.417	0.03
376.624	0.05
376.831	0.1
377.038	0.04
377.245	-0.05
377.452	0.05
377.659	0.05
377.866	0.05
378.073	0.07
378.28	0.04
378.487	0.07
378.694	0.07
378.901	0.05
379.108	0.04
379.315	0.12
379.522	0.16
379.729	0.07
379.936	0.05
380.143	0.06
380.35	0.09
380.557	0.05
380.763	0.09
380.97	0.06
381.177	0.08
381.384	0.11
381.591	0.05
381.797	0.1
382.004	0.12
382.211	0.14
382.418	0.05
382.624	0.13
382.831	0.12
383.038	0.05
383.244	0.07
383.451	0.04
383.658	0.1
383.864	0.08
384.071	0.06
384.277	0.17
384.484	0.05
384.69	0.09
384.897	0.09
385.103	0.07
385.31	0.05
385.516	0.06
385.723	0.06
385.929	0.07
386.136	0.06
386.342	0.13
386.549	0.03
386.755	0.15
386.961	0.11
387.168	0.08
387.374	0.12
387.58	0.1
387.787	0.11
387.993	0.15
388.199	0.09
388.406	0.05
388.612	0.05
388.818	0.05
389.024	0.06
389.231	0.09
389.437	0.16
389.643	0.11
389.849	0.12
390.055	0.08
390.261	0.11
390.467	0.12
390.674	0.06
390.88	0.08
391.086	0.19
391.292	0.07
391.498	0.12
391.704	0.1
391.91	0.11
392.116	0.09
392.322	0.1
392.528	0.19
392.734	0.11
392.94	0.17
393.146	0.15
393.352	0.13
393.557	0.16
393.763	0.18
393.969	0.25
394.175	0.13
394.381	0.16
394.587	0.13
394.792	0.21
394.998	0.23
395.204	0.24
395.41	0.15
395.615	0.19
395.821	0.22
396.027	0.2
396.233	0.21
396.438	0.2
396.644	0.36
396.85	0.31
397.055	0.19
397.261	0.26
397.466	0.25
397.672	0.3
397.878	0.32
398.083	0.32
398.289	0.28
398.494	0.34
398.7	0.36
398.905	0.26
399.111	0.39
399.316	0.34
399.522	0.37
399.727	0.38
399.932	0.38
400.138	0.37
400.343	0.47
400.549	0.39
400.754	0.46
400.959	0.47
401.165	0.48
401.37	0.48
401.575	0.5
401.78	0.52
401.986	0.58
402.191	0.58
402.396	0.6
402.601	0.76
402.807	0.79
403.012	0.77
403.217	0.79
403.422	0.77
403.627	0.84
403.832	0.88
404.037	0.98
404.243	1.02
404.448	0.98
404.653	1
404.858	1.08
405.063	1.11
405.268	1.16
405.473	1.16
405.678	1.24
405.883	1.53
406.088	1.48
406.293	1.4
406.498	1.53
406.703	1.61
406.907	1.68
407.112	1.76
407.317	1.89
407.522	1.96
407.727	1.99
407.932	2.14
408.136	2.34
408.341	2.33
408.546	2.43
408.751	2.53
408.956	2.64
409.16	2.82
409.365	2.87
409.57	2.97
409.774	3.03
409.979	3.29
410.184	3.29
410.388	3.39
410.593	3.67
410.798	3.76
411.002	3.92
411.207	4.1
411.411	4.31
411.616	4.29
411.82	4.64
412.025	4.78
412.229	4.95
412.434	5.15
412.638	5.33
412.843	5.43
413.047	5.65
413.252	5.77
413.456	6.13
413.66	6.31
413.865	6.42
414.069	6.51
414.273	6.85
414.478	7
414.682	7.25
414.886	7.52
415.091	7.63
415.295	7.93
415.499	8.28
415.703	8.36
415.908	8.68
416.112	8.75
416.316	9.37
416.52	9.59
416.724	9.73
416.929	10.03
417.133	10.69
417.337	10.53
417.541	10.97
417.745	11.02
417.949	11.25
418.153	11.82
418.357	12.09
418.561	12.58
418.765	12.76
418.969	12.99
419.173	13.58
419.377	13.62
419.581	14.12
419.785	14.58
419.989	14.54
420.193	15.09
420.397	15.22
420.601	15.63
420.804	15.87
421.008	15.74
421.212	16.16
421.416	15.91
421.62	15.93
421.823	16.04
422.027	16.08
422.231	15.97
422.435	15.81
422.638	15.68
422.842	15.83
423.046	16.05
423.249	16.23
423.453	15.81
423.657	16.05
423.86	16.22
424.064	16.22
424.268	16.11
424.471	15.96
424.675	16.05
424.878	15.84
425.082	15.79
425.285	16.32
425.489	15.61
425.692	15.39
425.896	15.01
426.099	14.98
426.303	15.04
426.506	14.78
426.71	14.87
426.913	14.77
427.116	14.56
427.32	13.98
427.523	13.63
427.726	13.79
427.93	13.53
428.133	13.6
428.336	13.43
428.54	13.06
428.743	12.89
428.946	12.94
429.149	12.37
429.353	11.86
429.556	11.56
429.759	11.21
429.962	10.87
430.165	10.77
430.368	9.8
430.571	9.4
430.775	9.21
430.978	8.84
431.181	8.67
431.384	8.33
431.587	8.07
431.79	8.07
431.993	7.82
432.196	7.75
432.399	7.74
432.602	7.62
432.805	7.35
433.008	7.54
433.211	7.16
433.414	7.16
433.616	6.94
433.819	6.62
434.022	6.47
434.225	6.42
434.428	6.11
434.631	6.26
434.833	5.84
435.036	5.77
435.239	5.72
435.442	5.53
435.645	5.43
435.847	5.3
436.05	5.29
436.253	5.18
436.455	5
436.658	4.78
436.861	4.84
437.063	4.66
437.266	4.53
437.468	4.47
437.671	4.41
437.874	4.29
438.076	4.05
438.279	4
438.481	4.05
438.684	4.02
438.886	3.75
439.089	3.7
439.291	3.66
439.494	3.59
439.696	3.48
439.899	3.5
440.101	3.52
440.303	3.38
440.506	3.46
440.708	3.3
440.91	3.22
441.113	2.99
441.315	3.06
441.517	2.84
441.72	2.97
441.922	2.69
442.124	2.62
442.326	2.61
442.529	2.66
442.731	2.38
442.933	2.5
443.135	2.26
443.337	2.19
443.539	2.14
443.742	2.06
443.944	2.1
444.146	2.03
444.348	1.89
444.55	1.87
444.752	1.8
444.954	1.72
445.156	1.76
445.358	1.67
445.56	1.76
445.762	1.62
445.964	1.53
446.166	1.47
446.368	1.47
446.57	1.47
446.772	1.4
446.974	1.35
447.175	1.38
447.377	1.25
447.579	1.37
447.781	1.17
447.983	1.3
448.184	1.18
448.386	1.2
448.588	1.03
448.79	1.1
448.991	1.09
449.193	1.01
449.395	1.01
449.597	1.12
449.798	1.01
450	0.96
450.202	0.96
450.403	0.92
450.605	0.97
450.806	0.88
451.008	0.76
451.21	0.81
451.411	0.8
451.613	0.69
451.814	0.82
452.016	0.81
452.217	0.75
452.419	0.81
452.62	0.71
452.821	0.73
453.023	0.81
453.224	0.75
453.426	0.66
453.627	0.7
453.828	0.64
454.03	0.65
454.231	0.69
454.432	0.62
454.634	0.72
454.835	0.61
455.036	0.57
455.238	0.6
455.439	0.63
455.64	0.5
455.841	0.51
456.042	0.65
456.244	0.58
456.445	0.49
456.646	0.44
456.847	0.51
457.048	0.44
457.249	0.52
457.45	0.73
457.651	0.39
457.852	0.49
458.054	0.44
458.255	0.43
458.456	0.41
458.657	0.46
458.858	0.33
459.058	0.39
459.259	0.51
459.46	0.36
459.661	0.34
459.862	0.46
460.063	0.32
460.264	0.42
460.465	0.3
460.666	0.47
460.866	0.32
461.067	0.34
461.268	0.26
461.469	0.33
461.67	0.3
461.87	0.27
462.071	0.31
462.272	0.25
462.473	0.28
462.673	0.38
462.874	0.24
463.075	0.29
463.275	0.25
463.476	0.29
463.676	0.24
463.877	0.27
464.078	0.23
464.278	0.29
464.479	0.22
464.679	0.27
464.88	0.22
465.08	0.35
465.281	0.25
465.481	0.2
465.682	0.21
465.882	0.22
466.083	0.22
466.283	0.23
466.483	0.21
466.684	0.21
466.884	0.19
467.085	0.22
467.285	0.29
467.485	0.18
467.686	0.15
467.886	0.13
468.086	0.2
468.286	0.18
468.487	0.23
468.687	0.13
468.887	0.17
469.087	0.22
469.287	0.18
469.488	0.08
469.688	0.19
469.888	0.21
470.088	0.2
470.288	0.24
470.488	0.2
470.688	0.13
470.888	0.13
471.088	0.15
471.288	0.21
471.488	0.17
471.688	0.19
471.888	0.11
472.088	0.22
472.288	0.15
472.488	0.11
472.688	0.13
472.888	0.13
473.088	0.17
473.288	0.15
473.488	0.09
473.688	0.23
473.887	0.14
474.087	0.08
474.287	0.13
474.487	0.08
474.687	0.13
474.886	0.11
475.086	0.12
475.286	0.12
475.486	0.09
475.685	0.12
475.885	0.1
476.085	0.1
476.284	0.19
476.484	0.11
476.684	0.15
476.883	0.15
477.083	0.14
477.282	0.07
477.482	0.14
477.681	0.16
477.881	0.12
478.08	0.06
478.28	0.1
478.479	0.1
478.679	0.17
478.878	0.07
479.078	0.07
479.277	0.09
479.477	0.09
479.676	0.12
479.875	0.03
480.075	0.03
480.274	0.08
480.473	0.11
480.673	0.06
480.872	0.12
481.071	0.11
481.271	0.08
481.47	0.08
481.669	0.1
481.868	0.04
482.067	0.05
482.267	0.06
482.466	0.03
482.665	0.06
482.864	0.02
483.063	0.07
483.262	0.09
483.461	0.12
483.661	0.13
483.86	0.07
484.059	0.07
484.258	0.08
484.457	0.08
484.656	0.08
484.855	0.15
485.054	0.02
485.253	0.06
485.452	0.02
485.651	0.07
485.849	0.09
486.048	0.05
486.247	0.03
486.446	0.07
486.645	0.02
486.844	0.04
487.043	0.03
487.241	0.08
487.44	0.03
487.639	0.06
487.838	0.07
488.037	0.08
488.235	0.12
488.434	0.06
488.633	0.04
488.831	0.07
489.03	0.09
489.229	0.07
489.427	0.03
489.626	0.09
489.825	0.09
490.023	0.06
490.222	0.03
490.42	0.09
490.619	0.09
490.817	0.06
491.016	0.06
491.214	0.09
491.413	0.04
491.611	0.06
491.81	0.05
492.008	0.09
492.207	0.07
492.405	0.05
492.604	0.01
492.802	0.02
493	0.07
493.199	0.02
493.397	0.05
493.595	0.05
493.794	0.04
493.992	0.11
494.19	0.03
494.388	0.08
494.587	0.03
494.785	0.07
494.983	0.01
495.181	0.04
495.379	0.07
495.578	0.05
495.776	0.06
495.974	0.05
496.172	0.03
496.37	0.03
496.568	0.02
496.766	0.03
496.964	0.06
497.162	0.02
497.36	0.03
497.558	0.03
497.756	0.08
497.954	0.03
498.152	0.03
498.35	0.04
498.548	0.03
498.746	0.04
498.944	0.02
499.142	0.03
499.34	0
499.538	0.03
499.736	0
499.933	0.06
500.131	0.06
500.329	0.05
500.527	0.07
500.725	0.07
500.922	0.05
501.12	0.05
501.318	0.06
501.516	0.03
501.713	0.03
501.911	0.03
502.109	0.02
502.306	0.03
502.504	0.01
502.701	0.04
502.899	0.03
503.097	0.09
503.294	0.06
503.492	0.03
503.689	0.06
503.887	0.05
504.084	0.09
504.282	0.03
504.479	0.03
504.677	0.04
504.874	0.01
505.072	0.04
505.269	0.03
505.466	0.04
505.664	0.07
505.861	-0
506.059	0.01
506.256	0.07
506.453	0.01
506.651	0.05
506.848	0.02
507.045	0.06
507.242	0.04
507.44	0.04
507.637	0.02
507.834	0.04
508.031	0.06
508.229	0
508.426	0.01
508.623	0.04
508.82	0.02
509.017	0
509.214	0.02
509.411	0.03
509.608	0.02
509.805	0.03
510.003	0.03
510.2	0.01
510.397	0.07
510.594	0.01
510.791	0.02
510.988	0.02
511.184	0.07
511.381	0.04
511.578	0.01
511.775	0.06
511.972	0.01
512.169	0.03
512.366	0.01
512.563	0.05
512.76	0.01
512.956	0.05
513.153	-0
513.35	0.04
513.547	0.03
513.744	0.01
513.94	-0.01
514.137	0.05
514.334	0.03
514.53	0.03
514.727	0.04
514.924	0.09
515.12	0.01
515.317	-0.01
515.514	0.02
515.71	0.01
515.907	0.02
516.103	0.03
516.3	0.02
516.497	0.07
516.693	0.07
516.89	0.04
517.086	0.01
517.283	0.03
517.479	0.05
517.676	0.04
517.872	0.02
518.068	0.04
518.265	0.02
518.461	-0.01
518.658	0.01
518.854	0.03
519.05	0.03
519.247	0
519.443	0.04
519.639	0.05
519.836	0.02
520.032	0.04
520.228	0.02
520.424	0.08
520.621	0.04
520.817	0.03
521.013	0.02
521.209	0.04
521.405	0.1
521.601	0.03
521.798	0.03
521.994	0.06
522.19	-0.01
522.386	-0
522.582	0.03
522.778	0.02
522.974	0.02
523.17	0.03
523.366	0.05
523.562	0.05
523.758	0.04
523.954	0
524.15	0.02
524.346	0.05
524.542	0.02
524.738	0.01
524.934	0.01
525.129	0
525.325	0.02
525.521	0.01
525.717	0.05
525.913	0.03
526.109	0.05
526.304	0.03
526.5	0.03
526.696	0.07
526.892	0.03
527.087	0.02
527.283	-0
527.479	0.04
527.674	0.02
527.87	0.02
528.066	-0.01
528.261	0.06
528.457	0.04
528.653	0.04
528.848	0.03
529.044	0.02
529.239	0.02
529.435	0.06
529.63	0.03
529.826	0.05
530.021	0.03
530.217	0.03
530.412	0.01
530.608	0
530.803	0.01
530.999	0.02
531.194	-0.02
531.389	0.04
531.585	-0.02
531.78	0.03
531.975	0.02
532.171	0.03
532.366	-0
532.561	0.02
532.757	0
532.952	0.01
533.147	0.05
533.342	0.02
533.538	0
533.733	0.05
533.928	0.02
534.123	-0
534.318	-0.01
534.513	-0
534.709	0.02
534.904	0.02
535.099	0.02
535.294	0.01
535.489	0.01
535.684	-0.01
535.879	-0.01
536.074	0.03
536.269	-0.02
536.464	0.04
536.659	0.01
536.854	0.03
537.049	0.04
537.244	0.03
537.439	0.01
537.634	0.04
537.828	0.03
538.023	0.02
538.218	-0.02
538.413	0.03
538.608	-0.01
538.803	0.01
538.997	-0.04
539.192	0.07
539.387	0.04
539.582	0.03
539.776	0.02
539.971	0
540.166	0.04
540.36	-0.01
540.555	0.02
540.75	0.01
540.944	0.03
541.139	-0.01
541.334	0.01
541.528	0.04
541.723	0.06
541.917	0.01
542.112	-0.03
542.306	-0
542.501	0.02
542.695	0.03
542.89	0.01
543.084	0.03
543.279	0.01
543.473	0.01
543.668	0.01
543.862	0.02
544.056	0.03
544.251	0.02
544.445	0.03
544.64	0.01
544.834	-0.01
545.028	0.03
545.222	0.03
545.417	0.04
545.611	0.04
545.805	0.02
546	-0
546.194	0
546.388	0.02
546.582	0.02
546.776	0.01
546.97	0.03
547.165	0.03
547.359	0.02
547.553	0.02
547.747	0.02
547.941	0.03
548.135	0.01
548.329	0.04
548.523	0.02
548.717	0.01
548.911	0.01
549.105	0.01
549.299	0.02
549.493	0.03
549.687	0.03
549.881	0.06
550.075	0.02
550.269	-0.03
550.463	0.05
550.657	0
550.85	0.01
551.044	-0
551.238	0.02
551.432	0
551.626	-0
551.82	0.04
552.013	0.01
552.207	0.04
552.401	0.05
552.594	0.02
552.788	0
552.982	0
553.176	-0.02
553.369	0.03
553.563	0.01
553.756	-0.03
553.95	-0.01
554.144	0.02
554.337	0.04
554.531	0.01
554.724	0.01
554.918	0.01
555.111	0.05
555.305	0.04
555.498	0.07
555.692	0.04
555.885	-0
556.079	0.03
556.272	-0
556.466	0.04
556.659	0.03
556.852	0.02
557.046	0
557.239	0.03
557.432	-0.02
557.626	-0.01
557.819	0.06
558.012	0.03
558.206	0.03
558.399	0.03
558.592	0.02
558.785	0.01
558.979	0.04
559.172	0.02
559.365	0.07
559.558	0.01
559.751	0.01
559.944	0.02
560.138	0.01
560.331	-0.01
560.524	-0.03
560.717	0.02
560.91	0.01
561.103	0.02
561.296	0.02
561.489	0.01
561.682	0.04
561.875	0.06
562.068	0.01
562.261	0.01
562.454	0.05
562.647	0.03
562.84	0.01
563.032	0.02
563.225	0.03
563.418	0.02
563.611	-0.03
563.804	0.02
563.997	-0.02
564.19	-0.03
564.382	0.03
564.575	0.01
564.768	0.02
564.961	0.02
565.153	-0.01
565.346	0.04
565.539	0.04
565.731	0.05
565.924	0.02
566.117	0.03
566.309	0.02
566.502	-0
566.695	0.01
566.887	-0
567.08	-0.01
567.272	-0.01
567.465	-0
567.657	-0
567.85	0.03
568.042	0.03
568.235	0.03
568.427	0.02
568.62	0.02
568.812	0.02
569.005	0.03
569.197	-0.02
569.389	0.04
569.582	0.03
569.774	0.01
569.966	-0.02
570.159	-0.03
570.351	0.02
570.543	-0.02
570.736	0.02
570.928	-0.02
571.12	0.02
571.312	-0.01
571.505	-0.02
571.697	0.06
571.889	-0.02
572.081	-0.02
572.273	-0.01
572.465	0.03
572.658	0.01
572.85	0.03
573.042	0.02
573.234	0.02
573.426	0.04
573.618	-0.02
573.81	0.03
574.002	0.03
574.194	0.08
574.386	-0.03
574.578	-0.06
574.77	-0.01
574.962	0.02
575.154	-0.03
575.346	0
575.538	0.01
575.729	-0.02
575.921	-0
576.113	-0
576.305	0.03
576.497	0.02
576.689	0.01
576.88	-0.01
577.072	0.03
577.264	0.02
577.456	0
577.647	-0.05
577.839	-0.01
578.031	0.04
578.223	-0
578.414	-0.02
578.606	0.05
578.798	-0.01
578.989	-0.01
579.181	-0
579.372	0
579.564	0
579.755	0
579.947	0.02
580.139	0.04
580.33	-0.06
580.522	-0.01
580.713	-0.08
580.905	0.01
581.096	0.03
581.287	0.01
581.479	0.02
581.67	0.03
581.862	0.01
582.053	-0.03
582.244	-0.05
582.436	-0
582.627	0.02
582.818	-0.03
583.01	-0.02
583.201	0.02
583.392	0.04
583.583	0.02
583.775	-0.01
583.966	-0
584.157	0.02
584.348	-0.01
584.54	-0.03
584.731	0.02
584.922	0.01
585.113	-0.03
585.304	0.04
585.495	0.06
585.686	0.03
585.877	0.03
586.068	0.03
586.259	-0
586.45	0.03
586.641	-0
586.832	-0.07
587.023	0.01
587.214	0.02
587.405	0.02
587.596	-0.01
587.787	0.04
587.978	0.02
588.169	-0.02
588.36	-0.01
588.551	0.04
588.742	-0.02
588.932	0.02
589.123	0.02
589.314	0.04
589.505	0.01
589.696	0.02
589.886	-0.03
590.077	-0.02
590.268	-0
590.458	-0.03
590.649	-0.03
590.84	0.03
591.03	-0.01
591.221	-0.01
591.412	-0.05
591.602	0.05
591.793	0.05
591.984	-0.04
592.174	-0.01
592.365	0.07
592.555	-0
592.746	0.03
592.936	0.02
593.127	0.02
593.317	0.02
593.508	-0.04
593.698	-0.01
593.889	0.01
594.079	0.02
594.269	0
594.46	0.01
594.65	-0
594.84	0.01
595.031	-0.04
595.221	-0.02
595.411	-0.03
595.602	0.03
595.792	0.01
595.982	-0.05
596.172	0.08
596.363	0.02
596.553	0.01
596.743	-0
596.933	-0.01
597.123	0.05
597.314	-0.01
597.504	-0
597.694	0.03
597.884	0.04
598.074	-0.03
598.264	-0.03
598.454	0.01
598.644	0
598.834	0.01
599.024	-0.08
599.214	-0
599.404	0.04
599.594	0
599.784	-0.01
599.974	0.04
600.164	0.04
600.354	-0.03
600.544	-0.02
600.734	0.03
600.924	0.03
601.114	-0.03
601.303	-0.01
601.493	0.03
601.683	0.01
601.873	0
602.063	-0.02
602.252	0.03
602.442	-0.05
602.632	-0.03
602.821	-0.04
603.011	0.02
603.201	-0.01
603.39	-0.01
603.58	0.01
603.77	0.04
603.959	0.05
604.149	0.01
604.339	-0.01
604.528	0.05
604.718	0.02
604.907	-0.01
605.097	-0.02
605.286	-0.03
605.476	0.01
605.665	0.04
605.855	0
606.044	0.08
606.234	0.02
606.423	-0.01
606.612	-0.04
606.802	-0.01
606.991	0.04
607.181	0.02
607.37	-0.03
607.559	-0
607.749	-0.04
607.938	-0.01
608.127	-0
608.316	-0.03
608.506	-0.01
608.695	0.01
608.884	-0
609.073	0.01
609.263	0.02
609.452	0.04
609.641	0.03
609.83	-0.03
610.019	-0.01
610.208	-0.03
610.397	-0.02
610.586	0.03
610.775	-0.02
610.965	-0.02
611.154	-0.02
611.343	0.01
611.532	0.03
611.721	-0.04
611.91	-0.04
612.099	-0
612.287	-0.02
612.476	-0.03
612.665	0.02
612.854	-0
613.043	0.05
613.232	0.02
613.421	-0.03
613.61	0.06
613.798	-0.02
613.987	0.02
614.176	0.02
614.365	0.03
614.554	0.01
614.742	0.06
614.931	-0.02
615.12	0.01
615.309	0.01
615.497	0.02
615.686	-0.03
615.875	0.03
616.063	0.03
616.252	-0.02
616.44	-0.02
616.629	0.02
616.818	0.05
617.006	0.01
617.195	-0.02
617.383	0.02
617.572	0
617.76	0.03
617.949	0.01
618.137	0.02
618.326	0.06
618.514	0
618.703	-0.03
618.891	0.06
619.079	-0.07
619.268	0.01
619.456	-0.02
619.644	0.02
619.833	-0.02
620.021	-0.02
620.209	-0.06
620.398	-0
620.586	0.01
620.774	0.03
620.962	-0
621.151	0.05
621.339	-0.02
621.527	-0.04
621.715	-0.03
621.903	-0.04
622.092	-0.05
622.28	0.03
622.468	-0
622.656	-0.03
622.844	0.04
623.032	-0.03
623.22	-0.05
623.408	0.03
623.596	0.03
623.784	0.02
623.972	-0.03
624.16	-0
624.348	0.08
624.536	0.01
624.724	-0.02
624.912	0.07
625.1	0.04
625.288	-0.01
625.476	-0.01
625.664	0.05
625.851	-0.04
626.039	-0.02
626.227	0
626.415	-0.01
626.603	-0.03
626.79	0.02
626.978	-0.05
627.166	0.03
627.354	-0
627.541	0.02
627.729	-0.08
627.917	0.04
628.104	0.05
628.292	0.01
628.48	0.01
628.667	0.01
628.855	-0.02
629.042	0.02
629.23	-0.01
629.418	0.03
629.605	0.01
629.793	-0.01
629.98	-0.02
630.168	-0.02
630.355	-0
630.543	0.02
630.73	-0.06
630.917	0.03
631.105	0.07
631.292	-0.01
631.48	0
631.667	0.08
631.854	0.01
632.042	-0.01
632.229	-0.03
632.416	-0
632.604	-0.01
632.791	-0.04
632.978	0.03
633.165	-0
633.353	0.05
633.54	0.01
633.727	-0.08
633.914	-0.04
634.101	-0.06
634.289	0.04
634.476	-0.04
634.663	-0.03
634.85	0.02
635.037	-0.06
635.224	-0.08
635.411	0.02
635.598	0.03
635.785	-0.01
635.972	-0.01
636.159	0.04
636.346	-0.02
636.533	0.01
636.72	-0.01
636.907	-0
637.094	0.02
637.281	0.01
637.468	0.03
637.655	-0.01
637.842	0.03
638.029	-0.04
638.215	0.04
638.402	0.01
638.589	-0.04
638.776	-0.02
638.963	-0.01
639.149	0.05
639.336	0.09
639.523	-0.02
639.709	0.02
639.896	-0.03
640.083	0.04
640.27	0.04
640.456	-0.01
640.643	0.05
640.829	-0.07
641.016	0.02
641.203	-0.01
641.389	0.02
641.576	0.04
641.762	-0
641.949	-0.04
642.135	0.02
642.322	0.02
642.508	-0.07
642.695	-0
642.881	-0.03
643.068	-0
643.254	0
643.441	0.01
643.627	-0
643.813	-0.04
644	0.04
644.186	-0.03
644.372	0.01
644.559	0.04
644.745	-0.03
644.931	-0.01
645.118	0
645.304	0.01
645.49	-0.01
645.676	-0.03
645.862	0.01
646.049	0.07
646.235	0.01
646.421	0.09
646.607	0.07
646.793	-0.01
646.979	-0.02
647.165	0
647.352	0.01
647.538	0.06
647.724	-0
647.91	0.04
648.096	0.03
648.282	0.04
648.468	0.01
648.654	-0.02
648.84	-0
649.026	0.04
649.212	0
649.397	-0.01
649.583	-0.03
649.769	0.01
649.955	0.02
650.141	0.01
650.327	0.06
650.513	-0.05
650.698	-0.01
650.884	-0.09
651.07	0.01
651.256	0.02
651.442	-0
651.627	-0.01
651.813	0.04
651.999	0
652.184	0.03
652.37	0.01
652.556	-0.01
652.741	0.06
652.927	-0.07
653.113	0.01
653.298	0.01
653.484	-0
653.669	-0.05
653.855	0.01
654.04	0.01
654.226	-0.02
654.412	-0.04
654.597	-0.04
654.782	0.01
654.968	0.07
655.153	0.01
655.339	-0.02
655.524	-0.02
655.71	0.04
655.895	-0
656.08	-0.03
656.266	0.05
656.451	0.02
656.636	0
656.822	0.02
657.007	0.01
657.192	-0.02
657.378	-0.03
657.563	-0
657.748	0.02
657.933	0.03
658.118	-0.01
658.304	-0.04
658.489	0.02
658.674	0.03
658.859	-0.05
659.044	-0.01
659.229	0.01
659.414	-0.03
659.599	0.01
659.785	-0.07
659.97	-0
660.155	0.03
660.34	0.01
660.525	-0.02
660.71	-0.04
660.895	0.08
661.08	-0.03
661.264	-0.01
661.449	0.04
661.634	0.02
661.819	0
662.004	0.01
662.189	-0.07
662.374	-0.01
662.559	-0.05
662.743	-0.07
662.928	0.02
663.113	-0
663.298	-0.05
663.483	-0.04
663.667	-0.02
663.852	-0.02
664.037	0.06
664.221	-0.02
664.406	0
664.591	0.03
664.775	-0
664.96	0
665.145	0.01
665.329	0.03
665.514	-0.02
665.698	-0.02
665.883	-0.07
666.068	0.06
666.252	-0.01
666.437	-0.02
666.621	0.02
666.806	0.01
666.99	-0.03
667.174	-0.07
667.359	0.08
667.543	-0.03
667.728	-0.07
667.912	-0.07
668.096	0.01
668.281	-0.05
668.465	-0.03
668.649	-0
668.834	-0.03
669.018	-0.01
669.202	0.01
669.387	-0.05
669.571	0.06
669.755	-0.01
669.939	0.02
670.124	-0.03
670.308	0.07
670.492	0.04
670.676	-0
670.86	-0.05
671.044	-0.05
671.228	0.03
671.413	-0.05
671.597	-0.04
671.781	-0.02
671.965	0.01
672.149	-0.01
672.333	0
672.517	-0.05
672.701	0.03
672.885	-0.01
673.069	-0.08
673.253	0.08
673.437	-0.02
673.621	-0.05
673.804	0.01
673.988	0
674.172	-0.02
674.356	-0.07
674.54	-0.01
674.724	0.08
674.908	0
675.091	0.02
675.275	-0.02
675.459	0.02
675.643	0.08
675.826	0.01
676.01	-0.02
676.194	-0.01
676.377	0.03
676.561	-0.02
676.745	-0.01
676.928	0
677.112	0.04
677.296	-0.07
677.479	-0.05
677.663	-0.04
677.846	0.02
678.03	0.02
678.213	-0.05
678.397	0.05
678.58	0
678.764	-0.02
678.947	-0.07
679.131	-0.03
679.314	0.02
679.498	-0.01
679.681	0.03
679.865	0.04
680.048	0.02
680.231	-0
680.415	0.01
680.598	-0.05
680.781	-0.02
680.965	-0.02
681.148	0.01
681.331	-0.04
681.514	0.04
681.698	-0.05
681.881	0.02
682.064	-0
682.247	0.01
682.43	-0.07
682.614	0.02
682.797	0.04
682.98	-0.02
683.163	-0.07
683.346	0.04
683.529	-0.03
683.712	-0.01
683.895	0.04
684.078	-0.07
684.261	-0.01
684.444	0.01
684.627	0.01
684.81	0.02
684.993	0.04
685.176	0.04
685.359	-0.05
685.542	-0.03
685.725	0.05
685.908	-0.03
686.091	-0.01
686.274	0.05
686.457	0.01
686.639	-0.03
686.822	0.04
687.005	0.01
687.188	0.04
687.371	0.08
687.553	-0.05
687.736	0.02
687.919	0.04
688.102	0.06
688.284	-0.05
688.467	0.01
688.65	0.02
688.832	-0.03
689.015	0.03
689.197	-0.07
689.38	0.09
689.563	0.09
689.745	-0
689.928	-0.03
690.11	-0.03
690.293	0.03
690.475	-0.08
690.658	0.03
690.84	-0.04
691.023	-0.04
691.205	-0.05
691.388	-0.02
691.57	0.06
691.752	0.03
691.935	-0.09
692.117	-0.04
692.3	-0.01
692.482	0.01
692.664	0
692.847	0.02
693.029	0.02
693.211	0.02
693.393	-0.01
693.576	-0.05
693.758	-0.01
693.94	-0.04
694.122	0.03
694.304	0
694.487	-0.04
694.669	0.11
694.851	-0.04
695.033	-0.01
695.215	-0.05
695.397	-0.04
695.579	0.07
695.761	-0.02
695.943	-0.04
696.125	0.09
696.308	0.06
696.49	-0.08
696.671	0.15
696.853	-0.04
697.035	0.15
697.217	-0.02
697.399	0
697.581	-0.03
697.763	-0.01
697.945	-0.04
698.127	0.01
698.309	0.05
698.491	0.01
698.672	0.01
698.854	0.08
699.036	0.11
699.218	-0.03
699.399	0.05
699.581	0.04
699.763	0.01
699.945	-0.08
700.126	-0.06
700.308	-0.02
700.49	0.01
700.671	-0.1
700.853	-0.04
701.035	0.01
701.216	0.03
701.398	-0.01
701.579	-0.04
701.761	0.01
701.943	0.03
702.124	-0.01
702.306	-0.05
702.487	0.07
702.669	-0.06
702.85	-0.03
703.031	-0.07
703.213	0.09
703.394	0.04
703.576	-0.01
703.757	0.13
703.938	0.02
704.12	0.2
704.301	-0.01
704.483	-0.05
704.664	0.01
704.845	0.09
705.026	-0
705.208	-0.03
705.389	-0
705.57	-0.01
705.751	-0.04
705.933	0.03
706.114	0.1
706.295	0.01
706.476	-0.02
706.657	0.07
706.838	0.05
707.02	0.05
707.201	-0.03
707.382	-0.02
707.563	-0.02
707.744	0.01
707.925	-0.01
708.106	-0.07
708.287	0.02
708.468	0.1
708.649	-0.07
708.83	0.05
709.011	-0.03
709.192	0.02
709.373	-0.08
709.554	-0.05
709.734	0.05
709.915	0.07
710.096	0.05
710.277	-0.14
710.458	0.04
710.639	0.04
710.819	-0.09
711	-0.02
711.181	0.07
711.362	0.06
711.542	0.03
711.723	0.01
711.904	0.08
712.085	0.02
712.265	0.01
712.446	-0.08
712.627	-0.04
712.807	0
712.988	-0.05
713.168	-0.08
713.349	0.04
713.53	-0.1
713.71	-0.09
713.891	-0.04
714.071	0.04
714.252	-0
714.432	-0.05
714.613	-0.06
714.793	-0.03
714.974	0.1
715.154	0.05
715.334	0.06
715.515	0.05
715.695	0.02
715.876	0
716.056	-0.04
716.236	-0.06
716.417	-0.07
716.597	0.01
716.777	0.12
716.957	0.01
717.138	-0.01
717.318	-0.03
717.498	-0.08
717.678	0.04
717.859	0.06
718.039	-0.13
718.219	0.01
718.399	0.06
718.579	-0.08
718.759	-0.16
718.939	0.01
719.12	0.03
719.3	0
719.48	-0.15
719.66	-0.11
719.84	0.07
720.02	-0.02
720.2	-0.09
720.38	-0.05
720.56	0.07
720.74	-0.01
720.92	0.03
721.1	0.06
721.279	0.15
721.459	0.01
721.639	0.01
721.819	-0.01
721.999	-0.09
722.179	0.08
722.359	-0.07
722.538	0.02
722.718	0.06
722.898	0.01
723.078	-0.04
723.257	0.04
723.437	0.03
723.617	-0.04
723.797	-0.02
723.976	-0.01
724.156	0.01
724.336	0.04
724.515	0.15
724.695	-0.15
724.874	-0.07
725.054	0.08
725.234	-0.06
725.413	0.01
725.593	-0.09
725.772	-0.03
725.952	0.03
726.131	-0.02
726.311	-0
726.49	-0.02
726.67	-0.08
726.849	-0.1
727.028	-0.03
727.208	-0.05
727.387	0.04
727.567	-0.13
727.746	0
727.925	-0.03
728.105	-0.05
728.284	-0.01
728.463	-0.06
728.643	0.03
728.822	-0.14
729.001	-0.12
729.18	-0.07
729.359	0.08
729.539	-0.03
729.718	0.02
729.897	-0.01
730.076	-0.02
730.255	-0.13
730.434	-0.04
730.614	-0.03
730.793	0.09
730.972	-0.09
731.151	-0.01
731.33	0.15
731.509	0.03
731.688	0.01
731.867	-0.01
732.046	-0.12
732.225	0.17
732.404	-0.06
732.583	-0.12
732.762	-0.1
732.941	0.03
733.12	0.1
733.298	-0.07
733.477	0.1
733.656	0
733.835	-0.04
734.014	0.01
734.193	-0.05
734.371	-0.06
734.55	0.07
734.729	-0.11
734.908	-0.04
735.086	0.05
735.265	0.08
735.444	-0.14
735.623	-0.23
735.801	-0.01
735.98	-0.03
736.159	-0.01
736.337	0.12
736.516	0.07
736.694	0.1
736.873	-0.06
737.052	0.13
737.23	0.12
737.409	-0.13
737.587	0.16
737.766	-0.14
737.944	-0.04
738.123	0
738.301	-0.04
738.479	-0.07
738.658	0.04
738.836	-0.21
739.015	-0.02
739.193	0.04
739.371	-0.17
739.55	-0.04
739.728	-0.18
739.906	0.15
740.085	0.25
740.263	0.05
740.441	-0.28
740.62	0.21
740.798	0.08
740.976	-0.07
741.154	-0.11
741.332	0.22
741.511	-0.03
741.689	-0.01
741.867	0.07
742.045	-0.04
742.223	-0.05
742.401	-0.19
742.579	0.03
742.757	0.07
742.935	-0.12
743.114	-0.04
743.292	-0.06
743.47	0.01
743.648	0.03
743.826	-0.19
744.004	-0
744.181	0.03
744.359	0.06
744.537	-0.07
744.715	0.07
744.893	0.04
745.071	-0.07
745.249	-0.07
745.427	0.01
745.605	0.05
745.782	0.03
745.96	0.08
746.138	0.08
746.316	0.05
746.493	-0.04
746.671	-0.08
746.849	-0.11
747.027	0.08
747.204	-0.17
747.382	0.09
747.56	-0.16
747.737	0.04
747.915	-0.1
748.093	0.01
748.27	-0.05
748.448	0.04
748.625	-0.21
748.803	-0.07
748.98	-0.11
749.158	-0.08
749.335	0.07
749.513	-0.01
749.69	0.01
749.868	-0.08
750.045	0.05
750.223	-0.04
750.4	-0.23
750.578	0.24
750.755	0.08
750.932	-0.09
751.11	0.16
751.287	-0.14
751.464	0.2
751.642	-0.08
751.819	0.06
751.996	0.01
752.173	-0.05
752.351	-0.02
752.528	0.05
752.705	0.02
752.882	-0.14
753.06	-0.01
753.237	0.02
753.414	0.14
753.591	0.18
753.768	0.02
753.945	-0.04
754.122	-0
754.299	0.09
754.476	-0.11
754.654	0.07
754.831	0.07
755.008	0.03
755.185	-0.11
755.362	-0.1
755.539	0
755.716	-0.1
755.892	-0.15
756.069	-0
756.246	0.01
756.423	-0.09
756.6	0.02
756.777	-0.08
756.954	0.13
757.131	-0
757.307	-0.13
757.484	-0.15
757.661	0.04
757.838	0.09
758.015	-0.1
758.191	0.05
758.368	0.04
758.545	0.26
758.721	0.05
758.898	-0.02
759.075	0.02
759.251	0.11
759.428	0.09
759.605	-0.17
759.781	-0.04
759.958	0.09
760.134	0.09
760.311	-0.05
760.488	0.11
760.664	0.11
760.841	0.05
761.017	-0.12
761.194	0.06
761.37	0.17
761.547	0
761.723	-0.04
761.899	0.15
762.076	-0.12
762.252	-0.09
762.429	-0.13
762.605	0.08
762.781	-0.02
762.958	0.05
763.134	-0.06
763.31	-0.12
763.486	0.11
763.663	-0.23
763.839	0.09
764.015	-0.31
764.191	-0.22
764.368	0.02
764.544	-0.15
764.72	0.01
764.896	0.06
765.072	0.02
765.248	-0.02
765.425	-0.02
765.601	0.1
765.777	0.09
765.953	-0.15
766.129	-0.07
766.305	-0.1
766.481	0.18
766.657	0.05
766.833	0.21
767.009	-0.14
767.185	-0.07
767.361	0.02
767.537	-0.11
767.713	0.24
767.889	-0.12
768.065	-0.05
768.24	-0.04
768.416	0.13
768.592	-0.02
768.768	-0.05
768.944	0.05
769.12	-0.06
769.295	-0.13
769.471	-0.15
769.647	-0.11
769.823	0.1
769.998	0.01
770.174	-0.05
770.35	0.4
770.525	0.28
770.701	0.01
770.877	-0.16
771.052	-0.03
771.228	0.15
771.403	-0.04
771.579	0.02
771.755	0.36
771.93	-0.04
772.106	-0.27
772.281	-0.25
772.457	0.04
772.632	0.04
772.808	-0.16
772.983	-0.1
773.159	-0.04
773.334	0.23
773.509	0.12
773.685	-0.02
773.86	0.43
774.036	0.12
774.211	0.08
774.386	-0.01
774.562	0.08
774.737	-0.05
774.912	-0.16
775.087	0.07
775.263	0.13
775.438	-0
775.613	-0.02
775.788	0.01
775.964	0.19
776.139	0.28
776.314	-0.18
776.489	0
776.664	-0.06
776.839	-0.03
777.014	0.16
777.19	0.12
777.365	0.25
777.54	0.22
777.715	-0.13
777.89	-0.07
778.065	-0.04
778.24	0.07
778.415	0.14
778.59	-0.16
778.765	-0.2
778.94	0.11
779.115	-0.16
779.289	-0.02
779.464	0.01
779.639	-0.08
779.814	-0.24
779.989	-0.15
780.164	0.22
780.339	0.08
780.513	-0.1
780.688	-0.13
780.863	0.26
781.038	0.12
781.212	-0.13
781.387	-0.02
781.562	0.27
781.737	0.12
781.911	0.25
782.086	-0.03
782.261	-0.07
782.435	0.32
782.61	-0.12
782.784	-0.16
782.959	0.12
783.134	0.04
783.308	-0.13
783.483	0.08
783.657	0.52
783.832	0.08
784.006	-0.35
784.181	-0.02
784.355	-0.04
784.53	-0.12
784.704	-0.14
784.878	0.26
785.053	0.18
785.227	0.09
785.402	0.45
785.576	-0.21
785.75	0.08
785.925	-0.11
786.099	0.04
786.273	-0
786.448	0.03
786.622	0.14
786.796	-0.14
786.97	-0.07
787.145	0.42
787.319	-0.11
787.493	-0.12
787.667	-0.3
787.841	-0.08
788.015	0.37
788.19	0.04
788.364	-0.09
788.538	-0.06
788.712	0.09
788.886	-0.07
789.06	0.1
789.234	0.13
789.408	-0.22
789.582	-0.24
789.756	-0.11
789.93	0.03
790.104	-0.15
790.278	-0.01
790.452	-0.2
790.626	0.27
790.8	-0.07
790.973	0.2
791.147	0.3
791.321	0.18
791.495	0.16
791.669	0.08
791.843	-0.09
792.016	-0.13
792.19	0.38
792.364	-0.24
792.538	0.49
792.711	0.39
792.885	0.01
793.059	-0.26
793.233	-0.59
793.406	0.18
793.58	0.02
793.754	0.15
793.927	-0.01
794.101	0.18
794.274	-0.01
794.448	-0.01
794.622	-0.43
794.795	0.35
794.969	-0.02
795.142	0.08
795.316	-0.22
795.489	-0.14
795.663	0.47
795.836	-0.04
796.009	-0.23
796.183	0.22
796.356	0.31
796.53	0.09
796.703	-0.09
796.876	0.54
797.05	-0.05
797.223	-0.13
797.396	-0.04
797.57	-0.03
797.743	0.62
797.916	-0
798.09	-0.05
798.263	0.35
798.436	0.16
798.609	-0.19
798.782	-0.29
798.956	0.08
799.129	-0.1
799.302	0
799.475	-0.23
799.648	-0.23
799.821	-0.21
799.994	-0.19
800.167	-0.38
800.34	0
800.514	0.16
800.687	-0.01
800.86	-0.31
801.033	-0.01
801.206	0.08
801.379	-0.25
801.551	0.47
801.724	0.22
801.897	0.54
802.07	0.12
802.243	-0.58
802.416	0.21
802.589	-0.09
802.762	-0.11
802.935	-0.18
803.107	0.32
803.28	0.42
803.453	0.33
803.626	0.02
803.798	-0.09
803.971	-0.15
804.144	0.16
804.317	0.18
804.489	0.2
804.662	-0.06
804.835	0.05
805.007	-0.19
805.18	0.68
805.353	-0.14
805.525	-0.26
805.698	0.01
805.87	0.32
806.043	0.19
806.215	-0.02
806.388	-0.44
806.56	0.35
806.733	0.32
806.905	-0.11
807.078	-0.01
807.25	-0.27
807.423	0.47
807.595	0.03
807.768	-0.06
807.94	0.25
808.112	0.1
808.285	-0.02
808.457	-0.06
808.629	-0.08
808.802	0.24
808.974	-0.02
809.146	-0.32
809.318	-0.17
809.491	0.3
809.663	0.36
809.835	-0.3
810.007	0.08
810.18	0.29
810.352	-0.43
810.524	-0.19
810.696	0.37
810.868	0.42
811.04	-0.38
811.212	-0.25
811.384	0.63
811.556	-0.14
811.728	0.11
811.901	0.66
812.073	-0.08
812.245	0.3
812.417	-0.13
812.589	-0.7
812.76	-0.16
812.932	0.56
813.104	-0
813.276	-0.19
813.448	0.08
813.62	-0.09
813.792	0.06
813.964	-0.17
814.136	0.24
814.307	-0.1
814.479	-0.38
814.651	0.04
814.823	0.67
814.995	0.03
815.166	0.37
815.338	-0.36
815.51	-0.49
815.681	1
815.853	-0.14
816.025	-0.41
816.196	0.56
816.368	0.58
816.54	-0.3
816.711	-0.18
816.883	0.33
817.054	0.92
817.226	-0.93
817.398	-0.06
817.569	-0.1
817.741	-0.02
817.912	-0.14
818.084	-0.39
818.255	0.27
818.426	-0.57
818.598	-0.33
818.769	-0.57
818.941	0.72
819.112	0.34
819.283	0.39
819.455	-0.31
819.626	0.04
819.798	0.33
819.969	-0.01
820.14	-0.09
820.311	-0.06
820.483	0.07
820.654	0.41
820.825	-0.16
820.996	-0.04
821.168	-0.19
821.339	0.27
821.51	-0.84
821.681	-0.34
821.852	0.19
822.023	-0.38
822.195	-1.19
822.366	0.28
822.537	0.02
822.708	0.23
822.879	-0.26
823.05	0.87
823.221	0.14
823.392	-0.01
823.563	-0.14
823.734	0.08
823.905	0.12
824.076	0.09
824.247	-0.7
824.418	-0.47
824.589	0.26
824.759	0.61
824.93	-0.07
825.101	-0.98
825.272	0.67
825.443	0.74
825.614	0.32
825.784	-1.18
825.955	0.57
826.126	0.06
826.297	0.33
826.467	0.33
826.638	1.16
826.809	-0.89
826.98	0.09
827.15	0.58
827.321	-0
827.492	1.25
827.662	0.22
827.833	1.35
828.003	0.22
828.174	-0.5
828.345	-0.6
828.515	0.85
828.686	0.13
828.856	-0.43
829.027	0.05
829.197	0.14
829.368	0.53
829.538	-0.3
829.709	-0.19
829.879	0.19
830.049	-0.05
830.22	-0.65
830.39	0.05
830.56	0.49
830.731	-0.07
830.901	-0.54
831.072	0.26
831.242	0.24
831.412	0.3
831.582	-0.22
831.753	-0.66
831.923	0.37
832.093	0.01
832.263	-0.86
832.434	-1.04
832.604	-0.25
832.774	0.13
832.944	-0.11
833.114	-0.13
833.284	0.27
833.454	-0.17
833.624	-0.74
833.795	-0.2
833.965	1.3
834.135	1.09
834.305	-1.05
834.475	-0.85
834.645	0.49
834.815	-0.29
834.985	-0.89
835.155	-0.76
835.325	0.09
835.494	0.25
835.664	-0.9
835.834	-0.66
836.004	0.09
836.174	0.65
836.344	0.13
836.514	-1.02
836.684	-0.69
836.853	-0.24
837.023	-0.07
837.193	-0.27
837.363	0.73
837.532	0.48
837.702	-0.26
837.872	-0.18
838.041	0.04
838.211	1.78
838.381	-0.93
838.55	-0.35
838.72	2.31
838.89	1.76
839.059	-0.39
839.229	-0.23
839.398	1.76
839.568	-0.35
839.738	-0.36
839.907	0.15
840.077	0.19
840.246	-0.9
840.416	-0.91
840.585	-0.73
840.755	1.69
840.924	0.74
841.093	-0.43
841.263	0.05
841.432	-0.16
841.602	-0.66
841.771	-1
841.94	-0.16
842.11	1.97
842.279	0.75
842.448	-0.3
842.617	-0.49
842.787	1.34
842.956	-1.03
843.125	-0.5
843.294	-0
843.464	0.85
843.633	0.1
843.802	-1.21
843.971	0.15
844.14	0.31
844.309	0.18
844.479	-0.25
844.648	-1.2
844.817	-0.18
844.986	-0.15
845.155	-1.16
845.324	-0.53
845.493	0.28
845.662	-0.84
845.831	0.7
846	-0.09
846.169	-0.58
846.338	1.32
846.507	0.49
846.676	0.65
846.844	-1.26
847.013	0.65
847.182	0.35
847.351	-0.39
847.52	0.05
847.689	0.86
847.858	-0.05
848.026	-0.43
848.195	0.29
848.364	-0.46
848.533	-1.11
848.701	-1.11
848.87	-0.93
849.039	0.68
849.207	1.07
849.376	0.79
849.545	0.9
849.713	-0.09
849.882	0.31
850.051	-0.67
850.219	0.08
850.388	1.02
850.556	-1.07
850.725	-0.55
850.893	-0.36
851.062	0.32
851.23	0.58
851.399	-1.95
851.567	-0.07
851.736	0.05
851.904	-0.97
852.073	0.68
852.241	0.72
852.41	-0.68
852.578	-1.06
852.746	-0.56
852.915	1.3
853.083	-0.26
853.251	-1.57
853.42	-0.55
853.588	-0.57
853.756	1.41
853.924	0.56
854.093	-0.25
854.261	0.06
854.429	-1.25
854.597	-0.84
854.765	-0.98
854.934	1.47
855.102	0.33
855.27	-0.8
855.438	1.09
855.606	0.87
855.774	1.53
855.942	-1.33
856.11	-2.6
856.278	0.54
856.446	1.14
856.614	0.62
856.782	-0.13
856.95	0.92
857.118	-0.4
857.286	0.94
857.454	-1.56
857.622	1.23
857.79	0.21
857.958	-1.1
858.126	-0.36
858.294	-2.04
858.462	0.41
858.629	-1.03
858.797	-0.75
858.965	0.52
859.133	0.29
859.301	-0.02
859.468	1.38
859.636	-1.51
859.804	2.11
859.971	1.1
860.139	-1.73
860.307	0.59
860.474	-0.34
860.642	-0.34
860.81	-1.83
860.977	-0.24
861.145	1.29
861.313	-0.6
861.48	-1.04
861.648	0.38
861.815	1.36
861.983	-1.92
862.15	-0.3
862.318	1.18
862.485	1.27
862.653	-1.59
862.82	-0.77
862.988	2.13
863.155	1.29
863.322	-0.85
863.49	0.21
863.657	-0.86
863.824	1.67
863.992	0.52
864.159	0.47
864.326	2.58
864.494	-0.35
864.661	2.9
864.828	-1.94
864.996	1.2
865.163	1.66
865.33	-0.19
865.497	-2.38
865.664	-1.27
865.832	-2.75
865.999	0.4
866.166	-1.38
866.333	-1.38
866.5	-1.08
866.667	-1.22
866.834	-0
867.001	1.83
867.168	-2.58
867.335	-0.48
867.502	-2.42
867.669	0.71
867.836	2.74
868.003	-0.43
868.17	1.35
868.337	3.31
868.504	2.04
868.671	-2.05
868.838	-0.46
869.005	0.21
869.172	0.34
869.339	-0.76
869.505	-0.71
869.672	0.94
869.839	1.05
870.006	0.34
870.173	-1.11
870.339	0.75
870.506	2.93
870.673	-1.98
870.84	2.61
871.006	-0.04
871.173	-0.42
871.34	0.65
871.506	-1.85
871.673	0.97
871.839	-1.62
872.006	0.04
872.173	-0.09
872.339	-0.57
872.506	2.28
872.672	-0.64
872.839	-2.52
873.005	0.23
873.172	3.41
873.338	2.53
873.505	0.35
873.671	-0.7
873.838	1.18
874.004	-1.89
874.171	-1.65
874.337	1.45
874.503	-0.18
874.67	-0.04
874.836	-0.16
875.002	-0.58
875.169	1.3
875.335	-0.67
875.501	-1.09
875.668	1.47
875.834	0.44
876	-1.13
876.166	1.94
876.332	2.09
876.499	2.18
876.665	-0.19
876.831	0.38
876.997	4
877.163	0.75
877.329	-0.96
877.495	0.25
877.662	1.02
877.828	-0.57
877.994	0.27
878.16	-2.54
878.326	-0.82
878.492	1.03
878.658	-0.62
878.824	0.42
878.99	0.79
879.156	-3.04
879.322	1.95
879.487	0.72
879.653	0.8
879.819	1.5
879.985	-0.6
880.151	1.3
880.317	1.47
880.483	1.08
880.648	1.64
880.814	-2.19
880.98	0.84
881.146	-3.03
881.312	-0.06
881.477	0.01
881.643	1.22
881.809	0.8
881.974	2.76
882.14	-2.35
882.306	1.84
882.471	4.38
882.637	-0.7
882.803	-1.35
882.968	3.21
883.134	4.11
883.299	1.38
883.465	-0.64
883.63	3.67
883.796	2.81
883.961	1.58
884.127	1.3
884.292	-3.87
884.458	-0.56
884.623	-0.56
