Data from Apollo_Calib_20240827__AbsoluteIrradiance__238__03-07-01-322.txt Node

Date: Wed Aug 28 03:07:01 BST 2024
User: biology
Spectrometer: FLMT08252
Trigger mode: 0
Integration Time (sec): 5.000000E-1
Scans to average: 5
Electric dark correction enabled: true
Nonlinearity correction enabled: false
Boxcar width: 0
XAxis mode: Wavelengths
Number of Pixels in Spectrum: 3648
>>>>>Begin Spectral Data<<<<<
179.588	-0
179.809	-0
180.03	-0
180.251	-0
180.473	-0
180.694	0
180.915	0
181.136	-0
181.357	0
181.578	-0
181.799	-0
182.02	-0
182.241	-0
182.462	-0
182.683	0
182.904	-0
183.125	-0
183.346	0
183.567	0
183.788	-0
184.009	-0
184.23	0
184.451	0
184.672	-0
184.892	-0
185.113	0
185.334	0
185.555	-0
185.776	-0
185.996	0
186.217	0
186.438	0
186.659	-0
186.879	0
187.1	0
187.321	-0
187.541	-0
187.762	-0
187.983	0
188.203	-0
188.424	0
188.644	0
188.865	0
189.086	-0
189.306	-0
189.527	-0
189.747	-0
189.968	-0
190.188	0
190.409	-0
190.629	0
190.849	-0
191.07	-0
191.29	0
191.511	-0
191.731	-0
191.951	-0
192.172	-0
192.392	-0
192.612	-0
192.833	-0
193.053	0
193.273	0
193.493	-0
193.714	-0
193.934	0
194.154	0
194.374	-0
194.594	0
194.815	-0
195.035	-0
195.255	-0
195.475	-0
195.695	0
195.915	0
196.135	-0
196.355	0
196.575	0
196.795	-0
197.015	-0
197.235	-0
197.455	-0
197.675	0
197.895	-0
198.115	-0
198.335	0
198.555	-0
198.775	-0
198.995	0
199.214	0
199.434	-0
199.654	-0
199.874	-0
200.094	1.37
200.313	-0.46
200.533	0.04
200.753	-0.58
200.973	0.87
201.192	0.85
201.412	-1.06
201.632	-0.52
201.851	0.48
202.071	-0.71
202.291	-0.54
202.51	-0.86
202.73	0.45
202.95	-0.23
203.169	-0.83
203.389	-0.49
203.608	0.05
203.828	-0.69
204.047	-0.4
204.267	0.02
204.486	-0.18
204.706	0.2
204.925	-0.16
205.145	-0.55
205.364	0.43
205.583	0.92
205.803	-0.43
206.022	-0.35
206.242	0.13
206.461	0.35
206.68	-0.5
206.9	0.02
207.119	0.56
207.338	0.42
207.557	-0.46
207.777	0.19
207.996	0.11
208.215	0.47
208.434	-0.23
208.654	-0.56
208.873	0
209.092	0.63
209.311	-0.08
209.53	-0.25
209.749	-0.13
209.968	-0.14
210.187	-0
210.407	-0.7
210.626	-0.34
210.845	0.34
211.064	0.11
211.283	-0.37
211.502	0.19
211.721	-0.18
211.94	-0.21
212.159	0.17
212.377	0.23
212.596	0.22
212.815	0.08
213.034	0.18
213.253	0.31
213.472	0.12
213.691	-0.05
213.91	-0.39
214.128	-0.06
214.347	0.53
214.566	-0.31
214.785	-0.35
215.003	0.17
215.222	0.22
215.441	-0.07
215.66	-0.35
215.878	0.09
216.097	0.24
216.316	-0.17
216.534	-0.23
216.753	0.05
216.972	-0.09
217.19	-0.04
217.409	-0.07
217.627	-0.04
217.846	-0.03
218.064	0.07
218.283	-0.16
218.501	0.56
218.72	0.23
218.938	-0.21
219.157	-0.21
219.375	0.09
219.594	0.08
219.812	-0.09
220.031	-0.1
220.249	0.34
220.467	0.26
220.686	-0.08
220.904	-0.33
221.122	-0.12
221.341	0.3
221.559	0.1
221.777	-0.09
221.995	-0.01
222.214	0.03
222.432	-0.19
222.65	0.16
222.868	0.16
223.086	0.09
223.305	0.19
223.523	-0.03
223.741	0.15
223.959	-0.13
224.177	-0.32
224.395	-0.11
224.613	0.04
224.831	0.05
225.049	-0.18
225.267	-0.15
225.485	-0.13
225.703	-0.08
225.921	-0.14
226.139	-0.01
226.357	0.16
226.575	0.18
226.793	-0.1
227.011	0.69
227.229	-0.11
227.447	0.14
227.665	0.01
227.883	-0.19
228.1	0.03
228.318	-0.05
228.536	-0.3
228.754	-0.16
228.972	0.07
229.189	0.17
229.407	-0.09
229.625	-0.03
229.843	0.19
230.06	0.05
230.278	-0.03
230.496	-0.03
230.713	0.12
230.931	0.08
231.149	-0.09
231.366	-0.23
231.584	-0.04
231.801	0.34
232.019	-0.03
232.236	-0.25
232.454	-0.11
232.671	0.09
232.889	-0.07
233.106	-0.13
233.324	-0.01
233.541	-0.06
233.759	-0.02
233.976	-0.18
234.194	-0.02
234.411	-0.05
234.628	-0.07
234.846	-0.15
235.063	0.06
235.28	0.02
235.498	-0.1
235.715	-0.02
235.932	0.24
236.149	0
236.367	-0.15
236.584	0
236.801	-0.05
237.018	0.08
237.236	0.08
237.453	-0.15
237.67	0.17
237.887	0.07
238.104	-0.07
238.321	-0.16
238.538	-0.07
238.755	0.14
238.973	-0.08
239.19	-0.04
239.407	0.02
239.624	0.06
239.841	-0.12
240.058	-0.11
240.275	0.01
240.492	-0.02
240.709	-0.04
240.925	-0.03
241.142	-0.04
241.359	-0.09
241.576	-0.09
241.793	-0.17
242.01	-0.02
242.227	0.21
242.444	-0.04
242.66	0.07
242.877	0.06
243.094	-0.07
243.311	-0.03
243.527	-0.03
243.744	0.07
243.961	0.12
244.178	-0.08
244.394	-0.01
244.611	0.21
244.828	0.24
245.044	-0.16
245.261	-0.02
245.477	0.05
245.694	0.03
245.911	-0.08
246.127	-0.04
246.344	0.15
246.56	0.11
246.777	-0.08
246.993	-0.06
247.21	-0
247.426	0.08
247.643	-0.02
247.859	-0.14
248.076	-0.05
248.292	0.23
248.508	-0.02
248.725	0.08
248.941	0.05
249.157	0.17
249.374	-0.08
249.59	-0.07
249.806	0.08
250.023	-0.05
250.239	-0.15
250.455	-0.1
250.671	0.02
250.888	0.13
251.104	0.04
251.32	-0.06
251.536	-0.02
251.752	-0.07
251.969	0.05
252.185	-0.1
252.401	0.23
252.617	0.15
252.833	-0.06
253.049	0.02
253.265	0.03
253.481	0
253.697	-0.03
253.913	-0.12
254.129	-0.01
254.345	0
254.561	-0.03
254.777	-0.05
254.993	0.02
255.209	0.03
255.425	-0.01
255.641	-0.09
255.857	0.06
256.073	0.03
256.288	-0.08
256.504	-0.02
256.72	0.02
256.936	0.12
257.152	-0.07
257.367	-0.07
257.583	0.01
257.799	0.05
258.015	-0.05
258.23	-0.07
258.446	0.07
258.662	0
258.877	-0.09
259.093	-0.08
259.309	-0.05
259.524	-0.01
259.74	-0.06
259.955	-0.11
260.171	0.01
260.387	0.03
260.602	0.06
260.818	0.07
261.033	-0.02
261.249	-0.04
261.464	-0.09
261.68	-0.12
261.895	0.07
262.11	0.03
262.326	-0.03
262.541	-0.15
262.757	0.08
262.972	0.05
263.187	0.03
263.403	0.02
263.618	0.1
263.833	0.02
264.049	-0.07
264.264	-0.01
264.479	0.08
264.694	0.15
264.91	-0.05
265.125	-0
265.34	0.01
265.555	0.1
265.77	-0.02
265.986	0.01
266.201	0.04
266.416	0.11
266.631	-0.01
266.846	-0.03
267.061	0.05
267.276	0.07
267.491	-0.16
267.706	0.04
267.921	-0.05
268.136	-0.05
268.351	-0
268.566	-0.14
268.781	0.09
268.996	0.05
269.211	-0.02
269.426	-0.06
269.641	-0.06
269.856	0.1
270.071	-0.06
270.285	-0.12
270.5	0.07
270.715	0.03
270.93	-0.03
271.145	0.02
271.359	0.13
271.574	0.01
271.789	0.02
272.004	-0.04
272.218	-0.02
272.433	0.08
272.648	-0.07
272.862	0.05
273.077	-0.02
273.292	0.06
273.506	-0.1
273.721	-0.04
273.936	0.06
274.15	0.05
274.365	-0.06
274.579	0.07
274.794	0.02
275.008	0.02
275.223	-0.05
275.437	-0
275.652	0.07
275.866	0.09
276.081	-0.02
276.295	0.06
276.509	-0.01
276.724	-0.07
276.938	0
277.153	0.01
277.367	0.04
277.581	-0.04
277.796	0.02
278.01	-0.05
278.224	0.08
278.438	0.17
278.653	-0.08
278.867	-0.07
279.081	-0.16
279.295	-0.04
279.51	-0.01
279.724	-0.13
279.938	0.03
280.152	0
280.366	-0.05
280.58	0.01
280.794	0.1
281.008	0.05
281.222	0.01
281.437	0.12
281.651	0.05
281.865	0.05
282.079	0.02
282.293	-0.1
282.507	-0.03
282.721	-0.01
282.935	-0
283.148	-0.08
283.362	-0.03
283.576	-0.06
283.79	-0.02
284.004	-0.07
284.218	0.04
284.432	-0.07
284.646	-0.06
284.859	-0.03
285.073	-0.03
285.287	0.01
285.501	-0.04
285.714	-0.03
285.928	0.03
286.142	0.01
286.356	-0.05
286.569	-0.02
286.783	0.07
286.997	0.07
287.21	0.02
287.424	0.02
287.637	-0.03
287.851	-0.02
288.065	-0.01
288.278	-0.02
288.492	0.01
288.705	-0.02
288.919	0.05
289.132	-0.13
289.346	0.03
289.559	-0.03
289.773	-0.05
289.986	-0.03
290.2	-0.02
290.413	0
290.626	-0.07
290.84	-0.03
291.053	0.03
291.267	0.11
291.48	0.03
291.693	-0.04
291.906	-0.03
292.12	0.04
292.333	-0.05
292.546	-0.01
292.76	0.09
292.973	-0.02
293.186	0.02
293.399	-0.04
293.612	0.08
293.826	0.02
294.039	-0.05
294.252	0.01
294.465	0.04
294.678	0.07
294.891	0.04
295.104	-0.04
295.317	-0.01
295.53	0.01
295.743	0
295.956	-0
296.169	0.09
296.382	0.06
296.595	0.02
296.808	-0.03
297.021	0.09
297.234	0.05
297.447	-0
297.66	0.05
297.873	0.08
298.086	0.06
298.299	-0.06
298.511	-0.08
298.724	-0
298.937	-0.03
299.15	-0.04
299.363	-0.01
299.575	0.04
299.788	-0
300.001	0.02
300.213	-0.07
300.426	-0.01
300.639	0.03
300.852	-0.01
301.064	0.05
301.277	0.05
301.489	0.06
301.702	0.05
301.915	0.02
302.127	0.03
302.34	0.01
302.552	0.03
302.765	0.01
302.977	0.05
303.19	-0.02
303.402	-0.01
303.615	-0.03
303.827	0.01
304.04	-0.02
304.252	0.04
304.464	-0.02
304.677	0.15
304.889	0.03
305.102	-0.05
305.314	-0.02
305.526	0.03
305.739	0.04
305.951	-0.07
306.163	-0.03
306.375	0.08
306.588	-0.03
306.8	-0.01
307.012	-0.03
307.224	-0.01
307.436	0.11
307.649	-0.04
307.861	0.02
308.073	0.04
308.285	-0.05
308.497	-0.04
308.709	-0
308.921	0.03
309.133	0.03
309.346	0
309.558	0.01
309.77	0.03
309.982	0.05
310.194	0.06
310.406	-0.04
310.617	0.08
310.829	-0
311.041	0.02
311.253	-0
311.465	-0.04
311.677	0.03
311.889	-0.01
312.101	-0.01
312.313	0.05
312.524	0.14
312.736	-0.1
312.948	-0.02
313.16	0.07
313.372	0.03
313.583	0.03
313.795	0.02
314.007	0.02
314.218	0.05
314.43	-0.01
314.642	-0.02
314.853	-0.06
315.065	0.05
315.277	-0.03
315.488	0.01
315.7	0.04
315.912	0.05
316.123	-0.01
316.335	0
316.546	0.13
316.758	0.01
316.969	0.05
317.181	0.03
317.392	0.01
317.604	0.06
317.815	-0.03
318.026	-0.07
318.238	-0.02
318.449	0.01
318.661	-0.06
318.872	-0.04
319.083	-0.03
319.295	0.07
319.506	-0
319.717	0.02
319.929	0.06
320.14	-0
320.351	0.01
320.562	-0.02
320.774	-0.02
320.985	-0.02
321.196	-0.05
321.407	-0.05
321.618	0.07
321.829	0.02
322.041	0.04
322.252	-0
322.463	0.02
322.674	0.04
322.885	-0.08
323.096	-0.01
323.307	-0
323.518	0.04
323.729	-0.04
323.94	-0.01
324.151	-0.03
324.362	0.02
324.573	0.02
324.784	-0.04
324.995	0.04
325.206	0.06
325.417	-0.02
325.628	-0
325.838	0.03
326.049	0.02
326.26	0.02
326.471	-0.02
326.682	0.06
326.892	0.03
327.103	-0.07
327.314	-0.03
327.525	0.04
327.735	0.03
327.946	-0.03
328.157	-0.03
328.368	0.05
328.578	-0.01
328.789	0.02
328.999	0.03
329.21	-0.02
329.421	0.01
329.631	-0.06
329.842	0.02
330.052	0.03
330.263	0.05
330.473	0.03
330.684	-0.02
330.894	-0.04
331.105	0.04
331.315	0
331.526	-0.05
331.736	0.08
331.947	0.03
332.157	0.07
332.367	-0.03
332.578	0.01
332.788	0.08
332.999	0.08
333.209	-0.05
333.419	-0.02
333.629	0.03
333.84	0.07
334.05	-0.01
334.26	0.02
334.47	0.06
334.681	0
334.891	-0.02
335.101	0.06
335.311	0.09
335.521	0.02
335.732	-0.05
335.942	0.09
336.152	0.06
336.362	0.01
336.572	-0.01
336.782	0.06
336.992	-0.01
337.202	0.03
337.412	-0.01
337.622	0.05
337.832	-0.02
338.042	0.02
338.252	-0.06
338.462	0.03
338.672	-0.01
338.882	0.02
339.092	-0.02
339.302	0.06
339.511	0.06
339.721	-0.04
339.931	-0.06
340.141	0.05
340.351	0.05
340.561	0.07
340.77	0.02
340.98	-0.01
341.19	0.07
341.4	-0.01
341.609	-0.03
341.819	0.03
342.029	-0.02
342.238	-0
342.448	-0.03
342.658	0.03
342.867	0.01
343.077	0.01
343.286	0.03
343.496	-0.01
343.706	0.1
343.915	-0.02
344.125	0.02
344.334	-0.01
344.544	-0.03
344.753	0
344.963	0.02
345.172	0.01
345.381	-0.02
345.591	-0.06
345.8	-0
346.01	0.04
346.219	0.06
346.428	-0.11
346.638	0.02
346.847	0
347.056	0.08
347.266	-0.03
347.475	0.04
347.684	-0
347.893	0.01
348.103	0.02
348.312	0
348.521	-0
348.73	0.04
348.94	-0.03
349.149	-0.01
349.358	0.01
349.567	0
349.776	-0.04
349.985	-0.02
350.194	0.06
350.403	0.05
350.612	-0.04
350.821	0.01
351.03	0.01
351.239	-0.07
351.448	0.04
351.657	-0.01
351.866	0.1
352.075	-0.02
352.284	0.04
352.493	-0.04
352.702	0.07
352.911	0.01
353.12	0.03
353.329	-0.02
353.538	0.02
353.746	0.02
353.955	-0.04
354.164	0.02
354.373	-0
354.582	0.02
354.79	0.04
354.999	0.06
355.208	-0.06
355.416	0.11
355.625	-0.03
355.834	-0.06
356.042	-0
356.251	0
356.46	-0.04
356.668	0.03
356.877	0.15
357.085	0.04
357.294	-0.11
357.503	0.04
357.711	0.03
357.92	0.16
358.128	0
358.337	0
358.545	0.05
358.754	-0.07
358.962	0.02
359.17	-0.05
359.379	0.02
359.587	0.04
359.796	-0.01
360.004	0.02
360.212	0.01
360.421	0.08
360.629	-0.04
360.837	0.02
361.046	0.07
361.254	0.15
361.462	-0.01
361.67	-0.02
361.879	0
362.087	0.05
362.295	0
362.503	-0.03
362.711	-0.04
362.92	-0.04
363.128	-0.02
363.336	-0.02
363.544	-0.01
363.752	-0.03
363.96	-0.01
364.168	-0.03
364.376	-0.01
364.584	0.01
364.792	0.06
365	0.04
365.208	0.01
365.416	0.05
365.624	0.08
365.832	-0
366.04	0.06
366.248	0.03
366.456	0.02
366.664	0
366.872	0.01
367.079	0.01
367.287	0.06
367.495	0.01
367.703	0.03
367.911	-0.02
368.118	-0.03
368.326	0.02
368.534	-0.07
368.742	0.06
368.949	-0.03
369.157	-0
369.365	0.06
369.572	0.01
369.78	-0.02
369.988	0.07
370.195	0.08
370.403	0.07
370.61	0.04
370.818	0
371.026	0.07
371.233	-0.04
371.441	0.01
371.648	-0.01
371.856	0.01
372.063	0.07
372.271	-0.02
372.478	-0.01
372.685	0.01
372.893	0.03
373.1	-0.02
373.308	-0
373.515	0.07
373.722	0.08
373.93	0.02
374.137	0.04
374.344	0.08
374.552	0.06
374.759	0.03
374.966	0.02
375.173	-0.02
375.381	0.08
375.588	-0.03
375.795	-0.05
376.002	0.01
376.209	0.01
376.417	0.01
376.624	0.03
376.831	0.07
377.038	-0.02
377.245	-0.05
377.452	-0.03
377.659	0.01
377.866	-0.01
378.073	0.01
378.28	-0.03
378.487	0.06
378.694	0.05
378.901	-0.02
379.108	-0.01
379.315	0.06
379.522	0.1
379.729	0.01
379.936	0.02
380.143	0
380.35	0.04
380.557	0.01
380.763	-0.01
380.97	0.01
381.177	0.07
381.384	0.01
381.591	-0.03
381.797	0.03
382.004	0.04
382.211	0.06
382.418	0.04
382.624	0.05
382.831	0.04
383.038	0
383.244	0
383.451	0.02
383.658	0.04
383.864	-0
384.071	-0.03
384.277	0.11
384.484	-0.03
384.69	0.07
384.897	-0.03
385.103	-0.01
385.31	-0.05
385.516	0.02
385.723	-0.02
385.929	0
386.136	-0.01
386.342	0.06
386.549	-0.02
386.755	0.09
386.961	0.04
387.168	-0.01
387.374	0.01
387.58	0.03
387.787	0.04
387.993	0.03
388.199	-0.01
388.406	0
388.612	-0.01
388.818	-0.02
389.024	0.01
389.231	0.02
389.437	0.11
389.643	0.04
389.849	0.02
390.055	0.02
390.261	0.01
390.467	0.03
390.674	0.03
390.88	0.02
391.086	0.01
391.292	0.01
391.498	0.07
391.704	0.01
391.91	0.06
392.116	0.02
392.322	-0.08
392.528	0.01
392.734	-0.03
392.94	0.03
393.146	-0.04
393.352	-0.03
393.557	0.01
393.763	0.06
393.969	0.04
394.175	0.01
394.381	0.03
394.587	0
394.792	0.04
394.998	0.05
395.204	0.09
395.41	-0.01
395.615	0.03
395.821	0.04
396.027	0.04
396.233	-0.02
396.438	0.03
396.644	0.1
396.85	0.05
397.055	0.06
397.261	0.05
397.466	0.15
397.672	0.06
397.878	0.09
398.083	0.05
398.289	0.04
398.494	0.06
398.7	0.05
398.905	-0
399.111	0.17
399.316	0.03
399.522	0.08
399.727	0.09
399.932	0.06
400.138	0.07
400.343	0.08
400.549	0.08
400.754	0.07
400.959	0.13
401.165	0.09
401.37	0.07
401.575	0.18
401.78	0.09
401.986	0.05
402.191	0.1
402.396	0.1
402.601	0.17
402.807	0.16
403.012	0.15
403.217	0.13
403.422	0.11
403.627	0.12
403.832	0.11
404.037	0.21
404.243	0.18
404.448	0.17
404.653	0.16
404.858	0.16
405.063	0.19
405.268	0.16
405.473	0.12
405.678	0.18
405.883	0.36
406.088	0.27
406.293	0.22
406.498	0.25
406.703	0.27
406.907	0.28
407.112	0.27
407.317	0.28
407.522	0.39
407.727	0.27
407.932	0.33
408.136	0.46
408.341	0.32
408.546	0.39
408.751	0.4
408.956	0.42
409.16	0.49
409.365	0.5
409.57	0.45
409.774	0.54
409.979	0.57
410.184	0.57
410.388	0.46
410.593	0.71
410.798	0.65
411.002	0.67
411.207	0.65
411.411	0.73
411.616	0.71
411.82	0.81
412.025	0.82
412.229	0.87
412.434	0.98
412.638	0.96
412.843	0.9
413.047	1.01
413.252	0.98
413.456	1.06
413.66	1.12
413.865	1.17
414.069	1.23
414.273	1.2
414.478	1.24
414.682	1.28
414.886	1.34
415.091	1.36
415.295	1.42
415.499	1.55
415.703	1.53
415.908	1.73
416.112	1.6
416.316	1.83
416.52	1.83
416.724	1.82
416.929	1.92
417.133	2.17
417.337	1.99
417.541	2.12
417.745	2.17
417.949	2.24
418.153	2.42
418.357	2.39
418.561	2.59
418.765	2.57
418.969	2.73
419.173	2.81
419.377	2.76
419.581	3.03
419.785	2.98
419.989	3.09
420.193	3.18
420.397	3.21
420.601	3.47
420.804	3.49
421.008	3.41
421.212	3.49
421.416	3.47
421.62	3.53
421.823	3.47
422.027	3.69
422.231	3.53
422.435	3.54
422.638	3.51
422.842	3.53
423.046	3.58
423.249	3.71
423.453	3.58
423.657	3.71
423.86	3.7
424.064	3.74
424.268	3.8
424.471	3.68
424.675	3.75
424.878	3.69
425.082	3.67
425.285	3.83
425.489	3.57
425.692	3.47
425.896	3.45
426.099	3.56
426.303	3.42
426.506	3.4
426.71	3.47
426.913	3.48
427.116	3.44
427.32	3.21
427.523	3.15
427.726	3.17
427.93	3.07
428.133	3.12
428.336	2.96
428.54	2.93
428.743	2.92
428.946	2.93
429.149	2.76
429.353	2.62
429.556	2.55
429.759	2.43
429.962	2.3
430.165	2.34
430.368	2.12
430.571	2.01
430.775	2.03
430.978	1.83
431.181	1.78
431.384	1.8
431.587	1.8
431.79	1.77
431.993	1.69
432.196	1.71
432.399	1.65
432.602	1.69
432.805	1.5
433.008	1.52
433.211	1.42
433.414	1.55
433.616	1.51
433.819	1.38
434.022	1.23
434.225	1.44
434.428	1.34
434.631	1.43
434.833	1.25
435.036	1.19
435.239	1.22
435.442	1.16
435.645	1.09
435.847	1.18
436.05	1.07
436.253	1.11
436.455	1.02
436.658	1.03
436.861	1.12
437.063	0.95
437.266	0.89
437.468	0.95
437.671	1
437.874	0.89
438.076	0.77
438.279	0.78
438.481	0.8
438.684	0.8
438.886	0.81
439.089	0.69
439.291	0.82
439.494	0.8
439.696	0.66
439.899	0.69
440.101	0.72
440.303	0.61
440.506	0.75
440.708	0.69
440.91	0.7
441.113	0.6
441.315	0.67
441.517	0.56
441.72	0.62
441.922	0.49
442.124	0.46
442.326	0.52
442.529	0.58
442.731	0.44
442.933	0.56
443.135	0.41
443.337	0.46
443.539	0.42
443.742	0.39
443.944	0.33
444.146	0.36
444.348	0.37
444.55	0.4
444.752	0.29
444.954	0.29
445.156	0.32
445.358	0.26
445.56	0.36
445.762	0.28
445.964	0.29
446.166	0.23
446.368	0.24
446.57	0.33
446.772	0.27
446.974	0.29
447.175	0.29
447.377	0.22
447.579	0.26
447.781	0.14
447.983	0.25
448.184	0.24
448.386	0.27
448.588	0.16
448.79	0.2
448.991	0.14
449.193	0.15
449.395	0.18
449.597	0.27
449.798	0.22
450	0.24
450.202	0.2
450.403	0.12
450.605	0.22
450.806	0.19
451.008	0.07
451.21	0.15
451.411	0.11
451.613	0.14
451.814	0.16
452.016	0.21
452.217	0.17
452.419	0.19
452.62	0.13
452.821	0.19
453.023	0.21
453.224	0.17
453.426	0.11
453.627	0.13
453.828	0.19
454.03	0.11
454.231	0.18
454.432	0.08
454.634	0.25
454.835	0.13
455.036	0.02
455.238	0.16
455.439	0.18
455.64	0.1
455.841	0.08
456.042	0.21
456.244	0.17
456.445	0.02
456.646	0.01
456.847	0.07
457.048	0.22
457.249	0.15
457.45	0.3
457.651	0.05
457.852	0.17
458.054	0.08
458.255	0.05
458.456	0.11
458.657	0.08
458.858	0.04
459.058	0.12
459.259	0.15
459.46	0.04
459.661	0.05
459.862	0.16
460.063	0.05
460.264	0.12
460.465	-0.02
460.666	0.16
460.866	0.04
461.067	0.09
461.268	0.04
461.469	0.05
461.67	0.1
461.87	0.01
462.071	0.03
462.272	-0.02
462.473	0.06
462.673	0.07
462.874	0.04
463.075	0.05
463.275	0.01
463.476	0.06
463.676	0.03
463.877	0.06
464.078	0.05
464.278	0.1
464.479	0.02
464.679	0.04
464.88	0.06
465.08	0.14
465.281	-0.02
465.481	0.02
465.682	0.05
465.882	0.08
466.083	0.07
466.283	0.03
466.483	0.03
466.684	-0.01
466.884	0.04
467.085	-0.02
467.285	0.1
467.485	-0.04
467.686	0.04
467.886	0.02
468.086	0.02
468.286	0.03
468.487	0.08
468.687	0.01
468.887	0.07
469.087	0.09
469.287	0.03
469.488	-0.04
469.688	0.05
469.888	0.06
470.088	0.05
470.288	0.08
470.488	0.03
470.688	-0.04
470.888	0.02
471.088	-0.01
471.288	0.07
471.488	0.09
471.688	0.04
471.888	0.02
472.088	0.11
472.288	0.1
472.488	-0.01
472.688	-0.01
472.888	0.06
473.088	0.02
473.288	0.03
473.488	0.01
473.688	0.08
473.887	0.03
474.087	-0.02
474.287	0.01
474.487	0.02
474.687	0.06
474.886	-0.01
475.086	0.01
475.286	0.01
475.486	0.01
475.685	0.04
475.885	-0.02
476.085	0.03
476.284	0.03
476.484	0.01
476.684	0.01
476.883	0.06
477.083	0.05
477.282	-0.02
477.482	0.06
477.681	0.05
477.881	0.05
478.08	-0.04
478.28	-0.02
478.479	0.04
478.679	0.08
478.878	0
479.078	-0.02
479.277	-0.01
479.477	0
479.676	0.04
479.875	0
480.075	-0.04
480.274	0.07
480.473	0.01
480.673	-0
480.872	0.07
481.071	0.03
481.271	0.01
481.47	-0.02
481.669	0.02
481.868	0.01
482.067	-0
482.267	-0.01
482.466	-0.01
482.665	-0.02
482.864	-0.02
483.063	-0.06
483.262	0.01
483.461	0.05
483.661	0.01
483.86	0.02
484.059	0
484.258	0.03
484.457	0.01
484.656	0.03
484.855	0.05
485.054	-0.04
485.253	-0.01
485.452	-0.03
485.651	0.02
485.849	-0.01
486.048	0
486.247	-0.02
486.446	0.02
486.645	-0.04
486.844	-0.02
487.043	-0.04
487.241	0.03
487.44	-0.04
487.639	-0.01
487.838	0.02
488.037	0.01
488.235	0.05
488.434	0
488.633	-0.02
488.831	0.02
489.03	0.05
489.229	0.01
489.427	-0.01
489.626	0.06
489.825	0.03
490.023	-0.01
490.222	0
490.42	0.02
490.619	0.03
490.817	0.03
491.016	-0.02
491.214	0.04
491.413	0
491.611	-0.01
491.81	0.02
492.008	0.04
492.207	0.02
492.405	0.02
492.604	-0.02
492.802	-0.03
493	0.03
493.199	-0.01
493.397	0.01
493.595	0
493.794	-0.02
493.992	0.04
494.19	-0
494.388	0.01
494.587	-0.03
494.785	0.02
494.983	-0.02
495.181	0.02
495.379	0.02
495.578	-0
495.776	0.02
495.974	0.02
496.172	0
496.37	-0.01
496.568	-0.01
496.766	-0.03
496.964	0.02
497.162	0.01
497.36	-0.03
497.558	0.02
497.756	0.03
497.954	-0.02
498.152	-0.01
498.35	-0.01
498.548	0
498.746	0.03
498.944	-0.01
499.142	0.01
499.34	-0.04
499.538	-0
499.736	-0.01
499.933	0.04
500.131	0.05
500.329	0.01
500.527	0.02
500.725	0.04
500.922	0.03
501.12	0.01
501.318	0.03
501.516	-0.02
501.713	0
501.911	0
502.109	-0.03
502.306	0.02
502.504	-0.01
502.701	-0.02
502.899	-0
503.097	0.05
503.294	-0
503.492	-0.01
503.689	-0.01
503.887	0.05
504.084	0.05
504.282	0
504.479	-0.03
504.677	0.02
504.874	-0.02
505.072	-0
505.269	0
505.466	0.03
505.664	-0.01
505.861	-0.04
506.059	-0.02
506.256	0.01
506.453	-0.01
506.651	0.06
506.848	0.03
507.045	0.02
507.242	0.01
507.44	0.01
507.637	0.02
507.834	-0
508.031	0.03
508.229	-0.02
508.426	0.01
508.623	0.03
508.82	-0.01
509.017	-0.01
509.214	-0.02
509.411	0.01
509.608	-0.03
509.805	0.01
510.003	0
510.2	-0.03
510.397	0.03
510.594	-0.02
510.791	-0.02
510.988	-0.01
511.184	0.04
511.381	-0.02
511.578	-0.02
511.775	0.03
511.972	-0.03
512.169	-0.02
512.366	-0.01
512.563	0
512.76	0
512.956	-0.02
513.153	-0.01
513.35	0.03
513.547	-0.03
513.744	-0.03
513.94	-0.02
514.137	0.01
514.334	0
514.53	-0
514.727	-0
514.924	0.07
515.12	-0.03
515.317	-0.04
515.514	-0.02
515.71	0
515.907	-0.01
516.103	-0.02
516.3	0.01
516.497	0.03
516.693	0.04
516.89	-0
517.086	-0.02
517.283	0.04
517.479	0.02
517.676	-0
517.872	-0.01
518.068	-0.02
518.265	-0
518.461	-0.02
518.658	-0.02
518.854	-0
519.05	-0
519.247	-0.02
519.443	0
519.639	0.03
519.836	-0
520.032	-0.01
520.228	0
520.424	0.06
520.621	-0
520.817	0
521.013	0.03
521.209	0.01
521.405	0.05
521.601	-0
521.798	-0.01
521.994	0.05
522.19	-0
522.386	-0.02
522.582	0.02
522.778	0.01
522.974	-0.01
523.17	0
523.366	0.02
523.562	0.04
523.758	-0
523.954	-0.02
524.15	0
524.346	0.04
524.542	0
524.738	-0.02
524.934	-0.01
525.129	0
525.325	0.01
525.521	0.01
525.717	0.03
525.913	-0
526.109	0.01
526.304	-0.01
526.5	-0.01
526.696	0.04
526.892	0
527.087	0.03
527.283	-0.02
527.479	0.02
527.674	-0.02
527.87	0
528.066	-0
528.261	0.02
528.457	0.03
528.653	0.01
528.848	-0.02
529.044	0
529.239	0
529.435	0.04
529.63	0
529.826	0.06
530.021	0.02
530.217	-0
530.412	-0.01
530.608	-0.02
530.803	0
530.999	-0.02
531.194	-0.04
531.389	0.02
531.585	-0.05
531.78	0.01
531.975	-0
532.171	0.02
532.366	0.01
532.561	0.02
532.757	-0
532.952	-0.01
533.147	0.02
533.342	0
533.538	-0.01
533.733	0.03
533.928	-0
534.123	-0.02
534.318	-0.02
534.513	-0
534.709	0
534.904	-0.02
535.099	-0.01
535.294	-0
535.489	0
535.684	-0.02
535.879	-0.03
536.074	-0.01
536.269	-0.02
536.464	0.01
536.659	-0.01
536.854	-0
537.049	0.03
537.244	0
537.439	-0.01
537.634	0.05
537.828	0
538.023	0
538.218	-0.05
538.413	-0.02
538.608	-0.04
538.803	0.01
538.997	-0.03
539.192	0.01
539.387	0.02
539.582	0
539.776	0.01
539.971	0
540.166	-0.02
540.36	-0.03
540.555	0.01
540.75	-0.01
540.944	-0.01
541.139	-0.04
541.334	-0.01
541.528	0.02
541.723	0.03
541.917	-0
542.112	-0.03
542.306	-0.02
542.501	-0.02
542.695	0
542.89	-0.04
543.084	0.01
543.279	-0.01
543.473	0
543.668	0.01
543.862	-0.01
544.056	-0
544.251	-0
544.445	0.01
544.64	-0.01
544.834	-0.04
545.028	-0.01
545.222	0
545.417	0.02
545.611	0.01
545.805	0
546	-0.02
546.194	0.01
546.388	0
546.582	0.04
546.776	0
546.97	0.01
547.165	-0.01
547.359	0.03
547.553	-0.01
547.747	0.03
547.941	0.02
548.135	-0.01
548.329	0.02
548.523	-0.01
548.717	-0.01
548.911	-0.01
549.105	0.01
549.299	0.01
549.493	0.02
549.687	-0
549.881	0.01
550.075	0.01
550.269	-0.03
550.463	0.01
550.657	-0.03
550.85	-0.01
551.044	-0.02
551.238	0.01
551.432	-0.03
551.626	-0.01
551.82	-0.03
552.013	0.01
552.207	0.02
552.401	0.02
552.594	-0.01
552.788	-0.01
552.982	-0.01
553.176	0.01
553.369	0.02
553.563	0
553.756	-0.04
553.95	-0.02
554.144	0
554.337	0.03
554.531	-0
554.724	0.01
554.918	-0.02
555.111	0.02
555.305	0.01
555.498	0.08
555.692	0.03
555.885	-0.01
556.079	-0.02
556.272	-0
556.466	0.03
556.659	0.02
556.852	0
557.046	-0.01
557.239	0.04
557.432	-0.04
557.626	-0.06
557.819	-0
558.012	0.03
558.206	0.02
558.399	-0
558.592	0.03
558.785	-0.01
558.979	0.03
559.172	0
559.365	0.01
559.558	-0
559.751	-0.01
559.944	-0.01
560.138	-0.02
560.331	0
560.524	-0.04
560.717	-0.03
560.91	-0.01
561.103	0
561.296	0.01
561.489	0.01
561.682	0.01
561.875	0.04
562.068	0
562.261	0.01
562.454	0.04
562.647	-0.02
562.84	0.02
563.032	-0.02
563.225	0.02
563.418	-0.02
563.611	-0.01
563.804	-0
563.997	-0.03
564.19	-0.03
564.382	-0
564.575	-0
564.768	-0.01
564.961	0.01
565.153	0.01
565.346	0.03
565.539	0.03
565.731	0
565.924	0
566.117	0.03
566.309	0.03
566.502	-0.02
566.695	-0.01
566.887	-0.01
567.08	-0.02
567.272	-0.02
567.465	-0.01
567.657	-0.01
567.85	0.01
568.042	0
568.235	0.03
568.427	0
568.62	0
568.812	0.01
569.005	-0.01
569.197	-0.04
569.389	0.01
569.582	0.01
569.774	-0.01
569.966	-0.04
570.159	-0.04
570.351	0.03
570.543	-0.02
570.736	-0.01
570.928	-0.03
571.12	0
571.312	-0.02
571.505	-0.05
571.697	0.03
571.889	-0.02
572.081	-0.02
572.273	-0.02
572.465	0.03
572.658	-0.02
572.85	0.01
573.042	-0.01
573.234	-0
573.426	0.05
573.618	-0.03
573.81	0.02
574.002	0.02
574.194	0.04
574.386	-0.03
574.578	-0.07
574.77	-0.03
574.962	-0.01
575.154	-0.06
575.346	-0.01
575.538	-0.02
575.729	-0.02
575.921	-0
576.113	-0.02
576.305	0.04
576.497	0.01
576.689	-0.01
576.88	-0.05
577.072	0.02
577.264	-0.01
577.456	0.01
577.647	-0.05
577.839	0.01
578.031	0.05
578.223	-0.03
578.414	-0.06
578.606	0.03
578.798	0.02
578.989	-0.02
579.181	-0.01
579.372	0
579.564	-0.01
579.755	0.02
579.947	0.02
580.139	0.02
580.33	-0.03
580.522	-0.04
580.713	-0.07
580.905	0
581.096	0.02
581.287	-0.01
581.479	-0.02
581.67	0.01
581.862	-0.01
582.053	-0.01
582.244	-0.04
582.436	-0.02
582.627	0.01
582.818	-0.03
583.01	-0.05
583.201	0.01
583.392	0.04
583.583	0.02
583.775	-0.03
583.966	-0.03
584.157	-0.01
584.348	-0.01
584.54	-0.02
584.731	0
584.922	0
585.113	-0.03
585.304	0.02
585.495	0.04
585.686	0.01
585.877	0.01
586.068	0.01
586.259	0.02
586.45	0.01
586.641	-0.03
586.832	-0.06
587.023	0.01
587.214	-0.02
587.405	0
587.596	-0.04
587.787	0.04
587.978	-0
588.169	-0.02
588.36	-0.05
588.551	0.01
588.742	0
588.932	0.01
589.123	-0.01
589.314	0.03
589.505	0.02
589.696	0.02
589.886	-0.02
590.077	-0.04
590.268	0.01
590.458	-0.04
590.649	-0.05
590.84	0.05
591.03	-0.02
591.221	-0.07
591.412	-0.05
591.602	0.02
591.793	0.03
591.984	-0.02
592.174	-0.01
592.365	0.05
592.555	-0.03
592.746	0.01
592.936	-0
593.127	-0
593.317	0.03
593.508	-0.01
593.698	-0
593.889	-0.01
594.079	-0
594.269	-0.03
594.46	-0
594.65	-0
594.84	-0.02
595.031	-0.05
595.221	-0.04
595.411	-0.02
595.602	0.04
595.792	-0.01
595.982	-0.02
596.172	0.06
596.363	0
596.553	-0.01
596.743	-0
596.933	-0.02
597.123	0.01
597.314	-0.03
597.504	-0.03
597.694	0.06
597.884	0.02
598.074	-0.03
598.264	-0.03
598.454	0.02
598.644	0
598.834	-0
599.024	-0.07
599.214	-0.01
599.404	0.03
599.594	-0.01
599.784	-0.02
599.974	0.04
600.164	0.04
600.354	-0.04
600.544	-0.05
600.734	-0.01
600.924	0.03
601.114	-0.02
601.303	-0.01
601.493	-0.02
601.683	-0.02
601.873	-0.01
602.063	-0.04
602.252	0.01
602.442	-0.06
602.632	-0.01
602.821	-0.04
603.011	0.02
603.201	-0.03
603.39	-0.04
603.58	-0.06
603.77	0.02
603.959	0.03
604.149	0.01
604.339	-0.03
604.528	0.04
604.718	0.01
604.907	-0.03
605.097	-0.02
605.286	-0.02
605.476	0.03
605.665	0.01
605.855	-0.03
606.044	0.06
606.234	0.01
606.423	-0
606.612	-0.03
606.802	-0.02
606.991	0.04
607.181	-0.01
607.37	-0.03
607.559	0.01
607.749	-0.06
607.938	-0.01
608.127	-0.03
608.316	-0.03
608.506	0.02
608.695	-0.02
608.884	-0.01
609.073	-0.02
609.263	0.01
609.452	-0
609.641	0
609.83	-0.06
610.019	0.01
610.208	-0.04
610.397	0
610.586	0.03
610.775	-0.04
610.965	-0.03
611.154	-0.04
611.343	0.03
611.532	-0.04
611.721	-0.01
611.91	-0.02
612.099	0.04
612.287	-0
612.476	-0.04
612.665	0.05
612.854	-0.03
613.043	0.07
613.232	0.01
613.421	-0.05
613.61	0
613.798	-0.02
613.987	0.03
614.176	-0.02
614.365	0.01
614.554	-0.03
614.742	0.03
614.931	-0.03
615.12	0.02
615.309	-0.02
615.497	0.01
615.686	-0.04
615.875	-0.03
616.063	0.01
616.252	-0.03
616.44	-0.05
616.629	0.01
616.818	0.03
617.006	-0.01
617.195	-0.01
617.383	0
617.572	-0
617.76	-0.02
617.949	-0.03
618.137	0
618.326	0.05
618.514	-0.04
618.703	-0.06
618.891	0.05
619.079	-0.05
619.268	-0.01
619.456	-0.02
619.644	0.07
619.833	-0
620.021	-0.02
620.209	-0.05
620.398	0.01
620.586	-0.01
620.774	0
620.962	-0.01
621.151	0.05
621.339	0.02
621.527	-0.06
621.715	-0.04
621.903	-0.06
622.092	-0.05
622.28	0
622.468	0
622.656	-0.03
622.844	0.03
623.032	-0.01
623.22	-0.06
623.408	0.03
623.596	0.03
623.784	0.02
623.972	-0.03
624.16	-0.04
624.348	0.05
624.536	-0.03
624.724	-0.02
624.912	0.05
625.1	0.02
625.288	-0.03
625.476	-0.02
625.664	0.02
625.851	-0.03
626.039	0.02
626.227	0.01
626.415	-0
626.603	-0.08
626.79	0
626.978	-0.01
627.166	0.01
627.354	-0.02
627.541	-0.06
627.729	-0.08
627.917	0.02
628.104	0.04
628.292	0.01
628.48	-0.01
628.667	-0.01
628.855	0
629.042	0
629.23	-0.02
629.418	-0.01
629.605	-0.03
629.793	-0.02
629.98	-0.02
630.168	-0.01
630.355	-0.01
630.543	-0.01
630.73	-0.06
630.917	0.02
631.105	0.04
631.292	-0.04
631.48	0
631.667	0.07
631.854	0.02
632.042	-0.05
632.229	-0.06
632.416	-0.02
632.604	-0
632.791	-0.02
632.978	0.02
633.165	0.04
633.353	0.04
633.54	0.02
633.727	-0.05
633.914	-0.03
634.101	-0.06
634.289	0.01
634.476	-0.05
634.663	-0.06
634.85	0.02
635.037	-0.07
635.224	-0.08
635.411	0.05
635.598	0.03
635.785	-0.03
635.972	0
636.159	0.01
636.346	-0.04
636.533	-0.03
636.72	-0.04
636.907	-0.02
637.094	0.01
637.281	-0.04
637.468	-0
637.655	0
637.842	-0.02
638.029	-0.05
638.215	0.03
638.402	-0
638.589	-0.02
638.776	-0.04
638.963	-0.05
639.149	0
639.336	0.07
639.523	-0.02
639.709	0.02
639.896	-0.02
640.083	0.06
640.27	-0.02
640.456	-0.04
640.643	0.03
640.829	-0.04
641.016	-0.05
641.203	-0.04
641.389	0.03
641.576	0.01
641.762	-0.01
641.949	-0.01
642.135	0
642.322	-0.01
642.508	-0.06
642.695	-0.04
642.881	-0
643.068	0.01
643.254	-0.02
643.441	0.01
643.627	-0.02
643.813	-0
644	0.04
644.186	-0.04
644.372	-0.01
644.559	0.03
644.745	-0.03
644.931	-0.03
645.118	-0.02
645.304	-0.03
645.49	-0.03
645.676	-0.01
645.862	0.01
646.049	0.05
646.235	-0
646.421	0.04
646.607	0.06
646.793	-0.02
646.979	-0.06
647.165	0
647.352	0.01
647.538	0.03
647.724	-0.03
647.91	0.02
648.096	-0.02
648.282	-0
648.468	-0.02
648.654	0.01
648.84	-0.02
649.026	-0.01
649.212	-0.03
649.397	-0.02
649.583	-0.04
649.769	0.02
649.955	-0.03
650.141	0.04
650.327	0.02
650.513	-0.03
650.698	0.05
650.884	-0.09
651.07	0.01
651.256	-0
651.442	-0.01
651.627	-0.03
651.813	0.02
651.999	0.02
652.184	0.01
652.37	-0.04
652.556	-0
652.741	0.02
652.927	-0.07
653.113	-0.03
653.298	-0
653.484	-0.04
653.669	-0.07
653.855	-0
654.04	0.01
654.226	-0.02
654.412	-0.04
654.597	-0.06
654.782	-0.02
654.968	0.03
655.153	-0.02
655.339	-0.01
655.524	-0.06
655.71	0.06
655.895	-0.03
656.08	-0.01
656.266	0.02
656.451	-0.03
656.636	-0.07
656.822	-0
657.007	-0.07
657.192	0.01
657.378	-0.05
657.563	-0.01
657.748	0.02
657.933	0.01
658.118	-0.03
658.304	-0
658.489	0.01
658.674	0.02
658.859	-0.06
659.044	-0.01
659.229	0.01
659.414	-0.02
659.599	-0
659.785	-0.08
659.97	-0
660.155	0
660.34	0.01
660.525	-0.02
660.71	-0.05
660.895	0.01
661.08	-0.04
661.264	-0.04
661.449	0.07
661.634	0.01
661.819	-0
662.004	0
662.189	-0.04
662.374	-0.02
662.559	-0.06
662.743	-0.07
662.928	0
663.113	-0.06
663.298	-0.04
663.483	-0
663.667	-0
663.852	-0.02
664.037	-0.01
664.221	-0.05
664.406	0.02
664.591	0.01
664.775	0
664.96	-0.1
665.145	0.02
665.329	-0
665.514	-0.01
665.698	-0.03
665.883	-0.07
666.068	0.05
666.252	-0.05
666.437	-0.06
666.621	0.01
666.806	0.03
666.99	-0.02
667.174	-0.06
667.359	0.06
667.543	-0.05
667.728	0
667.912	-0.05
668.096	0.05
668.281	-0.01
668.465	-0.02
668.649	0.01
668.834	-0.03
669.018	-0.01
669.202	-0.02
669.387	-0.04
669.571	-0.01
669.755	-0.04
669.939	-0.01
670.124	-0.04
670.308	0.06
670.492	0.03
670.676	-0.01
670.86	-0
671.044	-0.03
671.228	0.03
671.413	-0.02
671.597	-0.05
671.781	-0.06
671.965	0.01
672.149	-0.03
672.333	-0.04
672.517	-0.02
672.701	0.03
672.885	-0.04
673.069	-0.08
673.253	0.04
673.437	-0.01
673.621	-0.09
673.804	-0.01
673.988	-0.05
674.172	-0.03
674.356	-0.08
674.54	-0.05
674.724	0.1
674.908	-0.04
675.091	0
675.275	-0.03
675.459	0.03
675.643	0.04
675.826	-0.02
676.01	0.01
676.194	-0.02
676.377	0.05
676.561	0.04
676.745	-0.03
676.928	0.01
677.112	0.02
677.296	-0.05
677.479	-0.06
677.663	-0.03
677.846	0.01
678.03	0
678.213	-0.08
678.397	0.02
678.58	0.01
678.764	-0.02
678.947	-0.05
679.131	-0.07
679.314	0.03
679.498	0.03
679.681	0.01
679.865	0.03
680.048	0.01
680.231	-0.02
680.415	0.01
680.598	-0.04
680.781	-0.02
680.965	-0.07
681.148	-0
681.331	-0.01
681.514	0
681.698	-0.02
681.881	-0.04
682.064	0.01
682.247	0.01
682.43	-0.05
682.614	-0
682.797	0.05
682.98	0.02
683.163	-0.04
683.346	0.01
683.529	-0.06
683.712	-0.05
683.895	0.03
684.078	-0.05
684.261	-0.05
684.444	-0.01
684.627	-0
684.81	-0.01
684.993	-0.03
685.176	0.03
685.359	-0.05
685.542	-0.02
685.725	0.07
685.908	-0.03
686.091	-0.07
686.274	0.05
686.457	0.06
686.639	-0.01
686.822	0.02
687.005	-0
687.188	0.04
687.371	0.1
687.553	-0
687.736	-0.01
687.919	0.07
688.102	0.05
688.284	-0.02
688.467	0.01
688.65	-0.02
688.832	-0.04
689.015	0.04
689.197	-0.05
689.38	0.04
689.563	0.1
689.745	-0.08
689.928	-0.08
690.11	-0.01
690.293	0.03
690.475	-0.08
690.658	0.06
690.84	-0.07
691.023	-0.01
691.205	-0.09
691.388	0.01
691.57	0.06
691.752	0.07
691.935	-0.06
692.117	-0.05
692.3	0.03
692.482	-0.05
692.664	0.03
692.847	-0.01
693.029	0.03
693.211	0.01
693.393	-0.02
693.576	-0.04
693.758	-0
693.94	-0.09
694.122	0.02
694.304	-0.03
694.487	-0.04
694.669	0.08
694.851	-0.04
695.033	-0.06
695.215	-0.01
695.397	-0.03
695.579	0.03
695.761	-0.05
695.943	-0.07
696.125	0.07
696.308	0.02
696.49	-0.12
696.671	0.12
696.853	-0.02
697.035	0.17
697.217	-0.03
697.399	0.04
697.581	-0.04
697.763	-0.02
697.945	-0.09
698.127	0.06
698.309	0.07
698.491	0.02
698.672	0.01
698.854	0.03
699.036	0.06
699.218	-0.04
699.399	0.04
699.581	0.07
699.763	-0.01
699.945	-0.07
700.126	-0.09
700.308	0
700.49	-0.04
700.671	-0.08
700.853	-0.06
701.035	-0.01
701.216	0.01
701.398	-0.05
701.579	-0.04
701.761	-0.02
701.943	-0.02
702.124	-0.11
702.306	-0.02
702.487	0.11
702.669	0.05
702.85	-0.03
703.031	-0.1
703.213	0.08
703.394	0.06
703.576	-0.08
703.757	0.09
703.938	0.04
704.12	0.1
704.301	-0.01
704.483	-0.07
704.664	-0.02
704.845	0.07
705.026	0.03
705.208	0
705.389	0.03
705.57	0.05
705.751	0.02
705.933	-0.02
706.114	0.09
706.295	-0.02
706.476	-0.04
706.657	0.12
706.838	0.04
707.02	0.05
707.201	-0.09
707.382	-0.08
707.563	0
707.744	0
707.925	-0.04
708.106	-0.07
708.287	0.04
708.468	0.04
708.649	-0.02
708.83	-0
709.011	-0.02
709.192	0.02
709.373	-0.09
709.554	-0.05
709.734	0.05
709.915	0.09
710.096	0.02
710.277	-0.15
710.458	0.03
710.639	0.04
710.819	-0.09
711	-0.05
711.181	0.05
711.362	0.08
711.542	-0
711.723	0.04
711.904	0.05
712.085	-0.06
712.265	-0.05
712.446	-0.08
712.627	-0.07
712.807	0.02
712.988	0.02
713.168	-0.1
713.349	0.01
713.53	-0.12
713.71	-0.06
713.891	-0.04
714.071	0.02
714.252	-0
714.432	-0.09
714.613	-0.1
714.793	0
714.974	0.05
715.154	0.12
715.334	0.05
715.515	0.05
715.695	-0.05
715.876	-0.03
716.056	0.01
716.236	-0.03
716.417	-0
716.597	-0.1
716.777	0.11
716.957	-0.03
717.138	-0.01
717.318	-0.01
717.498	-0.15
717.678	-0
717.859	0.06
718.039	-0.06
718.219	0.03
718.399	0.01
718.579	-0.05
718.759	-0.1
718.939	0.07
719.12	0.02
719.3	-0.01
719.48	-0.11
719.66	-0.14
719.84	0
720.02	0.06
720.2	-0.01
720.38	-0
720.56	0.08
720.74	-0.01
720.92	0.02
721.1	0.11
721.279	0.05
721.459	-0
721.639	-0.09
721.819	0.01
721.999	0.02
722.179	-0.04
722.359	-0.1
722.538	-0.01
722.718	0.06
722.898	-0.03
723.078	0.01
723.257	-0.06
723.437	0.01
723.617	-0.01
723.797	-0.01
723.976	-0.02
724.156	-0.04
724.336	0.09
724.515	0.09
724.695	-0.14
724.874	-0.05
725.054	0.08
725.234	-0.07
725.413	-0.02
725.593	0.03
725.772	-0.04
725.952	-0.06
726.131	-0.08
726.311	0.08
726.49	-0.01
726.67	-0.01
726.849	-0.05
727.028	0.09
727.208	-0.06
727.387	-0
727.567	-0.14
727.746	-0.07
727.925	-0.06
728.105	-0.12
728.284	-0.1
728.463	-0.28
728.643	0.03
728.822	-0.17
729.001	-0.04
729.18	0.07
729.359	0.06
729.539	-0.02
729.718	0.02
729.897	0.02
730.076	-0.05
730.255	-0.1
730.434	-0.03
730.614	0.03
730.793	0.07
730.972	-0.1
731.151	0.03
731.33	0.03
731.509	0.01
731.688	0.01
731.867	-0.04
732.046	-0.22
732.225	0.22
732.404	-0.01
732.583	-0.12
732.762	-0.05
732.941	0.05
733.12	-0.06
733.298	0
733.477	0.05
733.656	-0.08
733.835	-0.11
734.014	0.07
734.193	0.04
734.371	-0.01
734.55	0.15
734.729	-0.09
734.908	-0
735.086	0.03
735.265	0.04
735.444	-0.24
735.623	-0.08
735.801	-0.04
735.98	0.07
736.159	-0.02
736.337	0.01
736.516	-0
736.694	-0.01
736.873	-0.05
737.052	0.09
737.23	0.21
737.409	0.05
737.587	0.17
737.766	-0.15
737.944	-0.07
738.123	-0.03
738.301	0.08
738.479	-0.09
738.658	0.06
738.836	-0.25
739.015	-0.03
739.193	0.1
739.371	-0.09
739.55	0.01
739.728	-0.16
739.906	0.17
740.085	0.08
740.263	0.07
740.441	-0.19
740.62	0.18
740.798	-0.01
740.976	-0.06
741.154	-0.08
741.332	0.08
741.511	-0.04
741.689	0.02
741.867	0.07
742.045	-0.01
742.223	-0.12
742.401	-0.2
742.579	-0.07
742.757	0
742.935	-0.05
743.114	-0.06
743.292	-0.09
743.47	-0.12
743.648	0.02
743.826	-0.13
744.004	0.02
744.181	0.09
744.359	-0.1
744.537	0.07
744.715	-0.08
744.893	0.04
745.071	0.06
745.249	-0.05
745.427	-0.09
745.605	0.14
745.782	0
745.96	0.04
746.138	-0.03
746.316	0.05
746.493	-0.05
746.671	-0.02
746.849	-0.06
747.027	0.11
747.204	-0.12
747.382	0.07
747.56	-0.1
747.737	-0.06
747.915	-0.04
748.093	0.08
748.27	-0.11
748.448	-0.02
748.625	-0.18
748.803	-0.14
748.98	0.03
749.158	-0.02
749.335	0.04
749.513	0
749.69	-0.05
749.868	0.03
750.045	0.01
750.223	-0.04
750.4	-0.15
750.578	0.21
750.755	-0.08
750.932	-0.2
751.11	0.08
751.287	-0.2
751.464	0.15
751.642	-0.16
751.819	0.02
751.996	0.01
752.173	-0.06
752.351	-0.13
752.528	-0.01
752.705	0.02
752.882	-0.18
753.06	-0.05
753.237	0.05
753.414	0.14
753.591	0.07
753.768	0.05
753.945	-0.03
754.122	-0.11
754.299	0.13
754.476	-0.09
754.654	-0.03
754.831	0.11
755.008	-0.08
755.185	-0.16
755.362	-0.09
755.539	0.01
755.716	-0.11
755.892	0.03
756.069	-0.06
756.246	-0.02
756.423	-0.06
756.6	0.05
756.777	-0.01
756.954	0.1
757.131	-0.07
757.307	-0.07
757.484	-0.17
757.661	0.02
757.838	0.02
758.015	-0.14
758.191	0.01
758.368	0.04
758.545	0.22
758.721	0.05
758.898	-0.13
759.075	0.02
759.251	0.07
759.428	0.05
759.605	-0.21
759.781	-0.09
759.958	0.12
760.134	-0.01
760.311	-0.14
760.488	0.1
760.664	0.15
760.841	-0.14
761.017	-0.17
761.194	0.06
761.37	0.11
761.547	0.01
761.723	-0.06
761.899	0.11
762.076	0.04
762.252	-0.12
762.429	-0.03
762.605	0.06
762.781	-0.07
762.958	0.09
763.134	-0.02
763.31	-0.06
763.486	0.15
763.663	-0.2
763.839	0.02
764.015	-0.29
764.191	-0.06
764.368	-0.06
764.544	-0.08
764.72	-0.08
764.896	0.11
765.072	0.05
765.248	-0.03
765.425	-0.07
765.601	-0
765.777	0.12
765.953	-0.27
766.129	0.01
766.305	-0.11
766.481	0
766.657	-0.09
766.833	0.17
767.009	-0.1
767.185	0.04
767.361	0.03
767.537	-0.21
767.713	0.15
767.889	-0.17
768.065	0.04
768.24	-0.25
768.416	0.22
768.592	-0.03
768.768	-0.02
768.944	-0.02
769.12	-0.09
769.295	-0.05
769.471	-0.05
769.647	-0.11
769.823	0.23
769.998	-0.19
770.174	-0.11
770.35	0.21
770.525	0.31
770.701	0.08
770.877	0
771.052	-0.06
771.228	0.1
771.403	0.01
771.579	0.13
771.755	0.24
771.93	-0.12
772.106	-0.12
772.281	-0.16
772.457	-0.02
772.632	0.11
772.808	-0.03
772.983	-0.1
773.159	-0.2
773.334	0.17
773.509	0.09
773.685	-0.08
773.86	0.31
774.036	0.35
774.211	0.09
774.386	0
774.562	0.07
774.737	0.02
774.912	-0.09
775.087	-0.02
775.263	-0.05
775.438	0.02
775.613	-0.21
775.788	-0.08
775.964	0.08
776.139	0.36
776.314	-0.31
776.489	0.02
776.664	0.01
776.839	-0.1
777.014	-0.08
777.19	0.14
777.365	0.19
777.54	0.1
777.715	-0.09
777.89	0.04
778.065	-0.13
778.24	-0.01
778.415	0.12
778.59	-0.07
778.765	-0.22
778.94	0.05
779.115	-0.03
779.289	-0.03
779.464	-0.06
779.639	-0.12
779.814	-0.17
779.989	-0.15
780.164	0.13
780.339	0.16
780.513	-0.14
780.688	-0.26
780.863	-0.03
781.038	0.21
781.212	-0.14
781.387	0.1
781.562	0.3
781.737	0.2
781.911	0.16
782.086	-0.2
782.261	-0.08
782.435	0.29
782.61	-0.13
782.784	-0.08
782.959	0.39
783.134	-0.09
783.308	-0.24
783.483	-0.1
783.657	0.42
783.832	0.15
784.006	-0.24
784.181	0.06
784.355	0.13
784.53	-0.15
784.704	-0.32
784.878	0.19
785.053	0.14
785.227	0.18
785.402	0.42
785.576	-0.12
785.75	0.02
785.925	-0.3
786.099	0.2
786.273	0.14
786.448	0.06
786.622	0.26
786.796	-0.04
786.97	-0.12
787.145	0.56
787.319	-0.12
787.493	-0.02
787.667	-0.34
787.841	0.02
788.015	0.15
788.19	-0.13
788.364	-0.13
788.538	0.25
788.712	0.23
788.886	-0.14
789.06	0.14
789.234	0.05
789.408	-0.3
789.582	0.13
789.756	-0.26
789.93	-0.12
790.104	-0
790.278	-0.07
790.452	-0.22
790.626	0.01
790.8	-0.22
790.973	0.09
791.147	0.25
791.321	0.21
791.495	0.36
791.669	0.03
791.843	0.09
792.016	-0.04
792.19	0.46
792.364	-0.21
792.538	0.51
792.711	0.28
792.885	-0.3
793.059	-0.3
793.233	-0.75
793.406	0.1
793.58	0.15
793.754	-0.06
793.927	-0.08
794.101	0.36
794.274	0.31
794.448	0.13
794.622	-0.3
794.795	0.51
794.969	-0.09
795.142	0.38
795.316	-0.07
795.489	-0.22
795.663	0.29
795.836	0.15
796.009	-0.25
796.183	0.52
796.356	-0.08
796.53	0.25
796.703	0.05
796.876	0.66
797.05	-0.14
797.223	-0.14
797.396	0.01
797.57	-0.11
797.743	0.46
797.916	-0.04
798.09	-0.16
798.263	0.31
798.436	-0.02
798.609	-0.22
798.782	-0.08
798.956	0.05
799.129	-0.05
799.302	-0.14
799.475	-0.25
799.648	-0.16
799.821	-0.11
799.994	-0.09
800.167	-0.39
800.34	-0.01
800.514	0.15
800.687	-0.25
800.86	-0.38
801.033	-0.02
801.206	0.27
801.379	-0.35
801.551	0.37
801.724	-0.03
801.897	0.34
802.07	-0.09
802.243	-0.54
802.416	-0.08
802.589	-0.1
802.762	0.04
802.935	-0.11
803.107	0.18
803.28	0.49
803.453	0.32
803.626	-0.5
803.798	-0.15
803.971	-0.2
804.144	0.07
804.317	-0.03
804.489	0.13
804.662	-0.01
804.835	-0.04
805.007	-0.29
805.18	0.53
805.353	-0.14
805.525	-0.35
805.698	-0.61
805.87	0.38
806.043	0.1
806.215	-0.46
806.388	-0.4
806.56	-0.05
806.733	0.08
806.905	-0.12
807.078	-0.11
807.25	-0.22
807.423	0.21
807.595	-0.04
807.768	0.1
807.94	0.39
808.112	0.35
808.285	-0.04
808.457	-0.36
808.629	-0.14
808.802	0.17
808.974	-0.03
809.146	-0.08
809.318	-0.48
809.491	0.08
809.663	0.17
809.835	-0.32
810.007	0.44
810.18	0.26
810.352	-0.43
810.524	-0.32
810.696	0.42
810.868	0.54
811.04	0.06
811.212	0
811.384	0.3
811.556	0.04
811.728	-0.14
811.901	0.65
812.073	-0.02
812.245	0.14
812.417	-0.14
812.589	-0.47
812.76	0.04
812.932	0.25
813.104	-0.05
813.276	-0.05
813.448	0.38
813.62	-0.19
813.792	0.08
813.964	-0.05
814.136	0.25
814.307	-0.12
814.479	-0.38
814.651	-0.21
814.823	1.03
814.995	0.11
815.166	-0.03
815.338	-0.38
815.51	-0.47
815.681	0.65
815.853	-0.2
816.025	-0.16
816.196	0.69
816.368	0.01
816.54	-0.47
816.711	-0.39
816.883	0.01
817.054	1.17
817.226	-0.34
817.398	-0.12
817.569	-0.36
817.741	-0.04
817.912	-0.04
818.084	-0.34
818.255	0.35
818.426	-0.06
818.598	-0.09
818.769	-0.4
818.941	0.18
819.112	0.76
819.283	0.43
819.455	-0.43
819.626	0.27
819.798	-0.11
819.969	0.07
820.14	-0.08
820.311	-0.61
820.483	0.13
820.654	0.04
820.825	0.13
820.996	-0.04
821.168	-0.44
821.339	-0.07
821.51	-0.74
821.681	-0.23
821.852	0.11
822.023	-0.37
822.195	-0.52
822.366	0.54
822.537	0.16
822.708	-0
822.879	-0.25
823.05	0.34
823.221	-0.07
823.392	0.04
823.563	0.13
823.734	0.6
823.905	-0.19
824.076	0.07
824.247	-0.35
824.418	0.11
824.589	0.78
824.759	-0.17
824.93	0.04
825.101	-0.83
825.272	0.26
825.443	0.02
825.614	-0.08
825.784	-1.02
825.955	1.04
826.126	0.81
826.297	0.07
826.467	0.49
826.638	1.22
826.809	-0.75
826.98	0.39
827.15	0.21
827.321	-0.7
827.492	0.65
827.662	-0.18
827.833	0.91
828.003	0.07
828.174	-0.53
828.345	-0.78
828.515	0.62
828.686	0.08
828.856	0.05
829.027	-0.06
829.197	0.58
829.368	0.33
829.538	-0.13
829.709	0.19
829.879	0.06
830.049	-0.04
830.22	-0.39
830.39	0.04
830.56	0.13
830.731	0.41
830.901	-0.38
831.072	0.04
831.242	0.56
831.412	0.56
831.582	-0.31
831.753	-0.81
831.923	0.66
832.093	-0.05
832.263	-0.19
832.434	-0.63
832.604	-0.37
832.774	0.78
832.944	-0.46
833.114	-0.44
833.284	0.25
833.454	-0.7
833.624	-0.77
833.795	-0.21
833.965	0.53
834.135	0.71
834.305	-1.36
834.475	-0.54
834.645	0.13
834.815	-0.78
834.985	-0.11
835.155	-0.13
835.325	0.15
835.494	-0.48
835.664	-0.56
835.834	-1.02
836.004	0
836.174	0.51
836.344	-0.09
836.514	-1.17
836.684	-0.17
836.853	-0.66
837.023	-0.18
837.193	0.39
837.363	0.51
837.532	0.35
837.702	-0.32
837.872	-0.73
838.041	0.42
838.211	1.63
838.381	-0.21
838.55	-0.41
838.72	1.93
838.89	0.97
839.059	-0.33
839.229	-1.4
839.398	1.48
839.568	-0.11
839.738	-0.17
839.907	0.48
840.077	0.3
840.246	-1.16
840.416	0.21
840.585	-0.09
840.755	1.06
840.924	1.08
841.093	-0.62
841.263	-0.61
841.432	0.16
841.602	-0.55
841.771	-0.85
841.94	0.29
842.11	2.09
842.279	1.58
842.448	-0.97
842.617	-0.27
842.787	1.06
842.956	-0.92
843.125	-0.32
843.294	0.06
843.464	1.36
843.633	-0.47
843.802	-0.58
843.971	-0.17
844.14	1.14
844.309	-0.39
844.479	-0.59
844.648	-0.88
844.817	0.02
844.986	-0.07
845.155	-0.46
845.324	-0.79
845.493	0.22
845.662	-0.58
845.831	0.91
846	0.91
846.169	-0.58
846.338	1.18
846.507	0.47
846.676	0.24
846.844	-0.36
847.013	1.12
847.182	0.27
847.351	-0.8
847.52	-0.49
847.689	0.21
847.858	-0.68
848.026	-0.34
848.195	-0.07
848.364	-0.55
848.533	-0.78
848.701	-0.82
848.87	-0.44
849.039	0.52
849.207	0.43
849.376	0.99
849.545	1.6
849.713	0.29
849.882	-0.13
850.051	-0.7
850.219	0.15
850.388	1.29
850.556	-0.78
850.725	-0.71
850.893	0.72
851.062	-0.62
851.23	0.29
851.399	-1.56
851.567	0.05
851.736	-0.29
851.904	-0.17
852.073	-0.17
852.241	1.04
852.41	-0.62
852.578	-0.72
852.746	-0.51
852.915	1.34
853.083	0.13
853.251	-1.46
853.42	-0.62
853.588	-0.55
853.756	1.72
853.924	-0.31
854.093	0.19
854.261	-0.63
854.429	-2.11
854.597	-0.64
854.765	-0.61
854.934	-0.01
855.102	1.72
855.27	0.1
855.438	1.21
855.606	1.58
855.774	-0.1
855.942	-2.07
856.11	-1.09
856.278	0.4
856.446	0.92
856.614	-0.7
856.782	-1.23
856.95	1.07
857.118	0.33
857.286	1.07
857.454	-1.82
857.622	1.47
857.79	0.38
857.958	-1.3
858.126	-1.07
858.294	-2.79
858.462	1.06
858.629	-0.42
858.797	-0.93
858.965	1.16
859.133	1
859.301	-0.79
859.468	0.59
859.636	0.08
859.804	1.65
859.971	0.82
860.139	-0.56
860.307	0.6
860.474	0.32
860.642	-1.63
860.81	0.05
860.977	-0.81
861.145	1.32
861.313	-0.49
861.48	0.37
861.648	1.01
861.815	-0.94
861.983	-2.24
862.15	-0.43
862.318	-0.12
862.485	0.45
862.653	-1.41
862.82	-0.33
862.988	1.01
863.155	0.47
863.322	0.14
863.49	-1.4
863.657	-0.94
863.824	1.53
863.992	0.58
864.159	0.28
864.326	1.42
864.494	-0.02
864.661	3.34
864.828	-0.33
864.996	1.22
865.163	1.61
865.33	-0.58
865.497	-2.03
865.664	0.25
865.832	-1.23
865.999	-0.73
866.166	-0.82
866.333	-0.55
866.5	-1.46
866.667	-1
866.834	-0.2
867.001	2.99
867.168	-2.12
867.335	0.64
867.502	-2.28
867.669	-0.34
867.836	2.5
868.003	-1.65
868.17	1.3
868.337	-0.74
868.504	2.79
868.671	-0.93
868.838	-0.21
869.005	2.23
869.172	0.94
869.339	-0.72
869.505	0.21
869.672	-1.28
869.839	0.92
870.006	0.3
870.173	-1.93
870.339	0.42
870.506	1.68
870.673	-1.43
870.84	1.54
871.006	-0.6
871.173	-1.64
871.34	-0.65
871.506	-1.34
871.673	0.8
871.839	-1.77
872.006	1.04
872.173	-0.13
872.339	0.76
872.506	3.1
872.672	-0.19
872.839	-1.54
873.005	0.79
873.172	3.21
873.338	1.81
873.505	1.26
873.671	0.02
873.838	-0.59
874.004	-1.98
874.171	-0.3
874.337	-0.22
874.503	2.31
874.67	-0.22
874.836	-1.29
875.002	3
875.169	0.47
875.335	0.34
875.501	-1.38
875.668	1.38
875.834	-0.21
876	0.08
876.166	0.52
876.332	1.35
876.499	3.51
876.665	-0.7
876.831	0.35
876.997	3.92
877.163	-0.34
877.329	-2.08
877.495	0.12
877.662	1.93
877.828	0.52
877.994	-0.2
878.16	-1.88
878.326	-1.07
878.492	1.17
878.658	-1.1
878.824	0.51
878.99	1.74
879.156	-2.47
879.322	1.72
879.487	-1.08
879.653	1.24
879.819	0.49
879.985	0.08
880.151	0.81
880.317	0.7
880.483	1.18
880.648	1.89
880.814	-3.74
880.98	0.12
881.146	-2.98
881.312	-0.69
881.477	-2.27
881.643	0.68
881.809	2.04
881.974	1.79
882.14	-2.68
882.306	-0.65
882.471	4.83
882.637	-0.5
882.803	0.76
882.968	2.4
883.134	4.91
883.299	-0.93
883.465	-0.5
883.63	4.35
883.796	-0.22
883.961	1.78
884.127	-0.55
884.292	-4.69
884.458	-0.53
884.623	-0.53
