Data from Apollo_Calib_20240827__AbsoluteIrradiance__284__03-53-00-115.txt Node

Date: Wed Aug 28 03:53:00 BST 2024
User: biology
Spectrometer: FLMT08252
Trigger mode: 0
Integration Time (sec): 5.000000E-1
Scans to average: 5
Electric dark correction enabled: true
Nonlinearity correction enabled: false
Boxcar width: 0
XAxis mode: Wavelengths
Number of Pixels in Spectrum: 3648
>>>>>Begin Spectral Data<<<<<
179.588	-0
179.809	-0
180.03	-0
180.251	-0
180.473	-0
180.694	0
180.915	0
181.136	-0
181.357	0
181.578	-0
181.799	-0
182.02	-0
182.241	0
182.462	-0
182.683	0
182.904	-0
183.125	-0
183.346	0
183.567	0
183.788	0
184.009	-0
184.23	-0
184.451	0
184.672	-0
184.892	-0
185.113	0
185.334	0
185.555	-0
185.776	-0
185.996	0
186.217	0
186.438	0
186.659	0
186.879	0
187.1	0
187.321	-0
187.541	-0
187.762	0
187.983	0
188.203	-0
188.424	0
188.644	-0
188.865	0
189.086	0
189.306	-0
189.527	0
189.747	0
189.968	-0
190.188	0
190.409	0
190.629	0
190.849	-0
191.07	-0
191.29	0
191.511	0
191.731	-0
191.951	-0
192.172	0
192.392	-0
192.612	0
192.833	0
193.053	0
193.273	0
193.493	0
193.714	0
193.934	0
194.154	0
194.374	0
194.594	0
194.815	0
195.035	0
195.255	0
195.475	-0
195.695	0
195.915	0
196.135	0
196.355	0
196.575	0
196.795	0
197.015	-0
197.235	-0
197.455	0
197.675	0
197.895	-0
198.115	-0
198.335	0
198.555	-0
198.775	0
198.995	0
199.214	0
199.434	0
199.654	-0
199.874	0
200.094	1.48
200.313	0.26
200.533	-0.19
200.753	-0.1
200.973	0.84
201.192	1.32
201.412	-0.7
201.632	0.09
201.851	0.82
202.071	0.16
202.291	-0.05
202.51	-0.45
202.73	0.73
202.95	0.16
203.169	0
203.389	0.44
203.608	0.41
203.828	-0.02
204.047	0.27
204.267	0.27
204.486	0.47
204.706	0.4
204.925	0.46
205.145	-0.14
205.364	0.53
205.583	1.33
205.803	-0.06
206.022	0.05
206.242	0.09
206.461	-0.09
206.68	0.07
206.9	0.31
207.119	1.03
207.338	0.96
207.557	-0.15
207.777	0.13
207.996	0.15
208.215	0.69
208.434	-0.38
208.654	-0.27
208.873	0.37
209.092	0.75
209.311	0.31
209.53	0.03
209.749	0.36
209.968	-0.09
210.187	0.14
210.407	-0.42
210.626	0.05
210.845	0.47
211.064	0.15
211.283	-0.01
211.502	0.71
211.721	0.16
211.94	0.2
212.159	0.44
212.377	0.34
212.596	0.53
212.815	0.38
213.034	0.24
213.253	0.35
213.472	0.23
213.691	0.23
213.91	-0.1
214.128	-0.16
214.347	0.44
214.566	-0.07
214.785	-0.28
215.003	0.45
215.222	0.22
215.441	0.02
215.66	-0.11
215.878	0.29
216.097	0.43
216.316	0.04
216.534	0.14
216.753	0.22
216.972	-0.1
217.19	0.28
217.409	0.02
217.627	-0.08
217.846	0.03
218.064	0.04
218.283	-0.17
218.501	0.6
218.72	0.2
218.938	-0.02
219.157	0.11
219.375	0.37
219.594	0.32
219.812	-0.08
220.031	-0.16
220.249	0.45
220.467	0.53
220.686	-0.03
220.904	-0.12
221.122	-0.04
221.341	0.58
221.559	0.04
221.777	-0.21
221.995	0.17
222.214	0.19
222.432	-0.04
222.65	0.32
222.868	0.1
223.086	0.28
223.305	0.12
223.523	0.08
223.741	0.41
223.959	0.01
224.177	-0.18
224.395	0.16
224.613	0.02
224.831	0.26
225.049	-0.1
225.267	0.1
225.485	0.17
225.703	0.09
225.921	0.04
226.139	-0.01
226.357	0.3
226.575	0.15
226.793	-0.14
227.011	0.78
227.229	0.13
227.447	0.35
227.665	0
227.883	-0.09
228.1	0.1
228.318	0.29
228.536	-0.18
228.754	-0.08
228.972	0.2
229.189	0.13
229.407	0.14
229.625	0.08
229.843	0.33
230.06	0.19
230.278	0.01
230.496	0.06
230.713	0.16
230.931	0.28
231.149	0.07
231.366	-0.09
231.584	0.1
231.801	0.34
232.019	0.04
232.236	-0.08
232.454	-0.02
232.671	0.11
232.889	0.15
233.106	-0.1
233.324	0.19
233.541	0.08
233.759	0.09
233.976	0.07
234.194	0.1
234.411	0.08
234.628	-0.12
234.846	0.04
235.063	0.14
235.28	-0.02
235.498	0.08
235.715	0.08
235.932	0.23
236.149	-0.02
236.367	-0.01
236.584	0.12
236.801	-0.08
237.018	0.13
237.236	0.06
237.453	-0.12
237.67	0.21
237.887	0.12
238.104	0.07
238.321	-0.09
238.538	0.06
238.755	0.22
238.973	-0.07
239.19	0.07
239.407	0.16
239.624	0.25
239.841	-0.05
240.058	0.05
240.275	0.15
240.492	-0.01
240.709	0.08
240.925	0.05
241.142	0.08
241.359	0.08
241.576	-0.04
241.793	0.09
242.01	0.1
242.227	0.13
242.444	0.09
242.66	0.17
242.877	0.14
243.094	0.02
243.311	0.15
243.527	0.06
243.744	0.12
243.961	0.18
244.178	0.04
244.394	0.11
244.611	0.22
244.828	0.32
245.044	-0.1
245.261	0.11
245.477	0.12
245.694	0.13
245.911	-0.03
246.127	0.01
246.344	0.21
246.56	0.13
246.777	0.01
246.993	0.09
247.21	0.14
247.426	0.14
247.643	-0.02
247.859	-0.01
248.076	-0
248.292	0.23
248.508	0
248.725	0.09
248.941	0.11
249.157	0.24
249.374	-0.01
249.59	0.02
249.806	0.11
250.023	0.17
250.239	0.03
250.455	-0.02
250.671	0.01
250.888	0.16
251.104	0.01
251.32	0.04
251.536	0
251.752	0.08
251.969	0.09
252.185	0.09
252.401	0.24
252.617	0.17
252.833	0.1
253.049	0.04
253.265	0.06
253.481	0.06
253.697	0.05
253.913	-0.01
254.129	0.07
254.345	0.07
254.561	0.04
254.777	0.06
254.993	0.02
255.209	0.03
255.425	0.05
255.641	-0.1
255.857	0.15
256.073	0.1
256.288	-0.04
256.504	-0.01
256.72	0.09
256.936	0.19
257.152	0.06
257.367	-0.03
257.583	0.08
257.799	0.2
258.015	-0.03
258.23	0.06
258.446	0.16
258.662	0.02
258.877	-0.01
259.093	-0.04
259.309	0.09
259.524	0.15
259.74	-0
259.955	-0.02
260.171	0.1
260.387	0.01
260.602	0.15
260.818	0.09
261.033	0.02
261.249	0.04
261.464	-0
261.68	-0.07
261.895	0.11
262.11	0.15
262.326	0.06
262.541	-0.06
262.757	0.09
262.972	0.07
263.187	0.06
263.403	0.09
263.618	0.14
263.833	0.1
264.049	0.04
264.264	0.02
264.479	0.12
264.694	0.18
264.91	-0
265.125	-0
265.34	0.06
265.555	0.26
265.77	0.09
265.986	-0.01
266.201	0.11
266.416	0.13
266.631	0.06
266.846	0.03
267.061	0.16
267.276	0.12
267.491	-0.01
267.706	0.09
267.921	0.15
268.136	0.05
268.351	0.04
268.566	-0
268.781	0.18
268.996	0.13
269.211	0.04
269.426	-0
269.641	0.03
269.856	0.12
270.071	-0.01
270.285	-0.01
270.5	0.11
270.715	0.11
270.93	0.1
271.145	0.03
271.359	0.18
271.574	0.01
271.789	0.11
272.004	0.03
272.218	0
272.433	0.06
272.648	0.01
272.862	0.12
273.077	0.06
273.292	0.04
273.506	-0.02
273.721	0.05
273.936	0.11
274.15	0.12
274.365	0.03
274.579	0.09
274.794	0.11
275.008	0.13
275.223	-0.04
275.437	-0
275.652	0.15
275.866	0.07
276.081	0.09
276.295	0.13
276.509	-0.02
276.724	0.09
276.938	0.05
277.153	0.07
277.367	0.13
277.581	0.02
277.796	0
278.01	-0
278.224	0.17
278.438	0.16
278.653	-0.03
278.867	-0
279.081	-0.15
279.295	0.07
279.51	0.05
279.724	-0.09
279.938	0.05
280.152	0.05
280.366	0.03
280.58	0.06
280.794	0.16
281.008	0.1
281.222	0.11
281.437	0.17
281.651	0.03
281.865	0.1
282.079	0.01
282.293	-0.03
282.507	-0.01
282.721	0.01
282.935	0
283.148	-0.03
283.362	0.05
283.576	-0.04
283.79	0.09
284.004	-0
284.218	0.14
284.432	0.05
284.646	0.07
284.859	-0.02
285.073	0.05
285.287	0.05
285.501	0.02
285.714	0.03
285.928	0.05
286.142	0.06
286.356	-0
286.569	0.05
286.783	0.19
286.997	0.09
287.21	0.06
287.424	0.02
287.637	0.06
287.851	0.04
288.065	0.1
288.278	0.03
288.492	0.03
288.705	0.03
288.919	0.11
289.132	-0.04
289.346	0.14
289.559	-0.02
289.773	-0.01
289.986	0.04
290.2	0.06
290.413	0.13
290.626	0.01
290.84	0.03
291.053	0.02
291.267	0.09
291.48	0.05
291.693	0.03
291.906	-0
292.12	0.03
292.333	0.01
292.546	0.01
292.76	0.1
292.973	0.1
293.186	0.1
293.399	0.01
293.612	0.15
293.826	0.04
294.039	0.06
294.252	0.04
294.465	0.08
294.678	0.06
294.891	0.03
295.104	-0.03
295.317	0.04
295.53	0.05
295.743	0.07
295.956	0.05
296.169	0.15
296.382	0.12
296.595	0.09
296.808	0
297.021	0.09
297.234	0.14
297.447	0.04
297.66	0.06
297.873	0.1
298.086	0.09
298.299	0.04
298.511	-0.03
298.724	0.04
298.937	-0.03
299.15	0.02
299.363	0.03
299.575	0.09
299.788	0.1
300.001	0.02
300.213	-0.04
300.426	0.04
300.639	-0.01
300.852	-0
301.064	0.13
301.277	0.13
301.489	0.07
301.702	0.06
301.915	0.05
302.127	0.06
302.34	0.11
302.552	0.09
302.765	0
302.977	0.11
303.19	0.05
303.402	0.05
303.615	0.02
303.827	0
304.04	0.04
304.252	0.08
304.464	0.01
304.677	0.13
304.889	0.11
305.102	0.04
305.314	0.05
305.526	0.06
305.739	0.07
305.951	-0
306.163	0.05
306.375	0.09
306.588	0.04
306.8	0.05
307.012	0.04
307.224	0.08
307.436	0.11
307.649	-0
307.861	0.1
308.073	0.08
308.285	0.02
308.497	0.01
308.709	0.03
308.921	0.11
309.133	0.13
309.346	0.03
309.558	0.02
309.77	0.13
309.982	0.08
310.194	0.09
310.406	0.03
310.617	0.12
310.829	0.09
311.041	0.09
311.253	0.01
311.465	0.06
311.677	0.03
311.889	0.04
312.101	0.01
312.313	0.09
312.524	0.1
312.736	-0.02
312.948	0.08
313.16	0.12
313.372	0.12
313.583	0.04
313.795	0.04
314.007	0.04
314.218	0.11
314.43	0.06
314.642	0.04
314.853	-0
315.065	0.1
315.277	0.07
315.488	0.06
315.7	0.07
315.912	0.1
316.123	0.03
316.335	0.06
316.546	0.17
316.758	0.1
316.969	0.03
317.181	0.04
317.392	0.05
317.604	0.06
317.815	0.01
318.026	0.01
318.238	0.01
318.449	0.05
318.661	0.02
318.872	-0.03
319.083	0.05
319.295	0.09
319.506	0.06
319.717	0.02
319.929	0.09
320.14	0.02
320.351	0.06
320.562	0.04
320.774	0.08
320.985	0.07
321.196	0.01
321.407	-0.04
321.618	0.13
321.829	0.08
322.041	0.05
322.252	0.02
322.463	0.07
322.674	0.09
322.885	-0.04
323.096	0.01
323.307	-0.01
323.518	0.03
323.729	0
323.94	0.04
324.151	0.03
324.362	0.06
324.573	0.05
324.784	0
324.995	0.09
325.206	0.09
325.417	0.05
325.628	0.07
325.838	0.04
326.049	0.06
326.26	0.08
326.471	0.03
326.682	0.1
326.892	0.03
327.103	-0.01
327.314	0.03
327.525	0.09
327.735	0.05
327.946	0.03
328.157	0.01
328.368	0.08
328.578	0.03
328.789	0.09
328.999	0.06
329.21	0.04
329.421	0.08
329.631	0.05
329.842	0.01
330.052	0.07
330.263	0.1
330.473	0.1
330.684	0.07
330.894	0.04
331.105	0.05
331.315	0.04
331.526	-0.04
331.736	0.15
331.947	0.11
332.157	0.06
332.367	-0.01
332.578	0.07
332.788	0.1
332.999	0.14
333.209	0.08
333.419	0.02
333.629	0.11
333.84	0.1
334.05	0.07
334.26	0.14
334.47	0.11
334.681	0.11
334.891	0.04
335.101	0.08
335.311	0.15
335.521	0.05
335.732	0
335.942	0.13
336.152	0.09
336.362	0.07
336.572	0.09
336.782	0.12
336.992	0.04
337.202	0.04
337.412	0.03
337.622	0.11
337.832	0.07
338.042	0.09
338.252	0.01
338.462	-0.02
338.672	0.08
338.882	0.07
339.092	0.02
339.302	0.17
339.511	0.1
339.721	0.09
339.931	0
340.141	0.1
340.351	0.13
340.561	0.07
340.77	0.03
340.98	0.05
341.19	0.1
341.4	0.05
341.609	0.02
341.819	0.05
342.029	0
342.238	0.06
342.448	0.04
342.658	0.15
342.867	0.05
343.077	0.07
343.286	0.05
343.496	0.06
343.706	0.09
343.915	0.05
344.125	0.06
344.334	0.05
344.544	0.02
344.753	0.11
344.963	0.06
345.172	0.03
345.381	0.05
345.591	0.02
345.8	0.07
346.01	0.09
346.219	0.09
346.428	-0.09
346.638	0.06
346.847	0.04
347.056	0.13
347.266	0.03
347.475	0.08
347.684	0.09
347.893	0.07
348.103	0.09
348.312	0.05
348.521	0.05
348.73	0.06
348.94	0.06
349.149	0.02
349.358	0.05
349.567	0.05
349.776	-0
349.985	0.03
350.194	0.09
350.403	0.14
350.612	0.04
350.821	0.07
351.03	0.06
351.239	0.02
351.448	0.03
351.657	0.06
351.866	0.15
352.075	0.02
352.284	0.11
352.493	0.01
352.702	0.13
352.911	0.09
353.12	0.04
353.329	0.04
353.538	0.08
353.746	0.04
353.955	0.06
354.164	0.1
354.373	0.03
354.582	0.12
354.79	0.04
354.999	0.08
355.208	0.05
355.416	0.1
355.625	0.04
355.834	0.03
356.042	0.11
356.251	0.04
356.46	0.04
356.668	0.05
356.877	0.15
357.085	0.07
357.294	-0.02
357.503	0.06
357.711	0.07
357.92	0.2
358.128	0.05
358.337	0.05
358.545	0.09
358.754	0.03
358.962	0.1
359.17	0.01
359.379	0.06
359.587	0.08
359.796	0.09
360.004	0.1
360.212	0.08
360.421	0.13
360.629	0.06
360.837	0.05
361.046	0.11
361.254	0.18
361.462	0.02
361.67	0.07
361.879	0.07
362.087	0.15
362.295	0.09
362.503	0.04
362.711	0.04
362.92	0.09
363.128	0.02
363.336	0.02
363.544	0.01
363.752	0.04
363.96	0.06
364.168	0.03
364.376	0.09
364.584	0.09
364.792	0.1
365	0.09
365.208	0.07
365.416	0.07
365.624	0.08
365.832	0.07
366.04	0.13
366.248	0.09
366.456	0.1
366.664	0.07
366.872	0.05
367.079	0.05
367.287	0.06
367.495	0.09
367.703	0.05
367.911	0.05
368.118	0.08
368.326	0.06
368.534	0.02
368.742	0.1
368.949	-0.01
369.157	0.03
369.365	0.11
369.572	0.05
369.78	0.02
369.988	0.1
370.195	0.1
370.403	0.11
370.61	0.04
370.818	0.11
371.026	0.13
371.233	0.05
371.441	0.06
371.648	0.1
371.856	0.09
372.063	0.09
372.271	0.08
372.478	0.01
372.685	0.04
372.893	0.1
373.1	0.08
373.308	0.04
373.515	0.16
373.722	0.09
373.93	0.06
374.137	0.1
374.344	0.15
374.552	0.13
374.759	0.09
374.966	0.05
375.173	0.11
375.381	0.12
375.588	0.07
375.795	-0.01
376.002	0.07
376.209	0.08
376.417	0.08
376.624	0.04
376.831	0.12
377.038	0.07
377.245	0.03
377.452	0.06
377.659	0.1
377.866	0.07
378.073	0.06
378.28	0.06
378.487	0.1
378.694	0.07
378.901	0.04
379.108	0.04
379.315	0.11
379.522	0.17
379.729	0.1
379.936	0.09
380.143	0.12
380.35	0.06
380.557	0.1
380.763	0.1
380.97	0.12
381.177	0.11
381.384	0.09
381.591	0.07
381.797	0.12
382.004	0.12
382.211	0.15
382.418	0.08
382.624	0.15
382.831	0.12
383.038	0.11
383.244	0.1
383.451	0.11
383.658	0.11
383.864	0.11
384.071	0.06
384.277	0.17
384.484	0.07
384.69	0.13
384.897	0.04
385.103	0.1
385.31	0.06
385.516	0.07
385.723	0.05
385.929	0.13
386.136	0.05
386.342	0.1
386.549	0.06
386.755	0.18
386.961	0.11
387.168	0.1
387.374	0.14
387.58	0.13
387.787	0.11
387.993	0.18
388.199	0.1
388.406	0.11
388.612	0.11
388.818	0.09
389.024	0.1
389.231	0.16
389.437	0.22
389.643	0.19
389.849	0.1
390.055	0.12
390.261	0.16
390.467	0.16
390.674	0.13
390.88	0.17
391.086	0.2
391.292	0.13
391.498	0.2
391.704	0.18
391.91	0.16
392.116	0.2
392.322	0.11
392.528	0.19
392.734	0.13
392.94	0.17
393.146	0.2
393.352	0.21
393.557	0.15
393.763	0.23
393.969	0.26
394.175	0.24
394.381	0.18
394.587	0.16
394.792	0.22
394.998	0.32
395.204	0.31
395.41	0.2
395.615	0.27
395.821	0.32
396.027	0.33
396.233	0.3
396.438	0.32
396.644	0.39
396.85	0.36
397.055	0.34
397.261	0.39
397.466	0.35
397.672	0.41
397.878	0.43
398.083	0.42
398.289	0.4
398.494	0.51
398.7	0.5
398.905	0.39
399.111	0.54
399.316	0.5
399.522	0.52
399.727	0.53
399.932	0.56
400.138	0.53
400.343	0.58
400.549	0.64
400.754	0.65
400.959	0.68
401.165	0.68
401.37	0.7
401.575	0.9
401.78	0.8
401.986	0.8
402.191	0.91
402.396	0.97
402.601	0.99
402.807	1.05
403.012	1.09
403.217	1.17
403.422	1.21
403.627	1.25
403.832	1.31
404.037	1.36
404.243	1.44
404.448	1.49
404.653	1.53
404.858	1.61
405.063	1.69
405.268	1.74
405.473	1.75
405.678	1.87
405.883	2.14
406.088	2.08
406.293	2.06
406.498	2.21
406.703	2.26
406.907	2.41
407.112	2.48
407.317	2.68
407.522	2.9
407.727	2.89
407.932	3.03
408.136	3.28
408.341	3.3
408.546	3.42
408.751	3.57
408.956	3.71
409.16	3.89
409.365	3.98
409.57	4.07
409.774	4.28
409.979	4.45
410.184	4.62
410.388	4.72
410.593	5.06
410.798	5.21
411.002	5.48
411.207	5.76
411.411	5.82
411.616	5.93
411.82	6.33
412.025	6.44
412.229	6.75
412.434	7.05
412.638	7.13
412.843	7.41
413.047	7.66
413.252	7.87
413.456	8.32
413.66	8.52
413.865	8.66
414.069	8.94
414.273	9.18
414.478	9.47
414.682	9.68
414.886	10.19
415.091	10.27
415.295	10.67
415.499	11.08
415.703	11.13
415.908	11.69
416.112	11.85
416.316	12.38
416.52	12.75
416.724	12.95
416.929	13.31
417.133	14.01
417.337	14
417.541	14.42
417.745	14.74
417.949	14.9
418.153	15.53
418.357	15.82
418.561	16.45
418.765	16.48
418.969	16.89
419.173	17.82
419.377	17.74
419.581	18.39
419.785	18.81
419.989	18.97
420.193	19.72
420.397	19.72
420.601	20.06
420.804	20.42
421.008	20.39
421.212	20.89
421.416	20.51
421.62	20.61
421.823	20.62
422.027	20.7
422.231	20.4
422.435	20.29
422.638	20.11
422.842	20.25
423.046	20.43
423.249	20.81
423.453	20.37
423.657	20.66
423.86	20.73
424.064	20.68
424.268	20.55
424.471	20.28
424.675	20.49
424.878	20.2
425.082	20.32
425.285	20.77
425.489	19.93
425.692	19.76
425.896	19.36
426.099	19.34
426.303	19.28
426.506	19.19
426.71	19.13
426.913	18.96
427.116	18.77
427.32	18.16
427.523	17.91
427.726	17.88
427.93	17.76
428.133	17.75
428.336	17.52
428.54	17.19
428.743	16.87
428.946	16.89
429.149	16.24
429.353	15.66
429.556	15.24
429.759	14.76
429.962	14.42
430.165	14.09
430.368	12.89
430.571	12.51
430.775	12.22
430.978	11.88
431.181	11.27
431.384	10.95
431.587	10.77
431.79	10.87
431.993	10.24
432.196	10.26
432.399	10.34
432.602	10.12
432.805	9.76
433.008	10.01
433.211	9.51
433.414	9.56
433.616	9.11
433.819	8.77
434.022	8.57
434.225	8.47
434.428	8.09
434.631	8.22
434.833	7.8
435.036	7.77
435.239	7.61
435.442	7.36
435.645	7.12
435.847	7.04
436.05	6.96
436.253	6.89
436.455	6.62
436.658	6.4
436.861	6.41
437.063	6.25
437.266	5.99
437.468	5.91
437.671	5.92
437.874	5.69
438.076	5.38
438.279	5.43
438.481	5.27
438.684	5.4
438.886	5.1
439.089	5.01
439.291	4.91
439.494	4.8
439.696	4.7
439.899	4.69
440.101	4.72
440.303	4.5
440.506	4.6
440.708	4.43
440.91	4.25
441.113	4.19
441.315	4.2
441.517	3.9
441.72	3.89
441.922	3.63
442.124	3.47
442.326	3.54
442.529	3.43
442.731	3.31
442.933	3.39
443.135	3.15
443.337	2.96
443.539	2.95
443.742	2.85
443.944	2.83
444.146	2.62
444.348	2.69
444.55	2.52
444.752	2.52
444.954	2.33
445.156	2.31
445.358	2.29
445.56	2.33
445.762	2.15
445.964	2.19
446.166	2.06
446.368	2.09
446.57	2.03
446.772	1.93
446.974	1.84
447.175	1.85
447.377	1.75
447.579	1.76
447.781	1.65
447.983	1.74
448.184	1.64
448.386	1.61
448.588	1.48
448.79	1.52
448.991	1.51
449.193	1.48
449.395	1.35
449.597	1.45
449.798	1.39
450	1.34
450.202	1.29
450.403	1.27
450.605	1.33
450.806	1.18
451.008	1.14
451.21	1.17
451.411	1.16
451.613	1.04
451.814	1.13
452.016	1.14
452.217	1
452.419	1.11
452.62	0.97
452.821	1.01
453.023	1.01
453.224	0.95
453.426	0.93
453.627	0.9
453.828	0.89
454.03	0.86
454.231	0.92
454.432	0.87
454.634	0.95
454.835	0.76
455.036	0.77
455.238	0.82
455.439	0.85
455.64	0.69
455.841	0.69
456.042	0.85
456.244	0.71
456.445	0.66
456.646	0.63
456.847	0.68
457.048	0.69
457.249	0.79
457.45	0.97
457.651	0.57
457.852	0.64
458.054	0.6
458.255	0.56
458.456	0.59
458.657	0.54
458.858	0.53
459.058	0.54
459.259	0.6
459.46	0.5
459.661	0.43
459.862	0.63
460.063	0.47
460.264	0.55
460.465	0.41
460.666	0.61
460.866	0.44
461.067	0.46
461.268	0.39
461.469	0.41
461.67	0.43
461.87	0.4
462.071	0.37
462.272	0.39
462.473	0.45
462.673	0.46
462.874	0.34
463.075	0.38
463.275	0.33
463.476	0.37
463.676	0.45
463.877	0.37
464.078	0.38
464.278	0.42
464.479	0.4
464.679	0.39
464.88	0.35
465.08	0.46
465.281	0.27
465.481	0.3
465.682	0.33
465.882	0.35
466.083	0.31
466.283	0.29
466.483	0.33
466.684	0.25
466.884	0.25
467.085	0.24
467.285	0.36
467.485	0.28
467.686	0.29
467.886	0.26
468.086	0.28
468.286	0.25
468.487	0.31
468.687	0.19
468.887	0.18
469.087	0.28
469.287	0.28
469.488	0.19
469.688	0.27
469.888	0.3
470.088	0.27
470.288	0.31
470.488	0.27
470.688	0.16
470.888	0.2
471.088	0.18
471.288	0.27
471.488	0.23
471.688	0.29
471.888	0.19
472.088	0.27
472.288	0.25
472.488	0.13
472.688	0.2
472.888	0.22
473.088	0.2
473.288	0.18
473.488	0.17
473.688	0.27
473.887	0.21
474.087	0.16
474.287	0.22
474.487	0.16
474.687	0.17
474.886	0.14
475.086	0.15
475.286	0.18
475.486	0.18
475.685	0.15
475.885	0.11
476.085	0.16
476.284	0.19
476.484	0.16
476.684	0.19
476.883	0.26
477.083	0.17
477.282	0.14
477.482	0.21
477.681	0.18
477.881	0.14
478.08	0.11
478.28	0.08
478.479	0.14
478.679	0.23
478.878	0.1
479.078	0.12
479.277	0.13
479.477	0.16
479.676	0.15
479.875	0.13
480.075	0.08
480.274	0.14
480.473	0.14
480.673	0.07
480.872	0.17
481.071	0.14
481.271	0.12
481.47	0.1
481.669	0.09
481.868	0.1
482.067	0.06
482.267	0.12
482.466	0.07
482.665	0.06
482.864	0.04
483.063	0.09
483.262	0.13
483.461	0.14
483.661	0.12
483.86	0.09
484.059	0.11
484.258	0.09
484.457	0.08
484.656	0.12
484.855	0.14
485.054	0.03
485.253	0.09
485.452	0.05
485.651	0.1
485.849	0.09
486.048	0.08
486.247	0.07
486.446	0.08
486.645	0.04
486.844	0.04
487.043	0.06
487.241	0.09
487.44	0.06
487.639	0.05
487.838	0.11
488.037	0.08
488.235	0.15
488.434	0.07
488.633	0.04
488.831	0.07
489.03	0.11
489.229	0.11
489.427	0.06
489.626	0.12
489.825	0.15
490.023	0.07
490.222	0.06
490.42	0.07
490.619	0.11
490.817	0.07
491.016	0.05
491.214	0.11
491.413	0.06
491.611	0.07
491.81	0.06
492.008	0.1
492.207	0.08
492.405	0.07
492.604	0.04
492.802	0.05
493	0.06
493.199	0.04
493.397	0.08
493.595	0.05
493.794	0.06
493.992	0.11
494.19	0.08
494.388	0.08
494.587	0.05
494.785	0.07
494.983	0.05
495.181	0.06
495.379	0.05
495.578	0.04
495.776	0.07
495.974	0.08
496.172	0.05
496.37	0.04
496.568	0.03
496.766	0.04
496.964	0.09
497.162	0.07
497.36	0.04
497.558	0.07
497.756	0.08
497.954	0.04
498.152	0.03
498.35	0.07
498.548	0.07
498.746	0.04
498.944	0.01
499.142	0.06
499.34	0.01
499.538	0.06
499.736	0.04
499.933	0.09
500.131	0.09
500.329	0.06
500.527	0.1
500.725	0.09
500.922	0.08
501.12	0.06
501.318	0.06
501.516	0.04
501.713	0.07
501.911	0.03
502.109	0.01
502.306	0.08
502.504	0.04
502.701	0.05
502.899	0.03
503.097	0.09
503.294	0.05
503.492	0.05
503.689	0.05
503.887	0.09
504.084	0.09
504.282	0.04
504.479	0.02
504.677	0.07
504.874	0.03
505.072	0.06
505.269	0.04
505.466	0.06
505.664	0.04
505.861	0.01
506.059	0.04
506.256	0.08
506.453	0.04
506.651	0.11
506.848	0.05
507.045	0.07
507.242	0.06
507.44	0.04
507.637	0.04
507.834	0.05
508.031	0.06
508.229	0.02
508.426	0.04
508.623	0.06
508.82	0.03
509.017	0.05
509.214	0.03
509.411	0.05
509.608	0.02
509.805	0.05
510.003	0.03
510.2	0.03
510.397	0.05
510.594	0.04
510.791	0
510.988	0.03
511.184	0.06
511.381	0.06
511.578	0
511.775	0.09
511.972	0.01
512.169	0.03
512.366	0.04
512.563	0.06
512.76	0.05
512.956	0.08
513.153	0.01
513.35	0.03
513.547	0.02
513.744	0.02
513.94	-0.01
514.137	0.03
514.334	0.06
514.53	0.04
514.727	0.04
514.924	0.1
515.12	0.03
515.317	-0.01
515.514	0.02
515.71	0
515.907	0.01
516.103	0.06
516.3	0.04
516.497	0.05
516.693	0.09
516.89	0.05
517.086	-0
517.283	0.04
517.479	0.05
517.676	0.01
517.872	0.03
518.068	0.03
518.265	0.03
518.461	0.02
518.658	0.03
518.854	0.05
519.05	0.02
519.247	0.01
519.443	0.07
519.639	0.05
519.836	0.04
520.032	0.04
520.228	0.04
520.424	0.07
520.621	0.05
520.817	0.04
521.013	0.05
521.209	0.06
521.405	0.09
521.601	0.03
521.798	0.04
521.994	0.06
522.19	0.02
522.386	-0
522.582	0.05
522.778	0.02
522.974	0.03
523.17	0.03
523.366	0.04
523.562	0.06
523.758	0.05
523.954	0.01
524.15	0.02
524.346	0.04
524.542	0
524.738	0.03
524.934	0
525.129	0.03
525.325	0.04
525.521	0.03
525.717	0.06
525.913	0.04
526.109	0.04
526.304	0.04
526.5	0.04
526.696	0.04
526.892	0.03
527.087	0.03
527.283	0.03
527.479	0.04
527.674	0.02
527.87	0.01
528.066	0.03
528.261	0.06
528.457	0.04
528.653	0.02
528.848	0.03
529.044	0.03
529.239	0.02
529.435	0.07
529.63	0.03
529.826	0.07
530.021	0.03
530.217	0.06
530.412	0.01
530.608	0.01
530.803	0.02
530.999	0.03
531.194	-0.02
531.389	0.04
531.585	-0.01
531.78	0.02
531.975	0.03
532.171	0.06
532.366	0.02
532.561	0.03
532.757	-0
532.952	0.02
533.147	0.05
533.342	0.03
533.538	0
533.733	0.07
533.928	0.02
534.123	0.02
534.318	-0
534.513	0.04
534.709	0.03
534.904	0.02
535.099	0.02
535.294	0.02
535.489	0.05
535.684	0.02
535.879	-0
536.074	0.03
536.269	0
536.464	0.04
536.659	0.03
536.854	0.03
537.049	0.04
537.244	0.04
537.439	0.01
537.634	0.04
537.828	0.02
538.023	0.03
538.218	-0
538.413	0.02
538.608	-0.01
538.803	0.04
538.997	-0.02
539.192	0.05
539.387	0.02
539.582	0.04
539.776	0.03
539.971	0.03
540.166	0.01
540.36	-0.01
540.555	0.02
540.75	0.04
540.944	0.01
541.139	0.01
541.334	0.03
541.528	0.03
541.723	0.04
541.917	-0.01
542.112	-0.02
542.306	0
542.501	0.01
542.695	0.03
542.89	0.01
543.084	0.03
543.279	0
543.473	0.05
543.668	0.03
543.862	0.01
544.056	0.05
544.251	0.01
544.445	0.04
544.64	0.03
544.834	0
545.028	0.02
545.222	0.03
545.417	0.04
545.611	0.02
545.805	0.02
546	0.03
546.194	0.03
546.388	0.02
546.582	0.05
546.776	0.03
546.97	0.03
547.165	0.03
547.359	0.02
547.553	0
547.747	0.03
547.941	0.03
548.135	0.03
548.329	0.03
548.523	0.03
548.717	0.02
548.911	0.01
549.105	0.01
549.299	0.04
549.493	0.04
549.687	0.04
549.881	0.04
550.075	0.02
550.269	-0.01
550.463	0.03
550.657	0.01
550.85	0.03
551.044	0.01
551.238	0.02
551.432	0.01
551.626	-0.01
551.82	0.03
552.013	-0.02
552.207	0.04
552.401	0.05
552.594	0.03
552.788	0.01
552.982	0.04
553.176	0.01
553.369	0.03
553.563	0.04
553.756	-0.01
553.95	0
554.144	0.02
554.337	0.04
554.531	0.02
554.724	0.02
554.918	-0
555.111	0.07
555.305	0
555.498	0.06
555.692	0.04
555.885	0
556.079	0.02
556.272	-0
556.466	0.04
556.659	0.03
556.852	0.01
557.046	0.01
557.239	0.05
557.432	-0.01
557.626	0.02
557.819	0.03
558.012	0.04
558.206	0.02
558.399	0.02
558.592	0.03
558.785	0.01
558.979	0.06
559.172	0.03
559.365	0.05
559.558	0.02
559.751	0.01
559.944	0.03
560.138	0.02
560.331	0.02
560.524	-0
560.717	-0
560.91	0.03
561.103	0.01
561.296	0.02
561.489	0.04
561.682	-0.01
561.875	0.07
562.068	0.04
562.261	0.04
562.454	0.06
562.647	0.03
562.84	0.04
563.032	0.01
563.225	0.04
563.418	0.01
563.611	0.01
563.804	0.04
563.997	-0
564.19	-0.01
564.382	0.03
564.575	0.02
564.768	0.02
564.961	0.01
565.153	0.01
565.346	0.03
565.539	0.04
565.731	0.01
565.924	0.04
566.117	0.03
566.309	0.02
566.502	0.02
566.695	0.01
566.887	0.01
567.08	-0
567.272	0.02
567.465	0.02
567.657	0.02
567.85	0.03
568.042	0.04
568.235	0.05
568.427	0.01
568.62	0.04
568.812	0.03
569.005	0.01
569.197	-0.02
569.389	0.01
569.582	0.01
569.774	0.01
569.966	-0
570.159	0.01
570.351	0.03
570.543	-0.01
570.736	0.02
570.928	-0
571.12	0.03
571.312	0.02
571.505	-0.02
571.697	0.06
571.889	-0.01
572.081	0.01
572.273	-0.02
572.465	0.08
572.658	0
572.85	0.03
573.042	-0
573.234	0.02
573.426	0.06
573.618	-0.02
573.81	0.04
574.002	0.07
574.194	0.06
574.386	-0.02
574.578	-0.06
574.77	-0.02
574.962	0.01
575.154	-0.02
575.346	0.03
575.538	0.03
575.729	-0.03
575.921	0
576.113	0.01
576.305	0.01
576.497	-0.02
576.689	0.01
576.88	-0
577.072	0.06
577.264	0.01
577.456	0
577.647	-0.06
577.839	0.02
578.031	0.05
578.223	-0.02
578.414	-0.02
578.606	0.01
578.798	0.03
578.989	-0
579.181	0.01
579.372	0.04
579.564	0.01
579.755	0.02
579.947	0.03
580.139	0.05
580.33	-0.02
580.522	-0.02
580.713	-0.05
580.905	0.02
581.096	0.05
581.287	0.01
581.479	0.01
581.67	0.07
581.862	0.02
582.053	0
582.244	-0.04
582.436	0.01
582.627	0.02
582.818	-0.01
583.01	-0.03
583.201	0.05
583.392	0.05
583.583	0
583.775	-0
583.966	-0.01
584.157	0
584.348	0.01
584.54	-0.03
584.731	0.02
584.922	0.01
585.113	0
585.304	0.03
585.495	0.07
585.686	0.01
585.877	0.04
586.068	0.02
586.259	0.03
586.45	0.03
586.641	-0.02
586.832	-0.03
587.023	0.04
587.214	0.02
587.405	-0.02
587.596	-0.01
587.787	0.07
587.978	0.01
588.169	-0.02
588.36	0
588.551	0.03
588.742	0.01
588.932	0.01
589.123	0.03
589.314	0.04
589.505	0.02
589.696	0.01
589.886	-0
590.077	-0.02
590.268	0.03
590.458	-0
590.649	-0.05
590.84	0.06
591.03	0.02
591.221	-0.02
591.412	-0.03
591.602	0.07
591.793	0.05
591.984	-0.03
592.174	-0.01
592.365	0.08
592.555	-0.01
592.746	0.02
592.936	0.02
593.127	0.02
593.317	0.07
593.508	-0.01
593.698	0.01
593.889	0.02
594.079	0
594.269	0.01
594.46	-0
594.65	0.01
594.84	0.04
595.031	-0.03
595.221	-0
595.411	-0.01
595.602	0.04
595.792	0.01
595.982	-0.03
596.172	0.05
596.363	0.01
596.553	0.01
596.743	0.01
596.933	-0
597.123	0.04
597.314	-0.02
597.504	-0.02
597.694	0.04
597.884	0.03
598.074	0
598.264	-0
598.454	0.03
598.644	-0
598.834	-0
599.024	-0.03
599.214	0
599.404	0.03
599.594	-0.03
599.784	-0.05
599.974	0.04
600.164	0.05
600.354	-0.01
600.544	-0.02
600.734	0.01
600.924	0.06
601.114	-0.03
601.303	-0
601.493	0.03
601.683	0
601.873	0.03
602.063	-0.04
602.252	0.05
602.442	-0.04
602.632	-0.02
602.821	-0.04
603.011	0.02
603.201	0.02
603.39	-0.01
603.58	-0.02
603.77	0.01
603.959	0.03
604.149	0.01
604.339	-0.03
604.528	0.01
604.718	0.04
604.907	-0
605.097	-0.01
605.286	-0.02
605.476	0.03
605.665	0.02
605.855	-0
606.044	0.05
606.234	0.02
606.423	0.02
606.612	-0.05
606.802	0.03
606.991	0.05
607.181	0.04
607.37	-0.03
607.559	0
607.749	-0.04
607.938	0.01
608.127	-0
608.316	-0.03
608.506	0.03
608.695	-0.02
608.884	-0.03
609.073	0.01
609.263	-0.01
609.452	0.03
609.641	0.02
609.83	-0.02
610.019	0.02
610.208	-0.02
610.397	0.03
610.586	0.02
610.775	0
610.965	-0.03
611.154	-0.02
611.343	0.03
611.532	-0
611.721	-0.03
611.91	-0.02
612.099	0.01
612.287	0
612.476	-0.03
612.665	0
612.854	-0.03
613.043	0.06
613.232	-0.03
613.421	-0.03
613.61	0.02
613.798	-0.02
613.987	0.03
614.176	0.02
614.365	0.03
614.554	0.01
614.742	0.03
614.931	-0
615.12	0.06
615.309	-0
615.497	0.04
615.686	-0.02
615.875	-0.02
616.063	0.02
616.252	-0.01
616.44	-0.02
616.629	0.04
616.818	0.05
617.006	-0.02
617.195	-0
617.383	0.04
617.572	0.02
617.76	-0.01
617.949	-0.01
618.137	0.04
618.326	0.02
618.514	-0.01
618.703	-0.01
618.891	0.06
619.079	-0.04
619.268	0.03
619.456	-0.02
619.644	0.04
619.833	0.05
620.021	-0.01
620.209	-0.03
620.398	-0
620.586	0.04
620.774	0.02
620.962	0.01
621.151	0.05
621.339	0.01
621.527	-0.05
621.715	-0.05
621.903	-0.02
622.092	-0.02
622.28	0.02
622.468	0.02
622.656	0.01
622.844	0.01
623.032	-0.03
623.22	-0.04
623.408	0.03
623.596	0.04
623.784	0.03
623.972	-0.04
624.16	0.01
624.348	0.04
624.536	-0
624.724	-0.04
624.912	0.04
625.1	0.06
625.288	-0.03
625.476	-0.04
625.664	0.02
625.851	-0.01
626.039	0
626.227	0.02
626.415	0.02
626.603	-0.03
626.79	0
626.978	-0.03
627.166	0.01
627.354	-0.01
627.541	-0.01
627.729	-0.05
627.917	0.03
628.104	0.08
628.292	0.01
628.48	0.01
628.667	0.02
628.855	0.02
629.042	0.02
629.23	0.01
629.418	0.03
629.605	0.01
629.793	-0.02
629.98	-0.02
630.168	-0.01
630.355	0.01
630.543	0.02
630.73	-0.02
630.917	0.04
631.105	0.06
631.292	0
631.48	0.01
631.667	0.09
631.854	-0.01
632.042	-0
632.229	-0.05
632.416	0.02
632.604	-0
632.791	-0.04
632.978	0.04
633.165	0.02
633.353	0.07
633.54	0.04
633.727	-0.07
633.914	-0.03
634.101	-0.03
634.289	0.04
634.476	-0.01
634.663	-0.05
634.85	0.03
635.037	-0.03
635.224	-0.07
635.411	0.06
635.598	0.02
635.785	0.02
635.972	-0.02
636.159	0.04
636.346	-0.01
636.533	0.02
636.72	0.01
636.907	0.01
637.094	0.04
637.281	-0.01
637.468	0.02
637.655	-0.01
637.842	-0.02
638.029	-0.03
638.215	0.04
638.402	0.02
638.589	-0.02
638.776	-0.01
638.963	-0.04
639.149	0.04
639.336	0.06
639.523	-0.01
639.709	-0.01
639.896	-0
640.083	0.05
640.27	0.02
640.456	-0.03
640.643	0.03
640.829	-0.02
641.016	-0.01
641.203	-0.04
641.389	0.02
641.576	0.03
641.762	0.01
641.949	-0.06
642.135	0.01
642.322	0.01
642.508	-0.06
642.695	-0
642.881	-0.01
643.068	-0.01
643.254	-0.03
643.441	0.05
643.627	-0.01
643.813	-0.01
644	0.02
644.186	-0.04
644.372	0.01
644.559	0.05
644.745	-0.04
644.931	-0
645.118	-0.01
645.304	0
645.49	-0.01
645.676	-0.03
645.862	-0.01
646.049	0.03
646.235	-0.03
646.421	0.05
646.607	0.05
646.793	-0.01
646.979	-0.03
647.165	-0
647.352	0.02
647.538	0.05
647.724	-0
647.91	0.02
648.096	0.03
648.282	0.05
648.468	0.01
648.654	0
648.84	-0
649.026	0.03
649.212	-0.01
649.397	-0.03
649.583	-0.02
649.769	0.02
649.955	-0.02
650.141	0.02
650.327	0.04
650.513	-0.02
650.698	0.03
650.884	-0.05
651.07	0
651.256	0.01
651.442	0.01
651.627	-0.03
651.813	0.04
651.999	-0.01
652.184	0.02
652.37	-0
652.556	-0.03
652.741	0.04
652.927	-0.07
653.113	-0.02
653.298	-0
653.484	0.03
653.669	-0.05
653.855	-0
654.04	0.03
654.226	-0
654.412	-0.02
654.597	-0.05
654.782	0.01
654.968	0.04
655.153	0.04
655.339	-0.03
655.524	-0.03
655.71	0.03
655.895	-0.06
656.08	-0.03
656.266	0.05
656.451	0.04
656.636	-0.04
656.822	-0.03
657.007	-0.04
657.192	-0.02
657.378	-0.05
657.563	-0.01
657.748	0
657.933	0.02
658.118	0
658.304	0
658.489	0.03
658.674	-0.01
658.859	-0.05
659.044	-0
659.229	0.02
659.414	-0.02
659.599	-0.05
659.785	-0.06
659.97	-0.04
660.155	0.03
660.34	-0
660.525	-0.01
660.71	-0.03
660.895	0.03
661.08	-0.02
661.264	-0.02
661.449	0.06
661.634	0.04
661.819	0.04
662.004	0.03
662.189	-0.07
662.374	-0.02
662.559	-0.06
662.743	-0.04
662.928	0.01
663.113	-0.03
663.298	-0.04
663.483	-0.06
663.667	0.01
663.852	-0.05
664.037	0.06
664.221	-0.04
664.406	0.02
664.591	0.01
664.775	-0
664.96	-0.04
665.145	0
665.329	0.03
665.514	-0.02
665.698	-0
665.883	-0.09
666.068	0.09
666.252	-0.02
666.437	-0.03
666.621	0
666.806	0.04
666.99	-0.04
667.174	-0.07
667.359	0.04
667.543	0.02
667.728	-0.01
667.912	-0.06
668.096	0.02
668.281	-0
668.465	-0
668.649	-0.01
668.834	-0.04
669.018	0.01
669.202	0
669.387	-0.05
669.571	0.06
669.755	-0.04
669.939	-0.01
670.124	-0.05
670.308	0.04
670.492	0.01
670.676	0
670.86	-0.03
671.044	-0.03
671.228	0.01
671.413	-0.03
671.597	-0.01
671.781	-0.05
671.965	0.03
672.149	0
672.333	-0.01
672.517	-0.06
672.701	0.03
672.885	-0.03
673.069	-0.07
673.253	0.02
673.437	-0.02
673.621	-0.07
673.804	-0.04
673.988	0.02
674.172	-0.04
674.356	-0.07
674.54	-0.01
674.724	0.07
674.908	0.01
675.091	-0
675.275	0
675.459	0.03
675.643	0
675.826	0.01
676.01	-0
676.194	0.03
676.377	0.07
676.561	0.01
676.745	-0.02
676.928	0.04
677.112	0.05
677.296	-0.01
677.479	-0.07
677.663	-0.02
677.846	0.04
678.03	-0.03
678.213	-0.02
678.397	0.02
678.58	-0.01
678.764	-0.03
678.947	-0.04
679.131	-0.05
679.314	0.03
679.498	-0.02
679.681	-0
679.865	0.05
680.048	-0.01
680.231	-0.01
680.415	-0.05
680.598	0.03
680.781	-0.03
680.965	-0.03
681.148	0.02
681.331	0
681.514	0.05
681.698	-0.04
681.881	0.02
682.064	0.02
682.247	0.02
682.43	-0.06
682.614	0.03
682.797	0.07
682.98	0.05
683.163	-0.05
683.346	0.01
683.529	-0.02
683.712	-0.05
683.895	0.05
684.078	-0.05
684.261	-0.01
684.444	0.03
684.627	-0.02
684.81	-0.05
684.993	-0.01
685.176	0.05
685.359	-0.06
685.542	-0.05
685.725	0.02
685.908	0
686.091	0.01
686.274	0.05
686.457	0.02
686.639	-0
686.822	0.04
687.005	0.02
687.188	0.02
687.371	0.1
687.553	0
687.736	0.07
687.919	0.08
688.102	0.08
688.284	-0.06
688.467	0.03
688.65	-0.02
688.832	-0.02
689.015	-0.01
689.197	-0.09
689.38	0.15
689.563	0.04
689.745	-0.05
689.928	-0.01
690.11	0.05
690.293	0
690.475	-0.04
690.658	0
690.84	-0.01
691.023	0.01
691.205	-0.05
691.388	0.01
691.57	0.06
691.752	0.1
691.935	-0.15
692.117	-0.03
692.3	0.01
692.482	-0
692.664	-0.02
692.847	0.02
693.029	0.08
693.211	0.03
693.393	-0.01
693.576	-0.03
693.758	0.03
693.94	0.01
694.122	-0.02
694.304	-0.04
694.487	0.01
694.669	0.09
694.851	-0.07
695.033	0.02
695.215	-0.01
695.397	-0.02
695.579	0.04
695.761	-0.04
695.943	-0.09
696.125	0.07
696.308	0.01
696.49	-0.17
696.671	0.13
696.853	-0.01
697.035	0.15
697.217	-0.04
697.399	0.07
697.581	-0.06
697.763	0.03
697.945	-0.08
698.127	0.02
698.309	0.05
698.491	0.04
698.672	-0.03
698.854	0.02
699.036	0.11
699.218	-0.08
699.399	0.11
699.581	0.04
699.763	-0.03
699.945	-0.04
700.126	-0.08
700.308	-0.02
700.49	-0.01
700.671	-0.07
700.853	-0.03
701.035	-0.03
701.216	0
701.398	-0.01
701.579	0.01
701.761	0.05
701.943	-0.04
702.124	-0.06
702.306	-0.03
702.487	0.1
702.669	-0.04
702.85	-0.06
703.031	-0.04
703.213	0.09
703.394	0.07
703.576	-0.01
703.757	0.12
703.938	0.08
704.12	0.2
704.301	0.01
704.483	-0.01
704.664	0.01
704.845	0.07
705.026	0.04
705.208	-0
705.389	0.11
705.57	0
705.751	-0.03
705.933	0
706.114	0.09
706.295	-0.05
706.476	-0.04
706.657	0.06
706.838	0.03
707.02	0.08
707.201	-0.04
707.382	-0.03
707.563	0.07
707.744	-0.06
707.925	-0.06
708.106	-0.06
708.287	0
708.468	0.13
708.649	-0.08
708.83	0
709.011	-0.08
709.192	-0
709.373	-0.09
709.554	0.02
709.734	-0.03
709.915	0.02
710.096	-0.02
710.277	-0.11
710.458	0.02
710.639	0.01
710.819	-0.11
711	-0.06
711.181	0.07
711.362	0.06
711.542	0.04
711.723	-0
711.904	0.08
712.085	0.02
712.265	-0.02
712.446	-0.12
712.627	-0.01
712.807	0
712.988	-0.02
713.168	-0.06
713.349	0.05
713.53	-0.11
713.71	-0.04
713.891	-0.08
714.071	-0.01
714.252	-0
714.432	-0.01
714.613	-0.11
714.793	-0.03
714.974	0.02
715.154	0.04
715.334	0.08
715.515	0.1
715.695	-0.02
715.876	-0.05
716.056	-0.05
716.236	-0.08
716.417	-0.04
716.597	-0.07
716.777	0.15
716.957	-0.04
717.138	-0.01
717.318	0.02
717.498	-0.1
717.678	-0.02
717.859	0.04
718.039	-0.07
718.219	0.02
718.399	0.07
718.579	-0.07
718.759	-0.17
718.939	-0
719.12	0.01
719.3	-0.01
719.48	-0.14
719.66	-0.09
719.84	0.08
720.02	-0.02
720.2	-0.01
720.38	0.03
720.56	0.15
720.74	-0.05
720.92	-0.05
721.1	0.09
721.279	0.05
721.459	-0.01
721.639	-0.06
721.819	-0
721.999	-0.04
722.179	0.03
722.359	-0.05
722.538	0.08
722.718	-0.03
722.898	0
723.078	-0.06
723.257	-0.08
723.437	0.02
723.617	-0.02
723.797	-0.07
723.976	0.01
724.156	0.02
724.336	0.08
724.515	0.12
724.695	-0.12
724.874	0.04
725.054	0.07
725.234	-0.08
725.413	0.09
725.593	0
725.772	0.01
725.952	0.03
726.131	0.02
726.311	0.02
726.49	-0.05
726.67	-0.11
726.849	-0.07
727.028	0.05
727.208	-0
727.387	-0.01
727.567	-0.11
727.746	-0.01
727.925	-0.06
728.105	-0.17
728.284	-0.03
728.463	-0.01
728.643	0.04
728.822	-0.08
729.001	-0.15
729.18	0.05
729.359	0.09
729.539	0.01
729.718	-0.03
729.897	0.16
730.076	-0.04
730.255	-0.1
730.434	-0.08
730.614	0.05
730.793	0.09
730.972	-0.14
731.151	0.01
731.33	0.08
731.509	0.08
731.688	0.05
731.867	-0.02
732.046	-0.17
732.225	0.19
732.404	-0.06
732.583	-0.13
732.762	0.03
732.941	0.12
733.12	0.04
733.298	-0.07
733.477	0.12
733.656	-0.06
733.835	-0.05
734.014	0.1
734.193	0.03
734.371	0.03
734.55	0.03
734.729	-0.05
734.908	-0.03
735.086	0.03
735.265	0.05
735.444	-0.14
735.623	-0.1
735.801	-0.14
735.98	-0.04
736.159	-0.08
736.337	-0.08
736.516	0.01
736.694	-0.02
736.873	-0.14
737.052	0.02
737.23	0.18
737.409	-0.06
737.587	0.18
737.766	-0.23
737.944	-0.06
738.123	0.09
738.301	0.01
738.479	0.04
738.658	0.06
738.836	-0.18
739.015	0.02
739.193	0.04
739.371	-0.12
739.55	-0.08
739.728	-0.11
739.906	0.12
740.085	0.22
740.263	-0
740.441	-0.15
740.62	0.2
740.798	-0.04
740.976	-0.05
741.154	-0.12
741.332	0.14
741.511	-0.01
741.689	0.03
741.867	0.06
742.045	0.05
742.223	-0
742.401	-0.09
742.579	-0.02
742.757	0.05
742.935	-0.05
743.114	-0.01
743.292	-0.09
743.47	-0.03
743.648	0.02
743.826	-0.14
744.004	0.08
744.181	0.07
744.359	0.01
744.537	0.08
744.715	-0
744.893	0.02
745.071	-0.05
745.249	-0.09
745.427	0.02
745.605	0.07
745.782	-0.06
745.96	-0.03
746.138	0.05
746.316	0.11
746.493	-0.03
746.671	0.08
746.849	-0.08
747.027	0.13
747.204	-0.18
747.382	0.05
747.56	-0.07
747.737	0.05
747.915	-0.09
748.093	0.04
748.27	-0.07
748.448	-0.07
748.625	-0.15
748.803	-0.1
748.98	-0.06
749.158	-0.03
749.335	0.04
749.513	0.01
749.69	-0.02
749.868	0.09
750.045	0.09
750.223	-0.06
750.4	-0.25
750.578	0.2
750.755	-0.02
750.932	-0.12
751.11	0.12
751.287	0.01
751.464	0.19
751.642	-0.09
751.819	0.09
751.996	0.03
752.173	-0.04
752.351	-0.14
752.528	0.01
752.705	-0.06
752.882	-0.02
753.06	0.11
753.237	0.05
753.414	0.15
753.591	0.18
753.768	-0.01
753.945	-0.07
754.122	-0.13
754.299	0.05
754.476	-0.04
754.654	0.12
754.831	0.08
755.008	0.11
755.185	-0.03
755.362	-0.11
755.539	-0.05
755.716	-0.09
755.892	-0.01
756.069	-0.08
756.246	-0.01
756.423	-0.15
756.6	0.22
756.777	-0.04
756.954	0.18
757.131	-0.01
757.307	-0.08
757.484	-0.15
757.661	-0.04
757.838	0
758.015	-0.1
758.191	0.03
758.368	-0.02
758.545	0.25
758.721	0.08
758.898	0.01
759.075	0.1
759.251	0.06
759.428	0.04
759.605	-0.09
759.781	-0.05
759.958	0.1
760.134	0.02
760.311	0.01
760.488	0.11
760.664	0.22
760.841	0.01
761.017	-0.09
761.194	0.13
761.37	0.12
761.547	-0.05
761.723	-0.05
761.899	0.19
762.076	-0.12
762.252	-0.14
762.429	-0.16
762.605	0.22
762.781	-0.09
762.958	0.04
763.134	0.01
763.31	0.02
763.486	0.13
763.663	-0.26
763.839	0.02
764.015	-0.24
764.191	-0.04
764.368	-0.03
764.544	0
764.72	-0.09
764.896	-0.04
765.072	-0.04
765.248	0.07
765.425	-0.01
765.601	0
765.777	0.01
765.953	-0.19
766.129	-0.01
766.305	-0.01
766.481	0.1
766.657	0.03
766.833	0.22
767.009	-0.14
767.185	-0.06
767.361	-0.05
767.537	-0.1
767.713	0.11
767.889	-0.11
768.065	-0.16
768.24	0.04
768.416	0.02
768.592	-0.01
768.768	0.09
768.944	0.17
769.12	-0.07
769.295	-0.1
769.471	-0.01
769.647	-0.04
769.823	0.15
769.998	-0.06
770.174	-0.07
770.35	0.21
770.525	0.15
770.701	0.05
770.877	-0.03
771.052	-0
771.228	0.16
771.403	0.05
771.579	0.09
771.755	0.41
771.93	-0.1
772.106	-0.17
772.281	-0.21
772.457	0.03
772.632	0.12
772.808	-0.28
772.983	-0.12
773.159	-0.12
773.334	0.17
773.509	-0.04
773.685	-0.05
773.86	0.34
774.036	0.11
774.211	0.11
774.386	-0.05
774.562	0.13
774.737	0.14
774.912	-0.01
775.087	-0.01
775.263	-0.11
775.438	-0.02
775.613	-0.11
775.788	-0.09
775.964	0.32
776.139	0.35
776.314	-0.22
776.489	-0.03
776.664	-0.03
776.839	-0.18
777.014	0.13
777.19	0.26
777.365	0.17
777.54	0.32
777.715	-0.07
777.89	0.07
778.065	-0.23
778.24	-0.07
778.415	0.06
778.59	-0.2
778.765	-0.21
778.94	-0.08
779.115	-0.08
779.289	-0.13
779.464	0.03
779.639	-0.16
779.814	-0.31
779.989	-0.2
780.164	0.08
780.339	0.07
780.513	-0.07
780.688	-0.12
780.863	0.1
781.038	0.2
781.212	-0.32
781.387	0.05
781.562	0.34
781.737	-0.07
781.911	0.38
782.086	-0.29
782.261	0.01
782.435	0.27
782.61	-0.21
782.784	-0.18
782.959	0.2
783.134	-0.03
783.308	-0.06
783.483	-0.12
783.657	0.45
783.832	0.08
784.006	-0.24
784.181	0.13
784.355	0.32
784.53	-0.39
784.704	-0.2
784.878	0.31
785.053	-0.11
785.227	0.2
785.402	0.16
785.576	-0.11
785.75	0.11
785.925	-0.04
786.099	-0.05
786.273	-0.08
786.448	0.28
786.622	0.28
786.796	-0.06
786.97	-0.18
787.145	0.49
787.319	-0.17
787.493	-0.2
787.667	-0.48
787.841	-0.01
788.015	0.27
788.19	-0.03
788.364	-0.13
788.538	0.15
788.712	0.17
788.886	-0.11
789.06	0.27
789.234	0.33
789.408	-0.13
789.582	-0.06
789.756	-0.08
789.93	-0.18
790.104	-0.17
790.278	-0.31
790.452	-0.26
790.626	0.23
790.8	-0.18
790.973	0.17
791.147	0.34
791.321	0.42
791.495	0
791.669	-0.01
791.843	0.11
792.016	-0.01
792.19	0.36
792.364	-0.09
792.538	0.43
792.711	0.21
792.885	-0.11
793.059	-0.21
793.233	-0.55
793.406	0.1
793.58	-0.13
793.754	0.31
793.927	-0.04
794.101	0.21
794.274	-0.06
794.448	0.32
794.622	-0.3
794.795	0.21
794.969	-0.13
795.142	0.24
795.316	-0.23
795.489	-0.16
795.663	0.38
795.836	-0.07
796.009	-0.36
796.183	0.23
796.356	-0
796.53	0.18
796.703	0.19
796.876	0.75
797.05	-0.08
797.223	-0.28
797.396	0.18
797.57	0.04
797.743	0.45
797.916	-0.23
798.09	-0.16
798.263	-0.02
798.436	0.05
798.609	-0.23
798.782	-0.16
798.956	0.23
799.129	-0.19
799.302	-0.14
799.475	-0.19
799.648	-0.21
799.821	-0.28
799.994	-0
800.167	-0.22
800.34	-0.11
800.514	0.12
800.687	-0.31
800.86	-0.12
801.033	0.07
801.206	0.1
801.379	-0.29
801.551	0.16
801.724	0.22
801.897	0.63
802.07	0.14
802.243	-0.61
802.416	-0.26
802.589	-0.5
802.762	0.03
802.935	0.14
803.107	0.02
803.28	0.21
803.453	0.08
803.626	-0.2
803.798	-0.18
803.971	-0.24
804.144	-0.18
804.317	0.37
804.489	0.08
804.662	0.02
804.835	-0.07
805.007	-0.4
805.18	0.57
805.353	0.12
805.525	-0.41
805.698	-0.2
805.87	0.05
806.043	0.3
806.215	-0.47
806.388	-0.21
806.56	0.06
806.733	0.57
806.905	-0.37
807.078	-0.28
807.25	-0.02
807.423	-0.07
807.595	0.01
807.768	-0.21
807.94	0.18
808.112	0.07
808.285	-0.07
808.457	-0.12
808.629	-0.21
808.802	0.37
808.974	-0.23
809.146	-0.16
809.318	-0.23
809.491	-0.15
809.663	0.47
809.835	-0.15
810.007	0.27
810.18	0.09
810.352	-0.55
810.524	-0.01
810.696	-0.03
810.868	0.32
811.04	0.02
811.212	-0.23
811.384	0.12
811.556	-0.04
811.728	-0.38
811.901	0.41
812.073	-0.08
812.245	0.08
812.417	-0.12
812.589	-0.76
812.76	0.31
812.932	0.1
813.104	0.3
813.276	-0.08
813.448	0.34
813.62	0.07
813.792	-0.14
813.964	0.11
814.136	0.14
814.307	-0.54
814.479	-0.33
814.651	-0.14
814.823	0.72
814.995	-0.23
815.166	0.02
815.338	-0.1
815.51	-0.47
815.681	0.93
815.853	-0.1
816.025	0.03
816.196	0.94
816.368	0.38
816.54	-0.65
816.711	-0.03
816.883	0.17
817.054	1.01
817.226	-0.74
817.398	0.15
817.569	0
817.741	-0.38
817.912	-0.47
818.084	-0.47
818.255	0.4
818.426	-0.31
818.598	-0.22
818.769	-0.48
818.941	0.47
819.112	0.9
819.283	0.53
819.455	-0.44
819.626	-0.11
819.798	0.5
819.969	0.12
820.14	-0.13
820.311	-0.05
820.483	-0
820.654	0.18
820.825	0.07
820.996	-0.17
821.168	-0.36
821.339	-0.27
821.51	-0.44
821.681	-0.13
821.852	-0.15
822.023	-0.57
822.195	-0.24
822.366	0.1
822.537	-0.14
822.708	0.18
822.879	-0.59
823.05	0.5
823.221	0.28
823.392	0.41
823.563	-0.08
823.734	0.02
823.905	-0.35
824.076	-0.63
824.247	-0.3
824.418	-0.18
824.589	0.11
824.759	-0.35
824.93	0.16
825.101	-1.03
825.272	0.26
825.443	0.88
825.614	0.3
825.784	-1.13
825.955	0.66
826.126	0.61
826.297	-0.05
826.467	0.07
826.638	0.59
826.809	-0.92
826.98	0.09
827.15	-0.28
827.321	0.04
827.492	0.44
827.662	-0.16
827.833	1.18
828.003	0.46
828.174	-0.17
828.345	-0.64
828.515	0.35
828.686	-0.43
828.856	-0.29
829.027	-0.05
829.197	-0.28
829.368	0.12
829.538	-0.24
829.709	-0.61
829.879	0.3
830.049	-0.33
830.22	-0.05
830.39	-0.33
830.56	0.44
830.731	-0.12
830.901	-0.49
831.072	-0.34
831.242	0.08
831.412	0.06
831.582	0.04
831.753	-1.66
831.923	0.18
832.093	-0.14
832.263	0.17
832.434	-0.66
832.604	-0.26
832.774	0.52
832.944	0.05
833.114	-0.36
833.284	0.56
833.454	-0.47
833.624	-0.64
833.795	-0.36
833.965	0.71
834.135	0.98
834.305	-0.8
834.475	-0.98
834.645	-0.15
834.815	-0.01
834.985	-1.11
835.155	-0.92
835.325	0.15
835.494	0.43
835.664	-0.22
835.834	-1.09
836.004	0.22
836.174	-0.23
836.344	-0.13
836.514	-0.8
836.684	-0.27
836.853	-0.35
837.023	-0.07
837.193	-0.07
837.363	0.89
837.532	0.22
837.702	-0.52
837.872	-0.59
838.041	0.27
838.211	1.24
838.381	-0.6
838.55	-0.56
838.72	2.04
838.89	0.38
839.059	0.16
839.229	-0.89
839.398	1.03
839.568	0.53
839.738	-0.05
839.907	0.81
840.077	-0.14
840.246	-0.65
840.416	-0.29
840.585	-1.3
840.755	1.43
840.924	1.5
841.093	-1.27
841.263	-0.33
841.432	-0.62
841.602	-1.1
841.771	-0.87
841.94	-0.82
842.11	1.87
842.279	1.16
842.448	-0.42
842.617	-1.22
842.787	0.47
842.956	-0.83
843.125	-0.15
843.294	0.43
843.464	0.5
843.633	0.49
843.802	-1.08
843.971	-0.9
844.14	0.71
844.309	0.77
844.479	-1.14
844.648	-0.67
844.817	-0.1
844.986	-0.81
845.155	-0.78
845.324	-0.3
845.493	-0.15
845.662	-0.97
845.831	0.27
846	0.45
846.169	-1.17
846.338	0.33
846.507	-0.15
846.676	0.26
846.844	-0.09
847.013	0.62
847.182	-0.65
847.351	-0.57
847.52	0.42
847.689	0.35
847.858	-0.74
848.026	-0.68
848.195	-0.5
848.364	-0.37
848.533	-0.63
848.701	-0.46
848.87	-0.21
849.039	1.19
849.207	0.76
849.376	0.15
849.545	1.76
849.713	-0.83
849.882	-0.66
850.051	-0.85
850.219	-0.3
850.388	0.81
850.556	-0.76
850.725	-1
850.893	0.37
851.062	0.3
851.23	0.43
851.399	-1.62
851.567	-0.99
851.736	-0.04
851.904	-0.85
852.073	-0.53
852.241	0.58
852.41	-0.89
852.578	-0.47
852.746	-1.82
852.915	-0.16
853.083	0.78
853.251	-1.22
853.42	-0.38
853.588	-0.68
853.756	0.78
853.924	-0.25
854.093	-0.45
854.261	-0.14
854.429	-1.54
854.597	-0.7
854.765	-0.95
854.934	0.22
855.102	0.3
855.27	-0.56
855.438	0.16
855.606	0.63
855.774	0.13
855.942	-2.42
856.11	-1.61
856.278	-0.15
856.446	0.17
856.614	0.12
856.782	-1.79
856.95	1.15
857.118	0.17
857.286	0.32
857.454	-1.16
857.622	1.48
857.79	0.25
857.958	-1.52
858.126	0.38
858.294	-2.48
858.462	0.46
858.629	-0.77
858.797	-0.56
858.965	0.72
859.133	0.78
859.301	-0.75
859.468	0.65
859.636	0.16
859.804	2.22
859.971	0.31
860.139	-0.29
860.307	0.76
860.474	-0.33
860.642	-1.6
860.81	-1.54
860.977	-1.49
861.145	1.61
861.313	-0.02
861.48	-0.57
861.648	-0.07
861.815	-1.03
861.983	-1.24
862.15	-0.93
862.318	1.21
862.485	1.26
862.653	-1.84
862.82	-0.88
862.988	0.6
863.155	-1.93
863.322	-0.57
863.49	-1.09
863.657	-1.04
863.824	2.66
863.992	0.35
864.159	0.31
864.326	0.82
864.494	-0.45
864.661	3.13
864.828	-0.97
864.996	0.05
865.163	1.66
865.33	-0.66
865.497	-1.48
865.664	-1.55
865.832	-2.76
865.999	-0.14
866.166	-0.54
866.333	-1.37
866.5	-0.22
866.667	-0.23
866.834	-1.1
867.001	1.89
867.168	-1.78
867.335	0.54
867.502	-1.77
867.669	0.54
867.836	1.89
868.003	-1.74
868.17	1.67
868.337	-0.98
868.504	2.82
868.671	-1.15
868.838	0.2
869.005	0.02
869.172	1.42
869.339	0.49
869.505	0.98
869.672	-0.94
869.839	1.85
870.006	0.37
870.173	-1.87
870.339	1.41
870.506	1.59
870.673	-1.87
870.84	0.51
871.006	-0.94
871.173	-0.06
871.34	-0.76
871.506	-2.16
871.673	-0.19
871.839	-3.19
872.006	0.81
872.173	-0.86
872.339	0.3
872.506	1.81
872.672	0.51
872.839	-2.11
873.005	-0.09
873.172	2.19
873.338	0.19
873.505	-0.13
873.671	-0.08
873.838	-0.15
874.004	-2.24
874.171	-2.03
874.337	0.79
874.503	0.23
874.67	-0.03
874.836	-1.49
875.002	3.74
875.169	1.69
875.335	-0.31
875.501	0.22
875.668	1.87
875.834	0.17
876	-0.28
876.166	0.11
876.332	0.64
876.499	4.1
876.665	-0.66
876.831	-0.34
876.997	3.38
877.163	-0.25
877.329	-0.91
877.495	0.23
877.662	2.39
877.828	-0.54
877.994	-0.12
878.16	-2.04
878.326	-2.12
878.492	1.8
878.658	-1.16
878.824	0.03
878.99	2.59
879.156	-1.18
879.322	0.29
879.487	-1.73
879.653	0.79
879.819	-1.63
879.985	-1.66
880.151	-0.27
880.317	0.89
880.483	-0.48
880.648	1
880.814	-2.62
880.98	1.11
881.146	-3.18
881.312	-2.05
881.477	-0.97
881.643	0.67
881.809	1.68
881.974	1.53
882.14	-1.87
882.306	-1.39
882.471	1.97
882.637	-2.66
882.803	-0.65
882.968	2.25
883.134	3.49
883.299	0.27
883.465	-1.43
883.63	1.03
883.796	0.77
883.961	0.14
884.127	0.94
884.292	-4.08
884.458	-3.2
884.623	-3.2
