Data from Apollo_Calib_20240827__AbsoluteIrradiance__193__02-22-00-625.txt Node

Date: Wed Aug 28 02:22:00 BST 2024
User: biology
Spectrometer: FLMT08252
Trigger mode: 0
Integration Time (sec): 5.000000E-1
Scans to average: 5
Electric dark correction enabled: true
Nonlinearity correction enabled: false
Boxcar width: 0
XAxis mode: Wavelengths
Number of Pixels in Spectrum: 3648
>>>>>Begin Spectral Data<<<<<
179.588	-0
179.809	-0
180.03	-0
180.251	-0
180.473	-0
180.694	0
180.915	0
181.136	-0
181.357	0
181.578	0
181.799	-0
182.02	-0
182.241	-0
182.462	-0
182.683	-0
182.904	-0
183.125	0
183.346	0
183.567	0
183.788	-0
184.009	-0
184.23	0
184.451	0
184.672	-0
184.892	-0
185.113	0
185.334	0
185.555	-0
185.776	-0
185.996	0
186.217	0
186.438	0
186.659	-0
186.879	0
187.1	-0
187.321	-0
187.541	-0
187.762	-0
187.983	0
188.203	0
188.424	0
188.644	-0
188.865	0
189.086	-0
189.306	0
189.527	0
189.747	0
189.968	-0
190.188	0
190.409	0
190.629	0
190.849	-0
191.07	-0
191.29	0
191.511	0
191.731	-0
191.951	-0
192.172	-0
192.392	-0
192.612	0
192.833	0
193.053	0
193.273	0
193.493	-0
193.714	0
193.934	0
194.154	0
194.374	0
194.594	0
194.815	0
195.035	0
195.255	0
195.475	-0
195.695	0
195.915	0
196.135	-0
196.355	0
196.575	0
196.795	0
197.015	-0
197.235	-0
197.455	-0
197.675	0
197.895	-0
198.115	-0
198.335	0
198.555	-0
198.775	0
198.995	0
199.214	0
199.434	0
199.654	-0
199.874	-0
200.094	0.78
200.313	0.02
200.533	-0.48
200.753	-0.36
200.973	0.51
201.192	0.7
201.412	-0.79
201.632	-0.48
201.851	0.82
202.071	-0.23
202.291	-0.54
202.51	-0.52
202.73	0.54
202.95	-0
203.169	-0.38
203.389	-0.04
203.608	0.3
203.828	-0.37
204.047	-0.19
204.267	0.38
204.486	0.26
204.706	-0.01
204.925	-0.25
205.145	-0.3
205.364	0.74
205.583	0.99
205.803	-0.27
206.022	-0.25
206.242	0.3
206.461	0.37
206.68	-0.2
206.9	-0.04
207.119	0.63
207.338	0.37
207.557	-0.03
207.777	-0.16
207.996	0.03
208.215	0.37
208.434	-0.25
208.654	-0.45
208.873	0.16
209.092	0.75
209.311	-0.12
209.53	-0.06
209.749	-0.21
209.968	-0.37
210.187	0.1
210.407	-0.52
210.626	-0.02
210.845	0.4
211.064	0.18
211.283	-0.08
211.502	0.38
211.721	0.24
211.94	-0.19
212.159	0.27
212.377	0.26
212.596	0.32
212.815	0.26
213.034	0.23
213.253	0.15
213.472	0.27
213.691	-0.15
213.91	-0.19
214.128	-0.2
214.347	0.45
214.566	-0.3
214.785	-0.37
215.003	0.13
215.222	0.31
215.441	0.08
215.66	-0.24
215.878	0.14
216.097	0.33
216.316	-0.15
216.534	-0.03
216.753	0.01
216.972	-0.03
217.19	-0.09
217.409	-0.08
217.627	-0.08
217.846	-0.01
218.064	0.18
218.283	-0.09
218.501	0.39
218.72	0.31
218.938	-0.27
219.157	-0.18
219.375	0.26
219.594	0.13
219.812	-0.16
220.031	-0.22
220.249	0.44
220.467	0.22
220.686	-0.05
220.904	-0.01
221.122	-0.13
221.341	0.48
221.559	0.06
221.777	-0.28
221.995	0.07
222.214	0.16
222.432	-0.16
222.65	0.2
222.868	0.12
223.086	0.17
223.305	0.14
223.523	-0.09
223.741	0.41
223.959	-0.14
224.177	-0.2
224.395	0.11
224.613	0.27
224.831	0.27
225.049	-0.12
225.267	-0.03
225.485	0.15
225.703	-0.13
225.921	0.04
226.139	-0.15
226.357	0.18
226.575	0.08
226.793	-0.26
227.011	0.74
227.229	0.06
227.447	0.18
227.665	0
227.883	-0.14
228.1	0.08
228.318	0.09
228.536	-0.18
228.754	-0.01
228.972	0.09
229.189	0.18
229.407	0.02
229.625	0.02
229.843	0.3
230.06	0.13
230.278	-0.01
230.496	0.09
230.713	0.05
230.931	0.19
231.149	-0.11
231.366	-0.19
231.584	0.15
231.801	0.37
232.019	-0.04
232.236	-0.18
232.454	-0.2
232.671	-0.01
232.889	0.01
233.106	-0.1
233.324	0.04
233.541	-0.06
233.759	0.01
233.976	-0.12
234.194	0.07
234.411	-0.01
234.628	-0.03
234.846	-0.12
235.063	0.07
235.28	0.02
235.498	-0.01
235.715	-0.13
235.932	0.24
236.149	0.02
236.367	-0.03
236.584	0.09
236.801	-0.16
237.018	0.12
237.236	-0.02
237.453	-0.18
237.67	0.2
237.887	-0.01
238.104	-0.02
238.321	-0
238.538	-0.05
238.755	0.12
238.973	-0.14
239.19	0.01
239.407	0.05
239.624	0.18
239.841	-0.12
240.058	0.03
240.275	0.13
240.492	0.01
240.709	0.05
240.925	-0.02
241.142	0.06
241.359	-0
241.576	-0.14
241.793	0.01
242.01	0.01
242.227	0.18
242.444	0.06
242.66	0.04
242.877	0.06
243.094	0.02
243.311	0.08
243.527	-0.03
243.744	-0.01
243.961	0.2
244.178	-0.08
244.394	0.05
244.611	0.18
244.828	0.2
245.044	0.06
245.261	-0.01
245.477	0.06
245.694	0.15
245.911	-0.1
246.127	-0.05
246.344	0.26
246.56	0.08
246.777	-0.1
246.993	-0.01
247.21	0.04
247.426	0.13
247.643	-0.09
247.859	-0.09
248.076	-0.05
248.292	0.23
248.508	0.05
248.725	0.03
248.941	0.09
249.157	0.2
249.374	0.08
249.59	0.05
249.806	-0.01
250.023	0.18
250.239	-0.06
250.455	-0.09
250.671	0.04
250.888	0.08
251.104	0.08
251.32	0
251.536	-0.01
251.752	-0.01
251.969	-0.03
252.185	0.07
252.401	0.23
252.617	0.06
252.833	-0.01
253.049	-0.01
253.265	0.07
253.481	0.06
253.697	-0.02
253.913	-0.1
254.129	-0.01
254.345	0.02
254.561	0
254.777	-0.08
254.993	0.05
255.209	0.03
255.425	0.06
255.641	-0.02
255.857	0.09
256.073	0.01
256.288	-0.02
256.504	-0.09
256.72	-0.03
256.936	0.12
257.152	0.01
257.367	-0.01
257.583	0.05
257.799	0.07
258.015	0.03
258.23	-0
258.446	0.18
258.662	-0.02
258.877	-0.05
259.093	-0.01
259.309	0.05
259.524	0.05
259.74	-0.04
259.955	-0.05
260.171	0.1
260.387	0.06
260.602	0.1
260.818	0.03
261.033	-0.05
261.249	0.01
261.464	-0.04
261.68	-0.07
261.895	0.07
262.11	0.07
262.326	-0.05
262.541	-0.11
262.757	0.1
262.972	0.06
263.187	0.05
263.403	0.03
263.618	0.08
263.833	0.02
264.049	-0.06
264.264	0.03
264.479	0.04
264.694	0.12
264.91	-0.05
265.125	-0.03
265.34	0.07
265.555	0.16
265.77	0.08
265.986	0.02
266.201	0.07
266.416	0.1
266.631	-0.03
266.846	0.07
267.061	0.09
267.276	0.06
267.491	-0.12
267.706	0.1
267.921	0.12
268.136	0.03
268.351	0.05
268.566	-0.03
268.781	0.1
268.996	0.1
269.211	0.11
269.426	-0.02
269.641	0.01
269.856	0.08
270.071	0
270.285	-0.1
270.5	0.07
270.715	0.07
270.93	0.05
271.145	0.03
271.359	0.04
271.574	-0.06
271.789	0.07
272.004	-0.04
272.218	0.02
272.433	0.11
272.648	-0.05
272.862	0.08
273.077	-0.01
273.292	0.04
273.506	-0.02
273.721	0.02
273.936	0.14
274.15	0.05
274.365	-0.02
274.579	0.06
274.794	0.06
275.008	0.12
275.223	-0.02
275.437	0
275.652	0.1
275.866	0.05
276.081	0.02
276.295	0.11
276.509	0.03
276.724	0.04
276.938	0.05
277.153	0.01
277.367	0.07
277.581	0.01
277.796	-0.04
278.01	-0.01
278.224	0.09
278.438	0.14
278.653	-0.02
278.867	-0.04
279.081	-0.16
279.295	-0
279.51	0.03
279.724	-0.05
279.938	0.1
280.152	0.02
280.366	-0.03
280.58	0.03
280.794	0.07
281.008	0.06
281.222	0.05
281.437	0.15
281.651	0.05
281.865	0.09
282.079	0.02
282.293	-0.08
282.507	-0.06
282.721	0.04
282.935	-0.02
283.148	-0.04
283.362	-0.04
283.576	-0.01
283.79	0.02
284.004	0
284.218	0.09
284.432	-0.01
284.646	0.04
284.859	-0.01
285.073	-0.01
285.287	0.07
285.501	-0.01
285.714	0.02
285.928	0.06
286.142	0.04
286.356	0.03
286.569	0.01
286.783	0.15
286.997	0.13
287.21	0.07
287.424	0.01
287.637	0.02
287.851	-0.01
288.065	0.06
288.278	-0.02
288.492	0.02
288.705	0.05
288.919	0.06
289.132	-0.04
289.346	0.06
289.559	-0.06
289.773	-0.03
289.986	0
290.2	0.03
290.413	0.09
290.626	-0.03
290.84	0.03
291.053	0.01
291.267	0.13
291.48	-0.02
291.693	-0.03
291.906	0.03
292.12	0.02
292.333	0.04
292.546	0.03
292.76	0.12
292.973	-0.02
293.186	0.04
293.399	-0.03
293.612	0.08
293.826	0.04
294.039	0.02
294.252	0.01
294.465	0.05
294.678	0.08
294.891	0.05
295.104	-0.07
295.317	0.04
295.53	0.05
295.743	0
295.956	0
296.169	0.13
296.382	0.08
296.595	0.01
296.808	-0.01
297.021	0.12
297.234	0.05
297.447	0.02
297.66	0.06
297.873	0.09
298.086	0.06
298.299	-0.02
298.511	-0
298.724	0.05
298.937	-0.01
299.15	-0
299.363	0.05
299.575	0.05
299.788	0.03
300.001	0.03
300.213	-0
300.426	0.05
300.639	-0
300.852	-0.02
301.064	0.08
301.277	0.11
301.489	0.07
301.702	0.09
301.915	0.05
302.127	0.02
302.34	0.05
302.552	0.07
302.765	-0.03
302.977	0.08
303.19	0.03
303.402	0.05
303.615	0.03
303.827	-0.01
304.04	-0.02
304.252	0.07
304.464	0.02
304.677	0.19
304.889	0.05
305.102	-0
305.314	-0.01
305.526	0.05
305.739	0.07
305.951	0
306.163	0
306.375	0.12
306.588	0.01
306.8	-0
307.012	-0.05
307.224	0.05
307.436	0.11
307.649	-0.03
307.861	0.02
308.073	0.04
308.285	0.02
308.497	-0.02
308.709	-0
308.921	0.04
309.133	0.07
309.346	0.04
309.558	0
309.77	0.04
309.982	0.1
310.194	0.04
310.406	0
310.617	0.14
310.829	0.04
311.041	0.04
311.253	-0.02
311.465	0.02
311.677	0.03
311.889	0.05
312.101	-0.03
312.313	0.11
312.524	0.13
312.736	-0.02
312.948	0.03
313.16	0.13
313.372	0.04
313.583	0.03
313.795	0.03
314.007	0.03
314.218	0.07
314.43	0.03
314.642	-0.05
314.853	0.01
315.065	0.03
315.277	0.05
315.488	0.08
315.7	0.04
315.912	0.07
316.123	0.03
316.335	0.01
316.546	0.18
316.758	0.03
316.969	-0
317.181	0.03
317.392	0.03
317.604	0.1
317.815	0.01
318.026	-0.01
318.238	0.01
318.449	0.04
318.661	-0.02
318.872	-0
319.083	0.01
319.295	0.11
319.506	-0
319.717	0.05
319.929	0.07
320.14	0.05
320.351	0.01
320.562	-0.02
320.774	0.05
320.985	0.05
321.196	-0.03
321.407	-0.06
321.618	0.13
321.829	0.03
322.041	0.04
322.252	0.03
322.463	-0.01
322.674	0.05
322.885	-0.01
323.096	0.04
323.307	0.04
323.518	0.08
323.729	0.05
323.94	0.02
324.151	0.05
324.362	0.05
324.573	0.02
324.784	0.01
324.995	0.09
325.206	0.04
325.417	-0.01
325.628	0.03
325.838	0.05
326.049	0.07
326.26	0.04
326.471	0.03
326.682	0.06
326.892	0.03
327.103	-0.04
327.314	-0.01
327.525	0.09
327.735	0.08
327.946	-0.02
328.157	-0
328.368	0.12
328.578	0.03
328.789	0.07
328.999	0.06
329.21	0.03
329.421	0.07
329.631	0.01
329.842	0.02
330.052	0.04
330.263	0.06
330.473	0.06
330.684	0.04
330.894	0.06
331.105	0.05
331.315	0.02
331.526	0
331.736	0.11
331.947	0.06
332.157	0.02
332.367	-0.03
332.578	0.07
332.788	0.12
332.999	0.04
333.209	0.03
333.419	0.02
333.629	0.06
333.84	0.09
334.05	0.05
334.26	0.13
334.47	0.08
334.681	0.09
334.891	0.01
335.101	0.08
335.311	0.14
335.521	0.05
335.732	-0.02
335.942	0.09
336.152	0.06
336.362	0.02
336.572	0.12
336.782	0.1
336.992	0.01
337.202	-0
337.412	0
337.622	0.1
337.832	0.04
338.042	0.04
338.252	0.01
338.462	0.06
338.672	0.05
338.882	0.06
339.092	0.01
339.302	0.11
339.511	0.1
339.721	0.01
339.931	0
340.141	0.07
340.351	0.09
340.561	0.06
340.77	0.05
340.98	0.02
341.19	0.01
341.4	0.04
341.609	-0.02
341.819	0.04
342.029	0.01
342.238	0.03
342.448	-0.03
342.658	0.09
342.867	0.14
343.077	0.02
343.286	0.09
343.496	0.04
343.706	0.09
343.915	-0.03
344.125	0.02
344.334	0.06
344.544	-0
344.753	0.02
344.963	0.03
345.172	0
345.381	-0.01
345.591	-0.01
345.8	0.05
346.01	0.13
346.219	0.06
346.428	0.03
346.638	0.03
346.847	0.04
347.056	0.06
347.266	-0.03
347.475	0.07
347.684	0.09
347.893	0.07
348.103	0.02
348.312	0.06
348.521	0.04
348.73	0.06
348.94	0.07
349.149	0.02
349.358	0.03
349.567	0.03
349.776	-0
349.985	0.02
350.194	0.1
350.403	0.07
350.612	-0.02
350.821	-0
351.03	0.03
351.239	-0.01
351.448	0.01
351.657	0.01
351.866	0.13
352.075	0.05
352.284	0
352.493	-0.05
352.702	0.11
352.911	0.06
353.12	0.03
353.329	0.01
353.538	0.07
353.746	0.03
353.955	0.01
354.164	0.11
354.373	0.04
354.582	0.1
354.79	0.05
354.999	0.06
355.208	0.04
355.416	0.1
355.625	0.03
355.834	-0
356.042	0.04
356.251	0.02
356.46	0.04
356.668	0.08
356.877	0.13
357.085	0.1
357.294	-0.02
357.503	0.07
357.711	0.08
357.92	0.14
358.128	0.09
358.337	0.03
358.545	0.08
358.754	0.05
358.962	0.09
359.17	0.03
359.379	0.08
359.587	0.07
359.796	0.02
360.004	0.1
360.212	0.07
360.421	0.08
360.629	0.02
360.837	0.03
361.046	0.1
361.254	0.18
361.462	0.06
361.67	0.02
361.879	0.02
362.087	0.1
362.295	0.08
362.503	0.05
362.711	0
362.92	0.02
363.128	0.04
363.336	0.04
363.544	0.01
363.752	0.01
363.96	0
364.168	-0.02
364.376	0.08
364.584	0.08
364.792	0.1
365	0.08
365.208	0.04
365.416	0.09
365.624	0.06
365.832	0.02
366.04	0.15
366.248	0.05
366.456	0.1
366.664	0.09
366.872	0.08
367.079	0.07
367.287	0.06
367.495	0.08
367.703	0.05
367.911	0.09
368.118	0.04
368.326	0.07
368.534	0.05
368.742	0.12
368.949	0.03
369.157	0.05
369.365	0.07
369.572	0.03
369.78	0.03
369.988	0.13
370.195	0.09
370.403	0.08
370.61	0.04
370.818	0.08
371.026	0.17
371.233	0.06
371.441	0.06
371.648	0.06
371.856	0.04
372.063	0.07
372.271	0.03
372.478	0.06
372.685	0.02
372.893	0.08
373.1	0.04
373.308	0.04
373.515	0.14
373.722	0.12
373.93	0.02
374.137	0.11
374.344	0.12
374.552	0.12
374.759	0.05
374.966	0.06
375.173	0.02
375.381	0.14
375.588	0.07
375.795	0.01
376.002	0.05
376.209	0.07
376.417	0.09
376.624	0.09
376.831	0.16
377.038	0.07
377.245	0.04
377.452	0.09
377.659	0.11
377.866	0.06
378.073	0.08
378.28	0.11
378.487	0.16
378.694	0.1
378.901	0.09
379.108	0.1
379.315	0.14
379.522	0.19
379.729	0.11
379.936	0.09
380.143	0.11
380.35	0.11
380.557	0.09
380.763	0.13
380.97	0.14
381.177	0.13
381.384	0.16
381.591	0.07
381.797	0.16
382.004	0.17
382.211	0.16
382.418	0.15
382.624	0.18
382.831	0.2
383.038	0.19
383.244	0.17
383.451	0.16
383.658	0.19
383.864	0.17
384.071	0.11
384.277	0.27
384.484	0.16
384.69	0.24
384.897	0.17
385.103	0.18
385.31	0.2
385.516	0.18
385.723	0.19
385.929	0.24
386.136	0.18
386.342	0.31
386.549	0.28
386.755	0.34
386.961	0.35
387.168	0.3
387.374	0.3
387.58	0.37
387.787	0.36
387.993	0.37
388.199	0.32
388.406	0.41
388.612	0.4
388.818	0.45
389.024	0.4
389.231	0.47
389.437	0.6
389.643	0.57
389.849	0.51
390.055	0.59
390.261	0.6
390.467	0.66
390.674	0.64
390.88	0.68
391.086	0.77
391.292	0.78
391.498	0.86
391.704	0.84
391.91	0.88
392.116	0.89
392.322	0.87
392.528	1.07
392.734	1.08
392.94	1.11
393.146	1.17
393.352	1.21
393.557	1.27
393.763	1.31
393.969	1.46
394.175	1.44
394.381	1.54
394.587	1.59
394.792	1.73
394.998	1.89
395.204	1.92
395.41	1.96
395.615	2.09
395.821	2.21
396.027	2.36
396.233	2.51
396.438	2.6
396.644	2.89
396.85	2.94
397.055	3.09
397.261	3.2
397.466	3.33
397.672	3.48
397.878	3.78
398.083	3.78
398.289	3.88
398.494	4.01
398.7	4.28
398.905	4.24
399.111	4.6
399.316	4.69
399.522	4.94
399.727	5.02
399.932	5.35
400.138	5.47
400.343	5.85
400.549	5.82
400.754	6.18
400.959	6.47
401.165	6.75
401.37	7.07
401.575	7.39
401.78	7.55
401.986	8.02
402.191	8.27
402.396	8.6
402.601	8.98
402.807	9.34
403.012	9.41
403.217	10.3
403.422	10.21
403.627	10.65
403.832	11.15
404.037	11.33
404.243	11.4
404.448	11.88
404.653	12.21
404.858	12.46
405.063	12.35
405.268	12.94
405.473	13.01
405.678	13.31
405.883	14
406.088	13.99
406.293	14.01
406.498	14.38
406.703	14.24
406.907	14.75
407.112	15.1
407.317	15.53
407.522	15.73
407.727	15.9
407.932	16.1
408.136	16.35
408.341	15.98
408.546	16
408.751	16.06
408.956	15.84
409.16	16.27
409.365	16.12
409.57	15.62
409.774	15.56
409.979	15.49
410.184	15.14
410.388	15.08
410.593	15.15
410.798	14.92
411.002	14.97
411.207	14.57
411.411	14.48
411.616	13.9
411.82	13.88
412.025	13.51
412.229	13.2
412.434	12.9
412.638	12.55
412.843	12.22
413.047	11.89
413.252	11.57
413.456	11.6
413.66	11.26
413.865	10.78
414.069	10.58
414.273	10.3
414.478	9.94
414.682	9.71
414.886	9.52
415.091	9.15
415.295	8.91
415.499	8.87
415.703	8.32
415.908	8.33
416.112	7.86
416.316	7.92
416.52	7.64
416.724	7.48
416.929	7.17
417.133	7.35
417.337	6.92
417.541	6.82
417.745	6.59
417.949	6.52
418.153	6.42
418.357	6.29
418.561	6.27
418.765	5.97
418.969	5.88
419.173	5.96
419.377	5.59
419.581	5.65
419.785	5.6
419.989	5.3
420.193	5.39
420.397	5.22
420.601	5.06
420.804	4.97
421.008	4.77
421.212	4.74
421.416	4.49
421.62	4.37
421.823	4.19
422.027	4.14
422.231	3.98
422.435	3.78
422.638	3.72
422.842	3.67
423.046	3.41
423.249	3.46
423.453	3.32
423.657	3.27
423.86	3.13
424.064	3.1
424.268	3.06
424.471	2.84
424.675	2.87
424.878	2.83
425.082	2.7
425.285	2.69
425.489	2.61
425.692	2.52
425.896	2.39
426.099	2.4
426.303	2.3
426.506	2.23
426.71	2.27
426.913	2.24
427.116	2.15
427.32	2.11
427.523	2
427.726	2.03
427.93	1.9
428.133	1.97
428.336	1.84
428.54	1.77
428.743	1.87
428.946	1.86
429.149	1.82
429.353	1.76
429.556	1.66
429.759	1.61
429.962	1.51
430.165	1.6
430.368	1.43
430.571	1.38
430.775	1.39
430.978	1.35
431.181	1.35
431.384	1.26
431.587	1.21
431.79	1.25
431.993	1.16
432.196	1.24
432.399	1.17
432.602	1.27
432.805	1.17
433.008	1.19
433.211	1.08
433.414	1.22
433.616	1.16
433.819	1.06
434.022	1.04
434.225	1.19
434.428	1.04
434.631	1.22
434.833	1.01
435.036	1
435.239	1.04
435.442	0.98
435.645	0.98
435.847	0.96
436.05	0.96
436.253	0.92
436.455	0.85
436.658	0.86
436.861	0.94
437.063	0.79
437.266	0.83
437.468	0.8
437.671	0.94
437.874	0.87
438.076	0.7
438.279	0.7
438.481	0.75
438.684	0.7
438.886	0.73
439.089	0.64
439.291	0.74
439.494	0.82
439.696	0.65
439.899	0.7
440.101	0.7
440.303	0.57
440.506	0.68
440.708	0.63
440.91	0.65
441.113	0.62
441.315	0.67
441.517	0.55
441.72	0.63
441.922	0.55
442.124	0.56
442.326	0.58
442.529	0.59
442.731	0.5
442.933	0.59
443.135	0.51
443.337	0.47
443.539	0.46
443.742	0.44
443.944	0.53
444.146	0.35
444.348	0.42
444.55	0.43
444.752	0.42
444.954	0.3
445.156	0.44
445.358	0.42
445.56	0.48
445.762	0.4
445.964	0.43
446.166	0.36
446.368	0.36
446.57	0.4
446.772	0.38
446.974	0.34
447.175	0.34
447.377	0.34
447.579	0.36
447.781	0.22
447.983	0.42
448.184	0.37
448.386	0.36
448.588	0.27
448.79	0.3
448.991	0.27
449.193	0.26
449.395	0.31
449.597	0.32
449.798	0.28
450	0.34
450.202	0.28
450.403	0.25
450.605	0.3
450.806	0.33
451.008	0.21
451.21	0.3
451.411	0.31
451.613	0.3
451.814	0.25
452.016	0.26
452.217	0.28
452.419	0.29
452.62	0.3
452.821	0.27
453.023	0.3
453.224	0.29
453.426	0.24
453.627	0.25
453.828	0.27
454.03	0.23
454.231	0.27
454.432	0.22
454.634	0.35
454.835	0.22
455.036	0.19
455.238	0.3
455.439	0.36
455.64	0.19
455.841	0.23
456.042	0.36
456.244	0.27
456.445	0.2
456.646	0.18
456.847	0.2
457.048	0.23
457.249	0.26
457.45	0.47
457.651	0.21
457.852	0.24
458.054	0.23
458.255	0.24
458.456	0.26
458.657	0.22
458.858	0.2
459.058	0.22
459.259	0.32
459.46	0.19
459.661	0.19
459.862	0.37
460.063	0.22
460.264	0.27
460.465	0.18
460.666	0.34
460.866	0.21
461.067	0.16
461.268	0.18
461.469	0.21
461.67	0.25
461.87	0.21
462.071	0.21
462.272	0.17
462.473	0.2
462.673	0.23
462.874	0.14
463.075	0.2
463.275	0.2
463.476	0.29
463.676	0.22
463.877	0.22
464.078	0.26
464.278	0.29
464.479	0.21
464.679	0.22
464.88	0.24
465.08	0.28
465.281	0.17
465.481	0.16
465.682	0.19
465.882	0.21
466.083	0.17
466.283	0.2
466.483	0.23
466.684	0.16
466.884	0.15
467.085	0.2
467.285	0.27
467.485	0.19
467.686	0.2
467.886	0.17
468.086	0.18
468.286	0.19
468.487	0.2
468.687	0.17
468.887	0.2
469.087	0.24
469.287	0.16
469.488	0.1
469.688	0.28
469.888	0.25
470.088	0.22
470.288	0.21
470.488	0.25
470.688	0.17
470.888	0.14
471.088	0.14
471.288	0.23
471.488	0.18
471.688	0.17
471.888	0.11
472.088	0.24
472.288	0.21
472.488	0.14
472.688	0.18
472.888	0.19
473.088	0.16
473.288	0.15
473.488	0.17
473.688	0.25
473.887	0.16
474.087	0.14
474.287	0.17
474.487	0.13
474.687	0.19
474.886	0.16
475.086	0.14
475.286	0.18
475.486	0.16
475.685	0.15
475.885	0.09
476.085	0.17
476.284	0.15
476.484	0.16
476.684	0.15
476.883	0.2
477.083	0.15
477.282	0.11
477.482	0.18
477.681	0.2
477.881	0.16
478.08	0.08
478.28	0.07
478.479	0.15
478.679	0.2
478.878	0.12
479.078	0.14
479.277	0.11
479.477	0.13
479.676	0.14
479.875	0.09
480.075	0.04
480.274	0.13
480.473	0.1
480.673	0.07
480.872	0.12
481.071	0.12
481.271	0.11
481.47	0.1
481.669	0.12
481.868	0.1
482.067	0.08
482.267	0.1
482.466	0.08
482.665	0.06
482.864	0.05
483.063	0.06
483.262	0.14
483.461	0.12
483.661	0.09
483.86	0.1
484.059	0.11
484.258	0.09
484.457	0.1
484.656	0.13
484.855	0.13
485.054	0.03
485.253	0.07
485.452	0.04
485.651	0.09
485.849	0.07
486.048	0.06
486.247	0.07
486.446	0.1
486.645	0.04
486.844	0.06
487.043	0.07
487.241	0.11
487.44	0.04
487.639	0.07
487.838	0.09
488.037	0.09
488.235	0.11
488.434	0.06
488.633	0.06
488.831	0.09
489.03	0.1
489.229	0.09
489.427	0.07
489.626	0.13
489.825	0.12
490.023	0.08
490.222	0.04
490.42	0.12
490.619	0.12
490.817	0.11
491.016	0.07
491.214	0.12
491.413	0.07
491.611	0.06
491.81	0.08
492.008	0.08
492.207	0.11
492.405	0.09
492.604	0.01
492.802	0.06
493	0.09
493.199	0.07
493.397	0.09
493.595	0.05
493.794	0.06
493.992	0.11
494.19	0.07
494.388	0.09
494.587	0.04
494.785	0.07
494.983	0.04
495.181	0.07
495.379	0.05
495.578	0.04
495.776	0.06
495.974	0.08
496.172	0.03
496.37	0.08
496.568	0.05
496.766	0.05
496.964	0.1
497.162	0.07
497.36	0.03
497.558	0.07
497.756	0.1
497.954	0.05
498.152	0.05
498.35	0.08
498.548	0.06
498.746	0.08
498.944	0.04
499.142	0.05
499.34	0.03
499.538	0.06
499.736	0.03
499.933	0.09
500.131	0.08
500.329	0.07
500.527	0.09
500.725	0.09
500.922	0.06
501.12	0.07
501.318	0.06
501.516	0.05
501.713	0.09
501.911	0.04
502.109	0.04
502.306	0.06
502.504	0.06
502.701	0.05
502.899	0.04
503.097	0.14
503.294	0.07
503.492	0.04
503.689	0.06
503.887	0.07
504.084	0.09
504.282	0.05
504.479	0.02
504.677	0.08
504.874	0.05
505.072	0.05
505.269	0.02
505.466	0.07
505.664	0.07
505.861	0.02
506.059	0.04
506.256	0.1
506.453	0.02
506.651	0.09
506.848	0.1
507.045	0.06
507.242	0.06
507.44	0.03
507.637	0.05
507.834	0.01
508.031	0.08
508.229	0.02
508.426	0.06
508.623	0.07
508.82	0.02
509.017	0.02
509.214	0.03
509.411	0.07
509.608	0.01
509.805	0.05
510.003	0.04
510.2	0.04
510.397	0.07
510.594	0.03
510.791	0.02
510.988	0.03
511.184	0.09
511.381	0.04
511.578	0.02
511.775	0.06
511.972	0.03
512.169	0.04
512.366	0.05
512.563	0.06
512.76	0.04
512.956	0.06
513.153	0.05
513.35	0.06
513.547	0.04
513.744	0.03
513.94	0
514.137	0.07
514.334	0.05
514.53	0.03
514.727	0.05
514.924	0.08
515.12	0.02
515.317	0.01
515.514	0.02
515.71	-0.01
515.907	0.03
516.103	0.04
516.3	0.05
516.497	0.04
516.693	0.08
516.89	0.03
517.086	0.01
517.283	0.08
517.479	0.05
517.676	0.03
517.872	0.04
518.068	0.02
518.265	0.03
518.461	0.03
518.658	0.01
518.854	0.05
519.05	0.01
519.247	0.02
519.443	0.05
519.639	0.06
519.836	0.04
520.032	0.03
520.228	0.04
520.424	0.1
520.621	0.05
520.817	0.03
521.013	0.05
521.209	0.04
521.405	0.08
521.601	0.04
521.798	0.01
521.994	0.09
522.19	0.02
522.386	0
522.582	0.03
522.778	0.04
522.974	0.02
523.17	0.03
523.366	0.06
523.562	0.07
523.758	0.04
523.954	0.01
524.15	0.01
524.346	0.05
524.542	0.03
524.738	0
524.934	-0.01
525.129	0.02
525.325	0.04
525.521	0.05
525.717	0.05
525.913	0.02
526.109	0.03
526.304	0.02
526.5	0.04
526.696	0.04
526.892	0.02
527.087	0.02
527.283	0
527.479	0.05
527.674	0.01
527.87	0.02
528.066	0.03
528.261	0.06
528.457	0.01
528.653	0.04
528.848	-0.01
529.044	0.03
529.239	0.01
529.435	0.05
529.63	0.02
529.826	0.08
530.021	0.05
530.217	0.05
530.412	0.01
530.608	0.01
530.803	0.02
530.999	-0
531.194	-0.01
531.389	0.04
531.585	-0.03
531.78	0.01
531.975	0.03
532.171	0.07
532.366	0.02
532.561	0.03
532.757	-0
532.952	0.02
533.147	0.04
533.342	0.02
533.538	0.02
533.733	0.03
533.928	0
534.123	-0
534.318	-0
534.513	0.02
534.709	0.03
534.904	0.02
535.099	0.01
535.294	0.03
535.489	0.03
535.684	0.03
535.879	-0.01
536.074	0.03
536.269	0.01
536.464	0.03
536.659	0.02
536.854	0.02
537.049	0.04
537.244	0.03
537.439	0.02
537.634	0.05
537.828	0.04
538.023	0.02
538.218	0.01
538.413	0.02
538.608	-0
538.803	0.03
538.997	-0.03
539.192	0.06
539.387	0.05
539.582	0.05
539.776	0.02
539.971	0.02
540.166	0.02
540.36	-0
540.555	0.02
540.75	0.01
540.944	0.02
541.139	0
541.334	0.02
541.528	0.05
541.723	0.03
541.917	-0
542.112	-0.04
542.306	0.02
542.501	0.02
542.695	0
542.89	-0.01
543.084	0.03
543.279	0.02
543.473	0.03
543.668	0.02
543.862	0.02
544.056	0.05
544.251	0.02
544.445	0.04
544.64	0.01
544.834	-0.01
545.028	0.02
545.222	0.01
545.417	0.04
545.611	0.01
545.805	0.04
546	0.02
546.194	0.01
546.388	0.02
546.582	0.02
546.776	0.02
546.97	0
547.165	0.03
547.359	0.05
547.553	0.01
547.747	0.03
547.941	0.03
548.135	0.01
548.329	0.05
548.523	0.03
548.717	0
548.911	0.01
549.105	0.03
549.299	-0.01
549.493	0.03
549.687	0.02
549.881	0.03
550.075	0.05
550.269	0.02
550.463	0.06
550.657	0
550.85	0.02
551.044	0
551.238	0.02
551.432	-0
551.626	-0.02
551.82	0.04
552.013	0
552.207	0.03
552.401	0.03
552.594	0.04
552.788	0.02
552.982	0.04
553.176	0
553.369	0.03
553.563	0.04
553.756	-0.03
553.95	0.02
554.144	0.01
554.337	0.05
554.531	0.05
554.724	0.01
554.918	0.02
555.111	-0
555.305	0.02
555.498	0.06
555.692	0.03
555.885	0.02
556.079	0.03
556.272	-0.02
556.466	0.06
556.659	0
556.852	-0.01
557.046	0
557.239	0.04
557.432	-0.01
557.626	-0.02
557.819	0.03
558.012	0.05
558.206	0.03
558.399	0.02
558.592	0.03
558.785	0.03
558.979	0.06
559.172	0.02
559.365	0.05
559.558	0.02
559.751	0.01
559.944	0.01
560.138	0.01
560.331	0
560.524	0
560.717	0
560.91	0.02
561.103	0.04
561.296	0.02
561.489	0.02
561.682	0.03
561.875	0.07
562.068	0.01
562.261	0.02
562.454	0.05
562.647	0.02
562.84	0.03
563.032	0
563.225	0.02
563.418	-0
563.611	0.03
563.804	0.01
563.997	-0.01
564.19	-0.02
564.382	0
564.575	-0
564.768	0
564.961	0.02
565.153	0.01
565.346	0.03
565.539	0.05
565.731	0.03
565.924	0.04
566.117	0.04
566.309	-0
566.502	0.01
566.695	0
566.887	0.01
567.08	-0
567.272	0.01
567.465	-0.01
567.657	0
567.85	0.04
568.042	0.01
568.235	0.05
568.427	-0
568.62	0.01
568.812	0.03
569.005	0.01
569.197	-0.03
569.389	0.04
569.582	0.02
569.774	0.03
569.966	-0.04
570.159	0
570.351	0.01
570.543	-0.02
570.736	-0
570.928	-0.02
571.12	0.03
571.312	-0.01
571.505	-0.01
571.697	0.04
571.889	0.01
572.081	-0.02
572.273	-0.01
572.465	0.03
572.658	0.02
572.85	0.02
573.042	0.01
573.234	0.03
573.426	0.07
573.618	-0.01
573.81	0.03
574.002	0.06
574.194	0.05
574.386	-0.03
574.578	-0.06
574.77	0
574.962	0
575.154	-0.04
575.346	-0.01
575.538	0.05
575.729	-0
575.921	-0.03
576.113	-0.01
576.305	0.02
576.497	0.02
576.689	0.02
576.88	-0.02
577.072	0.01
577.264	-0.01
577.456	0.01
577.647	-0.03
577.839	0.04
578.031	0.05
578.223	-0.01
578.414	-0.04
578.606	0.04
578.798	0
578.989	-0
579.181	-0.02
579.372	0.02
579.564	0
579.755	0
579.947	0.03
580.139	0.03
580.33	-0.04
580.522	0
580.713	-0.06
580.905	0
581.096	-0
581.287	0.02
581.479	0.02
581.67	0.05
581.862	-0
582.053	-0.02
582.244	-0.04
582.436	0.02
582.627	0
582.818	-0.01
583.01	-0.04
583.201	0.06
583.392	0.03
583.583	0.02
583.775	-0.01
583.966	0.01
584.157	0
584.348	-0.02
584.54	-0.05
584.731	0.03
584.922	-0
585.113	-0.01
585.304	0.03
585.495	0.04
585.686	0.02
585.877	0.02
586.068	0.01
586.259	0.03
586.45	0.02
586.641	-0.01
586.832	-0.05
587.023	0.01
587.214	0
587.405	0
587.596	-0.02
587.787	0.03
587.978	0.01
588.169	-0.01
588.36	-0.03
588.551	0.03
588.742	-0.02
588.932	0.03
589.123	-0.01
589.314	0.03
589.505	0.04
589.696	0.01
589.886	-0.02
590.077	-0.03
590.268	-0.01
590.458	-0.05
590.649	-0.05
590.84	0.05
591.03	-0.02
591.221	-0.04
591.412	-0.06
591.602	0.03
591.793	0.07
591.984	-0.01
592.174	-0
592.365	0.06
592.555	-0.02
592.746	0.01
592.936	0
593.127	0.03
593.317	0.07
593.508	-0.02
593.698	-0.03
593.889	0.03
594.079	0.03
594.269	-0.02
594.46	-0.02
594.65	-0.01
594.84	0.02
595.031	-0.03
595.221	0
595.411	-0.03
595.602	0.03
595.792	-0
595.982	-0.03
596.172	0.09
596.363	0.02
596.553	0
596.743	-0.01
596.933	0.01
597.123	0.05
597.314	-0.02
597.504	-0.01
597.694	0.03
597.884	0.05
598.074	0.02
598.264	-0.02
598.454	0.01
598.644	0.02
598.834	0.01
599.024	-0.03
599.214	-0.01
599.404	0.05
599.594	-0.01
599.784	-0.01
599.974	0.02
600.164	0.04
600.354	-0.03
600.544	-0.05
600.734	0.02
600.924	0.04
601.114	-0.01
601.303	-0.01
601.493	0.01
601.683	0.01
601.873	0.01
602.063	-0.05
602.252	0.04
602.442	-0.06
602.632	-0.02
602.821	-0.04
603.011	0.03
603.201	-0.01
603.39	-0.01
603.58	-0
603.77	0.02
603.959	0.01
604.149	-0.01
604.339	0.01
604.528	0.05
604.718	0.05
604.907	-0.02
605.097	-0.01
605.286	-0.02
605.476	0.06
605.665	0.01
605.855	0
606.044	0.05
606.234	0.02
606.423	0.02
606.612	-0.03
606.802	-0.01
606.991	0.02
607.181	0.02
607.37	-0.04
607.559	0.01
607.749	-0.05
607.938	-0
608.127	0.01
608.316	-0.03
608.506	0.01
608.695	0.01
608.884	-0.03
609.073	0.02
609.263	0.03
609.452	0.03
609.641	0.03
609.83	-0.03
610.019	0
610.208	0
610.397	-0.03
610.586	0.03
610.775	-0.01
610.965	-0
611.154	-0.03
611.343	0.04
611.532	0.03
611.721	-0.03
611.91	-0.02
612.099	-0.02
612.287	0.01
612.476	-0.02
612.665	0
612.854	-0.03
613.043	0.02
613.232	-0
613.421	-0.04
613.61	0
613.798	-0.03
613.987	0.02
614.176	-0.01
614.365	0.03
614.554	-0.01
614.742	0.02
614.931	-0.02
615.12	0.02
615.309	0.01
615.497	-0.03
615.686	-0.03
615.875	0
616.063	0.03
616.252	-0.04
616.44	-0.03
616.629	-0.01
616.818	0.04
617.006	0.01
617.195	-0
617.383	0.03
617.572	0.02
617.76	-0.03
617.949	-0.01
618.137	0.03
618.326	0.06
618.514	-0.04
618.703	-0.02
618.891	0.04
619.079	-0.03
619.268	0.01
619.456	-0.03
619.644	0.05
619.833	-0.01
620.021	-0
620.209	-0.05
620.398	0
620.586	-0
620.774	0.02
620.962	0.01
621.151	0.06
621.339	0.02
621.527	-0.01
621.715	-0.05
621.903	-0.02
622.092	-0.02
622.28	0.01
622.468	-0.02
622.656	-0.01
622.844	0.05
623.032	-0.03
623.22	-0.04
623.408	0.03
623.596	0.01
623.784	0.03
623.972	-0.03
624.16	0.02
624.348	0.06
624.536	-0.02
624.724	0
624.912	0.05
625.1	0.03
625.288	0.02
625.476	-0.03
625.664	0.03
625.851	-0.01
626.039	-0.04
626.227	0.02
626.415	-0
626.603	-0.08
626.79	0
626.978	0.01
627.166	0.04
627.354	0.01
627.541	-0.01
627.729	-0.07
627.917	0.03
628.104	0.04
628.292	0.03
628.48	-0.01
628.667	0.03
628.855	0.02
629.042	0.01
629.23	-0.01
629.418	0.02
629.605	0.01
629.793	-0.01
629.98	-0.01
630.168	-0.01
630.355	-0.03
630.543	0.01
630.73	-0.05
630.917	0.03
631.105	0.04
631.292	-0.01
631.48	-0.01
631.667	0.08
631.854	0.02
632.042	-0.02
632.229	-0.03
632.416	-0
632.604	0.01
632.791	-0.03
632.978	0.03
633.165	0
633.353	0.08
633.54	-0.01
633.727	-0.06
633.914	-0.03
634.101	-0.05
634.289	0.04
634.476	-0.04
634.663	-0.03
634.85	0.01
635.037	-0.07
635.224	-0.07
635.411	0.06
635.598	0.06
635.785	-0.01
635.972	0.01
636.159	0.02
636.346	-0.03
636.533	0
636.72	-0.02
636.907	-0.01
637.094	0
637.281	-0.05
637.468	0.02
637.655	-0.01
637.842	0.02
638.029	-0.05
638.215	0.05
638.402	-0.01
638.589	-0.02
638.776	-0.02
638.963	-0.02
639.149	0.02
639.336	0.07
639.523	0
639.709	-0.03
639.896	0.01
640.083	0.04
640.27	-0.01
640.456	-0
640.643	0.02
640.829	-0.06
641.016	-0.01
641.203	-0.04
641.389	0.04
641.576	0.02
641.762	0
641.949	-0.03
642.135	0.03
642.322	0
642.508	-0.06
642.695	-0
642.881	-0
643.068	-0.05
643.254	0
643.441	0.03
643.627	-0.01
643.813	-0.02
644	0.03
644.186	-0.01
644.372	0.01
644.559	0.03
644.745	-0.01
644.931	-0.03
645.118	-0.01
645.304	-0.01
645.49	-0.02
645.676	-0.01
645.862	-0.01
646.049	0.03
646.235	-0.02
646.421	0.05
646.607	0.07
646.793	-0.03
646.979	0
647.165	0
647.352	-0
647.538	0.04
647.724	-0.02
647.91	0
648.096	0
648.282	0.04
648.468	-0.02
648.654	0.04
648.84	0.01
649.026	0.01
649.212	-0
649.397	-0.03
649.583	-0.02
649.769	0.05
649.955	-0.01
650.141	0
650.327	0.08
650.513	-0.02
650.698	0.02
650.884	-0.05
651.07	0.02
651.256	0
651.442	0
651.627	-0.01
651.813	-0.01
651.999	0.02
652.184	0.01
652.37	-0.02
652.556	-0.02
652.741	0.05
652.927	-0.09
653.113	-0.01
653.298	-0.02
653.484	-0
653.669	-0.06
653.855	0.01
654.04	0.04
654.226	-0.02
654.412	-0
654.597	-0.05
654.782	-0.01
654.968	0.06
655.153	-0
655.339	-0.04
655.524	-0.04
655.71	0.04
655.895	-0.02
656.08	-0.04
656.266	0.05
656.451	-0.02
656.636	-0.03
656.822	0
657.007	-0.04
657.192	-0.01
657.378	-0.04
657.563	0
657.748	0.01
657.933	-0
658.118	-0.05
658.304	-0.04
658.489	0.02
658.674	0.02
658.859	-0.04
659.044	0.02
659.229	0.01
659.414	-0.01
659.599	-0
659.785	-0.06
659.97	-0.03
660.155	0.03
660.34	0.03
660.525	0.01
660.71	-0.01
660.895	0.02
661.08	-0.03
661.264	-0.04
661.449	0.05
661.634	0.01
661.819	0.03
662.004	0.02
662.189	-0.05
662.374	-0.02
662.559	-0.07
662.743	-0.05
662.928	-0.01
663.113	-0.04
663.298	-0.05
663.483	-0.02
663.667	0.01
663.852	-0.07
664.037	0.05
664.221	-0.06
664.406	0.01
664.591	0.02
664.775	-0.02
664.96	-0
665.145	-0.04
665.329	0.03
665.514	-0.01
665.698	-0.02
665.883	-0.06
666.068	0.08
666.252	-0.01
666.437	-0.03
666.621	0.01
666.806	0.05
666.99	-0.01
667.174	-0.05
667.359	0.05
667.543	-0.04
667.728	-0.02
667.912	-0.07
668.096	0.03
668.281	-0.07
668.465	-0.03
668.649	0.01
668.834	0.01
669.018	0.01
669.202	-0.03
669.387	-0.04
669.571	0.07
669.755	-0.04
669.939	-0.05
670.124	-0.03
670.308	0.04
670.492	0.04
670.676	0.04
670.86	-0.01
671.044	-0.06
671.228	0.03
671.413	-0.02
671.597	-0.02
671.781	-0.03
671.965	0.01
672.149	-0.03
672.333	-0.02
672.517	-0.04
672.701	0.01
672.885	-0.02
673.069	-0.05
673.253	0.04
673.437	-0.05
673.621	-0.07
673.804	-0.01
673.988	-0.01
674.172	-0.02
674.356	-0.09
674.54	0.02
674.724	0.07
674.908	-0.01
675.091	0.03
675.275	-0.03
675.459	0.04
675.643	0.08
675.826	0.02
676.01	-0.02
676.194	0
676.377	0.06
676.561	0.02
676.745	-0.05
676.928	0.02
677.112	0.05
677.296	-0.05
677.479	-0.01
677.663	-0.05
677.846	0.03
678.03	0.01
678.213	-0.02
678.397	0.02
678.58	-0.02
678.764	-0.02
678.947	-0.05
679.131	-0.15
679.314	0.06
679.498	0
679.681	-0.03
679.865	0.03
680.048	-0.02
680.231	0.03
680.415	-0.06
680.598	-0.03
680.781	-0.03
680.965	-0.01
681.148	0
681.331	-0.04
681.514	0.04
681.698	-0.05
681.881	-0
682.064	0.02
682.247	0
682.43	-0.11
682.614	0.03
682.797	0.04
682.98	0.06
683.163	-0.07
683.346	0
683.529	-0.04
683.712	-0.03
683.895	0.02
684.078	-0.05
684.261	0.03
684.444	0.02
684.627	0.01
684.81	-0.01
684.993	0.02
685.176	0.02
685.359	-0.07
685.542	-0.04
685.725	0.08
685.908	-0.02
686.091	-0.02
686.274	0.05
686.457	0.02
686.639	-0.02
686.822	0.02
687.005	-0
687.188	0.06
687.371	0.12
687.553	-0.03
687.736	0.06
687.919	0.06
688.102	0.04
688.284	-0.01
688.467	-0.02
688.65	0
688.832	-0.05
689.015	-0.05
689.197	-0.05
689.38	0.09
689.563	0.08
689.745	-0.05
689.928	-0.07
690.11	0.01
690.293	0.03
690.475	-0.11
690.658	0.05
690.84	-0.03
691.023	0
691.205	-0.03
691.388	0.02
691.57	-0.02
691.752	0.02
691.935	-0.05
692.117	-0.08
692.3	0.01
692.482	-0.02
692.664	-0
692.847	0.04
693.029	0.09
693.211	0.08
693.393	-0.02
693.576	-0.03
693.758	0.02
693.94	0.02
694.122	-0.04
694.304	-0.04
694.487	-0.02
694.669	0.07
694.851	-0.1
695.033	-0.02
695.215	-0.03
695.397	-0.01
695.579	0.01
695.761	-0.05
695.943	-0.03
696.125	0.02
696.308	0
696.49	-0.09
696.671	0.09
696.853	0
697.035	0.12
697.217	0.01
697.399	0.06
697.581	-0.04
697.763	-0.04
697.945	-0.05
698.127	-0.04
698.309	0.03
698.491	0.05
698.672	0.02
698.854	0.04
699.036	0.06
699.218	-0.05
699.399	0.04
699.581	0.07
699.763	0.02
699.945	-0.07
700.126	-0.09
700.308	0.01
700.49	-0.03
700.671	-0.1
700.853	-0.04
701.035	-0.02
701.216	-0.01
701.398	-0.03
701.579	-0.06
701.761	0.08
701.943	-0.02
702.124	-0.08
702.306	-0.03
702.487	0.14
702.669	-0.02
702.85	-0.1
703.031	-0.1
703.213	0.07
703.394	0.07
703.576	-0.06
703.757	0.05
703.938	0.04
704.12	0.14
704.301	-0.01
704.483	-0.04
704.664	-0.02
704.845	0.1
705.026	-0.01
705.208	-0.08
705.389	-0
705.57	0.03
705.751	-0.02
705.933	-0.02
706.114	0.07
706.295	0.05
706.476	-0.09
706.657	0.04
706.838	0.02
707.02	0.05
707.201	-0.03
707.382	-0.04
707.563	0.01
707.744	-0.01
707.925	-0.1
708.106	-0.04
708.287	0.04
708.468	0.08
708.649	0.03
708.83	0.03
709.011	-0.06
709.192	-0
709.373	-0.1
709.554	-0.02
709.734	-0.02
709.915	0.06
710.096	0.06
710.277	-0.11
710.458	0.04
710.639	-0.05
710.819	-0.1
711	-0.05
711.181	0.1
711.362	-0.01
711.542	0.02
711.723	0.01
711.904	0.02
712.085	0.08
712.265	0.02
712.446	-0.09
712.627	0.04
712.807	-0.02
712.988	0.06
713.168	-0.04
713.349	0.05
713.53	-0.06
713.71	-0.05
713.891	-0.1
714.071	-0.04
714.252	-0.01
714.432	-0.05
714.613	-0.09
714.793	0.03
714.974	0.06
715.154	0.05
715.334	0.08
715.515	0.04
715.695	-0.1
715.876	-0.01
716.056	0.03
716.236	-0.07
716.417	-0.03
716.597	-0.11
716.777	0.07
716.957	-0.03
717.138	-0.06
717.318	-0.04
717.498	-0.09
717.678	-0.01
717.859	-0.01
718.039	-0.09
718.219	-0.04
718.399	0.08
718.579	-0.06
718.759	-0.08
718.939	0.04
719.12	0.01
719.3	-0.03
719.48	-0.12
719.66	-0.16
719.84	0.13
720.02	-0.07
720.2	-0.03
720.38	-0.01
720.56	0.1
720.74	-0.04
720.92	-0.02
721.1	0.12
721.279	0.1
721.459	0.02
721.639	-0.12
721.819	-0
721.999	-0.01
722.179	0.07
722.359	-0.11
722.538	0.03
722.718	-0
722.898	-0.01
723.078	-0.07
723.257	-0.01
723.437	-0.02
723.617	-0.03
723.797	-0.04
723.976	0.06
724.156	0.02
724.336	0.11
724.515	0.11
724.695	-0.08
724.874	-0.09
725.054	0.09
725.234	-0.05
725.413	-0.01
725.593	-0.05
725.772	-0.02
725.952	-0.04
726.131	-0.02
726.311	0.01
726.49	-0.01
726.67	-0.11
726.849	-0.1
727.028	-0.03
727.208	-0.01
727.387	0.04
727.567	-0.11
727.746	-0
727.925	-0.04
728.105	-0.08
728.284	-0.02
728.463	-0.07
728.643	0.03
728.822	-0.09
729.001	-0.05
729.18	0.04
729.359	-0
729.539	-0.1
729.718	-0.03
729.897	0.06
730.076	0.03
730.255	-0.08
730.434	-0
730.614	0.04
730.793	0.1
730.972	0
731.151	-0.06
731.33	0.05
731.509	0.01
731.688	-0.08
731.867	-0.03
732.046	-0.14
732.225	0.19
732.404	-0.06
732.583	-0.09
732.762	-0.02
732.941	0.05
733.12	0.03
733.298	-0.01
733.477	-0.02
733.656	-0.1
733.835	-0.08
734.014	0.13
734.193	-0.05
734.371	-0.04
734.55	0.07
734.729	-0.12
734.908	-0
735.086	0.04
735.265	0.01
735.444	-0.24
735.623	-0.09
735.801	-0.16
735.98	0.04
736.159	-0.04
736.337	0.06
736.516	0.02
736.694	-0.02
736.873	-0.06
737.052	0.18
737.23	0.02
737.409	-0.13
737.587	0.14
737.766	-0.25
737.944	-0.15
738.123	0.08
738.301	0.01
738.479	-0.03
738.658	0
738.836	-0.23
739.015	-0.02
739.193	0.03
739.371	-0.06
739.55	-0.1
739.728	-0.16
739.906	0.15
740.085	-0.01
740.263	0.02
740.441	-0.18
740.62	0.16
740.798	0.11
740.976	-0.09
741.154	-0.06
741.332	0.1
741.511	-0.1
741.689	0.02
741.867	0.07
742.045	0.07
742.223	0.02
742.401	-0.02
742.579	-0.1
742.757	0.02
742.935	-0.12
743.114	-0.02
743.292	-0.2
743.47	-0.02
743.648	-0.02
743.826	0.03
744.004	0.06
744.181	-0.09
744.359	-0.04
744.537	-0.03
744.715	-0.08
744.893	0
745.071	0.03
745.249	-0.08
745.427	-0.08
745.605	0.05
745.782	0.01
745.96	-0.01
746.138	0.02
746.316	-0.04
746.493	0.03
746.671	-0.03
746.849	-0.07
747.027	0.11
747.204	-0
747.382	0.03
747.56	-0.12
747.737	-0.15
747.915	-0.07
748.093	0.03
748.27	-0.05
748.448	-0.02
748.625	-0.15
748.803	-0.04
748.98	-0.11
749.158	-0.02
749.335	0.13
749.513	-0.02
749.69	-0.05
749.868	0.02
750.045	0.01
750.223	0.01
750.4	-0.3
750.578	0.14
750.755	-0.05
750.932	-0.21
751.11	0.07
751.287	-0.02
751.464	0.22
751.642	-0.11
751.819	-0
751.996	0.01
752.173	-0.14
752.351	-0.13
752.528	-0.05
752.705	-0.06
752.882	-0.1
753.06	0.04
753.237	-0.01
753.414	0.17
753.591	0.1
753.768	0.08
753.945	-0.07
754.122	0.01
754.299	0.12
754.476	-0.05
754.654	0.03
754.831	0.1
755.008	0.09
755.185	-0.05
755.362	-0.1
755.539	0.08
755.716	-0.09
755.892	-0.13
756.069	-0.04
756.246	-0.06
756.423	-0.02
756.6	0.1
756.777	-0.04
756.954	0.06
757.131	-0.01
757.307	-0.14
757.484	-0.15
757.661	0.02
757.838	-0.02
758.015	-0.16
758.191	0.02
758.368	0.09
758.545	0.12
758.721	0.08
758.898	-0.11
759.075	0.04
759.251	0.08
759.428	-0.09
759.605	-0.19
759.781	-0.08
759.958	0.13
760.134	0.05
760.311	-0.14
760.488	0.19
760.664	0.18
760.841	-0.08
761.017	-0.11
761.194	0.04
761.37	0.16
761.547	0.04
761.723	0.01
761.899	0.14
762.076	0.05
762.252	-0.12
762.429	-0.09
762.605	-0.01
762.781	-0.21
762.958	-0.01
763.134	-0.1
763.31	-0.15
763.486	0.09
763.663	-0.14
763.839	0.01
764.015	-0.28
764.191	-0.11
764.368	0.12
764.544	-0.2
764.72	0.01
764.896	0.05
765.072	0.11
765.248	-0.04
765.425	-0.07
765.601	-0.03
765.777	-0.13
765.953	-0.18
766.129	-0.05
766.305	-0.09
766.481	0.07
766.657	-0.11
766.833	0.08
767.009	-0.21
767.185	-0.13
767.361	-0.15
767.537	-0.16
767.713	0.13
767.889	-0.09
768.065	0.07
768.24	-0.19
768.416	0.17
768.592	-0.05
768.768	-0.07
768.944	0.11
769.12	-0.14
769.295	-0.18
769.471	-0.02
769.647	-0.06
769.823	0.09
769.998	-0.12
770.174	-0.15
770.35	0.31
770.525	0.32
770.701	-0.01
770.877	-0.01
771.052	0.03
771.228	0.2
771.403	0.08
771.579	0.04
771.755	0.33
771.93	-0.06
772.106	-0.23
772.281	-0.1
772.457	0.03
772.632	0.18
772.808	-0.22
772.983	-0.13
773.159	-0.21
773.334	0.21
773.509	0.01
773.685	-0.1
773.86	0.3
774.036	0.11
774.211	-0.05
774.386	-0.09
774.562	-0.21
774.737	0.14
774.912	-0.17
775.087	0.05
775.263	-0.02
775.438	0.11
775.613	-0.06
775.788	-0.01
775.964	0.13
776.139	0.17
776.314	0.13
776.489	-0.05
776.664	-0.13
776.839	-0.11
777.014	0.07
777.19	0.19
777.365	0.39
777.54	0.2
777.715	-0.12
777.89	-0.08
778.065	-0.09
778.24	0.1
778.415	0.17
778.59	-0.15
778.765	-0.06
778.94	0.11
779.115	-0.07
779.289	-0.08
779.464	0.08
779.639	-0.09
779.814	-0.13
779.989	-0.13
780.164	0.2
780.339	0.02
780.513	-0.17
780.688	-0.2
780.863	-0.06
781.038	0.07
781.212	-0.19
781.387	-0.02
781.562	0.18
781.737	0.05
781.911	0.17
782.086	-0.26
782.261	-0.07
782.435	0.31
782.61	-0.2
782.784	-0.09
782.959	0.37
783.134	-0.19
783.308	-0.33
783.483	-0.07
783.657	0.41
783.832	0.2
784.006	-0.41
784.181	-0.05
784.355	0.35
784.53	0.25
784.704	-0.14
784.878	0.08
785.053	0.04
785.227	0.1
785.402	0.18
785.576	-0.18
785.75	-0.21
785.925	0.01
786.099	-0.05
786.273	0.05
786.448	0.33
786.622	0.01
786.796	0.04
786.97	-0.25
787.145	0.38
787.319	-0.23
787.493	-0.19
787.667	-0.48
787.841	0.1
788.015	0.17
788.19	-0.2
788.364	-0.09
788.538	0.4
788.712	0.02
788.886	-0.11
789.06	-0.18
789.234	0.36
789.408	-0.22
789.582	-0.07
789.756	0.02
789.93	-0.17
790.104	0.03
790.278	-0.1
790.452	-0.27
790.626	0.02
790.8	-0.01
790.973	0.07
791.147	0.27
791.321	0.21
791.495	0.18
791.669	-0.03
791.843	0.05
792.016	0.11
792.19	0.44
792.364	-0.19
792.538	0.35
792.711	0.28
792.885	0.04
793.059	-0.26
793.233	-0.52
793.406	0.44
793.58	0
793.754	0.03
793.927	-0.17
794.101	0.26
794.274	-0.01
794.448	0.05
794.622	-0.25
794.795	0.3
794.969	-0.15
795.142	0.29
795.316	-0.11
795.489	-0.16
795.663	0.46
795.836	-0.39
796.009	-0.18
796.183	0.5
796.356	0.25
796.53	-0.06
796.703	0.06
796.876	0.67
797.05	-0.03
797.223	0.01
797.396	-0.04
797.57	0.16
797.743	0.19
797.916	-0.01
798.09	0.01
798.263	0.04
798.436	0.15
798.609	-0.06
798.782	-0.26
798.956	0.16
799.129	-0.03
799.302	0
799.475	0.1
799.648	-0.13
799.821	-0.03
799.994	0.06
800.167	-0.45
800.34	0.09
800.514	-0.18
800.687	-0.21
800.86	-0.19
801.033	-0.04
801.206	-0.01
801.379	-0.18
801.551	-0.2
801.724	0.06
801.897	0.51
802.07	-0.23
802.243	-0.2
802.416	-0.1
802.589	0.2
802.762	0.09
802.935	0.14
803.107	0.28
803.28	0.3
803.453	0.2
803.626	-0.23
803.798	0.05
803.971	-0.05
804.144	-0.04
804.317	0.29
804.489	0.43
804.662	-0.09
804.835	0.05
805.007	-0.3
805.18	0.52
805.353	0.04
805.525	-0.36
805.698	-0.05
805.87	-0.08
806.043	0.21
806.215	-0.41
806.388	-0.14
806.56	-0.08
806.733	0.36
806.905	0.18
807.078	-0.08
807.25	-0.45
807.423	0.14
807.595	0.33
807.768	-0.29
807.94	0.24
808.112	-0.22
808.285	0.14
808.457	-0.05
808.629	0.04
808.802	0.28
808.974	-0.09
809.146	-0.23
809.318	-0.19
809.491	-0.02
809.663	0.38
809.835	-0.15
810.007	0.33
810.18	-0.01
810.352	-0.21
810.524	-0.21
810.696	0.2
810.868	0.27
811.04	-0.04
811.212	-0.18
811.384	0.17
811.556	0.13
811.728	-0.21
811.901	0.38
812.073	-0.22
812.245	0.49
812.417	-0.02
812.589	-0.43
812.76	0.1
812.932	0.11
813.104	0.27
813.276	0.05
813.448	0.33
813.62	0.22
813.792	0.08
813.964	-0.15
814.136	0.06
814.307	-0.03
814.479	-0.39
814.651	-0.49
814.823	0.58
814.995	-0.24
815.166	-0.12
815.338	-0.31
815.51	-0.43
815.681	0.81
815.853	-0.14
816.025	0.24
816.196	0.86
816.368	0.13
816.54	-0.33
816.711	-0.53
816.883	0.2
817.054	0.58
817.226	-0.39
817.398	-0.45
817.569	-0.14
817.741	-0.05
817.912	-0.23
818.084	-0.35
818.255	0.38
818.426	-0.07
818.598	-0.07
818.769	-0.26
818.941	0.76
819.112	0.49
819.283	0.02
819.455	-0.35
819.626	0.05
819.798	0.04
819.969	0
820.14	-0.21
820.311	-0.27
820.483	0.17
820.654	-0.02
820.825	0.06
820.996	-0.18
821.168	-0.92
821.339	-0.06
821.51	-0.23
821.681	0
821.852	0.13
822.023	-0.71
822.195	-0.49
822.366	0.34
822.537	0.01
822.708	-0.33
822.879	-0.33
823.05	0.27
823.221	0.14
823.392	-0.22
823.563	-0.44
823.734	0.1
823.905	-0.42
824.076	-0.55
824.247	-0.31
824.418	-0.43
824.589	0.4
824.759	-0.41
824.93	0.14
825.101	-0.49
825.272	0.98
825.443	0.23
825.614	0.11
825.784	-0.61
825.955	0.69
826.126	0.46
826.297	0.42
826.467	0.6
826.638	0.92
826.809	-1.28
826.98	-0.24
827.15	-0.07
827.321	0.22
827.492	0.82
827.662	0.14
827.833	1.35
828.003	0.42
828.174	-0.9
828.345	-1.01
828.515	0.79
828.686	0.15
828.856	-0.25
829.027	0.37
829.197	0.39
829.368	0.58
829.538	-0.09
829.709	-0.51
829.879	0.08
830.049	0.25
830.22	-0.3
830.39	0.29
830.56	0.32
830.731	-0.07
830.901	-0.87
831.072	-0.11
831.242	0.13
831.412	0.28
831.582	-0.35
831.753	-1.06
831.923	0.49
832.093	0.52
832.263	0.08
832.434	-0.56
832.604	-0.87
832.774	0.53
832.944	-0.02
833.114	-0.45
833.284	-0.13
833.454	-0.86
833.624	-0.47
833.795	-0.08
833.965	0.6
834.135	1.14
834.305	-0.76
834.475	-0.27
834.645	-0.12
834.815	0.17
834.985	-0.77
835.155	-0.25
835.325	0.34
835.494	0.07
835.664	-0.19
835.834	-0.65
836.004	0.03
836.174	-0.1
836.344	0.1
836.514	-0.81
836.684	-0.24
836.853	0.13
837.023	-0.12
837.193	-0.54
837.363	0.32
837.532	0.42
837.702	0.51
837.872	-0.72
838.041	0.28
838.211	1.42
838.381	-1.14
838.55	-0.58
838.72	1.77
838.89	1.16
839.059	-0.44
839.229	-0.8
839.398	1.61
839.568	0.3
839.738	0.18
839.907	0.32
840.077	0.13
840.246	-0.62
840.416	-0.46
840.585	-0.63
840.755	0.75
840.924	0.53
841.093	-1.44
841.263	-0.21
841.432	-0.27
841.602	-0.57
841.771	-0.22
841.94	0
842.11	1.89
842.279	1.64
842.448	-0.27
842.617	-1.21
842.787	1.6
842.956	-0.76
843.125	0.15
843.294	0.03
843.464	0.58
843.633	-0.39
843.802	-1.28
843.971	-0.58
844.14	0.76
844.309	0.9
844.479	-0.8
844.648	-0.65
844.817	-0.88
844.986	0.44
845.155	-0.61
845.324	-0.17
845.493	-0.4
845.662	0.07
845.831	0.87
846	0.31
846.169	-0.22
846.338	0.95
846.507	0.08
846.676	0.72
846.844	-0.96
847.013	-0.49
847.182	-0.23
847.351	-0.6
847.52	-0.39
847.689	0.91
847.858	-1
848.026	-0.51
848.195	0.33
848.364	-0.72
848.533	-1.1
848.701	-0.67
848.87	0.63
849.039	0.88
849.207	0.33
849.376	0.98
849.545	1.07
849.713	-0.37
849.882	-0.72
850.051	-0.36
850.219	-0.31
850.388	0.84
850.556	-0.69
850.725	-0.33
850.893	-0.24
851.062	0.48
851.23	0.76
851.399	-1.52
851.567	-0.3
851.736	-0.15
851.904	-1.55
852.073	0.2
852.241	0.21
852.41	-0.69
852.578	-0.93
852.746	-1.14
852.915	0.48
853.083	0.53
853.251	-1.03
853.42	0.34
853.588	0.01
853.756	0.04
853.924	-0.34
854.093	-1.3
854.261	-0.75
854.429	-1.24
854.597	-0.12
854.765	-1.73
854.934	0.22
855.102	1.18
855.27	-0.5
855.438	-0.11
855.606	0.47
855.774	2.01
855.942	-1.39
856.11	-1.54
856.278	-0.09
856.446	0.92
856.614	0.15
856.782	-0.43
856.95	1.47
857.118	-0.2
857.286	0.24
857.454	-0.89
857.622	1.47
857.79	0.27
857.958	-1.01
858.126	-1.36
858.294	-2.65
858.462	-0.56
858.629	-0.4
858.797	-1.73
858.965	0.36
859.133	-0.7
859.301	-0.58
859.468	0.14
859.636	-1.36
859.804	2.36
859.971	0.43
860.139	-0.74
860.307	1.97
860.474	-0.83
860.642	-1.89
860.81	-1.34
860.977	-0.93
861.145	0.15
861.313	-1.39
861.48	0.31
861.648	1.76
861.815	-0.68
861.983	-1.9
862.15	-0.43
862.318	1.35
862.485	1.52
862.653	-1.54
862.82	-1.07
862.988	1.2
863.155	0.28
863.322	-0.46
863.49	-0.48
863.657	-1.26
863.824	2.41
863.992	1.46
864.159	-0.45
864.326	0.62
864.494	-0.85
864.661	1.01
864.828	-1.5
864.996	1.67
865.163	2.15
865.33	-0.54
865.497	-1.74
865.664	-1.59
865.832	-1.73
865.999	-0.42
866.166	-1.67
866.333	-0.83
866.5	-0.93
866.667	0.29
866.834	0.23
867.001	0.85
867.168	-2.68
867.335	-0.8
867.502	-1.82
867.669	0.77
867.836	1.75
868.003	-0.03
868.17	1.37
868.337	1.92
868.504	2.09
868.671	-2.28
868.838	-1.97
869.005	1.39
869.172	1.2
869.339	-1.64
869.505	-1.16
869.672	-1.5
869.839	2.77
870.006	0.63
870.173	-2.5
870.339	1.17
870.506	2.13
870.673	-2.35
870.84	0.33
871.006	0.05
871.173	-0.28
871.34	-0.92
871.506	-1.95
871.673	0.8
871.839	-2.38
872.006	-0.62
872.173	-1.4
872.339	0.78
872.506	1.15
872.672	-0.78
872.839	-1.73
873.005	-1.46
873.172	4.8
873.338	1.67
873.505	-0.99
873.671	0.68
873.838	0.51
874.004	-2.38
874.171	-0.77
874.337	1.27
874.503	0.67
874.67	-0.17
874.836	0.33
875.002	1.82
875.169	1.48
875.335	0.72
875.501	-2.38
875.668	1.17
875.834	0.68
876	-1.47
876.166	2.38
876.332	0.33
876.499	3.95
876.665	-0.92
876.831	-1.73
876.997	3.99
877.163	0.28
877.329	-0.44
877.495	-0.18
877.662	2.55
877.828	-0.27
877.994	-1.25
878.16	-2.71
878.326	-1.79
878.492	-1.13
878.658	-0.63
878.824	0.95
878.99	1.64
879.156	-2.33
879.322	2.49
879.487	-1.02
879.653	0.66
879.819	1.18
879.985	-1.19
880.151	-1.27
880.317	-0.11
880.483	-0.39
880.648	0.58
880.814	-3.36
880.98	0.28
881.146	-3.15
881.312	-0.6
881.477	0.96
881.643	0.68
881.809	0.91
881.974	1.92
882.14	-4.41
882.306	0.29
882.471	2.56
882.637	-1.78
882.803	-0.69
882.968	2.4
883.134	3.43
883.299	-0.63
883.465	-0.03
883.63	1.36
883.796	2.52
883.961	-0.35
884.127	-0.31
884.292	-4.4
884.458	-2.14
884.623	-2.14
