Data from Apollo_Calib_20240827__AbsoluteIrradiance__192__02-21-03-027.txt Node

Date: Wed Aug 28 02:21:03 BST 2024
User: biology
Spectrometer: FLMT08252
Trigger mode: 0
Integration Time (sec): 5.000000E-1
Scans to average: 5
Electric dark correction enabled: true
Nonlinearity correction enabled: false
Boxcar width: 0
XAxis mode: Wavelengths
Number of Pixels in Spectrum: 3648
>>>>>Begin Spectral Data<<<<<
179.588	-0
179.809	-0
180.03	-0
180.251	-0
180.473	-0
180.694	-0
180.915	0
181.136	-0
181.357	0
181.578	0
181.799	-0
182.02	-0
182.241	-0
182.462	-0
182.683	0
182.904	-0
183.125	-0
183.346	0
183.567	0
183.788	-0
184.009	-0
184.23	0
184.451	0
184.672	-0
184.892	-0
185.113	0
185.334	0
185.555	-0
185.776	-0
185.996	0
186.217	0
186.438	-0
186.659	-0
186.879	0
187.1	0
187.321	-0
187.541	-0
187.762	0
187.983	0
188.203	-0
188.424	-0
188.644	-0
188.865	0
189.086	0
189.306	0
189.527	0
189.747	0
189.968	-0
190.188	0
190.409	0
190.629	0
190.849	-0
191.07	-0
191.29	0
191.511	-0
191.731	-0
191.951	-0
192.172	0
192.392	0
192.612	0
192.833	-0
193.053	0
193.273	0
193.493	-0
193.714	-0
193.934	0
194.154	0
194.374	0
194.594	0
194.815	0
195.035	0
195.255	0
195.475	-0
195.695	0
195.915	0
196.135	0
196.355	0
196.575	0
196.795	0
197.015	-0
197.235	-0
197.455	-0
197.675	0
197.895	-0
198.115	-0
198.335	0
198.555	-0
198.775	0
198.995	0
199.214	0
199.434	0
199.654	-0
199.874	0
200.094	0.24
200.313	-0.06
200.533	-0.04
200.753	-0.65
200.973	1.13
201.192	0.47
201.412	-0.87
201.632	-0.44
201.851	0.82
202.071	-0.32
202.291	-0.76
202.51	-0.26
202.73	0.23
202.95	0.48
203.169	-0.53
203.389	-0.06
203.608	0.47
203.828	-0.54
204.047	-0.21
204.267	0.33
204.486	0.27
204.706	0.59
204.925	-0.04
205.145	-0.41
205.364	0.25
205.583	0.74
205.803	-0.16
206.022	-0.32
206.242	-0.28
206.461	0.48
206.68	-0.31
206.9	0.23
207.119	0.75
207.338	0.78
207.557	0.02
207.777	-0.01
207.996	0.06
208.215	0.95
208.434	-0.31
208.654	-0.34
208.873	0.36
209.092	0.42
209.311	0.04
209.53	-0.03
209.749	-0.21
209.968	-0.27
210.187	-0.03
210.407	-0.63
210.626	-0.11
210.845	0.39
211.064	0.17
211.283	-0.21
211.502	0.4
211.721	-0.16
211.94	0.09
212.159	0.26
212.377	0.43
212.596	0.24
212.815	0.15
213.034	0.37
213.253	0.34
213.472	0.36
213.691	-0.18
213.91	-0.25
214.128	-0.29
214.347	0.21
214.566	-0.13
214.785	-0.44
215.003	0.28
215.222	0.23
215.441	0.15
215.66	-0.28
215.878	0.12
216.097	0.29
216.316	-0.25
216.534	-0.1
216.753	0.05
216.972	-0.05
217.19	0.07
217.409	-0.02
217.627	-0.28
217.846	0.03
218.064	0.02
218.283	-0.14
218.501	0.41
218.72	0.25
218.938	-0.08
219.157	-0.11
219.375	0.19
219.594	0.15
219.812	-0.17
220.031	-0.13
220.249	0.23
220.467	0.35
220.686	0.02
220.904	-0.16
221.122	-0.11
221.341	0.27
221.559	-0
221.777	-0.18
221.995	0.03
222.214	0.07
222.432	-0.07
222.65	0.03
222.868	0.16
223.086	0.04
223.305	0.19
223.523	-0.1
223.741	0.3
223.959	-0.07
224.177	-0.29
224.395	-0.14
224.613	0.12
224.831	0.18
225.049	-0.19
225.267	-0.1
225.485	0.01
225.703	-0.03
225.921	0.03
226.139	0.02
226.357	0.23
226.575	0.19
226.793	0.1
227.011	0.63
227.229	0.05
227.447	0.17
227.665	-0.07
227.883	-0.3
228.1	-0.01
228.318	0.11
228.536	-0.32
228.754	-0
228.972	0.07
229.189	0.13
229.407	-0.11
229.625	-0.08
229.843	0.21
230.06	0.18
230.278	-0.22
230.496	0.11
230.713	-0.01
230.931	0.22
231.149	-0.11
231.366	-0.17
231.584	0.01
231.801	0.41
232.019	-0.02
232.236	-0.18
232.454	-0.01
232.671	0.04
232.889	-0.02
233.106	-0.09
233.324	0.06
233.541	0.02
233.759	-0.01
233.976	-0.09
234.194	0.05
234.411	-0.06
234.628	-0.07
234.846	-0.02
235.063	0.05
235.28	-0.15
235.498	0.03
235.715	-0.06
235.932	0.14
236.149	0.03
236.367	-0.06
236.584	0.14
236.801	-0.02
237.018	0.16
237.236	0.1
237.453	-0.08
237.67	0.2
237.887	0.03
238.104	-0.01
238.321	-0.13
238.538	-0.1
238.755	0.22
238.973	-0.1
239.19	-0.01
239.407	0.03
239.624	-0.03
239.841	-0.14
240.058	-0.05
240.275	0.07
240.492	0.01
240.709	-0.03
240.925	-0.08
241.142	0.02
241.359	-0.1
241.576	-0.09
241.793	-0.02
242.01	-0
242.227	0.16
242.444	-0
242.66	0.11
242.877	0.03
243.094	-0.11
243.311	0.04
243.527	-0.04
243.744	0.04
243.961	0.16
244.178	-0.1
244.394	-0.02
244.611	0.13
244.828	0.24
245.044	-0.01
245.261	0.06
245.477	0.04
245.694	0.11
245.911	-0.03
246.127	0
246.344	0.14
246.56	0.06
246.777	-0.02
246.993	0.1
247.21	0.04
247.426	0.17
247.643	-0.09
247.859	-0.08
248.076	-0.01
248.292	0.28
248.508	-0.01
248.725	0.1
248.941	0.05
249.157	0.15
249.374	0.01
249.59	0.06
249.806	0.01
250.023	0.19
250.239	-0.02
250.455	-0.1
250.671	0.09
250.888	0.11
251.104	0.11
251.32	0.02
251.536	0.03
251.752	-0.06
251.969	0.01
252.185	0.04
252.401	0.22
252.617	0.01
252.833	0.01
253.049	0.05
253.265	0.04
253.481	0.08
253.697	-0.04
253.913	-0.03
254.129	0.08
254.345	-0.01
254.561	-0.03
254.777	0
254.993	0.12
255.209	0.02
255.425	0.02
255.641	-0.06
255.857	0.11
256.073	-0.01
256.288	-0.13
256.504	-0.04
256.72	0.08
256.936	0.09
257.152	0.04
257.367	-0.06
257.583	-0.02
257.799	0.15
258.015	-0
258.23	-0.04
258.446	0.16
258.662	0.06
258.877	-0.08
259.093	-0.09
259.309	0.04
259.524	-0.02
259.74	-0.06
259.955	-0.16
260.171	0.08
260.387	0.08
260.602	0.09
260.818	0.01
261.033	-0.06
261.249	-0.03
261.464	0.03
261.68	-0.1
261.895	0.13
262.11	0.06
262.326	0.01
262.541	-0.01
262.757	0.03
262.972	0.02
263.187	0.08
263.403	0.01
263.618	0.07
263.833	0.05
264.049	-0.05
264.264	0.05
264.479	0.13
264.694	0.16
264.91	-0.08
265.125	-0
265.34	0.07
265.555	0.12
265.77	0.1
265.986	0.02
266.201	0.05
266.416	0.13
266.631	-0.01
266.846	0.04
267.061	0.08
267.276	0.13
267.491	-0.05
267.706	0.04
267.921	0.05
268.136	0.03
268.351	0.03
268.566	-0.08
268.781	0.07
268.996	0.1
269.211	0.03
269.426	-0.07
269.641	-0.05
269.856	0.09
270.071	-0.01
270.285	-0.11
270.5	0.1
270.715	0.06
270.93	-0.07
271.145	0.06
271.359	0.09
271.574	-0.01
271.789	0
272.004	-0.04
272.218	0.01
272.433	0.07
272.648	-0.07
272.862	0.05
273.077	0.03
273.292	-0.02
273.506	-0.02
273.721	0.01
273.936	0.05
274.15	0.09
274.365	-0.05
274.579	0.08
274.794	0.1
275.008	0.14
275.223	-0.03
275.437	0.01
275.652	-0
275.866	0.06
276.081	0.03
276.295	0.07
276.509	0.1
276.724	0.03
276.938	0.06
277.153	0.04
277.367	0.08
277.581	-0.01
277.796	-0.01
278.01	-0.01
278.224	0.11
278.438	0.16
278.653	-0.04
278.867	-0.05
279.081	-0.15
279.295	0.01
279.51	0.03
279.724	-0.07
279.938	0.08
280.152	0.01
280.366	-0.06
280.58	0.04
280.794	0.12
281.008	0.1
281.222	0.09
281.437	0.11
281.651	0.03
281.865	0.09
282.079	0.02
282.293	-0.08
282.507	-0.04
282.721	0.07
282.935	-0.05
283.148	-0.06
283.362	0.02
283.576	-0.04
283.79	0.03
284.004	-0.06
284.218	0.08
284.432	-0.01
284.646	-0.04
284.859	0.01
285.073	0
285.287	0.08
285.501	-0
285.714	0.01
285.928	0.06
286.142	0.06
286.356	0
286.569	-0.04
286.783	0.09
286.997	0.08
287.21	0.05
287.424	0.06
287.637	0.02
287.851	-0.04
288.065	0.07
288.278	0.03
288.492	0.07
288.705	0.03
288.919	0.04
289.132	0.03
289.346	0.05
289.559	-0.05
289.773	-0.03
289.986	-0.01
290.2	0.06
290.413	0.1
290.626	-0.03
290.84	0.01
291.053	0.05
291.267	0.1
291.48	0.01
291.693	0.02
291.906	0.04
292.12	0.03
292.333	-0.03
292.546	-0
292.76	0.12
292.973	0.1
293.186	0.07
293.399	-0.02
293.612	0.06
293.826	0.05
294.039	0.03
294.252	0.01
294.465	0.07
294.678	0.04
294.891	0.04
295.104	0.01
295.317	0.05
295.53	0.07
295.743	0.02
295.956	0.04
296.169	0.08
296.382	0.06
296.595	0.04
296.808	-0.01
297.021	0.09
297.234	0.06
297.447	0.06
297.66	0.07
297.873	0.08
298.086	0.06
298.299	-0.05
298.511	-0.01
298.724	0.07
298.937	0.01
299.15	-0.02
299.363	0.03
299.575	0.09
299.788	0.09
300.001	0.02
300.213	-0.06
300.426	0.03
300.639	0.01
300.852	-0.04
301.064	0.04
301.277	0.1
301.489	0.07
301.702	0.07
301.915	0.05
302.127	0.03
302.34	0.06
302.552	0.05
302.765	0.01
302.977	0.01
303.19	0.02
303.402	0.02
303.615	-0.02
303.827	0.01
304.04	0.02
304.252	0.04
304.464	0.02
304.677	0.16
304.889	0.03
305.102	-0.02
305.314	0
305.526	0.1
305.739	0.06
305.951	0.01
306.163	-0.03
306.375	0.1
306.588	0.04
306.8	-0.01
307.012	-0.05
307.224	0.03
307.436	0.08
307.649	-0.05
307.861	0.03
308.073	0.06
308.285	0.02
308.497	-0.03
308.709	0.04
308.921	0.04
309.133	0.11
309.346	0.03
309.558	0.03
309.77	0.09
309.982	0.07
310.194	0.05
310.406	0.01
310.617	0.09
310.829	0.03
311.041	0.07
311.253	-0.03
311.465	0.04
311.677	0.02
311.889	0.02
312.101	0.02
312.313	0.05
312.524	0.1
312.736	-0
312.948	-0.01
313.16	0.11
313.372	0.07
313.583	0.06
313.795	0.01
314.007	-0
314.218	0.06
314.43	-0
314.642	-0.02
314.853	-0.01
315.065	0.03
315.277	0.03
315.488	0.03
315.7	0.07
315.912	0.03
316.123	0.02
316.335	0.03
316.546	0.12
316.758	0.09
316.969	0.02
317.181	0.01
317.392	0.03
317.604	0.1
317.815	-0.01
318.026	-0.03
318.238	0.03
318.449	0.08
318.661	-0
318.872	-0.03
319.083	0
319.295	0.06
319.506	0.04
319.717	0.05
319.929	0.06
320.14	0.03
320.351	0.03
320.562	0
320.774	0.04
320.985	0.05
321.196	-0.05
321.407	-0.05
321.618	0.06
321.829	0.03
322.041	0.07
322.252	0.04
322.463	0.07
322.674	0.06
322.885	0.01
323.096	0.02
323.307	0.08
323.518	0.07
323.729	0
323.94	0.06
324.151	0.04
324.362	0.06
324.573	0.06
324.784	-0.01
324.995	0.06
325.206	0.07
325.417	0.01
325.628	0
325.838	0.04
326.049	0.06
326.26	0.08
326.471	0.04
326.682	0.06
326.892	0.03
327.103	-0.01
327.314	-0
327.525	0.1
327.735	0.04
327.946	0.03
328.157	-0
328.368	0.09
328.578	-0.01
328.789	0.06
328.999	0.04
329.21	0
329.421	0.09
329.631	-0
329.842	0.01
330.052	0.06
330.263	0.08
330.473	0.06
330.684	0.04
330.894	0.02
331.105	0.05
331.315	0.06
331.526	-0.05
331.736	0.1
331.947	0.06
332.157	0.12
332.367	-0.01
332.578	0.08
332.788	0.09
332.999	0.07
333.209	0.04
333.419	-0.05
333.629	0.09
333.84	0.06
334.05	0.02
334.26	0.05
334.47	0.03
334.681	0.06
334.891	0.05
335.101	0.07
335.311	0.14
335.521	0.05
335.732	-0.01
335.942	0.1
336.152	0.09
336.362	0.03
336.572	0.05
336.782	0.07
336.992	0.06
337.202	-0
337.412	0
337.622	0.07
337.832	0.04
338.042	0.04
338.252	0.01
338.462	0.04
338.672	0.05
338.882	0.03
339.092	-0.02
339.302	0.11
339.511	0.05
339.721	0.03
339.931	-0.02
340.141	0.13
340.351	0.1
340.561	0.06
340.77	0.06
340.98	0.07
341.19	0.08
341.4	0.06
341.609	0.03
341.819	0.02
342.029	-0.05
342.238	0.04
342.448	0.03
342.658	0.1
342.867	0.07
343.077	0.09
343.286	0.03
343.496	0.08
343.706	0.11
343.915	0.02
344.125	0.05
344.334	0.04
344.544	-0.02
344.753	0.04
344.963	0.01
345.172	0.02
345.381	-0
345.591	-0.02
345.8	0.05
346.01	0.1
346.219	0.09
346.428	0.01
346.638	0.01
346.847	0.04
347.056	0.06
347.266	0.06
347.475	0.06
347.684	0.04
347.893	0.09
348.103	0.08
348.312	0
348.521	0.03
348.73	0.04
348.94	0.04
349.149	0.02
349.358	0.03
349.567	0
349.776	-0.01
349.985	0.03
350.194	0.1
350.403	0.07
350.612	-0.01
350.821	0.06
351.03	0.02
351.239	-0.01
351.448	0.04
351.657	0.03
351.866	0.11
352.075	0.07
352.284	0.06
352.493	0.03
352.702	0.08
352.911	0.06
353.12	0.04
353.329	0
353.538	0.05
353.746	0.03
353.955	0.02
354.164	0.05
354.373	0.04
354.582	0.06
354.79	0.03
354.999	0.06
355.208	0.04
355.416	0.1
355.625	-0
355.834	0
356.042	0.08
356.251	0.04
356.46	0.05
356.668	0.09
356.877	0.09
357.085	0.08
357.294	-0.06
357.503	0.06
357.711	0.05
357.92	0.22
358.128	0.09
358.337	0.04
358.545	0.07
358.754	0.08
358.962	0.09
359.17	0.03
359.379	0.09
359.587	0.05
359.796	0.02
360.004	0.12
360.212	0.06
360.421	0.11
360.629	0.04
360.837	0.04
361.046	0.05
361.254	0.17
361.462	0.05
361.67	0.04
361.879	0.07
362.087	0.11
362.295	0.05
362.503	0.06
362.711	0.02
362.92	0.04
363.128	-0.01
363.336	-0.01
363.544	-0.01
363.752	0.02
363.96	0.01
364.168	0.06
364.376	0.01
364.584	0.08
364.792	0.09
365	0.1
365.208	0.07
365.416	0.04
365.624	0.13
365.832	-0
366.04	0.12
366.248	0.06
366.456	0.03
366.664	0.05
366.872	0.06
367.079	0.02
367.287	0.03
367.495	0.01
367.703	0.04
367.911	0.05
368.118	0.06
368.326	0.05
368.534	-0.02
368.742	0.1
368.949	-0
369.157	0.01
369.365	0.09
369.572	0.04
369.78	0.04
369.988	0.08
370.195	0.07
370.403	0.1
370.61	0.06
370.818	0.09
371.026	0.14
371.233	0.02
371.441	0.08
371.648	0.01
371.856	0.08
372.063	0.06
372.271	0.05
372.478	0.03
372.685	0.05
372.893	0.13
373.1	0.08
373.308	0.06
373.515	0.15
373.722	0.09
373.93	0.05
374.137	0.11
374.344	0.19
374.552	0.11
374.759	0.11
374.966	0.08
375.173	0.06
375.381	0.14
375.588	0.07
375.795	0.02
376.002	0.1
376.209	0.04
376.417	0.1
376.624	0.09
376.831	0.11
377.038	0.09
377.245	0.01
377.452	0.08
377.659	0.05
377.866	0.05
378.073	0.12
378.28	0.09
378.487	0.11
378.694	0.12
378.901	0.09
379.108	0.09
379.315	0.16
379.522	0.17
379.729	0.12
379.936	0.07
380.143	0.11
380.35	0.15
380.557	0.1
380.763	0.09
380.97	0.13
381.177	0.19
381.384	0.13
381.591	0.09
381.797	0.17
382.004	0.15
382.211	0.15
382.418	0.12
382.624	0.23
382.831	0.16
383.038	0.17
383.244	0.13
383.451	0.15
383.658	0.19
383.864	0.14
384.071	0.14
384.277	0.27
384.484	0.16
384.69	0.24
384.897	0.16
385.103	0.23
385.31	0.2
385.516	0.19
385.723	0.18
385.929	0.24
386.136	0.23
386.342	0.29
386.549	0.23
386.755	0.37
386.961	0.31
387.168	0.36
387.374	0.31
387.58	0.4
387.787	0.34
387.993	0.4
388.199	0.36
388.406	0.37
388.612	0.39
388.818	0.4
389.024	0.39
389.231	0.47
389.437	0.56
389.643	0.52
389.849	0.49
390.055	0.57
390.261	0.6
390.467	0.64
390.674	0.63
390.88	0.67
391.086	0.73
391.292	0.74
391.498	0.91
391.704	0.86
391.91	0.91
392.116	0.84
392.322	0.87
392.528	1.03
392.734	1.07
392.94	1.11
393.146	1.23
393.352	1.26
393.557	1.3
393.763	1.31
393.969	1.5
394.175	1.47
394.381	1.57
394.587	1.61
394.792	1.7
394.998	1.86
395.204	1.97
395.41	1.98
395.615	2.12
395.821	2.26
396.027	2.32
396.233	2.53
396.438	2.56
396.644	2.89
396.85	2.88
397.055	3.08
397.261	3.19
397.466	3.37
397.672	3.46
397.878	3.74
398.083	3.75
398.289	3.89
398.494	4.09
398.7	4.29
398.905	4.25
399.111	4.64
399.316	4.72
399.522	4.88
399.727	5.04
399.932	5.29
400.138	5.48
400.343	5.82
400.549	5.82
400.754	6.2
400.959	6.46
401.165	6.86
401.37	7.03
401.575	7.63
401.78	7.7
401.986	8
402.191	8.19
402.396	8.63
402.601	8.9
402.807	9.28
403.012	9.44
403.217	10.33
403.422	10.15
403.627	10.72
403.832	11.14
404.037	11.34
404.243	11.56
404.448	11.98
404.653	12.28
404.858	12.46
405.063	12.41
405.268	12.95
405.473	13.1
405.678	13.28
405.883	14.05
406.088	14.09
406.293	13.98
406.498	14.34
406.703	14.26
406.907	14.78
407.112	15.09
407.317	15.51
407.522	15.69
407.727	15.86
407.932	16.04
408.136	16.28
408.341	15.88
408.546	16
408.751	16.08
408.956	15.77
409.16	16.24
409.365	16.04
409.57	15.62
409.774	15.64
409.979	15.56
410.184	15.24
410.388	15.01
410.593	15.08
410.798	14.96
411.002	14.95
411.207	14.71
411.411	14.37
411.616	14.03
411.82	14
412.025	13.48
412.229	13.46
412.434	12.93
412.638	12.57
412.843	12.33
413.047	11.91
413.252	11.4
413.456	11.69
413.66	11.17
413.865	10.79
414.069	10.49
414.273	10.31
414.478	9.9
414.682	9.72
414.886	9.51
415.091	9.02
415.295	8.91
415.499	8.83
415.703	8.3
415.908	8.35
416.112	7.95
416.316	7.97
416.52	7.64
416.724	7.37
416.929	7.24
417.133	7.34
417.337	6.81
417.541	6.8
417.745	6.7
417.949	6.58
418.153	6.44
418.357	6.2
418.561	6.33
418.765	5.99
418.969	5.93
419.173	5.94
419.377	5.73
419.581	5.68
419.785	5.43
419.989	5.34
420.193	5.3
420.397	5.16
420.601	5
420.804	5.03
421.008	4.74
421.212	4.73
421.416	4.56
421.62	4.31
421.823	4.15
422.027	4.22
422.231	4.04
422.435	3.8
422.638	3.69
422.842	3.54
423.046	3.57
423.249	3.5
423.453	3.29
423.657	3.26
423.86	3.12
424.064	3.04
424.268	3.02
424.471	2.87
424.675	2.88
424.878	2.84
425.082	2.63
425.285	2.71
425.489	2.59
425.692	2.55
425.896	2.4
426.099	2.43
426.303	2.31
426.506	2.24
426.71	2.28
426.913	2.29
427.116	2.27
427.32	2.09
427.523	2.02
427.726	2.08
427.93	1.86
428.133	1.95
428.336	1.89
428.54	1.93
428.743	1.87
428.946	1.87
429.149	1.76
429.353	1.75
429.556	1.68
429.759	1.61
429.962	1.53
430.165	1.55
430.368	1.44
430.571	1.45
430.775	1.4
430.978	1.32
431.181	1.35
431.384	1.27
431.587	1.23
431.79	1.31
431.993	1.11
432.196	1.21
432.399	1.19
432.602	1.25
432.805	1.15
433.008	1.17
433.211	1.05
433.414	1.21
433.616	1.21
433.819	1.13
434.022	0.94
434.225	1.17
434.428	1.09
434.631	1.21
434.833	1.01
435.036	1.04
435.239	1.04
435.442	0.97
435.645	0.97
435.847	0.95
436.05	0.98
436.253	0.91
436.455	0.89
436.658	0.89
436.861	0.95
437.063	0.85
437.266	0.76
437.468	0.84
437.671	0.99
437.874	0.79
438.076	0.71
438.279	0.69
438.481	0.75
438.684	0.77
438.886	0.74
439.089	0.59
439.291	0.73
439.494	0.75
439.696	0.61
439.899	0.72
440.101	0.72
440.303	0.64
440.506	0.77
440.708	0.6
440.91	0.66
441.113	0.6
441.315	0.67
441.517	0.55
441.72	0.64
441.922	0.55
442.124	0.5
442.326	0.53
442.529	0.6
442.731	0.56
442.933	0.62
443.135	0.49
443.337	0.41
443.539	0.48
443.742	0.45
443.944	0.51
444.146	0.44
444.348	0.42
444.55	0.39
444.752	0.43
444.954	0.35
445.156	0.4
445.358	0.4
445.56	0.51
445.762	0.39
445.964	0.35
446.166	0.34
446.368	0.39
446.57	0.43
446.772	0.36
446.974	0.31
447.175	0.4
447.377	0.35
447.579	0.36
447.781	0.24
447.983	0.43
448.184	0.3
448.386	0.34
448.588	0.28
448.79	0.3
448.991	0.28
449.193	0.23
449.395	0.33
449.597	0.38
449.798	0.31
450	0.31
450.202	0.28
450.403	0.32
450.605	0.35
450.806	0.25
451.008	0.19
451.21	0.27
451.411	0.24
451.613	0.27
451.814	0.29
452.016	0.34
452.217	0.26
452.419	0.32
452.62	0.28
452.821	0.28
453.023	0.31
453.224	0.29
453.426	0.26
453.627	0.26
453.828	0.32
454.03	0.27
454.231	0.34
454.432	0.16
454.634	0.39
454.835	0.23
455.036	0.17
455.238	0.27
455.439	0.34
455.64	0.19
455.841	0.24
456.042	0.32
456.244	0.28
456.445	0.18
456.646	0.15
456.847	0.21
457.048	0.28
457.249	0.3
457.45	0.5
457.651	0.13
457.852	0.3
458.054	0.22
458.255	0.17
458.456	0.3
458.657	0.3
458.858	0.16
459.058	0.22
459.259	0.26
459.46	0.24
459.661	0.19
459.862	0.34
460.063	0.17
460.264	0.29
460.465	0.18
460.666	0.32
460.866	0.19
461.067	0.23
461.268	0.19
461.469	0.19
461.67	0.17
461.87	0.19
462.071	0.21
462.272	0.14
462.473	0.25
462.673	0.27
462.874	0.19
463.075	0.26
463.275	0.15
463.476	0.25
463.676	0.22
463.877	0.24
464.078	0.22
464.278	0.26
464.479	0.19
464.679	0.2
464.88	0.2
465.08	0.26
465.281	0.17
465.481	0.22
465.682	0.24
465.882	0.2
466.083	0.23
466.283	0.22
466.483	0.2
466.684	0.17
466.884	0.15
467.085	0.2
467.285	0.23
467.485	0.2
467.686	0.14
467.886	0.11
468.086	0.19
468.286	0.2
468.487	0.2
468.687	0.12
468.887	0.16
469.087	0.22
469.287	0.17
469.488	0.14
469.688	0.23
469.888	0.24
470.088	0.2
470.288	0.26
470.488	0.24
470.688	0.14
470.888	0.18
471.088	0.14
471.288	0.17
471.488	0.18
471.688	0.17
471.888	0.15
472.088	0.22
472.288	0.16
472.488	0.11
472.688	0.11
472.888	0.17
473.088	0.14
473.288	0.17
473.488	0.18
473.688	0.24
473.887	0.16
474.087	0.08
474.287	0.15
474.487	0.13
474.687	0.18
474.886	0.12
475.086	0.13
475.286	0.18
475.486	0.16
475.685	0.11
475.885	0.14
476.085	0.15
476.284	0.18
476.484	0.14
476.684	0.16
476.883	0.18
477.083	0.13
477.282	0.1
477.482	0.14
477.681	0.19
477.881	0.16
478.08	0.11
478.28	0.08
478.479	0.15
478.679	0.22
478.878	0.09
479.078	0.09
479.277	0.11
479.477	0.12
479.676	0.16
479.875	0.12
480.075	0.04
480.274	0.14
480.473	0.14
480.673	0.1
480.872	0.16
481.071	0.1
481.271	0.13
481.47	0.11
481.669	0.09
481.868	0.08
482.067	0.08
482.267	0.09
482.466	0.08
482.665	0.09
482.864	0.04
483.063	0.07
483.262	0.14
483.461	0.16
483.661	0.13
483.86	0.1
484.059	0.09
484.258	0.1
484.457	0.08
484.656	0.07
484.855	0.11
485.054	0.03
485.253	0.03
485.452	0.07
485.651	0.08
485.849	0.05
486.048	0.07
486.247	0.04
486.446	0.09
486.645	0.03
486.844	0.05
487.043	0.08
487.241	0.11
487.44	0.05
487.639	0.06
487.838	0.09
488.037	0.08
488.235	0.15
488.434	0.12
488.633	0.06
488.831	0.09
489.03	0.08
489.229	0.06
489.427	0.04
489.626	0.11
489.825	0.11
490.023	0.09
490.222	0.05
490.42	0.11
490.619	0.11
490.817	0.07
491.016	0.06
491.214	0.11
491.413	0.06
491.611	0.07
491.81	0.09
492.008	0.09
492.207	0.08
492.405	0.08
492.604	0.05
492.802	0.05
493	0.09
493.199	0.05
493.397	0.05
493.595	0.05
493.794	0.07
493.992	0.12
494.19	0.06
494.388	0.07
494.587	0.06
494.785	0.09
494.983	0.03
495.181	0.05
495.379	0.07
495.578	0.06
495.776	0.06
495.974	0.11
496.172	0.05
496.37	0.05
496.568	0.05
496.766	0.04
496.964	0.11
497.162	0.07
497.36	0.02
497.558	0.09
497.756	0.08
497.954	0.07
498.152	0.04
498.35	0.05
498.548	0.07
498.746	0.06
498.944	0.03
499.142	0.03
499.34	0.04
499.538	0.06
499.736	0.02
499.933	0.11
500.131	0.1
500.329	0.05
500.527	0.09
500.725	0.1
500.922	0.06
501.12	0.07
501.318	0.09
501.516	0.04
501.713	0.08
501.911	0.05
502.109	0.05
502.306	0.06
502.504	0.06
502.701	0.05
502.899	0.04
503.097	0.11
503.294	0.06
503.492	0.04
503.689	0.04
503.887	0.08
504.084	0.11
504.282	0.05
504.479	0.03
504.677	0.07
504.874	0.05
505.072	0.04
505.269	0.04
505.466	0.07
505.664	0.07
505.861	0.01
506.059	0.01
506.256	0.06
506.453	0.03
506.651	0.1
506.848	0.05
507.045	0.07
507.242	0.05
507.44	0.01
507.637	0.02
507.834	0.05
508.031	0.07
508.229	0.03
508.426	0.05
508.623	0.06
508.82	0.05
509.017	0.02
509.214	0.02
509.411	0.06
509.608	0.04
509.805	0.05
510.003	0.04
510.2	0.04
510.397	0.07
510.594	0.02
510.791	0.04
510.988	0.02
511.184	0.06
511.381	0.04
511.578	0
511.775	0.08
511.972	0.03
512.169	0.05
512.366	0.05
512.563	0.07
512.76	0.02
512.956	0.04
513.153	0.02
513.35	0.04
513.547	0.01
513.744	0.01
513.94	0.01
514.137	0.07
514.334	0.05
514.53	0.03
514.727	0.02
514.924	0.09
515.12	0
515.317	-0
515.514	0.02
515.71	0
515.907	0.03
516.103	0.05
516.3	0.03
516.497	0.08
516.693	0.07
516.89	0.03
517.086	0
517.283	0.07
517.479	0.05
517.676	0.04
517.872	0.03
518.068	0.01
518.265	0.01
518.461	0.01
518.658	-0.01
518.854	0.04
519.05	0.01
519.247	0.02
519.443	0.06
519.639	0.05
519.836	0.05
520.032	0.01
520.228	0.02
520.424	0.08
520.621	0.04
520.817	0.02
521.013	0.05
521.209	0.03
521.405	0.07
521.601	0.02
521.798	0.05
521.994	0.07
522.19	0.02
522.386	-0
522.582	0.04
522.778	0.04
522.974	0.04
523.17	0.03
523.366	0.02
523.562	0.06
523.758	0.03
523.954	0.04
524.15	0
524.346	0.05
524.542	0.02
524.738	0.03
524.934	0.01
525.129	0.03
525.325	0.03
525.521	0.03
525.717	0.04
525.913	0.03
526.109	0.03
526.304	0.03
526.5	0.02
526.696	0.05
526.892	0.03
527.087	0.04
527.283	0
527.479	0.05
527.674	0
527.87	0.04
528.066	0.03
528.261	0.03
528.457	0.04
528.653	0.03
528.848	0
529.044	0.04
529.239	0.05
529.435	0.02
529.63	0.02
529.826	0.09
530.021	0.05
530.217	0.04
530.412	0.04
530.608	0.03
530.803	0.04
530.999	0.01
531.194	-0.02
531.389	0.03
531.585	-0.04
531.78	0.01
531.975	0.02
532.171	0.06
532.366	0.02
532.561	0.03
532.757	-0.02
532.952	0.02
533.147	0.06
533.342	0.03
533.538	0.02
533.733	0.05
533.928	0.01
534.123	0.03
534.318	-0.01
534.513	0.01
534.709	0.01
534.904	0.02
535.099	-0.01
535.294	0.02
535.489	0.03
535.684	0.01
535.879	0
536.074	0.02
536.269	0.01
536.464	0.03
536.659	0.03
536.854	0.04
537.049	0.03
537.244	0.02
537.439	0.04
537.634	0.05
537.828	0.03
538.023	0.02
538.218	-0.01
538.413	0.01
538.608	-0.04
538.803	0.04
538.997	-0.01
539.192	0.04
539.387	0.04
539.582	0.02
539.776	0.01
539.971	-0
540.166	0.02
540.36	-0.01
540.555	0.01
540.75	0.02
540.944	0.01
541.139	-0.02
541.334	0
541.528	0.05
541.723	0.03
541.917	0.01
542.112	-0.02
542.306	0
542.501	0
542.695	0.02
542.89	0.01
543.084	0.02
543.279	0.02
543.473	0.01
543.668	0.03
543.862	0.01
544.056	0.06
544.251	0.02
544.445	0.02
544.64	0.03
544.834	-0.01
545.028	0
545.222	0.02
545.417	0.05
545.611	0.03
545.805	0.03
546	-0.01
546.194	0.02
546.388	-0
546.582	0.05
546.776	0.03
546.97	0.02
547.165	0.06
547.359	0.04
547.553	-0
547.747	0.01
547.941	0.05
548.135	0.02
548.329	0.05
548.523	0.02
548.717	0.02
548.911	0.02
549.105	-0.01
549.299	0.03
549.493	0.03
549.687	0.03
549.881	0.03
550.075	0.01
550.269	-0.03
550.463	0.03
550.657	-0
550.85	0.02
551.044	-0
551.238	0.01
551.432	0.01
551.626	-0.04
551.82	0.02
552.013	0
552.207	0.02
552.401	0.05
552.594	0.02
552.788	-0
552.982	0.01
553.176	0
553.369	0.01
553.563	0.04
553.756	-0.02
553.95	0
554.144	0.02
554.337	0.02
554.531	0.03
554.724	0.01
554.918	0
555.111	0.05
555.305	0.01
555.498	0.06
555.692	0.04
555.885	0.02
556.079	0.03
556.272	-0
556.466	0.05
556.659	0.03
556.852	0.02
557.046	0.01
557.239	0.05
557.432	-0.03
557.626	0.01
557.819	0.02
558.012	0.06
558.206	0.03
558.399	0.02
558.592	0.01
558.785	0.03
558.979	0.02
559.172	0.03
559.365	0.04
559.558	0.02
559.751	-0
559.944	-0
560.138	-0.01
560.331	0.01
560.524	0
560.717	-0.01
560.91	0.02
561.103	0.03
561.296	0.02
561.489	0
561.682	-0.01
561.875	0.04
562.068	0.03
562.261	0.02
562.454	0.08
562.647	0.05
562.84	0.04
563.032	0.01
563.225	0.03
563.418	0.01
563.611	-0
563.804	0
563.997	-0.04
564.19	-0.01
564.382	0.02
564.575	0.01
564.768	-0
564.961	0.03
565.153	-0.01
565.346	0.05
565.539	0.04
565.731	0.04
565.924	0.05
566.117	0.02
566.309	0.02
566.502	0
566.695	0.02
566.887	0.01
567.08	-0.01
567.272	0.01
567.465	0.01
567.657	0.01
567.85	0.02
568.042	0.01
568.235	0.05
568.427	0.02
568.62	0.01
568.812	0.03
569.005	0.01
569.197	-0.03
569.389	0.02
569.582	0.02
569.774	0.01
569.966	-0.02
570.159	-0.03
570.351	0.03
570.543	-0.01
570.736	0.02
570.928	-0.01
571.12	0.03
571.312	-0.01
571.505	-0.02
571.697	0.03
571.889	-0.01
572.081	0
572.273	-0.01
572.465	0.06
572.658	0.03
572.85	0.03
573.042	-0
573.234	0
573.426	0.04
573.618	-0.02
573.81	0.03
574.002	0.05
574.194	0.07
574.386	-0.02
574.578	-0.06
574.77	-0.02
574.962	0.01
575.154	-0.02
575.346	0
575.538	0.02
575.729	-0.01
575.921	-0.02
576.113	-0.01
576.305	0.04
576.497	0.01
576.689	0.02
576.88	-0.01
577.072	0.03
577.264	-0.01
577.456	-0
577.647	-0.08
577.839	0.01
578.031	0.04
578.223	-0.02
578.414	-0.01
578.606	0.04
578.798	-0
578.989	-0.02
579.181	0.01
579.372	0
579.564	0.01
579.755	0
579.947	0
580.139	0.05
580.33	-0.05
580.522	-0.01
580.713	-0.06
580.905	-0
581.096	0.02
581.287	0.01
581.479	0.01
581.67	0.02
581.862	0
582.053	-0.03
582.244	-0.06
582.436	-0
582.627	0.01
582.818	-0.01
583.01	-0.03
583.201	0.01
583.392	0.02
583.583	0.02
583.775	-0.02
583.966	-0.01
584.157	0.02
584.348	0
584.54	-0.03
584.731	0.05
584.922	0.01
585.113	-0.02
585.304	0.03
585.495	0.04
585.686	-0.01
585.877	0.01
586.068	0.01
586.259	0.01
586.45	0.04
586.641	-0.01
586.832	-0.06
587.023	0.03
587.214	-0
587.405	0.01
587.596	-0.02
587.787	0.03
587.978	0.03
588.169	-0.03
588.36	0.01
588.551	-0
588.742	-0
588.932	0.01
589.123	-0
589.314	0.04
589.505	0.02
589.696	0.02
589.886	-0.02
590.077	0
590.268	0.03
590.458	-0.04
590.649	-0.04
590.84	0.04
591.03	-0.02
591.221	-0.04
591.412	-0.02
591.602	0.03
591.793	0.04
591.984	-0.02
592.174	0
592.365	0.07
592.555	-0.02
592.746	0
592.936	0.02
593.127	0.02
593.317	0.05
593.508	0.01
593.698	-0.01
593.889	0.01
594.079	0.03
594.269	-0.02
594.46	0
594.65	-0.01
594.84	0.01
595.031	-0.03
595.221	0.01
595.411	-0.02
595.602	0.02
595.792	0
595.982	-0
596.172	0.07
596.363	0
596.553	0
596.743	-0.02
596.933	0.02
597.123	0.05
597.314	-0.03
597.504	-0.02
597.694	0.03
597.884	0.01
598.074	-0.01
598.264	-0.03
598.454	0.02
598.644	0
598.834	-0.01
599.024	-0.08
599.214	-0
599.404	0.04
599.594	-0.03
599.784	-0
599.974	0.06
600.164	0.05
600.354	-0.04
600.544	-0.04
600.734	0
600.924	0.03
601.114	-0.02
601.303	0.01
601.493	0.03
601.683	-0
601.873	0.01
602.063	-0.05
602.252	0.04
602.442	-0.04
602.632	-0.01
602.821	-0.06
603.011	0.03
603.201	0
603.39	-0.01
603.58	-0
603.77	0.01
603.959	0.07
604.149	0
604.339	-0.01
604.528	0.04
604.718	0.01
604.907	-0.03
605.097	0
605.286	-0.04
605.476	0.02
605.665	0.02
605.855	0
606.044	0.06
606.234	0.03
606.423	0.01
606.612	-0.03
606.802	0.01
606.991	0.04
607.181	0.02
607.37	-0.04
607.559	-0.01
607.749	-0.03
607.938	-0.02
608.127	-0.01
608.316	0
608.506	0.02
608.695	-0.01
608.884	-0.06
609.073	-0.02
609.263	0.01
609.452	0.04
609.641	0.02
609.83	-0.03
610.019	0.02
610.208	-0.03
610.397	0.04
610.586	0.02
610.775	-0.02
610.965	-0.02
611.154	-0.01
611.343	-0.02
611.532	0.02
611.721	-0.04
611.91	-0
612.099	0.05
612.287	-0
612.476	-0.03
612.665	0.03
612.854	-0.01
613.043	0.03
613.232	0.01
613.421	-0.04
613.61	-0
613.798	-0.01
613.987	0.02
614.176	0.01
614.365	0.02
614.554	0.01
614.742	0.04
614.931	-0.03
615.12	0.03
615.309	0.01
615.497	0.03
615.686	-0.02
615.875	0.01
616.063	0.01
616.252	0
616.44	-0.02
616.629	0.01
616.818	0.02
617.006	0
617.195	-0.03
617.383	0.01
617.572	0
617.76	-0.01
617.949	-0.02
618.137	-0.01
618.326	0.09
618.514	-0.04
618.703	-0.03
618.891	0.06
619.079	-0.04
619.268	0.05
619.456	-0.04
619.644	0.05
619.833	0
620.021	-0.01
620.209	-0.03
620.398	0.02
620.586	0.01
620.774	0.02
620.962	-0.01
621.151	0.05
621.339	0.01
621.527	-0.02
621.715	-0.02
621.903	-0.03
622.092	-0.04
622.28	-0
622.468	-0.04
622.656	-0.01
622.844	0.04
623.032	-0.02
623.22	-0.04
623.408	0.03
623.596	-0.01
623.784	0.03
623.972	-0.03
624.16	-0.04
624.348	0.05
624.536	-0.03
624.724	-0.02
624.912	0.07
625.1	0.04
625.288	-0.03
625.476	-0.03
625.664	0.05
625.851	-0.09
626.039	-0.01
626.227	0.01
626.415	0
626.603	-0.07
626.79	0.01
626.978	0.01
627.166	0.02
627.354	-0.01
627.541	-0.03
627.729	-0.04
627.917	0.05
628.104	0.03
628.292	-0.01
628.48	0.01
628.667	0.02
628.855	-0.01
629.042	-0
629.23	-0.03
629.418	-0.01
629.605	-0
629.793	-0.02
629.98	-0.01
630.168	0.02
630.355	-0.01
630.543	0.03
630.73	-0.05
630.917	0
631.105	0.04
631.292	-0.03
631.48	-0.01
631.667	0.07
631.854	0
632.042	0.01
632.229	-0.07
632.416	-0.02
632.604	0
632.791	-0.03
632.978	-0.02
633.165	0.05
633.353	0.04
633.54	0.02
633.727	-0.07
633.914	-0.03
634.101	-0.07
634.289	0.05
634.476	-0.02
634.663	-0.04
634.85	0
635.037	-0.05
635.224	-0.06
635.411	0.04
635.598	0.06
635.785	-0.03
635.972	-0.01
636.159	0.04
636.346	-0.01
636.533	0.02
636.72	-0.01
636.907	-0.02
637.094	0.02
637.281	-0.02
637.468	0.02
637.655	-0.02
637.842	0.01
638.029	-0.03
638.215	0.05
638.402	0.03
638.589	-0.02
638.776	-0.04
638.963	-0.04
639.149	0.06
639.336	0.08
639.523	-0.01
639.709	-0.02
639.896	-0.03
640.083	0.06
640.27	0
640.456	-0.04
640.643	0.03
640.829	-0.04
641.016	0.01
641.203	-0.04
641.389	0.03
641.576	-0
641.762	-0.01
641.949	-0.02
642.135	0.02
642.322	0.01
642.508	-0.04
642.695	0.01
642.881	-0.01
643.068	0.01
643.254	-0.02
643.441	0.05
643.627	-0
643.813	-0.04
644	0.03
644.186	-0.02
644.372	0
644.559	0.03
644.745	-0
644.931	-0.05
645.118	-0.01
645.304	-0.02
645.49	-0.04
645.676	-0.04
645.862	0
646.049	0.11
646.235	0.03
646.421	0.07
646.607	0.04
646.793	-0.03
646.979	-0.03
647.165	-0.02
647.352	0.02
647.538	0.03
647.724	-0.01
647.91	0.01
648.096	0.03
648.282	0.04
648.468	0.02
648.654	0.01
648.84	-0
649.026	0
649.212	-0.03
649.397	-0.03
649.583	-0
649.769	0.02
649.955	0.03
650.141	0.01
650.327	0.08
650.513	-0.03
650.698	0.01
650.884	-0.08
651.07	-0
651.256	0.02
651.442	-0.03
651.627	-0.04
651.813	-0.04
651.999	0.02
652.184	0.02
652.37	-0.02
652.556	0
652.741	0.04
652.927	-0.07
653.113	-0
653.298	0
653.484	-0.02
653.669	-0.09
653.855	-0.02
654.04	0.04
654.226	0.02
654.412	-0.01
654.597	-0.04
654.782	-0.01
654.968	0.06
655.153	-0.01
655.339	-0.05
655.524	-0.06
655.71	0.05
655.895	-0.01
656.08	-0.01
656.266	0.04
656.451	0.01
656.636	-0.04
656.822	0
657.007	-0.02
657.192	-0.02
657.378	-0.06
657.563	-0.04
657.748	0.01
657.933	0.04
658.118	-0.02
658.304	0.03
658.489	0.02
658.674	-0.03
658.859	-0.03
659.044	0.03
659.229	0.01
659.414	-0.02
659.599	-0.04
659.785	-0.05
659.97	-0.04
660.155	0.02
660.34	0
660.525	-0.03
660.71	-0.04
660.895	0.04
661.08	-0.05
661.264	-0.04
661.449	0.05
661.634	0.03
661.819	0.02
662.004	0
662.189	-0.04
662.374	-0.03
662.559	-0.07
662.743	-0.03
662.928	0.02
663.113	-0.02
663.298	-0.05
663.483	-0.02
663.667	0.02
663.852	-0.04
664.037	0.02
664.221	-0.01
664.406	0.02
664.591	0.03
664.775	-0.01
664.96	-0.02
665.145	0.01
665.329	0.01
665.514	-0.04
665.698	-0.02
665.883	-0.08
666.068	0.05
666.252	-0.03
666.437	-0.06
666.621	0.02
666.806	0.02
666.99	-0
667.174	-0.04
667.359	0.05
667.543	-0.03
667.728	-0.03
667.912	-0.08
668.096	0
668.281	-0.01
668.465	-0
668.649	-0.01
668.834	-0.03
669.018	-0.02
669.202	-0.02
669.387	-0.02
669.571	0.03
669.755	-0.03
669.939	-0.06
670.124	-0.01
670.308	0.04
670.492	-0.01
670.676	-0.02
670.86	-0.04
671.044	-0.03
671.228	0.02
671.413	-0.02
671.597	-0.01
671.781	-0.04
671.965	0.03
672.149	-0.03
672.333	-0.02
672.517	-0.05
672.701	0.01
672.885	-0.02
673.069	-0.05
673.253	0.05
673.437	-0.04
673.621	-0.06
673.804	-0.05
673.988	-0.01
674.172	-0.02
674.356	-0.09
674.54	0.01
674.724	0.07
674.908	-0.03
675.091	0.05
675.275	-0.01
675.459	0.03
675.643	-0.02
675.826	0.01
676.01	-0.02
676.194	-0.05
676.377	0.04
676.561	0
676.745	0.01
676.928	0.01
677.112	-0.01
677.296	-0.04
677.479	-0.03
677.663	-0.01
677.846	0.03
678.03	-0
678.213	-0.05
678.397	-0.03
678.58	-0.01
678.764	0
678.947	-0.06
679.131	-0.04
679.314	0.08
679.498	-0.07
679.681	-0.02
679.865	0.03
680.048	0
680.231	-0.03
680.415	-0.01
680.598	-0
680.781	-0.03
680.965	-0.05
681.148	-0.02
681.331	0.01
681.514	0.04
681.698	-0.07
681.881	0.02
682.064	0.03
682.247	-0.01
682.43	-0.09
682.614	0.02
682.797	0.03
682.98	0.02
683.163	-0.04
683.346	0.01
683.529	0
683.712	-0.07
683.895	-0
684.078	-0.05
684.261	-0.01
684.444	-0.01
684.627	-0.03
684.81	-0.02
684.993	0.01
685.176	0.03
685.359	-0.07
685.542	-0.07
685.725	0.06
685.908	-0.01
686.091	-0.03
686.274	0.06
686.457	0.04
686.639	0.01
686.822	0
687.005	-0.03
687.188	-0
687.371	0.07
687.553	-0
687.736	-0.01
687.919	0.07
688.102	0.06
688.284	0
688.467	0.01
688.65	-0.01
688.832	-0.05
689.015	-0.04
689.197	-0.06
689.38	0.06
689.563	0.05
689.745	-0.03
689.928	-0.01
690.11	-0.02
690.293	-0.03
690.475	-0.05
690.658	0.03
690.84	-0.02
691.023	0.02
691.205	-0.05
691.388	-0.03
691.57	0.02
691.752	0.02
691.935	-0.08
692.117	-0.05
692.3	-0
692.482	-0
692.664	-0.03
692.847	-0.02
693.029	0.04
693.211	0.02
693.393	-0.01
693.576	-0.05
693.758	-0.02
693.94	-0.04
694.122	-0.01
694.304	0
694.487	-0.08
694.669	0.07
694.851	-0.09
695.033	0.02
695.215	-0.03
695.397	-0.05
695.579	0.02
695.761	-0.05
695.943	-0.12
696.125	0.05
696.308	0.01
696.49	-0.09
696.671	0.14
696.853	-0.03
697.035	0.13
697.217	-0.04
697.399	0.05
697.581	-0.04
697.763	-0.03
697.945	-0.04
698.127	0.05
698.309	-0.13
698.491	-0.02
698.672	0.03
698.854	0.06
699.036	0.07
699.218	-0.01
699.399	0.03
699.581	0.06
699.763	0.04
699.945	-0.04
700.126	-0.02
700.308	-0.01
700.49	-0.12
700.671	-0.12
700.853	0.01
701.035	-0.04
701.216	-0.03
701.398	-0.07
701.579	-0.02
701.761	0.04
701.943	-0.08
702.124	-0.06
702.306	0.02
702.487	0.09
702.669	-0.03
702.85	-0.04
703.031	-0.04
703.213	0.11
703.394	0.08
703.576	-0.03
703.757	0.05
703.938	0.07
704.12	0.1
704.301	-0.02
704.483	-0.09
704.664	0.04
704.845	0.07
705.026	0.05
705.208	-0.03
705.389	-0.01
705.57	-0.01
705.751	-0.07
705.933	-0
706.114	0.1
706.295	0.01
706.476	-0.05
706.657	0.06
706.838	0.01
707.02	0.02
707.201	-0.09
707.382	-0.02
707.563	-0.01
707.744	-0.01
707.925	-0.05
708.106	-0.05
708.287	0.01
708.468	0.06
708.649	-0.05
708.83	0.02
709.011	-0.11
709.192	0.05
709.373	-0.08
709.554	-0.01
709.734	0.02
709.915	0.03
710.096	0
710.277	-0.12
710.458	0.01
710.639	0.03
710.819	-0.15
711	-0.03
711.181	0.1
711.362	0.03
711.542	-0.02
711.723	-0.04
711.904	0.03
712.085	0.02
712.265	0.05
712.446	-0.11
712.627	-0.01
712.807	-0.03
712.988	-0.04
713.168	-0.11
713.349	-0.04
713.53	-0.1
713.71	-0.08
713.891	-0.09
714.071	-0.02
714.252	-0.07
714.432	-0.05
714.613	-0.11
714.793	-0.01
714.974	0.1
715.154	0.11
715.334	0.02
715.515	0.11
715.695	-0.05
715.876	0.06
716.056	-0.07
716.236	-0.06
716.417	-0.02
716.597	-0.06
716.777	0.11
716.957	0.01
717.138	0.03
717.318	-0.01
717.498	-0.1
717.678	-0
717.859	-0
718.039	-0.05
718.219	-0.01
718.399	0.03
718.579	-0.09
718.759	-0.05
718.939	-0.03
719.12	0.02
719.3	-0.04
719.48	-0.17
719.66	-0.1
719.84	0.09
720.02	-0.03
720.2	-0.09
720.38	-0.02
720.56	0.14
720.74	-0.04
720.92	0.01
721.1	0.01
721.279	0.08
721.459	-0.02
721.639	-0.07
721.819	0.02
721.999	-0.05
722.179	-0.02
722.359	-0.1
722.538	-0.01
722.718	-0.02
722.898	-0.08
723.078	-0.05
723.257	-0.01
723.437	-0.02
723.617	0.02
723.797	-0.03
723.976	-0.05
724.156	0.01
724.336	0.13
724.515	0.12
724.695	-0.15
724.874	-0.06
725.054	-0.01
725.234	-0.08
725.413	0.04
725.593	-0.05
725.772	-0.12
725.952	-0.02
726.131	-0.13
726.311	0.02
726.49	-0.04
726.67	-0.1
726.849	-0.02
727.028	-0.03
727.208	0.02
727.387	0.05
727.567	-0.12
727.746	-0.04
727.925	-0.1
728.105	-0.05
728.284	-0.09
728.463	0.01
728.643	0.05
728.822	-0.14
729.001	-0.01
729.18	-0.03
729.359	0.07
729.539	-0.05
729.718	-0.09
729.897	0.01
730.076	-0.1
730.255	-0.17
730.434	-0
730.614	-0.02
730.793	0.05
730.972	-0.09
731.151	-0.08
731.33	0.08
731.509	0.04
731.688	0.04
731.867	0.04
732.046	-0.16
732.225	0.17
732.404	-0.12
732.583	-0.16
732.762	-0.06
732.941	0.11
733.12	-0.05
733.298	-0.09
733.477	0.08
733.656	-0.05
733.835	-0.04
734.014	0.05
734.193	-0.03
734.371	0.11
734.55	-0.01
734.729	-0.1
734.908	-0.02
735.086	0.06
735.265	-0.02
735.444	-0.08
735.623	-0.19
735.801	-0.15
735.98	0.02
736.159	-0.04
736.337	0.08
736.516	-0.01
736.694	0.02
736.873	-0.08
737.052	0.12
737.23	0.11
737.409	-0.04
737.587	0.17
737.766	-0.17
737.944	-0.2
738.123	-0.01
738.301	0.01
738.479	-0.1
738.658	0.03
738.836	-0.35
739.015	0.08
739.193	0.08
739.371	-0.09
739.55	-0.07
739.728	-0.11
739.906	0.07
740.085	0.19
740.263	-0.16
740.441	-0.17
740.62	0.21
740.798	-0.03
740.976	-0.11
741.154	-0.14
741.332	0.18
741.511	-0.1
741.689	0.01
741.867	0.06
742.045	-0.04
742.223	0.02
742.401	-0.06
742.579	-0.04
742.757	0
742.935	-0.23
743.114	-0.02
743.292	-0.03
743.47	-0.03
743.648	-0.07
743.826	0.05
744.004	-0.08
744.181	0.08
744.359	-0.12
744.537	-0.06
744.715	-0.1
744.893	-0.04
745.071	-0.09
745.249	0.02
745.427	-0.02
745.605	0.1
745.782	-0.03
745.96	0.03
746.138	0.07
746.316	0.05
746.493	-0.07
746.671	-0.06
746.849	-0.07
747.027	0.11
747.204	-0.08
747.382	0.03
747.56	-0.1
747.737	-0.19
747.915	-0.07
748.093	-0.05
748.27	-0.11
748.448	-0.03
748.625	-0.11
748.803	-0.15
748.98	-0.11
749.158	0.04
749.335	0.03
749.513	0.01
749.69	-0.04
749.868	0
750.045	0.07
750.223	-0.02
750.4	-0.15
750.578	0.23
750.755	-0.09
750.932	-0.17
751.11	0.1
751.287	-0.16
751.464	0.13
751.642	-0.12
751.819	0.01
751.996	-0.13
752.173	0.04
752.351	-0.11
752.528	-0
752.705	-0.07
752.882	-0.05
753.06	-0.04
753.237	0.05
753.414	0.25
753.591	0.18
753.768	-0.03
753.945	-0.04
754.122	-0.14
754.299	0.15
754.476	-0.16
754.654	-0.02
754.831	0.04
755.008	0
755.185	-0.07
755.362	-0.18
755.539	0.03
755.716	-0.03
755.892	-0.04
756.069	-0.03
756.246	-0.06
756.423	-0.08
756.6	0.2
756.777	-0.07
756.954	0.1
757.131	-0.04
757.307	0.03
757.484	-0.2
757.661	0.08
757.838	-0.01
758.015	-0.06
758.191	0.07
758.368	-0.03
758.545	0.1
758.721	-0.01
758.898	-0.12
759.075	0.02
759.251	0.18
759.428	0.02
759.605	-0.16
759.781	-0.02
759.958	0.07
760.134	0.05
760.311	-0.09
760.488	0.14
760.664	0.14
760.841	-0.01
761.017	-0.17
761.194	0.04
761.37	0.07
761.547	-0.15
761.723	0
761.899	0.12
762.076	-0.04
762.252	-0.11
762.429	0.01
762.605	-0.04
762.781	-0.05
762.958	0.11
763.134	-0.02
763.31	-0.23
763.486	0.12
763.663	-0.24
763.839	0
764.015	-0.27
764.191	-0.26
764.368	-0
764.544	-0.05
764.72	0.04
764.896	0.09
765.072	0.01
765.248	0.15
765.425	0.02
765.601	0.01
765.777	-0.11
765.953	-0.23
766.129	-0.05
766.305	-0.12
766.481	0.03
766.657	-0.04
766.833	0.05
767.009	-0.17
767.185	-0.12
767.361	-0.08
767.537	-0.19
767.713	0.18
767.889	-0.21
768.065	0.03
768.24	0.08
768.416	0.05
768.592	-0.15
768.768	0.08
768.944	0.04
769.12	-0.09
769.295	-0
769.471	0.02
769.647	-0.02
769.823	0.06
769.998	-0.16
770.174	-0.23
770.35	0.2
770.525	0.2
770.701	0.03
770.877	-0.09
771.052	-0.19
771.228	0.12
771.403	0.1
771.579	0.07
771.755	0.18
771.93	-0.01
772.106	-0.21
772.281	-0.26
772.457	-0.19
772.632	0.11
772.808	-0.3
772.983	-0.1
773.159	-0.13
773.334	0.03
773.509	-0.13
773.685	-0.15
773.86	0.22
774.036	0.14
774.211	0.01
774.386	0.01
774.562	0.09
774.737	0.15
774.912	-0.12
775.087	-0
775.263	0.05
775.438	-0.1
775.613	-0.07
775.788	0.06
775.964	0.11
776.139	0.36
776.314	-0.3
776.489	0.16
776.664	0.08
776.839	-0.09
777.014	0.02
777.19	0.24
777.365	0.21
777.54	0.25
777.715	-0.19
777.89	-0
778.065	0.01
778.24	-0.01
778.415	0.04
778.59	-0.14
778.765	-0.19
778.94	-0.04
779.115	-0.04
779.289	-0.02
779.464	-0.11
779.639	0.09
779.814	-0.19
779.989	-0.2
780.164	0.1
780.339	0.03
780.513	-0.17
780.688	-0.23
780.863	-0.12
781.038	0.06
781.212	-0.26
781.387	-0.09
781.562	0.23
781.737	0.11
781.911	0.06
782.086	-0.18
782.261	0.07
782.435	0.21
782.61	-0.19
782.784	-0.16
782.959	0.27
783.134	-0.12
783.308	-0.26
783.483	-0.12
783.657	0.37
783.832	0.14
784.006	-0.23
784.181	-0.14
784.355	0.19
784.53	0.13
784.704	-0.23
784.878	0.27
785.053	0.25
785.227	0.1
785.402	0.26
785.576	-0.29
785.75	-0.15
785.925	-0.14
786.099	0.17
786.273	-0.06
786.448	0.06
786.622	0.29
786.796	-0.02
786.97	-0.1
787.145	0.6
787.319	-0.36
787.493	-0.08
787.667	-0.46
787.841	0.03
788.015	0.15
788.19	-0.08
788.364	-0.01
788.538	0.12
788.712	0.08
788.886	0.12
789.06	0.19
789.234	0.07
789.408	-0.3
789.582	-0.04
789.756	-0.17
789.93	-0.24
790.104	-0.12
790.278	0.02
790.452	-0.34
790.626	-0.1
790.8	-0.04
790.973	0.15
791.147	0.27
791.321	0.17
791.495	0.27
791.669	0.12
791.843	0.18
792.016	0
792.19	0.41
792.364	-0.27
792.538	0.41
792.711	0.23
792.885	-0.17
793.059	-0.21
793.233	-0.65
793.406	0.13
793.58	-0.16
793.754	0.21
793.927	-0.09
794.101	0.26
794.274	0.04
794.448	0.27
794.622	-0.25
794.795	0.43
794.969	-0.03
795.142	0.24
795.316	0.18
795.489	-0.03
795.663	0.31
795.836	-0.37
796.009	-0.22
796.183	0.07
796.356	0.06
796.53	0.22
796.703	-0.05
796.876	0.73
797.05	-0.18
797.223	0.02
797.396	-0.07
797.57	-0.01
797.743	0.07
797.916	0.06
798.09	-0.08
798.263	0.18
798.436	-0.03
798.609	-0.14
798.782	0.01
798.956	-0.11
799.129	0.07
799.302	-0.04
799.475	0.04
799.648	-0.33
799.821	-0.2
799.994	0.06
800.167	-0.25
800.34	-0.08
800.514	0.05
800.687	0.03
800.86	-0.11
801.033	0.22
801.206	0.04
801.379	-0.4
801.551	-0.1
801.724	0.2
801.897	0.4
802.07	-0.27
802.243	-0.77
802.416	-0.09
802.589	-0.29
802.762	0.1
802.935	-0.07
803.107	0.25
803.28	0.21
803.453	-0.05
803.626	-0.02
803.798	0.34
803.971	-0.13
804.144	0.01
804.317	0.21
804.489	0.03
804.662	-0.11
804.835	-0.14
805.007	-0.14
805.18	0.49
805.353	0.08
805.525	-0.4
805.698	-0.3
805.87	0.12
806.043	0.08
806.215	-0.24
806.388	-0.24
806.56	0.12
806.733	0.18
806.905	0.19
807.078	-0.2
807.25	-0.19
807.423	-0.09
807.595	-0.17
807.768	0.14
807.94	0.06
808.112	0.23
808.285	0.04
808.457	-0.31
808.629	0.22
808.802	0.02
808.974	-0.35
809.146	-0.2
809.318	-0.2
809.491	0.04
809.663	0.01
809.835	0
810.007	0.29
810.18	-0.02
810.352	-0.45
810.524	-0.41
810.696	0.18
810.868	0.29
811.04	-0.25
811.212	-0.09
811.384	0.14
811.556	0.42
811.728	-0.04
811.901	0.61
812.073	-0.27
812.245	0.28
812.417	-0.02
812.589	-0.75
812.76	0.08
812.932	0.16
813.104	0.26
813.276	0.09
813.448	0.39
813.62	0.01
813.792	0
813.964	0
814.136	0.13
814.307	-0.03
814.479	-0.39
814.651	-0.19
814.823	1.2
814.995	-0.43
815.166	-0.08
815.338	-0.42
815.51	-0.51
815.681	0.95
815.853	0.23
816.025	0.01
816.196	0.28
816.368	0.54
816.54	-0.56
816.711	-0.62
816.883	-0.15
817.054	0.94
817.226	-0.35
817.398	-0.26
817.569	-0.13
817.741	0.21
817.912	-0.74
818.084	-0.29
818.255	0.35
818.426	-0.24
818.598	-0.19
818.769	-0.53
818.941	0.37
819.112	0.65
819.283	0.37
819.455	0
819.626	0.02
819.798	-0.05
819.969	0.38
820.14	0.05
820.311	-0.36
820.483	0.17
820.654	-0.27
820.825	0.11
820.996	-0.44
821.168	-0.26
821.339	-0.1
821.51	-0.66
821.681	-0.29
821.852	-0.12
822.023	-0.71
822.195	-0.26
822.366	0.37
822.537	-0.02
822.708	0.22
822.879	-0.15
823.05	0.41
823.221	-0.31
823.392	0.23
823.563	0.08
823.734	0.2
823.905	-0.64
824.076	-0.47
824.247	-0.54
824.418	-0.52
824.589	0.63
824.759	-0.29
824.93	-0.29
825.101	-1.05
825.272	0.46
825.443	-0.08
825.614	0.58
825.784	-0.96
825.955	0.71
826.126	0.81
826.297	-0.22
826.467	0.66
826.638	0.58
826.809	-0.75
826.98	-0.34
827.15	-0.01
827.321	-0.36
827.492	0.56
827.662	-0.01
827.833	0.83
828.003	0.46
828.174	-0.59
828.345	-0.53
828.515	0.46
828.686	0.27
828.856	-0.45
829.027	-0.14
829.197	-0.49
829.368	0.64
829.538	-0.26
829.709	-0.27
829.879	-0.23
830.049	0.06
830.22	-0.27
830.39	0.08
830.56	1.04
830.731	-0.12
830.901	-0.18
831.072	-0.01
831.242	0.77
831.412	-0.06
831.582	-0.04
831.753	-1.22
831.923	0.56
832.093	0.05
832.263	-0.42
832.434	-0.39
832.604	-0.3
832.774	0.11
832.944	-0.8
833.114	-0.35
833.284	0.75
833.454	-1.05
833.624	0
833.795	-0.68
833.965	0.48
834.135	0.54
834.305	-1.17
834.475	-0.72
834.645	0.2
834.815	-0.05
834.985	-0.6
835.155	-0.13
835.325	0.2
835.494	0.32
835.664	-0.04
835.834	-0.43
836.004	-0.08
836.174	0.38
836.344	0.06
836.514	-0.91
836.684	-0.85
836.853	-0.03
837.023	0.51
837.193	-0.56
837.363	0.41
837.532	0.36
837.702	0.35
837.872	-1.14
838.041	0.87
838.211	1.73
838.381	-0.74
838.55	0.07
838.72	1.79
838.89	1.22
839.059	-0.08
839.229	-0.84
839.398	0.72
839.568	0.35
839.738	-0.1
839.907	0.48
840.077	0.04
840.246	0.09
840.416	-0.65
840.585	-1.26
840.755	1.13
840.924	0.14
841.093	-0.97
841.263	-0.4
841.432	-0.02
841.602	-1.14
841.771	-0.55
841.94	-0.04
842.11	1.96
842.279	1.14
842.448	-0.77
842.617	-0.42
842.787	1.06
842.956	-0.67
843.125	-0.58
843.294	-0.68
843.464	0.29
843.633	0.18
843.802	-1.51
843.971	-0.2
844.14	0.74
844.309	0.72
844.479	-0.49
844.648	-1.23
844.817	-0.44
844.986	-0.55
845.155	-0.48
845.324	-0.15
845.493	-0.43
845.662	-1.49
845.831	-0.11
846	-0.39
846.169	0.32
846.338	1
846.507	-0.15
846.676	0.18
846.844	-1.14
847.013	0.87
847.182	0.08
847.351	-0.53
847.52	-0.16
847.689	0.18
847.858	-0.29
848.026	-0.31
848.195	-0.02
848.364	-0.88
848.533	-1.06
848.701	-0.64
848.87	-0.08
849.039	1.79
849.207	1.2
849.376	0.71
849.545	1.4
849.713	-1.07
849.882	-0.53
850.051	-0.69
850.219	0.23
850.388	0.28
850.556	-1
850.725	-0.57
850.893	0.1
851.062	-0.51
851.23	0.79
851.399	-2.09
851.567	-0.94
851.736	-0.61
851.904	-0.91
852.073	0.21
852.241	0.33
852.41	-0.05
852.578	-0.91
852.746	-0.92
852.915	0.46
853.083	0.51
853.251	-0.9
853.42	-1.19
853.588	-0.07
853.756	1.27
853.924	-0.47
854.093	0.26
854.261	-0.53
854.429	-1.26
854.597	0.68
854.765	-1.16
854.934	1.56
855.102	-0.29
855.27	-0.58
855.438	0.69
855.606	1.13
855.774	1.75
855.942	-2.3
856.11	-2.34
856.278	-0.25
856.446	0.76
856.614	-0.55
856.782	-0.17
856.95	0.77
857.118	0
857.286	0.2
857.454	-1.37
857.622	1.85
857.79	0.9
857.958	-0.87
858.126	-1.35
858.294	-2.5
858.462	-0.15
858.629	-1.34
858.797	-1.28
858.965	-0.4
859.133	0.52
859.301	-0.48
859.468	-0.39
859.636	-0.26
859.804	1.39
859.971	1.42
860.139	-1.73
860.307	1.42
860.474	0
860.642	-0.27
860.81	-0.1
860.977	-1.31
861.145	0.24
861.313	-0.48
861.48	-0.67
861.648	1.88
861.815	-0.68
861.983	-1.56
862.15	-1.34
862.318	-0.38
862.485	1.2
862.653	-0.65
862.82	-1.28
862.988	2.26
863.155	-0.08
863.322	-1.57
863.49	-2.56
863.657	-0.97
863.824	1.69
863.992	1.02
864.159	0.39
864.326	1.65
864.494	-0.51
864.661	0.73
864.828	-1.75
864.996	1.4
865.163	0.86
865.33	-1.05
865.497	-3.46
865.664	-0.74
865.832	-1.94
865.999	-0.54
866.166	-1.92
866.333	-0.8
866.5	-0.36
866.667	0.44
866.834	-0.61
867.001	2.37
867.168	-1.57
867.335	-0.56
867.502	-2.59
867.669	1.34
867.836	2.85
868.003	0.61
868.17	0.75
868.337	1.89
868.504	1.87
868.671	-1.15
868.838	-2.24
869.005	-0.48
869.172	-0.45
869.339	0
869.505	-1.18
869.672	-0.54
869.839	1.43
870.006	1.5
870.173	-3.18
870.339	1.17
870.506	2.88
870.673	-1.01
870.84	1.17
871.006	0.86
871.173	-1.06
871.34	0.94
871.506	-3
871.673	0.02
871.839	-1.84
872.006	0.71
872.173	-2.04
872.339	-0.08
872.506	1.33
872.672	-1.03
872.839	-1.5
873.005	0.44
873.172	2.99
873.338	1.27
873.505	-1.51
873.671	-0.99
873.838	-0.35
874.004	-2.55
874.171	-1.53
874.337	-0.05
874.503	1.77
874.67	-0.57
874.836	-0.27
875.002	3.01
875.169	1.88
875.335	0.44
875.501	-2.26
875.668	2.63
875.834	-0.07
876	-0.66
876.166	-0.43
876.332	-0.34
876.499	2.17
876.665	-1.07
876.831	-0.11
876.997	3.32
877.163	0.54
877.329	-0.16
877.495	0.95
877.662	1.38
877.828	0.19
877.994	0.13
878.16	-3.18
878.326	-2.29
878.492	0.93
878.658	-0.81
878.824	0.08
878.99	-0.11
879.156	-1.11
879.322	2.36
879.487	-1.45
879.653	-0.2
879.819	0.56
879.985	-1.6
880.151	-0.74
880.317	0
880.483	-0.22
880.648	0.56
880.814	-2.07
880.98	1.28
881.146	-3.56
881.312	-1.55
881.477	0.12
881.643	-0.18
881.809	1.13
881.974	1.41
882.14	-1.12
882.306	2.58
882.471	3.19
882.637	-1.18
882.803	1.93
882.968	3.16
883.134	2.98
883.299	-1.46
883.465	-1.25
883.63	1.29
883.796	0.75
883.961	-0.51
884.127	0.24
884.292	-4.1
884.458	-0.96
884.623	-0.96
