Data from Apollo_Calib_20240827__AbsoluteIrradiance__387__05-36-02-279.txt Node

Date: Wed Aug 28 05:36:02 BST 2024
User: biology
Spectrometer: FLMT08252
Trigger mode: 0
Integration Time (sec): 5.000000E-1
Scans to average: 5
Electric dark correction enabled: true
Nonlinearity correction enabled: false
Boxcar width: 0
XAxis mode: Wavelengths
Number of Pixels in Spectrum: 3648
>>>>>Begin Spectral Data<<<<<
179.588	-0
179.809	-0
180.03	-0
180.251	-0
180.473	-0
180.694	0
180.915	0
181.136	-0
181.357	0
181.578	0
181.799	-0
182.02	-0
182.241	0
182.462	-0
182.683	0
182.904	-0
183.125	-0
183.346	0
183.567	0
183.788	-0
184.009	-0
184.23	0
184.451	0
184.672	-0
184.892	-0
185.113	0
185.334	0
185.555	-0
185.776	-0
185.996	0
186.217	0
186.438	-0
186.659	-0
186.879	-0
187.1	-0
187.321	-0
187.541	-0
187.762	-0
187.983	0
188.203	-0
188.424	-0
188.644	-0
188.865	0
189.086	-0
189.306	-0
189.527	0
189.747	0
189.968	-0
190.188	0
190.409	0
190.629	0
190.849	-0
191.07	-0
191.29	0
191.511	-0
191.731	-0
191.951	-0
192.172	-0
192.392	-0
192.612	-0
192.833	-0
193.053	0
193.273	0
193.493	-0
193.714	-0
193.934	0
194.154	0
194.374	-0
194.594	0
194.815	-0
195.035	-0
195.255	-0
195.475	-0
195.695	0
195.915	0
196.135	-0
196.355	0
196.575	0
196.795	0
197.015	-0
197.235	-0
197.455	-0
197.675	0
197.895	-0
198.115	-0
198.335	-0
198.555	-0
198.775	0
198.995	-0
199.214	0
199.434	-0
199.654	-0
199.874	-0
200.094	0.99
200.313	-0.58
200.533	-1.01
200.753	-1.12
200.973	0.07
201.192	0.86
201.412	-1.02
201.632	-0.07
201.851	0.26
202.071	-0.74
202.291	-0.43
202.51	-0.27
202.73	0.3
202.95	-0.19
203.169	-1.12
203.389	-0.21
203.608	0.18
203.828	-0.53
204.047	-0.34
204.267	0.32
204.486	0.31
204.706	0.11
204.925	-0.15
205.145	-0.29
205.364	0.46
205.583	0.58
205.803	-0.29
206.022	-0.43
206.242	-0.47
206.461	-0.06
206.68	-0.4
206.9	0.14
207.119	0.55
207.338	0.17
207.557	-0.58
207.777	-0.13
207.996	-0.22
208.215	0.31
208.434	-0.32
208.654	-0.5
208.873	-0.07
209.092	0.29
209.311	-0.17
209.53	0.02
209.749	-0.11
209.968	-0.34
210.187	-0.31
210.407	-0.53
210.626	-0.33
210.845	0.11
211.064	-0.01
211.283	-0.34
211.502	0.26
211.721	-0.03
211.94	-0.2
212.159	0.17
212.377	0.37
212.596	0.14
212.815	0.05
213.034	-0.05
213.253	0.25
213.472	0.17
213.691	-0.09
213.91	-0.1
214.128	-0.22
214.347	0.2
214.566	-0.39
214.785	-0.28
215.003	0.01
215.222	-0.06
215.441	-0.06
215.66	-0.29
215.878	-0.13
216.097	0.08
216.316	-0.32
216.534	-0.1
216.753	0
216.972	-0.06
217.19	-0.03
217.409	-0.21
217.627	-0.28
217.846	-0.18
218.064	-0.16
218.283	-0.16
218.501	0.35
218.72	0.27
218.938	-0.4
219.157	-0.19
219.375	0.12
219.594	0.2
219.812	-0.16
220.031	-0.2
220.249	0.22
220.467	0.2
220.686	-0.19
220.904	-0.16
221.122	-0.25
221.341	0.3
221.559	-0.02
221.777	-0.18
221.995	-0.1
222.214	0.07
222.432	-0.12
222.65	0.15
222.868	-0.07
223.086	0.1
223.305	0.1
223.523	-0.09
223.741	0.21
223.959	-0.02
224.177	-0.27
224.395	-0.18
224.613	0.15
224.831	0.08
225.049	-0.19
225.267	-0.08
225.485	-0.06
225.703	-0.13
225.921	0.05
226.139	-0.1
226.357	0.16
226.575	0.05
226.793	-0.27
227.011	0.57
227.229	0.03
227.447	0.03
227.665	-0.16
227.883	-0.2
228.1	-0.1
228.318	0.09
228.536	-0.22
228.754	-0.26
228.972	0.06
229.189	0.01
229.407	-0.12
229.625	-0.11
229.843	0.03
230.06	-0.01
230.278	-0.24
230.496	-0.02
230.713	0.03
230.931	0.11
231.149	-0.16
231.366	-0.21
231.584	-0.03
231.801	0.35
232.019	-0.1
232.236	-0.24
232.454	-0.19
232.671	0.04
232.889	-0.08
233.106	-0.14
233.324	-0.07
233.541	-0.11
233.759	-0.04
233.976	-0.07
234.194	-0.08
234.411	0.02
234.628	-0.22
234.846	-0.07
235.063	-0.12
235.28	-0.08
235.498	-0.07
235.715	-0.15
235.932	0.07
236.149	-0.05
236.367	-0.07
236.584	0.05
236.801	-0.15
237.018	0.08
237.236	0.04
237.453	-0.28
237.67	0.11
237.887	-0.09
238.104	-0.18
238.321	-0.17
238.538	-0.18
238.755	0.14
238.973	-0.21
239.19	-0.03
239.407	0.11
239.624	-0
239.841	-0.12
240.058	-0.13
240.275	0.05
240.492	0.01
240.709	-0.06
240.925	-0.02
241.142	-0.01
241.359	-0.2
241.576	-0.14
241.793	-0.07
242.01	-0.03
242.227	-0.03
242.444	-0
242.66	0.03
242.877	-0.09
243.094	-0.12
243.311	0.03
243.527	-0.08
243.744	0.04
243.961	0.04
244.178	-0.14
244.394	-0.05
244.611	0
244.828	0.09
245.044	-0.12
245.261	-0.05
245.477	-0.06
245.694	0.09
245.911	-0.16
246.127	0.04
246.344	0.12
246.56	0.06
246.777	-0.05
246.993	0.03
247.21	0.01
247.426	0.1
247.643	-0.03
247.859	-0.18
248.076	-0.13
248.292	0.14
248.508	-0.05
248.725	-0.01
248.941	0.02
249.157	0.13
249.374	-0.08
249.59	-0.04
249.806	-0.04
250.023	0.02
250.239	-0.13
250.455	-0.06
250.671	-0.06
250.888	-0.02
251.104	-0.02
251.32	-0.05
251.536	-0.08
251.752	0.05
251.969	-0.04
252.185	-0
252.401	0.08
252.617	0.02
252.833	-0.11
253.049	-0.06
253.265	0.04
253.481	0.06
253.697	-0.07
253.913	-0.15
254.129	0.04
254.345	-0.1
254.561	-0.11
254.777	-0.05
254.993	0.02
255.209	-0.01
255.425	-0.07
255.641	-0.06
255.857	0
256.073	-0
256.288	-0.18
256.504	-0.11
256.72	0.01
256.936	0.03
257.152	0
257.367	-0.05
257.583	-0.02
257.799	0.04
258.015	0
258.23	-0.03
258.446	0.14
258.662	0.01
258.877	-0.09
259.093	-0.1
259.309	-0.08
259.524	0.07
259.74	-0.05
259.955	-0.1
260.171	-0.03
260.387	-0.06
260.602	0.03
260.818	0.04
261.033	-0.03
261.249	-0.09
261.464	-0.05
261.68	-0.1
261.895	0.04
262.11	0.05
262.326	-0.04
262.541	-0.1
262.757	0.07
262.972	0
263.187	0.05
263.403	-0.04
263.618	0.07
263.833	0.01
264.049	-0.05
264.264	0
264.479	0.06
264.694	0.1
264.91	-0.13
265.125	-0.06
265.34	0.06
265.555	0.12
265.77	0.03
265.986	-0.07
266.201	0.07
266.416	0.08
266.631	-0.05
266.846	0.01
267.061	0.05
267.276	0.02
267.491	-0.16
267.706	-0
267.921	0.03
268.136	-0.03
268.351	-0.01
268.566	-0.08
268.781	0.07
268.996	-0.04
269.211	0.01
269.426	-0.1
269.641	-0.02
269.856	0.02
270.071	-0.06
270.285	-0.13
270.5	0.02
270.715	0.03
270.93	-0.03
271.145	0.04
271.359	0.09
271.574	-0.01
271.789	-0.03
272.004	-0.06
272.218	-0.03
272.433	0.05
272.648	-0.06
272.862	0.07
273.077	0
273.292	0.01
273.506	-0.09
273.721	-0.03
273.936	-0.01
274.15	0.08
274.365	-0.04
274.579	0.01
274.794	0.05
275.008	0.04
275.223	-0.13
275.437	-0.02
275.652	0.01
275.866	-0.02
276.081	-0.04
276.295	0.07
276.509	-0.01
276.724	-0.02
276.938	-0.07
277.153	0.07
277.367	0
277.581	-0.04
277.796	-0.04
278.01	-0.11
278.224	0.07
278.438	0.13
278.653	-0.04
278.867	-0.09
279.081	-0.1
279.295	-0.01
279.51	0.01
279.724	-0.09
279.938	0
280.152	0
280.366	-0.01
280.58	-0.04
280.794	0.11
281.008	-0.02
281.222	0.03
281.437	0.17
281.651	0.04
281.865	0.1
282.079	-0.02
282.293	-0.07
282.507	-0.07
282.721	-0.02
282.935	0.01
283.148	-0.07
283.362	-0.07
283.576	-0.1
283.79	-0.03
284.004	-0.06
284.218	0.03
284.432	-0.02
284.646	-0.01
284.859	-0.03
285.073	-0.06
285.287	0
285.501	-0.02
285.714	-0.01
285.928	0.02
286.142	-0.01
286.356	-0.05
286.569	-0.03
286.783	0.06
286.997	0.04
287.21	0.02
287.424	-0.01
287.637	-0.05
287.851	-0.04
288.065	0.03
288.278	-0.01
288.492	0
288.705	-0.02
288.919	0.03
289.132	-0.06
289.346	0.04
289.559	-0.1
289.773	-0.09
289.986	-0.04
290.2	-0.01
290.413	0.05
290.626	-0.09
290.84	-0.06
291.053	0.03
291.267	0.07
291.48	0
291.693	0
291.906	-0.04
292.12	0.02
292.333	-0.05
292.546	-0.04
292.76	0.1
292.973	0.01
293.186	0.07
293.399	-0.06
293.612	0.04
293.826	-0.03
294.039	-0.04
294.252	-0.04
294.465	0.03
294.678	0.02
294.891	0.03
295.104	-0.06
295.317	-0.03
295.53	0.03
295.743	-0.04
295.956	-0.03
296.169	0.02
296.382	0.02
296.595	-0.02
296.808	-0
297.021	0.03
297.234	0.09
297.447	-0.02
297.66	0.04
297.873	0.02
298.086	0.03
298.299	-0.04
298.511	-0.06
298.724	-0.07
298.937	-0.06
299.15	-0.02
299.363	0.01
299.575	0.03
299.788	-0.02
300.001	0.01
300.213	-0.05
300.426	-0.03
300.639	-0.02
300.852	-0.05
301.064	0.03
301.277	0.07
301.489	0.05
301.702	0.01
301.915	0.02
302.127	0.01
302.34	-0.01
302.552	0
302.765	-0.01
302.977	0
303.19	-0.01
303.402	-0.05
303.615	-0.03
303.827	0.02
304.04	-0.04
304.252	0.05
304.464	-0.05
304.677	0.12
304.889	0
305.102	0
305.314	0.01
305.526	0.02
305.739	0.05
305.951	-0.01
306.163	0
306.375	0.07
306.588	-0.06
306.8	-0.01
307.012	-0.07
307.224	0.02
307.436	0.09
307.649	-0.08
307.861	0.02
308.073	0.01
308.285	0.01
308.497	-0.05
308.709	-0.03
308.921	0.02
309.133	0.04
309.346	-0.04
309.558	0.02
309.77	0.04
309.982	0.07
310.194	0.05
310.406	-0.03
310.617	0.06
310.829	0.01
311.041	0
311.253	-0.04
311.465	0.01
311.677	0.02
311.889	-0.02
312.101	-0.04
312.313	0.06
312.524	0.01
312.736	-0.08
312.948	-0
313.16	0.04
313.372	-0.01
313.583	0.03
313.795	-0.03
314.007	0.01
314.218	0.02
314.43	0.01
314.642	-0.02
314.853	0.01
315.065	0.07
315.277	-0.04
315.488	0.01
315.7	0.05
315.912	0
316.123	-0.02
316.335	0.03
316.546	0.13
316.758	0.02
316.969	-0.01
317.181	-0
317.392	-0.01
317.604	0.03
317.815	0.01
318.026	-0.05
318.238	-0.08
318.449	0.01
318.661	-0.06
318.872	-0.07
319.083	-0.05
319.295	0.07
319.506	-0.01
319.717	-0
319.929	0.01
320.14	-0.01
320.351	0.01
320.562	-0.05
320.774	0.01
320.985	-0
321.196	-0.06
321.407	-0.05
321.618	0.04
321.829	0.03
322.041	0.06
322.252	-0.01
322.463	-0.01
322.674	-0.02
322.885	-0.03
323.096	-0.06
323.307	-0.02
323.518	-0.03
323.729	-0.05
323.94	-0.04
324.151	-0.05
324.362	0.07
324.573	0.02
324.784	-0.04
324.995	0.02
325.206	0.02
325.417	-0.04
325.628	-0.01
325.838	0.01
326.049	-0.01
326.26	0.05
326.471	-0.08
326.682	-0.03
326.892	0.03
327.103	-0.05
327.314	-0.08
327.525	0.03
327.735	-0.01
327.946	0.01
328.157	-0.04
328.368	-0
328.578	-0.03
328.789	-0.03
328.999	-0.03
329.21	-0.01
329.421	0.03
329.631	-0.09
329.842	-0.06
330.052	0
330.263	0.04
330.473	0.05
330.684	0.01
330.894	0.01
331.105	0.02
331.315	-0
331.526	-0.07
331.736	0.07
331.947	0.03
332.157	0
332.367	-0.05
332.578	0.03
332.788	0.06
332.999	0.02
333.209	-0.03
333.419	-0.05
333.629	-0.01
333.84	0.04
334.05	-0.02
334.26	0.03
334.47	-0
334.681	0.02
334.891	-0.01
335.101	0.04
335.311	0.1
335.521	0.05
335.732	-0.04
335.942	0.08
336.152	0.02
336.362	0.01
336.572	-0.03
336.782	0.02
336.992	-0.04
337.202	0.02
337.412	-0.01
337.622	-0.02
337.832	-0.02
338.042	-0.04
338.252	-0
338.462	0.01
338.672	0
338.882	0.03
339.092	0
339.302	0.07
339.511	-0
339.721	-0.01
339.931	-0.08
340.141	0.03
340.351	0.03
340.561	0.01
340.77	-0.01
340.98	-0.01
341.19	0.06
341.4	-0
341.609	-0.05
341.819	-0.03
342.029	-0.02
342.238	-0.02
342.448	-0.04
342.658	0.09
342.867	0
343.077	-0.02
343.286	0.04
343.496	-0.02
343.706	0.1
343.915	-0.05
344.125	-0.02
344.334	0.01
344.544	-0.06
344.753	-0.04
344.963	-0.03
345.172	-0.06
345.381	-0.05
345.591	-0.04
345.8	-0
346.01	0.05
346.219	0.03
346.428	-0.16
346.638	-0.04
346.847	-0.01
347.056	0.03
347.266	-0.02
347.475	-0.01
347.684	0.02
347.893	0.03
348.103	0
348.312	-0.03
348.521	-0.04
348.73	-0.03
348.94	0
349.149	-0.05
349.358	-0.04
349.567	-0.02
349.776	-0.05
349.985	-0.03
350.194	0.04
350.403	0.06
350.612	-0.08
350.821	-0.02
351.03	-0.01
351.239	-0.05
351.448	-0.04
351.657	-0.05
351.866	0.05
352.075	-0
352.284	0.03
352.493	-0.07
352.702	0.07
352.911	-0.02
353.12	-0.01
353.329	-0.04
353.538	0.05
353.746	-0.02
353.955	-0.07
354.164	0.02
354.373	-0.02
354.582	0.04
354.79	0.02
354.999	0.05
355.208	-0.02
355.416	0.04
355.625	-0.05
355.834	-0
356.042	-0.01
356.251	-0.04
356.46	-0.03
356.668	0.02
356.877	0.09
357.085	0.03
357.294	-0.08
357.503	-0.02
357.711	0.03
357.92	0.11
358.128	-0.04
358.337	-0.01
358.545	-0
358.754	-0.02
358.962	0.01
359.17	-0.01
359.379	0.03
359.587	0.03
359.796	0.01
360.004	0.06
360.212	0.02
360.421	0.06
360.629	-0.03
360.837	-0.01
361.046	0.04
361.254	0.1
361.462	0.03
361.67	-0.03
361.879	-0.01
362.087	0.05
362.295	0.01
362.503	-0.06
362.711	-0.05
362.92	-0.04
363.128	-0.02
363.336	-0.04
363.544	-0.08
363.752	-0
363.96	-0.06
364.168	-0.03
364.376	0
364.584	0.03
364.792	-0
365	-0.03
365.208	-0.02
365.416	-0
365.624	0.02
365.832	-0.04
366.04	0.08
366.248	0.02
366.456	0.01
366.664	-0.02
366.872	-0.02
367.079	-0
367.287	0.01
367.495	0.01
367.703	-0.03
367.911	-0.05
368.118	-0.02
368.326	-0.03
368.534	-0.05
368.742	0.04
368.949	-0.09
369.157	0.02
369.365	0.03
369.572	-0.04
369.78	-0.02
369.988	0.03
370.195	0.01
370.403	0.05
370.61	-0.04
370.818	0.01
371.026	0.01
371.233	-0.05
371.441	-0.02
371.648	-0.04
371.856	-0
372.063	0.01
372.271	-0.03
372.478	0.01
372.685	-0.03
372.893	0.06
373.1	-0.01
373.308	-0.04
373.515	0.04
373.722	0.04
373.93	-0.04
374.137	-0.01
374.344	0.06
374.552	-0.01
374.759	0.04
374.966	-0
375.173	-0.02
375.381	0.05
375.588	-0.02
375.795	-0.09
376.002	0.01
376.209	-0.03
376.417	-0
376.624	-0
376.831	0.01
377.038	0.01
377.245	-0.08
377.452	-0.03
377.659	0.02
377.866	-0.04
378.073	-0.01
378.28	-0.02
378.487	0.02
378.694	0.04
378.901	-0.01
379.108	-0.01
379.315	0.02
379.522	0.07
379.729	0.02
379.936	-0.02
380.143	0
380.35	0.01
380.557	-0.02
380.763	-0.04
380.97	-0.01
381.177	0.02
381.384	0.02
381.591	-0.05
381.797	-0.03
382.004	0.05
382.211	0.04
382.418	-0.02
382.624	0.02
382.831	0.02
383.038	-0.04
383.244	-0.01
383.451	-0
383.658	0.03
383.864	-0.05
384.071	-0.03
384.277	0.06
384.484	-0.04
384.69	0.01
384.897	-0.04
385.103	-0.02
385.31	-0.04
385.516	-0.06
385.723	-0.03
385.929	0.01
386.136	-0.02
386.342	0.01
386.549	-0.01
386.755	0.03
386.961	0.04
387.168	-0.03
387.374	-0.02
387.58	0.03
387.787	-0.02
387.993	0.01
388.199	-0.02
388.406	-0.01
388.612	-0.03
388.818	-0.04
389.024	-0.04
389.231	-0.01
389.437	0.06
389.643	0.03
389.849	-0.01
390.055	0.01
390.261	-0.02
390.467	0.01
390.674	-0.01
390.88	-0.03
391.086	-0.03
391.292	-0.02
391.498	0.03
391.704	-0
391.91	-0.02
392.116	-0.04
392.322	-0.07
392.528	0.01
392.734	-0.03
392.94	-0.05
393.146	-0.04
393.352	-0.01
393.557	-0.02
393.763	-0.02
393.969	0.01
394.175	0
394.381	-0.03
394.587	-0.03
394.792	-0.01
394.998	0.02
395.204	0.03
395.41	-0.03
395.615	0.03
395.821	-0.01
396.027	0.04
396.233	-0.09
396.438	0.03
396.644	0.07
396.85	0.02
397.055	-0.01
397.261	-0.03
397.466	0.06
397.672	0.01
397.878	0.01
398.083	-0.02
398.289	-0.06
398.494	0.06
398.7	0.05
398.905	-0.11
399.111	0.08
399.316	-0.04
399.522	0.02
399.727	-0.02
399.932	-0.01
400.138	-0.04
400.343	0.04
400.549	-0.02
400.754	-0.01
400.959	-0.01
401.165	-0.03
401.37	0.05
401.575	0.06
401.78	-0.02
401.986	-0.02
402.191	-0.01
402.396	-0.02
402.601	0.01
402.807	-0.04
403.012	0
403.217	0.02
403.422	0.02
403.627	-0
403.832	-0
404.037	0.04
404.243	0
404.448	-0.06
404.653	0.01
404.858	0.07
405.063	0.02
405.268	-0.02
405.473	-0.04
405.678	-0.04
405.883	0.1
406.088	0.03
406.293	-0.03
406.498	-0.05
406.703	0.05
406.907	-0.05
407.112	-0.09
407.317	-0
407.522	0.06
407.727	-0.06
407.932	-0.05
408.136	0.05
408.341	-0.02
408.546	-0.01
408.751	0.01
408.956	-0.02
409.16	0.03
409.365	-0.03
409.57	0
409.774	0
409.979	0.08
410.184	-0
410.388	-0.07
410.593	0.06
410.798	0.03
411.002	0.01
411.207	0.05
411.411	-0.01
411.616	-0.03
411.82	-0.01
412.025	0
412.229	-0.05
412.434	0.06
412.638	0.04
412.843	0.01
413.047	0.03
413.252	-0.05
413.456	-0.06
413.66	0.03
413.865	-0.01
414.069	0.07
414.273	-0.06
414.478	-0.03
414.682	-0.04
414.886	-0.03
415.091	-0.11
415.295	-0.08
415.499	0.01
415.703	-0.05
415.908	0.04
416.112	-0.09
416.316	0.06
416.52	-0.02
416.724	-0.04
416.929	-0.04
417.133	0.12
417.337	-0.03
417.541	-0.05
417.745	-0.02
417.949	0.05
418.153	0
418.357	-0.06
418.561	0.07
418.765	0
418.969	0.06
419.173	0.02
419.377	-0.03
419.581	0.07
419.785	-0.03
419.989	-0.07
420.193	-0.01
420.397	-0.09
420.601	0.01
420.804	0.03
421.008	0.01
421.212	-0
421.416	0.06
421.62	-0.02
421.823	-0.01
422.027	0.05
422.231	0.03
422.435	0.01
422.638	-0.03
422.842	0
423.046	-0.02
423.249	0.03
423.453	0.02
423.657	-0.01
423.86	0.01
424.064	-0.02
424.268	0.05
424.471	-0
424.675	0.09
424.878	0.14
425.082	-0.02
425.285	0.03
425.489	0
425.692	0.01
425.896	-0.02
426.099	0
426.303	-0
426.506	-0.06
426.71	0.01
426.913	0.03
427.116	0.05
427.32	-0.03
427.523	-0.02
427.726	0.07
427.93	-0.09
428.133	0.01
428.336	-0.01
428.54	-0.08
428.743	0.01
428.946	0.06
429.149	-0.02
429.353	0.01
429.556	-0.05
429.759	-0.03
429.962	-0.04
430.165	-0.02
430.368	-0.04
430.571	-0.06
430.775	-0.01
430.978	-0.01
431.181	0.01
431.384	0.03
431.587	-0.03
431.79	-0.01
431.993	0.01
432.196	-0.04
432.399	-0.03
432.602	0.11
432.805	0.01
433.008	-0.05
433.211	-0.07
433.414	0.02
433.616	0
433.819	-0.05
434.022	-0.13
434.225	0.05
434.428	0.02
434.631	0.09
434.833	-0
435.036	-0.03
435.239	0.05
435.442	0
435.645	-0.05
435.847	0.07
436.05	0.03
436.253	-0.02
436.455	-0.02
436.658	-0.02
436.861	0.06
437.063	-0.06
437.266	-0.01
437.468	0.05
437.671	0.07
437.874	-0.01
438.076	-0.11
438.279	-0.08
438.481	-0.02
438.684	-0.06
438.886	0.02
439.089	-0.1
439.291	0.04
439.494	-0.01
439.696	-0.1
439.899	-0
440.101	0
440.303	-0.09
440.506	0
440.708	-0.02
440.91	0.08
441.113	-0.06
441.315	0.06
441.517	-0.05
441.72	0.05
441.922	-0.04
442.124	-0.06
442.326	0.03
442.529	0.07
442.731	-0.06
442.933	0.08
443.135	-0.01
443.337	-0.04
443.539	-0.02
443.742	-0.06
443.944	0.04
444.146	-0.02
444.348	-0.02
444.55	-0.04
444.752	-0
444.954	-0.11
445.156	-0.02
445.358	-0.03
445.56	0.09
445.762	0.02
445.964	0.01
446.166	-0.04
446.368	-0.01
446.57	-0
446.772	-0
446.974	-0.02
447.175	0.01
447.377	-0.03
447.579	0.02
447.781	-0.09
447.983	0.08
448.184	-0.02
448.386	0.04
448.588	-0.07
448.79	0.03
448.991	-0.04
449.193	-0.02
449.395	0.02
449.597	-0
449.798	0.02
450	0.02
450.202	-0.02
450.403	-0
450.605	0.02
450.806	0
451.008	-0.08
451.21	-0.06
451.411	0
451.613	-0.07
451.814	-0.01
452.016	0.06
452.217	-0.02
452.419	0.07
452.62	0.01
452.821	0.05
453.023	0.05
453.224	0.03
453.426	0
453.627	-0.02
453.828	-0.03
454.03	-0.01
454.231	0.03
454.432	-0.03
454.634	0.08
454.835	-0.05
455.036	-0.08
455.238	0
455.439	0.09
455.64	-0.06
455.841	-0.02
456.042	0.13
456.244	0.07
456.445	-0.06
456.646	-0.09
456.847	-0.05
457.048	0.05
457.249	0.01
457.45	0.17
457.651	-0.05
457.852	0.12
458.054	-0.01
458.255	-0.02
458.456	0.06
458.657	0
458.858	-0.02
459.058	-0.03
459.259	0.07
459.46	0
459.661	-0.03
459.862	0.12
460.063	-0.04
460.264	0.09
460.465	-0.05
460.666	0.13
460.866	-0.01
461.067	-0
461.268	0.01
461.469	-0.05
461.67	-0.02
461.87	-0.02
462.071	-0.03
462.272	-0.05
462.473	-0.02
462.673	0.06
462.874	-0.09
463.075	0.02
463.275	-0.07
463.476	-0.01
463.676	-0
463.877	-0.01
464.078	0.01
464.278	0.06
464.479	-0.03
464.679	-0.03
464.88	0.02
465.08	0.1
465.281	-0.07
465.481	-0.01
465.682	-0.01
465.882	0.04
466.083	0.01
466.283	-0.01
466.483	-0.04
466.684	-0.08
466.884	-0.02
467.085	-0.02
467.285	0.05
467.485	-0.04
467.686	-0.01
467.886	-0.04
468.086	0.02
468.286	-0
468.487	-0.02
468.687	-0.07
468.887	0
469.087	0.07
469.287	-0.01
469.488	-0.06
469.688	0.02
469.888	-0
470.088	0.05
470.288	0.05
470.488	0.08
470.688	-0.03
470.888	-0.05
471.088	-0.06
471.288	0.03
471.488	0.07
471.688	0.05
471.888	-0.01
472.088	0.05
472.288	0.04
472.488	-0.07
472.688	-0.03
472.888	0
473.088	0.02
473.288	0.01
473.488	0.02
473.688	0.06
473.887	0.02
474.087	-0.04
474.287	-0.01
474.487	-0.02
474.687	0.02
474.886	-0.04
475.086	-0
475.286	0.02
475.486	0.01
475.685	0.02
475.885	-0.01
476.085	-0.01
476.284	0.02
476.484	-0.03
476.684	0.01
476.883	0.06
477.083	-0.01
477.282	-0.02
477.482	0.08
477.681	0.05
477.881	0.01
478.08	-0.01
478.28	-0.05
478.479	0.03
478.679	0.09
478.878	-0.02
479.078	-0.03
479.277	-0
479.477	0.02
479.676	0.01
479.875	-0.01
480.075	-0.07
480.274	0.02
480.473	0.04
480.673	0.02
480.872	0.03
481.071	0.02
481.271	0.02
481.47	0.02
481.669	-0
481.868	-0
482.067	0.01
482.267	-0.01
482.466	-0.02
482.665	-0.02
482.864	-0.03
483.063	-0.01
483.262	0.03
483.461	0.05
483.661	0.04
483.86	0.04
484.059	-0
484.258	0.02
484.457	0.01
484.656	0.01
484.855	0.05
485.054	-0.05
485.253	0.01
485.452	-0.02
485.651	0.01
485.849	0.01
486.048	-0
486.247	-0.03
486.446	0.01
486.645	-0.02
486.844	-0.01
487.043	0.02
487.241	0.05
487.44	-0
487.639	0.02
487.838	0.04
488.037	0.02
488.235	0.07
488.434	0.05
488.633	-0
488.831	0.03
489.03	0.06
489.229	0.03
489.427	0.02
489.626	0.07
489.825	0.08
490.023	0.05
490.222	0.03
490.42	0.03
490.619	0.07
490.817	0.04
491.016	0.02
491.214	0.06
491.413	0.04
491.611	0.03
491.81	0.04
492.008	0.04
492.207	0.06
492.405	0.05
492.604	0.02
492.802	0.05
493	0.03
493.199	0.04
493.397	0.04
493.595	0.04
493.794	0.04
493.992	0.1
494.19	0.05
494.388	0.06
494.587	0.05
494.785	0.07
494.983	0.04
495.181	0.07
495.379	0.04
495.578	0.05
495.776	0.07
495.974	0.08
496.172	0.05
496.37	0.08
496.568	0.04
496.766	0.05
496.964	0.09
497.162	0.09
497.36	0.06
497.558	0.1
497.756	0.1
497.954	0.09
498.152	0.06
498.35	0.11
498.548	0.08
498.746	0.09
498.944	0.05
499.142	0.08
499.34	0.07
499.538	0.1
499.736	0.08
499.933	0.13
500.131	0.12
500.329	0.12
500.527	0.14
500.725	0.13
500.922	0.15
501.12	0.13
501.318	0.12
501.516	0.11
501.713	0.14
501.911	0.12
502.109	0.12
502.306	0.15
502.504	0.14
502.701	0.13
502.899	0.15
503.097	0.23
503.294	0.16
503.492	0.17
503.689	0.17
503.887	0.19
504.084	0.24
504.282	0.2
504.479	0.14
504.677	0.21
504.874	0.17
505.072	0.19
505.269	0.21
505.466	0.24
505.664	0.22
505.861	0.19
506.059	0.21
506.256	0.27
506.453	0.21
506.651	0.3
506.848	0.27
507.045	0.26
507.242	0.25
507.44	0.23
507.637	0.28
507.834	0.28
508.031	0.31
508.229	0.27
508.426	0.27
508.623	0.32
508.82	0.27
509.017	0.28
509.214	0.31
509.411	0.33
509.608	0.32
509.805	0.34
510.003	0.33
510.2	0.34
510.397	0.39
510.594	0.34
510.791	0.36
510.988	0.37
511.184	0.37
511.381	0.4
511.578	0.38
511.775	0.44
511.972	0.39
512.169	0.42
512.366	0.42
512.563	0.45
512.76	0.45
512.956	0.46
513.153	0.45
513.35	0.48
513.547	0.46
513.744	0.47
513.94	0.44
514.137	0.5
514.334	0.51
514.53	0.46
514.727	0.54
514.924	0.58
515.12	0.5
515.317	0.52
515.514	0.53
515.71	0.54
515.907	0.57
516.103	0.57
516.3	0.59
516.497	0.59
516.693	0.63
516.89	0.59
517.086	0.58
517.283	0.64
517.479	0.6
517.676	0.64
517.872	0.62
518.068	0.63
518.265	0.63
518.461	0.62
518.658	0.62
518.854	0.65
519.05	0.65
519.247	0.66
519.443	0.68
519.639	0.7
519.836	0.64
520.032	0.66
520.228	0.7
520.424	0.75
520.621	0.7
520.817	0.69
521.013	0.71
521.209	0.72
521.405	0.77
521.601	0.7
521.798	0.68
521.994	0.76
522.19	0.64
522.386	0.66
522.582	0.71
522.778	0.74
522.974	0.66
523.17	0.72
523.366	0.69
523.562	0.74
523.758	0.72
523.954	0.66
524.15	0.68
524.346	0.72
524.542	0.71
524.738	0.69
524.934	0.71
525.129	0.73
525.325	0.68
525.521	0.66
525.717	0.72
525.913	0.68
526.109	0.71
526.304	0.71
526.5	0.71
526.696	0.7
526.892	0.66
527.087	0.69
527.283	0.68
527.479	0.68
527.674	0.63
527.87	0.66
528.066	0.63
528.261	0.68
528.457	0.66
528.653	0.62
528.848	0.61
529.044	0.66
529.239	0.61
529.435	0.63
529.63	0.6
529.826	0.63
530.021	0.59
530.217	0.62
530.412	0.6
530.608	0.58
530.803	0.6
530.999	0.57
531.194	0.56
531.389	0.57
531.585	0.54
531.78	0.57
531.975	0.56
532.171	0.58
532.366	0.54
532.561	0.54
532.757	0.49
532.952	0.52
533.147	0.52
533.342	0.48
533.538	0.48
533.733	0.52
533.928	0.47
534.123	0.48
534.318	0.45
534.513	0.45
534.709	0.48
534.904	0.46
535.099	0.45
535.294	0.45
535.489	0.47
535.684	0.45
535.879	0.42
536.074	0.44
536.269	0.41
536.464	0.44
536.659	0.43
536.854	0.4
537.049	0.41
537.244	0.41
537.439	0.4
537.634	0.41
537.828	0.39
538.023	0.38
538.218	0.34
538.413	0.36
538.608	0.33
538.803	0.39
538.997	0.31
539.192	0.38
539.387	0.36
539.582	0.34
539.776	0.35
539.971	0.33
540.166	0.33
540.36	0.29
540.555	0.33
540.75	0.35
540.944	0.32
541.139	0.29
541.334	0.29
541.528	0.3
541.723	0.32
541.917	0.28
542.112	0.26
542.306	0.28
542.501	0.28
542.695	0.32
542.89	0.26
543.084	0.29
543.279	0.26
543.473	0.28
543.668	0.28
543.862	0.28
544.056	0.27
544.251	0.26
544.445	0.26
544.64	0.23
544.834	0.23
545.028	0.23
545.222	0.26
545.417	0.27
545.611	0.23
545.805	0.23
546	0.18
546.194	0.24
546.388	0.22
546.582	0.24
546.776	0.21
546.97	0.21
547.165	0.25
547.359	0.22
547.553	0.18
547.747	0.2
547.941	0.21
548.135	0.2
548.329	0.22
548.523	0.22
548.717	0.16
548.911	0.18
549.105	0.17
549.299	0.2
549.493	0.22
549.687	0.18
549.881	0.19
550.075	0.18
550.269	0.14
550.463	0.18
550.657	0.15
550.85	0.15
551.044	0.15
551.238	0.17
551.432	0.16
551.626	0.12
551.82	0.15
552.013	0.12
552.207	0.15
552.401	0.21
552.594	0.18
552.788	0.13
552.982	0.16
553.176	0.12
553.369	0.16
553.563	0.15
553.756	0.1
553.95	0.1
554.144	0.12
554.337	0.14
554.531	0.12
554.724	0.14
554.918	0.11
555.111	0.14
555.305	0.14
555.498	0.19
555.692	0.14
555.885	0.11
556.079	0.13
556.272	0.1
556.466	0.12
556.659	0.12
556.852	0.1
557.046	0.07
557.239	0.12
557.432	0.07
557.626	0.1
557.819	0.09
558.012	0.1
558.206	0.1
558.399	0.09
558.592	0.12
558.785	0.1
558.979	0.09
559.172	0.07
559.365	0.11
559.558	0.07
559.751	0.08
559.944	0.08
560.138	0.04
560.331	0.09
560.524	0.08
560.717	0.06
560.91	0.06
561.103	0.09
561.296	0.07
561.489	0.09
561.682	0.07
561.875	0.12
562.068	0.09
562.261	0.1
562.454	0.11
562.647	0.08
562.84	0.07
563.032	0.06
563.225	0.06
563.418	0.06
563.611	0.07
563.804	0.07
563.997	0.02
564.19	0.02
564.382	0.08
564.575	0.06
564.768	0.07
564.961	0.06
565.153	0.03
565.346	0.09
565.539	0.07
565.731	0.08
565.924	0.07
566.117	0.08
566.309	0.05
566.502	0.03
566.695	0.04
566.887	0.05
567.08	0.04
567.272	0.03
567.465	0.02
567.657	0.04
567.85	0.06
568.042	0.07
568.235	0.07
568.427	0.05
568.62	0.05
568.812	0.07
569.005	0.05
569.197	-0
569.389	0.06
569.582	0.08
569.774	0.05
569.966	0.02
570.159	0
570.351	0.08
570.543	0
570.736	0.03
570.928	0
571.12	0.05
571.312	0
571.505	0.02
571.697	0.07
571.889	0.01
572.081	0.04
572.273	-0
572.465	0.04
572.658	0.03
572.85	0.05
573.042	0.02
573.234	0.03
573.426	0.08
573.618	0.01
573.81	0.03
574.002	0.06
574.194	0.06
574.386	0
574.578	-0.02
574.77	0.02
574.962	0.03
575.154	-0.02
575.346	0.03
575.538	0.01
575.729	0
575.921	-0
576.113	0.01
576.305	0.03
576.497	0
576.689	0.03
576.88	0
577.072	0.03
577.264	0
577.456	-0
577.647	-0.05
577.839	0.03
578.031	0.07
578.223	-0.02
578.414	-0.03
578.606	0.03
578.798	0.02
578.989	-0
579.181	-0.02
579.372	-0
579.564	0
579.755	0.03
579.947	0.02
580.139	0.03
580.33	-0.04
580.522	-0
580.713	-0.07
580.905	0.02
581.096	0.03
581.287	0.04
581.479	0.01
581.67	0.03
581.862	0
582.053	-0.02
582.244	-0.05
582.436	-0
582.627	-0
582.818	-0.02
583.01	-0.02
583.201	0.04
583.392	0.04
583.583	0.02
583.775	-0.01
583.966	-0.01
584.157	0.01
584.348	-0.02
584.54	-0.05
584.731	0.03
584.922	0.02
585.113	-0.01
585.304	0
585.495	0.03
585.686	0.01
585.877	0.04
586.068	0.02
586.259	0.02
586.45	0.02
586.641	-0.02
586.832	-0.06
587.023	0.02
587.214	-0.01
587.405	0
587.596	-0.02
587.787	0.04
587.978	0.05
588.169	-0.02
588.36	-0.04
588.551	0.01
588.742	-0.03
588.932	-0
589.123	0.01
589.314	0.03
589.505	0.01
589.696	-0
589.886	-0.03
590.077	-0.04
590.268	0.02
590.458	-0.02
590.649	-0.06
590.84	0.02
591.03	-0.01
591.221	-0.03
591.412	-0.03
591.602	0.02
591.793	0.05
591.984	-0.03
592.174	-0.01
592.365	0.07
592.555	-0
592.746	0.03
592.936	-0.01
593.127	0.03
593.317	0.02
593.508	-0.02
593.698	-0.02
593.889	0.01
594.079	-0.01
594.269	-0.01
594.46	-0.01
594.65	0.03
594.84	-0.01
595.031	-0.02
595.221	-0
595.411	-0.07
595.602	0.04
595.792	0.01
595.982	-0.04
596.172	0.04
596.363	-0
596.553	-0
596.743	-0.01
596.933	0.01
597.123	0.03
597.314	-0.03
597.504	-0.03
597.694	0.01
597.884	0.02
598.074	-0.01
598.264	-0.02
598.454	0.02
598.644	0.01
598.834	0.02
599.024	-0.05
599.214	-0.02
599.404	0.04
599.594	-0.02
599.784	-0.01
599.974	0.02
600.164	0.01
600.354	-0.03
600.544	-0.02
600.734	0
600.924	0.04
601.114	-0.04
601.303	0
601.493	-0.01
601.683	-0.01
601.873	-0.01
602.063	-0.04
602.252	0.03
602.442	-0.05
602.632	-0.03
602.821	-0.03
603.011	0.02
603.201	0
603.39	-0.01
603.58	-0.04
603.77	-0
603.959	0.01
604.149	0.02
604.339	-0.02
604.528	0.02
604.718	0.03
604.907	-0.02
605.097	-0.03
605.286	-0.04
605.476	0.03
605.665	0.01
605.855	-0.02
606.044	0.09
606.234	0
606.423	0.01
606.612	-0.06
606.802	-0.02
606.991	0.04
607.181	0.03
607.37	-0.03
607.559	-0.03
607.749	-0.05
607.938	-0
608.127	-0.01
608.316	-0.01
608.506	0.03
608.695	0
608.884	-0.04
609.073	-0.01
609.263	0
609.452	0.02
609.641	0.01
609.83	-0.03
610.019	-0.01
610.208	-0.03
610.397	0
610.586	0.03
610.775	-0.01
610.965	-0.02
611.154	-0.02
611.343	0.03
611.532	0.01
611.721	-0.02
611.91	-0.02
612.099	0.03
612.287	-0.02
612.476	-0.03
612.665	0
612.854	-0.03
613.043	0.03
613.232	-0.01
613.421	-0.06
613.61	0.01
613.798	-0.05
613.987	0.02
614.176	-0.03
614.365	0.02
614.554	-0
614.742	0.04
614.931	-0.02
615.12	0.03
615.309	-0.02
615.497	0.02
615.686	-0.02
615.875	-0.01
616.063	0.03
616.252	-0.01
616.44	-0.02
616.629	0
616.818	0.01
617.006	-0.02
617.195	-0.04
617.383	0
617.572	-0.01
617.76	-0.03
617.949	0.01
618.137	-0
618.326	0.05
618.514	-0.03
618.703	-0.05
618.891	0.05
619.079	-0.05
619.268	-0
619.456	-0.02
619.644	0.03
619.833	-0.03
620.021	-0.02
620.209	-0.05
620.398	0.03
620.586	-0
620.774	0.02
620.962	-0.02
621.151	0.07
621.339	-0.02
621.527	-0.07
621.715	-0.08
621.903	-0.05
622.092	-0.05
622.28	0.01
622.468	-0.03
622.656	-0
622.844	0.02
623.032	-0.02
623.22	-0.05
623.408	0
623.596	-0.01
623.784	0.02
623.972	-0.05
624.16	-0.02
624.348	0.01
624.536	-0
624.724	-0.02
624.912	0.02
625.1	0.02
625.288	-0.03
625.476	-0.04
625.664	0.02
625.851	-0.08
626.039	-0.02
626.227	0.02
626.415	0.01
626.603	-0.05
626.79	-0.01
626.978	-0.03
627.166	0
627.354	-0.03
627.541	-0.03
627.729	-0.06
627.917	0.03
628.104	0.04
628.292	-0.01
628.48	0
628.667	-0.01
628.855	-0.03
629.042	0.03
629.23	-0.01
629.418	-0.05
629.605	-0.04
629.793	-0.03
629.98	-0.05
630.168	-0.01
630.355	-0.01
630.543	-0.01
630.73	-0.05
630.917	0.01
631.105	0.03
631.292	-0.02
631.48	-0.02
631.667	0.04
631.854	0.03
632.042	-0.02
632.229	-0.07
632.416	-0.02
632.604	-0.04
632.791	-0.08
632.978	-0
633.165	0
633.353	0.05
633.54	0.04
633.727	-0.05
633.914	-0.03
634.101	-0.08
634.289	0.04
634.476	-0.05
634.663	-0.05
634.85	-0.01
635.037	-0.05
635.224	-0.08
635.411	-0.02
635.598	0.04
635.785	0.02
635.972	-0.02
636.159	0.02
636.346	-0.04
636.533	-0.02
636.72	-0
636.907	-0.01
637.094	0.02
637.281	-0.08
637.468	0
637.655	0.01
637.842	-0.03
638.029	-0.05
638.215	0.02
638.402	0
638.589	-0.06
638.776	-0
638.963	-0.04
639.149	0.03
639.336	0.05
639.523	-0.05
639.709	-0.01
639.896	-0.04
640.083	0.04
640.27	-0.01
640.456	-0.03
640.643	0
640.829	-0.06
641.016	-0.02
641.203	-0.05
641.389	0.01
641.576	0.02
641.762	-0
641.949	-0.06
642.135	0.02
642.322	-0.03
642.508	-0.06
642.695	-0.01
642.881	-0.03
643.068	-0.02
643.254	0
643.441	0.02
643.627	-0.02
643.813	-0.04
644	-0.01
644.186	-0.02
644.372	-0
644.559	0.02
644.745	-0.01
644.931	-0.03
645.118	0
645.304	-0
645.49	-0.03
645.676	-0.05
645.862	-0.01
646.049	0.03
646.235	-0.02
646.421	0.04
646.607	0.06
646.793	-0.03
646.979	-0.05
647.165	0.02
647.352	0
647.538	-0.01
647.724	-0.03
647.91	0.02
648.096	0.01
648.282	0.01
648.468	-0.01
648.654	-0.01
648.84	0.01
649.026	0.01
649.212	-0
649.397	-0.05
649.583	-0.05
649.769	-0.02
649.955	-0.01
650.141	-0.01
650.327	0.04
650.513	-0.04
650.698	0.02
650.884	-0.06
651.07	-0.01
651.256	-0.02
651.442	-0.05
651.627	-0.02
651.813	-0.01
651.999	-0
652.184	0
652.37	-0
652.556	-0.04
652.741	0.03
652.927	-0.08
653.113	-0.02
653.298	0.03
653.484	-0.03
653.669	-0.05
653.855	0.01
654.04	0.02
654.226	-0.02
654.412	-0.03
654.597	-0.06
654.782	-0.02
654.968	0.03
655.153	-0
655.339	-0.01
655.524	-0.07
655.71	-0
655.895	-0.05
656.08	-0.02
656.266	0.04
656.451	-0.01
656.636	-0.06
656.822	-0.01
657.007	-0.03
657.192	-0.03
657.378	-0.05
657.563	0
657.748	0.03
657.933	0.02
658.118	-0.04
658.304	-0.02
658.489	0.04
658.674	-0
658.859	-0.06
659.044	0.01
659.229	-0.03
659.414	-0.03
659.599	-0.01
659.785	-0.05
659.97	-0.02
660.155	0.03
660.34	0.01
660.525	-0.04
660.71	-0.03
660.895	0
661.08	-0.06
661.264	-0.03
661.449	0
661.634	0.01
661.819	0.01
662.004	-0.01
662.189	-0.08
662.374	-0.04
662.559	-0.05
662.743	-0.07
662.928	-0.02
663.113	-0.04
663.298	-0.06
663.483	-0.04
663.667	0
663.852	-0.07
664.037	0.05
664.221	-0.06
664.406	0.02
664.591	0.02
664.775	0.01
664.96	0.01
665.145	0
665.329	0.04
665.514	-0.04
665.698	-0.05
665.883	-0.08
666.068	0.05
666.252	-0
666.437	-0.07
666.621	-0.01
666.806	0
666.99	-0.06
667.174	-0.06
667.359	0.04
667.543	-0.03
667.728	0
667.912	-0.08
668.096	0.04
668.281	-0.03
668.465	-0.02
668.649	0.02
668.834	-0.08
669.018	-0.03
669.202	-0.02
669.387	-0.03
669.571	0.04
669.755	-0.07
669.939	-0.02
670.124	-0.01
670.308	0.05
670.492	-0.01
670.676	0.01
670.86	-0.03
671.044	-0.06
671.228	0.02
671.413	-0.05
671.597	-0.03
671.781	-0.06
671.965	-0.02
672.149	-0.03
672.333	-0.01
672.517	-0.08
672.701	0.03
672.885	-0.02
673.069	-0.08
673.253	0.02
673.437	-0.04
673.621	-0.11
673.804	-0.04
673.988	-0.03
674.172	0.01
674.356	-0.06
674.54	-0.02
674.724	0.09
674.908	-0.01
675.091	0.04
675.275	-0.01
675.459	0.02
675.643	0.04
675.826	0
676.01	-0.03
676.194	0.01
676.377	0
676.561	0.01
676.745	0.03
676.928	0
677.112	0.05
677.296	-0.05
677.479	-0.04
677.663	-0.05
677.846	0.06
678.03	-0
678.213	-0.05
678.397	0
678.58	-0.04
678.764	-0.02
678.947	-0
679.131	-0.06
679.314	0.03
679.498	-0.03
679.681	0.01
679.865	-0.01
680.048	-0.02
680.231	-0.02
680.415	-0.01
680.598	-0.01
680.781	-0.01
680.965	-0.02
681.148	0.01
681.331	-0.03
681.514	0.02
681.698	-0.03
681.881	0.04
682.064	-0
682.247	-0.01
682.43	-0.11
682.614	-0.01
682.797	0.03
682.98	0.01
683.163	-0.03
683.346	0.01
683.529	-0.01
683.712	-0.02
683.895	0.04
684.078	-0.07
684.261	0.01
684.444	0.01
684.627	-0.04
684.81	-0.05
684.993	-0
685.176	0.01
685.359	-0.03
685.542	-0
685.725	0.04
685.908	0
686.091	-0.06
686.274	0.02
686.457	0.02
686.639	-0.06
686.822	0
687.005	-0.01
687.188	-0.01
687.371	0.07
687.553	-0
687.736	0.04
687.919	0.05
688.102	0.06
688.284	-0.05
688.467	-0.03
688.65	-0.06
688.832	-0.05
689.015	-0
689.197	-0.1
689.38	0.07
689.563	0.09
689.745	-0.06
689.928	-0.04
690.11	-0.01
690.293	0.02
690.475	-0.08
690.658	0.02
690.84	-0.01
691.023	-0.1
691.205	-0.01
691.388	-0.09
691.57	0.02
691.752	0.03
691.935	-0.03
692.117	-0.06
692.3	0.02
692.482	-0.03
692.664	-0.01
692.847	0
693.029	0.06
693.211	-0.01
693.393	-0.04
693.576	-0.09
693.758	-0.05
693.94	-0.02
694.122	-0.03
694.304	-0.02
694.487	-0.04
694.669	0.07
694.851	-0.07
695.033	0.01
695.215	-0.04
695.397	-0.05
695.579	0.02
695.761	-0.05
695.943	-0.08
696.125	0.05
696.308	0.04
696.49	-0.12
696.671	0.11
696.853	-0.02
697.035	0.1
697.217	0.02
697.399	-0.03
697.581	-0.08
697.763	-0.05
697.945	-0.08
698.127	-0.01
698.309	0.09
698.491	0
698.672	-0.01
698.854	0.01
699.036	0.13
699.218	-0.02
699.399	0.03
699.581	-0.01
699.763	-0
699.945	-0.08
700.126	-0.04
700.308	-0.03
700.49	-0.03
700.671	-0.07
700.853	-0.04
701.035	-0.06
701.216	-0.04
701.398	-0.03
701.579	-0.03
701.761	0.07
701.943	-0.04
702.124	-0.04
702.306	0.01
702.487	0.09
702.669	-0.01
702.85	-0.07
703.031	-0.06
703.213	0.06
703.394	0.08
703.576	-0.07
703.757	0.05
703.938	0.04
704.12	0.15
704.301	-0.06
704.483	-0.03
704.664	-0
704.845	0.07
705.026	0.01
705.208	-0.03
705.389	0.01
705.57	-0.02
705.751	-0.05
705.933	-0.03
706.114	0.03
706.295	-0.02
706.476	-0.09
706.657	0.11
706.838	-0.04
707.02	0.05
707.201	-0.04
707.382	-0.04
707.563	0
707.744	-0.1
707.925	-0.08
708.106	-0.02
708.287	0.01
708.468	0.09
708.649	0.01
708.83	0.02
709.011	-0.02
709.192	0.04
709.373	-0.03
709.554	-0.02
709.734	0.01
709.915	0.01
710.096	0.01
710.277	-0.14
710.458	0
710.639	0.06
710.819	-0.12
711	-0.06
711.181	0.03
711.362	0.06
711.542	0.02
711.723	-0.05
711.904	-0.04
712.085	-0.02
712.265	0.03
712.446	-0.11
712.627	0.01
712.807	-0.01
712.988	-0
713.168	-0.06
713.349	-0.01
713.53	-0.19
713.71	-0.02
713.891	-0.08
714.071	0.01
714.252	-0.06
714.432	-0.03
714.613	-0.09
714.793	-0.04
714.974	0.1
715.154	0.1
715.334	0.02
715.515	0.04
715.695	-0.08
715.876	-0
716.056	-0.09
716.236	-0.05
716.417	-0.08
716.597	-0.07
716.777	0.13
716.957	0.04
717.138	-0
717.318	-0.05
717.498	-0.09
717.678	-0.03
717.859	0.06
718.039	-0.1
718.219	0.02
718.399	0.05
718.579	-0.03
718.759	-0.06
718.939	0.04
719.12	-0.05
719.3	0.02
719.48	-0.16
719.66	-0.16
719.84	0.1
720.02	0.04
720.2	-0.06
720.38	0.01
720.56	0.11
720.74	0.02
720.92	-0.02
721.1	0.03
721.279	0.08
721.459	-0.06
721.639	-0.06
721.819	0.02
721.999	-0.01
722.179	0.02
722.359	-0.14
722.538	-0.03
722.718	0.04
722.898	-0.13
723.078	-0.06
723.257	-0.06
723.437	-0.01
723.617	0
723.797	-0.12
723.976	-0.02
724.156	-0.02
724.336	0.09
724.515	0.14
724.695	-0.15
724.874	0.04
725.054	0.05
725.234	-0.11
725.413	-0.07
725.593	0.01
725.772	-0.05
725.952	0.03
726.131	-0.11
726.311	0
726.49	-0.02
726.67	-0.11
726.849	-0.06
727.028	0.02
727.208	-0.04
727.387	0.04
727.567	-0.06
727.746	0.01
727.925	-0.02
728.105	-0.16
728.284	-0.05
728.463	-0.03
728.643	0
728.822	-0.12
729.001	-0.06
729.18	-0.01
729.359	0.01
729.539	0.03
729.718	-0.04
729.897	0.03
730.076	-0.08
730.255	-0.17
730.434	-0.03
730.614	-0.01
730.793	0.09
730.972	-0.14
731.151	-0.09
731.33	0.09
731.509	0.02
731.688	-0.01
731.867	0.01
732.046	-0.18
732.225	0.2
732.404	0
732.583	-0.13
732.762	-0.01
732.941	0.02
733.12	-0.04
733.298	-0.14
733.477	0.08
733.656	0
733.835	-0.1
734.014	0.06
734.193	-0.12
734.371	0.07
734.55	-0.02
734.729	-0.17
734.908	0.06
735.086	0.01
735.265	0.06
735.444	-0.15
735.623	-0.15
735.801	-0.19
735.98	-0.01
736.159	-0.01
736.337	0.12
736.516	0.01
736.694	0.08
736.873	-0.06
737.052	0.11
737.23	0.13
737.409	-0.05
737.587	0.19
737.766	-0.19
737.944	-0.08
738.123	0.03
738.301	0.01
738.479	0.07
738.658	-0.03
738.836	-0.19
739.015	0.05
739.193	0.01
739.371	-0.13
739.55	-0.03
739.728	-0.02
739.906	0.19
740.085	0.13
740.263	0.02
740.441	-0.18
740.62	0.09
740.798	0.02
740.976	-0.12
741.154	-0.02
741.332	0.14
741.511	-0.14
741.689	-0
741.867	-0.01
742.045	0.08
742.223	0.05
742.401	-0.07
742.579	-0.04
742.757	-0
742.935	-0.23
743.114	-0.12
743.292	0.02
743.47	0.05
743.648	0.03
743.826	-0.15
744.004	0.01
744.181	-0.01
744.359	-0.12
744.537	0.02
744.715	0
744.893	-0.02
745.071	0.03
745.249	-0.02
745.427	-0.12
745.605	0.01
745.782	0.02
745.96	0.08
746.138	-0.02
746.316	0.14
746.493	-0.06
746.671	0.04
746.849	-0.02
747.027	-0.05
747.204	-0.12
747.382	-0.04
747.56	-0.24
747.737	-0.11
747.915	-0.08
748.093	-0.01
748.27	-0.13
748.448	0.04
748.625	-0.27
748.803	-0.06
748.98	-0.2
749.158	0.11
749.335	0.09
749.513	-0.04
749.69	-0.05
749.868	-0.03
750.045	-0.06
750.223	-0.08
750.4	-0.19
750.578	0.2
750.755	0
750.932	-0.28
751.11	0.11
751.287	-0.14
751.464	0.12
751.642	-0.1
751.819	-0.03
751.996	0.02
752.173	-0.08
752.351	-0.09
752.528	-0.09
752.705	-0.05
752.882	-0.07
753.06	-0
753.237	-0.06
753.414	0.18
753.591	0.2
753.768	0.02
753.945	-0.06
754.122	-0.04
754.299	-0.01
754.476	-0.11
754.654	0.01
754.831	0.08
755.008	0.12
755.185	-0.07
755.362	-0.18
755.539	0.12
755.716	-0.04
755.892	-0.04
756.069	-0.12
756.246	-0.11
756.423	0
756.6	0.12
756.777	-0.09
756.954	-0.01
757.131	-0.11
757.307	-0.22
757.484	-0.17
757.661	0.04
757.838	0.08
758.015	-0.09
758.191	0.01
758.368	-0.05
758.545	0.1
758.721	-0.06
758.898	-0.11
759.075	-0.02
759.251	-0.03
759.428	0.09
759.605	-0.29
759.781	-0.05
759.958	0.01
760.134	0.03
760.311	-0.08
760.488	0.06
760.664	0.11
760.841	-0.1
761.017	-0.16
761.194	-0.01
761.37	0.06
761.547	0.08
761.723	-0.05
761.899	0.11
762.076	-0
762.252	-0.15
762.429	-0.13
762.605	-0.01
762.781	0.03
762.958	0.07
763.134	-0.05
763.31	-0.12
763.486	0.1
763.663	-0.24
763.839	0.01
764.015	-0.13
764.191	0.05
764.368	0.04
764.544	-0.12
764.72	-0.02
764.896	0.07
765.072	-0.15
765.248	-0.01
765.425	-0.09
765.601	-0.01
765.777	0.08
765.953	-0.24
766.129	-0.06
766.305	-0.12
766.481	0.12
766.657	0.05
766.833	0.22
767.009	-0.2
767.185	-0.03
767.361	-0.08
767.537	-0.23
767.713	0.09
767.889	-0.14
768.065	0.04
768.24	0.08
768.416	0.12
768.592	-0.13
768.768	0.05
768.944	0.04
769.12	-0.24
769.295	-0.17
769.471	-0.13
769.647	-0.03
769.823	0.23
769.998	-0.09
770.174	-0.08
770.35	0.11
770.525	0.21
770.701	0.05
770.877	0.01
771.052	-0.05
771.228	0.04
771.403	-0.01
771.579	-0.07
771.755	0.29
771.93	-0.08
772.106	-0.26
772.281	-0.33
772.457	-0.15
772.632	-0.01
772.808	-0.11
772.983	-0.14
773.159	-0.1
773.334	0.11
773.509	0.06
773.685	-0.08
773.86	0.31
774.036	0.09
774.211	-0.05
774.386	-0.09
774.562	0
774.737	0.1
774.912	-0.09
775.087	0.09
775.263	0.17
775.438	0.03
775.613	-0.04
775.788	-0.09
775.964	0.06
776.139	0.2
776.314	-0.27
776.489	0.01
776.664	-0
776.839	-0.04
777.014	0.06
777.19	0.16
777.365	0.22
777.54	0.26
777.715	-0.11
777.89	-0.08
778.065	-0.09
778.24	-0.08
778.415	0.14
778.59	-0.26
778.765	-0.09
778.94	-0.02
779.115	-0.18
779.289	-0.13
779.464	-0.06
779.639	-0.01
779.814	-0.2
779.989	-0.22
780.164	0.28
780.339	0.05
780.513	-0.24
780.688	-0.28
780.863	0
781.038	0.05
781.212	-0.27
781.387	-0.07
781.562	0.31
781.737	-0.14
781.911	0.09
782.086	-0.31
782.261	0.02
782.435	0.3
782.61	-0.1
782.784	-0.12
782.959	0.19
783.134	-0.2
783.308	-0.36
783.483	0.05
783.657	0.49
783.832	0.12
784.006	-0.25
784.181	0.23
784.355	0.05
784.53	-0.28
784.704	-0.31
784.878	0.2
785.053	0.03
785.227	0.13
785.402	0.34
785.576	-0.28
785.75	0.05
785.925	-0.28
786.099	-0.05
786.273	0.08
786.448	0.13
786.622	0.27
786.796	-0.18
786.97	-0.1
787.145	0.24
787.319	-0.31
787.493	0.06
787.667	-0.51
787.841	-0.01
788.015	0.15
788.19	-0.05
788.364	-0.03
788.538	0.1
788.712	0.09
788.886	-0.21
789.06	0.18
789.234	0.1
789.408	-0.35
789.582	-0.22
789.756	-0.18
789.93	-0.3
790.104	-0.02
790.278	-0.07
790.452	-0.24
790.626	0.27
790.8	-0.12
790.973	0.07
791.147	0.11
791.321	0.1
791.495	0.06
791.669	0.13
791.843	-0.01
792.016	-0.09
792.19	0.3
792.364	-0.37
792.538	0.57
792.711	0.18
792.885	-0.07
793.059	-0.3
793.233	-0.5
793.406	0.17
793.58	-0.04
793.754	-0.14
793.927	-0.08
794.101	0.24
794.274	-0.24
794.448	0.23
794.622	-0.36
794.795	0.29
794.969	-0.25
795.142	0.27
795.316	-0.07
795.489	-0.11
795.663	0.11
795.836	0.09
796.009	-0.41
796.183	0.3
796.356	-0.23
796.53	0.09
796.703	-0.07
796.876	0.41
797.05	0.03
797.223	-0.29
797.396	-0.02
797.57	0.26
797.743	0.3
797.916	0.09
798.09	-0
798.263	0.33
798.436	0.25
798.609	-0.02
798.782	0.01
798.956	0.16
799.129	-0.16
799.302	-0.15
799.475	-0.19
799.648	-0.09
799.821	-0.25
799.994	-0.04
800.167	-0.18
800.34	0.1
800.514	-0.15
800.687	0.01
800.86	-0.23
801.033	0.03
801.206	0.11
801.379	-0.42
801.551	0.3
801.724	0.21
801.897	0.23
802.07	-0.08
802.243	-0.36
802.416	-0.09
802.589	-0.09
802.762	-0.06
802.935	0.1
803.107	-0.05
803.28	-0
803.453	0.23
803.626	-0.53
803.798	0.09
803.971	-0.2
804.144	0.26
804.317	-0.09
804.489	0.05
804.662	-0.06
804.835	-0.02
805.007	-0.39
805.18	0.33
805.353	0.12
805.525	-0.39
805.698	-0.04
805.87	0.27
806.043	0.07
806.215	-0.36
806.388	-0.1
806.56	0.05
806.733	0.2
806.905	0.16
807.078	-0.35
807.25	-0.31
807.423	0.26
807.595	0.03
807.768	0.07
807.94	0.2
808.112	0.19
808.285	-0.02
808.457	-0.41
808.629	-0.14
808.802	-0.35
808.974	-0.1
809.146	0.08
809.318	-0.23
809.491	-0.04
809.663	-0.07
809.835	-0.09
810.007	0.4
810.18	-0.06
810.352	-0.62
810.524	-0.1
810.696	-0.05
810.868	0.51
811.04	-0.05
811.212	0.02
811.384	0.31
811.556	0.24
811.728	-0.04
811.901	0.64
812.073	-0.22
812.245	0.4
812.417	-0.16
812.589	-0.68
812.76	0.16
812.932	-0.07
813.104	0.12
813.276	0.07
813.448	0.18
813.62	0.12
813.792	-0.08
813.964	-0.16
814.136	0.22
814.307	-0.38
814.479	-0.32
814.651	-0.24
814.823	0.95
814.995	-0.05
815.166	0.15
815.338	-0.49
815.51	-0.53
815.681	0.63
815.853	-0.23
816.025	-0.08
816.196	-0.35
816.368	0.24
816.54	-0.36
816.711	-0.44
816.883	0.07
817.054	0.56
817.226	-0.51
817.398	-0.07
817.569	-0.64
817.741	-0.24
817.912	0.06
818.084	-0.29
818.255	0.41
818.426	-0.12
818.598	-0.36
818.769	-0.37
818.941	0.43
819.112	0.84
819.283	-0.09
819.455	-0.42
819.626	-0.19
819.798	0.18
819.969	-0.08
820.14	-0.23
820.311	-0.17
820.483	0.27
820.654	0.06
820.825	-0.25
820.996	-0.14
821.168	-0.36
821.339	-0.11
821.51	-0.69
821.681	0.82
821.852	0.17
822.023	-0.45
822.195	-0.26
822.366	0.06
822.537	0
822.708	0.13
822.879	-0.03
823.05	0.92
823.221	-0.33
823.392	0.23
823.563	-0.38
823.734	0.13
823.905	0.01
824.076	-0.55
824.247	-0.31
824.418	-0.08
824.589	0.76
824.759	-0
824.93	-0.22
825.101	-0.38
825.272	0.62
825.443	0.62
825.614	0.74
825.784	-0.93
825.955	0.55
826.126	0.57
826.297	-0.19
826.467	0.91
826.638	1.32
826.809	-0.82
826.98	-0.1
827.15	-0.21
827.321	-0.27
827.492	0.45
827.662	-0.09
827.833	1.26
828.003	-0.09
828.174	-0.57
828.345	-0.66
828.515	0.89
828.686	-0.25
828.856	-0.03
829.027	-0.08
829.197	0.31
829.368	0.35
829.538	-0.27
829.709	-0.07
829.879	0.49
830.049	-0.41
830.22	-0.61
830.39	-0.35
830.56	0.88
830.731	-0.38
830.901	-1.05
831.072	-0.72
831.242	0.05
831.412	0.35
831.582	-0.05
831.753	-0.77
831.923	0.18
832.093	-0.01
832.263	-0.22
832.434	-0.81
832.604	-0.55
832.774	0.17
832.944	0.03
833.114	-0.85
833.284	0.59
833.454	-0.89
833.624	-0.98
833.795	-0.37
833.965	0.52
834.135	0.99
834.305	-1.22
834.475	-0.95
834.645	-0.3
834.815	-0.22
834.985	-0.73
835.155	-0.66
835.325	0.3
835.494	0.34
835.664	-0.16
835.834	-1.06
836.004	-0.29
836.174	0.18
836.344	0.05
836.514	-1.22
836.684	-0.22
836.853	-0.3
837.023	-0.13
837.193	-0.42
837.363	0.67
837.532	0.37
837.702	-0.68
837.872	-0.46
838.041	0.81
838.211	1.27
838.381	-0.87
838.55	-0.04
838.72	1.97
838.89	0.69
839.059	-0.33
839.229	-0.82
839.398	1.22
839.568	-0.35
839.738	-0.38
839.907	0.78
840.077	0.13
840.246	-0.48
840.416	-0.7
840.585	-0.99
840.755	1.2
840.924	0.82
841.093	0.17
841.263	-0.51
841.432	-0.37
841.602	-0.64
841.771	-1.03
841.94	-0.15
842.11	1.6
842.279	2.08
842.448	-0.63
842.617	-0.27
842.787	0.95
842.956	-0.95
843.125	-0.05
843.294	-0.37
843.464	1.19
843.633	-0.53
843.802	-1.12
843.971	0.11
844.14	0.48
844.309	0.17
844.479	-1.27
844.648	-1.64
844.817	-0.33
844.986	-0.14
845.155	-0.44
845.324	-0.42
845.493	-0.69
845.662	-0.84
845.831	0.46
846	0.16
846.169	-0.79
846.338	0.64
846.507	-0.02
846.676	0.02
846.844	-1.02
847.013	1.02
847.182	-0.44
847.351	-0.16
847.52	0.04
847.689	-0.19
847.858	-0.77
848.026	-1.22
848.195	-0.53
848.364	0.06
848.533	-1.08
848.701	-0.63
848.87	0.07
849.039	0.69
849.207	0.11
849.376	1.38
849.545	1.29
849.713	-0.63
849.882	0.16
850.051	-0.56
850.219	0.51
850.388	0.36
850.556	-0.52
850.725	-0.68
850.893	0.31
851.062	-0.32
851.23	0.67
851.399	-1.86
851.567	-0.27
851.736	-1.19
851.904	-1.36
852.073	-0.19
852.241	0.78
852.41	-0.5
852.578	-0.01
852.746	-0.81
852.915	0.18
853.083	-0.59
853.251	-1.68
853.42	-0.38
853.588	-0.16
853.756	1.22
853.924	0.16
854.093	-0.51
854.261	-0.43
854.429	-1.36
854.597	0.26
854.765	-0.88
854.934	0.98
855.102	1.29
855.27	-0.84
855.438	0.25
855.606	0.85
855.774	1.51
855.942	-0.81
856.11	-0.71
856.278	1.19
856.446	0.27
856.614	-0.41
856.782	-1.18
856.95	0.64
857.118	-0.15
857.286	0.52
857.454	-0.41
857.622	0.68
857.79	0.4
857.958	-1.89
858.126	0.02
858.294	-3.48
858.462	-0.33
858.629	-1.41
858.797	-1.34
858.965	1.2
859.133	-0.5
859.301	-1.05
859.468	0.23
859.636	0.03
859.804	1.24
859.971	-0.08
860.139	-0.47
860.307	1.37
860.474	-0.13
860.642	-0.56
860.81	-0.65
860.977	-0.48
861.145	1.82
861.313	-0.14
861.48	-0.46
861.648	0.86
861.815	-1.24
861.983	-0.81
862.15	-0.53
862.318	0.13
862.485	1.37
862.653	-0.82
862.82	-1.39
862.988	0.76
863.155	1.04
863.322	-1.11
863.49	-2.09
863.657	-1.28
863.824	1.64
863.992	0.34
864.159	-0.46
864.326	2.2
864.494	-0.81
864.661	1.75
864.828	-1.52
864.996	1.34
865.163	2.85
865.33	-1.5
865.497	-2.55
865.664	-1.3
865.832	-1.38
865.999	-0.86
866.166	-2.79
866.333	-1.71
866.5	-2.45
866.667	-0.05
866.834	-0.83
867.001	0.8
867.168	-1.54
867.335	-0.9
867.502	-1.92
867.669	0.17
867.836	1.43
868.003	-0.47
868.17	0.91
868.337	0.34
868.504	1.74
868.671	-1.27
868.838	-1.77
869.005	0.16
869.172	1
869.339	0.4
869.505	-1
869.672	-1.1
869.839	2.15
870.006	1.03
870.173	-1.9
870.339	-0.39
870.506	2.04
870.673	-1.24
870.84	2.09
871.006	-2.2
871.173	-1.54
871.34	0.63
871.506	-2.64
871.673	-0.06
871.839	-1.86
872.006	-0.68
872.173	-2.25
872.339	-0.77
872.506	1.76
872.672	-1.14
872.839	-1.49
873.005	-0.58
873.172	3.44
873.338	-0.79
873.505	0.06
873.671	-2
873.838	0.53
874.004	-3.38
874.171	-1.26
874.337	0.73
874.503	1.91
874.67	-1.34
874.836	-1.17
875.002	1.17
875.169	1.33
875.335	0.13
875.501	-1.66
875.668	-2.83
875.834	-0.83
876	-0.29
876.166	-0.1
876.332	1.23
876.499	2.7
876.665	-0.16
876.831	0.06
876.997	3.45
877.163	0.08
877.329	-0.63
877.495	0.36
877.662	0.85
877.828	-1.07
877.994	0.62
878.16	-3.1
878.326	0.19
878.492	0.38
878.658	-0.81
878.824	-0.59
878.99	1.1
879.156	-1.71
879.322	2.27
879.487	-1.19
879.653	1.17
879.819	0.4
879.985	-1.46
880.151	-0.14
880.317	0.03
880.483	-0.09
880.648	0.14
880.814	-2.44
880.98	-0.59
881.146	-2.6
881.312	-1.49
881.477	-1.23
881.643	0.08
881.809	1.06
881.974	0.97
882.14	-1.85
882.306	-0.18
882.471	2.38
882.637	1.08
882.803	-0.25
882.968	3.17
883.134	3.5
883.299	0.98
883.465	0.72
883.63	1.74
883.796	-0.59
883.961	-0.22
884.127	-0.03
884.292	-3.87
884.458	-3.32
884.623	-3.31
