Data from Apollo_Calib_20240827__AbsoluteIrradiance__722__11-11-00-716.txt Node

Date: Wed Aug 28 11:11:00 BST 2024
User: biology
Spectrometer: FLMT08252
Trigger mode: 0
Integration Time (sec): 5.000000E-1
Scans to average: 5
Electric dark correction enabled: true
Nonlinearity correction enabled: false
Boxcar width: 0
XAxis mode: Wavelengths
Number of Pixels in Spectrum: 3648
>>>>>Begin Spectral Data<<<<<
179.588	-0
179.809	-0
180.03	-0
180.251	-0
180.473	-0
180.694	0
180.915	0
181.136	-0
181.357	0
181.578	-0
181.799	0
182.02	-0
182.241	0
182.462	-0
182.683	0
182.904	-0
183.125	-0
183.346	-0
183.567	0
183.788	0
184.009	-0
184.23	0
184.451	0
184.672	0
184.892	-0
185.113	0
185.334	0
185.555	-0
185.776	0
185.996	0
186.217	0
186.438	0
186.659	-0
186.879	0
187.1	-0
187.321	-0
187.541	-0
187.762	0
187.983	0
188.203	0
188.424	0
188.644	0
188.865	0
189.086	0
189.306	0
189.527	0
189.747	0
189.968	-0
190.188	0
190.409	0
190.629	0
190.849	0
191.07	-0
191.29	0
191.511	0
191.731	0
191.951	-0
192.172	0
192.392	0
192.612	-0
192.833	0
193.053	0
193.273	0
193.493	-0
193.714	0
193.934	0
194.154	0
194.374	0
194.594	0
194.815	0
195.035	0
195.255	0
195.475	0
195.695	0
195.915	0
196.135	0
196.355	0
196.575	0
196.795	0
197.015	0
197.235	0
197.455	0
197.675	0
197.895	0
198.115	-0
198.335	0
198.555	0
198.775	0
198.995	0
199.214	0
199.434	0
199.654	0
199.874	0
200.094	1.63
200.313	-0.2
200.533	0.4
200.753	0.05
200.973	1.33
201.192	1
201.412	-0.39
201.632	-0.01
201.851	1.08
202.071	0.09
202.291	-0.03
202.51	0.1
202.73	1.16
202.95	0.46
203.169	-0.16
203.389	0.45
203.608	0.78
203.828	-0.01
204.047	-0.13
204.267	0.68
204.486	0.54
204.706	0.6
204.925	0.07
205.145	-0.18
205.364	0.62
205.583	0.65
205.803	0.19
206.022	-0.21
206.242	0.41
206.461	0.27
206.68	0.02
206.9	0.27
207.119	0.86
207.338	0.72
207.557	-0.01
207.777	0.09
207.996	0.44
208.215	0.78
208.434	-0.13
208.654	-0.17
208.873	0.52
209.092	0.67
209.311	0.14
209.53	0.38
209.749	0.65
209.968	-0.16
210.187	0.3
210.407	-0.31
210.626	0
210.845	0.55
211.064	0.37
211.283	-0.19
211.502	0.68
211.721	0.31
211.94	0.2
212.159	0.36
212.377	0.41
212.596	0.68
212.815	0.24
213.034	0.27
213.253	0.43
213.472	0.47
213.691	-0.04
213.91	-0.04
214.128	0.15
214.347	0.56
214.566	-0.21
214.785	-0.19
215.003	0.35
215.222	0.38
215.441	0.1
215.66	-0.15
215.878	0.22
216.097	0.3
216.316	0.03
216.534	-0.09
216.753	0.35
216.972	0.15
217.19	0.1
217.409	0.05
217.627	-0.12
217.846	0.08
218.064	0.26
218.283	0.08
218.501	0.78
218.72	0.35
218.938	-0.03
219.157	0.17
219.375	0.22
219.594	0.57
219.812	0.03
220.031	-0.06
220.249	0.49
220.467	0.4
220.686	-0.04
220.904	-0.07
221.122	0.02
221.341	0.31
221.559	0.29
221.777	-0.05
221.995	0.31
222.214	0.28
222.432	-0
222.65	0.31
222.868	0.28
223.086	0.16
223.305	0.36
223.523	0.16
223.741	0.41
223.959	-0.09
224.177	-0.08
224.395	-0.11
224.613	0.24
224.831	0.32
225.049	0.01
225.267	0.04
225.485	0.19
225.703	0.07
225.921	0.17
226.139	0.05
226.357	0.28
226.575	0.19
226.793	-0.01
227.011	0.78
227.229	0.2
227.447	0.27
227.665	0.21
227.883	-0.15
228.1	0.09
228.318	0.22
228.536	-0.1
228.754	-0.04
228.972	0.13
229.189	0.19
229.407	0.07
229.625	0.1
229.843	0.3
230.06	0.15
230.278	0.04
230.496	0.14
230.713	0.06
230.931	0.23
231.149	0.15
231.366	-0.11
231.584	0.1
231.801	0.4
232.019	0.03
232.236	0.01
232.454	-0.07
232.671	0.16
232.889	0.09
233.106	-0.05
233.324	0.03
233.541	0.16
233.759	0.19
233.976	-0.03
234.194	0.14
234.411	0.15
234.628	0.03
234.846	0.06
235.063	0.08
235.28	0.15
235.498	0.09
235.715	0.01
235.932	0.18
236.149	0.2
236.367	0.12
236.584	0.17
236.801	0.08
237.018	0.19
237.236	0.03
237.453	-0.1
237.67	0.19
237.887	0.1
238.104	0.09
238.321	-0.04
238.538	0.01
238.755	0.07
238.973	-0.03
239.19	0.1
239.407	0.14
239.624	0.09
239.841	-0.02
240.058	0
240.275	0.1
240.492	0.03
240.709	0.09
240.925	0.08
241.142	0.1
241.359	-0.02
241.576	0.02
241.793	0.05
242.01	0.11
242.227	0.15
242.444	0.16
242.66	0.18
242.877	0.13
243.094	-0.06
243.311	0.09
243.527	0.03
243.744	0.17
243.961	0.16
244.178	0.06
244.394	0.01
244.611	0.23
244.828	0.28
245.044	-0.04
245.261	0.01
245.477	0.11
245.694	0.09
245.911	0.06
246.127	0.1
246.344	0.19
246.56	0.19
246.777	0.15
246.993	0.05
247.21	0.17
247.426	0.2
247.643	0.1
247.859	0.02
248.076	0.03
248.292	0.26
248.508	-0.01
248.725	0.14
248.941	0.12
249.157	0.26
249.374	0.04
249.59	0.05
249.806	0.12
250.023	0.26
250.239	0.02
250.455	0.03
250.671	0.1
250.888	0.11
251.104	0.11
251.32	-0
251.536	0.14
251.752	0.06
251.969	0.12
252.185	0.06
252.401	0.3
252.617	0.1
252.833	0.03
253.049	0.05
253.265	0.08
253.481	0.2
253.697	-0
253.913	-0.05
254.129	0.15
254.345	0.12
254.561	-0
254.777	0.1
254.993	0.11
255.209	0.04
255.425	0.07
255.641	-0.01
255.857	0.19
256.073	0.06
256.288	0.02
256.504	0.01
256.72	0.11
256.936	0.24
257.152	0
257.367	0.05
257.583	0.04
257.799	0.15
258.015	0.08
258.23	0.05
258.446	0.2
258.662	0.05
258.877	-0.02
259.093	0.05
259.309	0.08
259.524	0.17
259.74	0.04
259.955	-0.09
260.171	0.12
260.387	0.04
260.602	0.14
260.818	0.08
261.033	0.05
261.249	0.03
261.464	0.04
261.68	-0
261.895	0.08
262.11	0.16
262.326	0.09
262.541	-0.02
262.757	0.16
262.972	0.16
263.187	0.07
263.403	0.06
263.618	0.16
263.833	0.01
264.049	-0.01
264.264	0.08
264.479	0.03
264.694	0.22
264.91	-0.01
265.125	0.04
265.34	0.18
265.555	0.25
265.77	0.09
265.986	0.03
266.201	0.13
266.416	0.16
266.631	0.01
266.846	0.03
267.061	0.14
267.276	0.18
267.491	-0.08
267.706	0.12
267.921	0.09
268.136	0.09
268.351	0.04
268.566	-0.04
268.781	0.2
268.996	0.15
269.211	0.06
269.426	-0
269.641	0.04
269.856	0.15
270.071	0.02
270.285	-0.01
270.5	0.18
270.715	0.17
270.93	0.05
271.145	0.09
271.359	0.12
271.574	-0.01
271.789	0.06
272.004	0.07
272.218	0.06
272.433	0.13
272.648	0
272.862	0.06
273.077	0.07
273.292	0.07
273.506	0.01
273.721	-0.01
273.936	0.11
274.15	0.1
274.365	0.09
274.579	0.13
274.794	0.1
275.008	0.17
275.223	-0.02
275.437	0.06
275.652	0.12
275.866	0.08
276.081	0.11
276.295	0.11
276.509	0.09
276.724	0.06
276.938	0.1
277.153	0.09
277.367	0.13
277.581	0.02
277.796	0.01
278.01	0.03
278.224	0.16
278.438	0.26
278.653	-0.03
278.867	0.09
279.081	0.14
279.295	0.07
279.51	0.05
279.724	-0.07
279.938	0.09
280.152	0.11
280.366	0.03
280.58	0.08
280.794	0.14
281.008	0.12
281.222	0.07
281.437	0.19
281.651	0.05
281.865	0.14
282.079	0.08
282.293	-0.03
282.507	0.02
282.721	0.13
282.935	0.08
283.148	-0.02
283.362	0.04
283.576	-0.02
283.79	0.07
284.004	-0.02
284.218	0.09
284.432	0.03
284.646	0.09
284.859	0.05
285.073	0.03
285.287	0.01
285.501	0.06
285.714	0.1
285.928	0.05
286.142	0.06
286.356	0.03
286.569	0.04
286.783	0.15
286.997	0.13
287.21	0.1
287.424	0.06
287.637	0.06
287.851	0.07
288.065	0.09
288.278	0.04
288.492	0.06
288.705	0.08
288.919	0.07
289.132	-0.03
289.346	0.08
289.559	-0.01
289.773	0.03
289.986	0.08
290.2	0.06
290.413	0.07
290.626	-0.01
290.84	0.07
291.053	0.08
291.267	0.14
291.48	0.08
291.693	0.06
291.906	0.05
292.12	0.02
292.333	-0.01
292.546	0.04
292.76	0.18
292.973	0.08
293.186	0.09
293.399	0.05
293.612	0.12
293.826	0.05
294.039	0.06
294.252	0.07
294.465	0.06
294.678	0.14
294.891	0.06
295.104	0.02
295.317	0.11
295.53	0.04
295.743	0.03
295.956	0.07
296.169	0.1
296.382	0.09
296.595	0.05
296.808	0.01
297.021	0.13
297.234	0.11
297.447	0.05
297.66	0.07
297.873	0.04
298.086	0.08
298.299	0.01
298.511	-0.03
298.724	0.05
298.937	-0.03
299.15	0.05
299.363	0.03
299.575	0.13
299.788	0.13
300.001	0.04
300.213	0.08
300.426	0.09
300.639	0.03
300.852	0.01
301.064	0.13
301.277	0.11
301.489	0.12
301.702	0.06
301.915	0.08
302.127	0.06
302.34	0.09
302.552	0.13
302.765	0.05
302.977	0.12
303.19	0.02
303.402	0.03
303.615	0.06
303.827	0.03
304.04	0.05
304.252	0.11
304.464	0.06
304.677	0.17
304.889	0.1
305.102	0.01
305.314	0.07
305.526	0.1
305.739	0.07
305.951	0.02
306.163	0.05
306.375	0.13
306.588	0
306.8	0.03
307.012	-0
307.224	0.09
307.436	0.12
307.649	-0.06
307.861	0.08
308.073	0.09
308.285	0.02
308.497	0.03
308.709	0.04
308.921	0.09
309.133	0.08
309.346	0.04
309.558	0.05
309.77	0.09
309.982	0.1
310.194	0.12
310.406	0.01
310.617	0.16
310.829	0.06
311.041	0.07
311.253	0.01
311.465	0.03
311.677	0.03
311.889	0.06
312.101	0.04
312.313	0.12
312.524	0.1
312.736	0.02
312.948	0.05
313.16	0.14
313.372	0.08
313.583	0.09
313.795	0.03
314.007	0.03
314.218	0.08
314.43	0.06
314.642	0.02
314.853	-0.01
315.065	0.08
315.277	0.08
315.488	0.08
315.7	0.12
315.912	0.13
316.123	0.05
316.335	0.05
316.546	0.13
316.758	0.04
316.969	-0
317.181	0.05
317.392	0.07
317.604	0.1
317.815	-0
318.026	-0.01
318.238	0.04
318.449	0.09
318.661	-0.01
318.872	0.04
319.083	0.01
319.295	0.11
319.506	0.02
319.717	0.08
319.929	0.08
320.14	0.02
320.351	0.11
320.562	0.05
320.774	0.06
320.985	0.08
321.196	0.04
321.407	-0.01
321.618	0.11
321.829	0.06
322.041	0.09
322.252	0.03
322.463	0.09
322.674	0.07
322.885	0.02
323.096	0.06
323.307	0.02
323.518	0.07
323.729	0.01
323.94	0.01
324.151	0.07
324.362	0.05
324.573	0.06
324.784	0.03
324.995	0.11
325.206	0.05
325.417	0.04
325.628	0.03
325.838	0.03
326.049	0.06
326.26	0.08
326.471	0.06
326.682	0.1
326.892	0.04
327.103	0
327.314	0.02
327.525	0.08
327.735	0.07
327.946	0.08
328.157	0.01
328.368	0.07
328.578	0.07
328.789	0.05
328.999	0.08
329.21	0.03
329.421	0.07
329.631	0.01
329.842	0.04
330.052	0.08
330.263	0.1
330.473	0.05
330.684	0
330.894	0.06
331.105	0.08
331.315	0.07
331.526	0
331.736	0.14
331.947	0.07
332.157	0.08
332.367	0
332.578	0.08
332.788	0.13
332.999	0.08
333.209	0.09
333.419	-0.01
333.629	0.08
333.84	0.09
334.05	0.04
334.26	0.14
334.47	0.06
334.681	0.11
334.891	0.03
335.101	0.14
335.311	0.16
335.521	0.08
335.732	-0.03
335.942	0.12
336.152	0.13
336.362	0.04
336.572	0.11
336.782	0.12
336.992	0.04
337.202	0.02
337.412	0.02
337.622	0.11
337.832	0.03
338.042	0.04
338.252	0.09
338.462	0.1
338.672	0.07
338.882	-0.01
339.092	0.07
339.302	0.14
339.511	0.08
339.721	0.01
339.931	-0
340.141	0.12
340.351	0.14
340.561	0.07
340.77	0.09
340.98	0.05
341.19	0.11
341.4	0.07
341.609	-0.02
341.819	0.05
342.029	0.03
342.238	0.04
342.448	0.01
342.658	0.12
342.867	0.09
343.077	0.05
343.286	0.06
343.496	0.08
343.706	0.16
343.915	0.01
344.125	0
344.334	0.1
344.544	0.01
344.753	0.06
344.963	0.04
345.172	0.07
345.381	0.04
345.591	0.02
345.8	0.09
346.01	0.14
346.219	0.11
346.428	-0.12
346.638	0.05
346.847	0.02
347.056	0.11
347.266	0.03
347.475	0.1
347.684	0.09
347.893	0.07
348.103	0.07
348.312	0.02
348.521	0.06
348.73	0.06
348.94	0.07
349.149	0.04
349.358	0.06
349.567	0.04
349.776	-0.04
349.985	0.06
350.194	0.08
350.403	0.07
350.612	0.04
350.821	0.06
351.03	0.05
351.239	0.02
351.448	0.06
351.657	0.03
351.866	0.13
352.075	0.04
352.284	0.12
352.493	0.04
352.702	0.07
352.911	0.08
353.12	0.04
353.329	0.04
353.538	0.09
353.746	0.07
353.955	0.04
354.164	0.05
354.373	0.05
354.582	0.09
354.79	0.06
354.999	0.1
355.208	0.03
355.416	0.11
355.625	0.02
355.834	-0.01
356.042	0.04
356.251	0.03
356.46	0.04
356.668	0.11
356.877	0.12
357.085	0.12
357.294	-0.01
357.503	0.07
357.711	0.04
357.92	0.19
358.128	0.05
358.337	0.05
358.545	0.06
358.754	0.01
358.962	0.1
359.17	0.04
359.379	0.06
359.587	0.07
359.796	0.02
360.004	0.11
360.212	0.09
360.421	0.15
360.629	0.01
360.837	0.07
361.046	0.12
361.254	0.18
361.462	0.05
361.67	0.04
361.879	0.03
362.087	0.1
362.295	0.03
362.503	0.06
362.711	0.01
362.92	-0.03
363.128	0.03
363.336	0.01
363.544	-0.05
363.752	0
363.96	0.04
364.168	0.02
364.376	0.1
364.584	0.06
364.792	0.1
365	0.04
365.208	0.04
365.416	0.07
365.624	0.05
365.832	0.03
366.04	0.15
366.248	0.05
366.456	0.09
366.664	0.07
366.872	0.03
367.079	0.02
367.287	0.05
367.495	0.04
367.703	0.04
367.911	0.04
368.118	0.05
368.326	0.09
368.534	0.03
368.742	0.15
368.949	-0.01
369.157	0.02
369.365	0.11
369.572	0.05
369.78	0.04
369.988	0.11
370.195	0.07
370.403	0.08
370.61	0.06
370.818	0.07
371.026	0.12
371.233	0.05
371.441	0.09
371.648	0.07
371.856	0.05
372.063	0.06
372.271	0.06
372.478	0.05
372.685	0.04
372.893	0.12
373.1	0.03
373.308	0.04
373.515	0.14
373.722	0.08
373.93	0.05
374.137	0.08
374.344	0.15
374.552	0.12
374.759	0.09
374.966	0.02
375.173	0.03
375.381	0.13
375.588	0.06
375.795	-0.01
376.002	0.04
376.209	0.02
376.417	0.04
376.624	0.04
376.831	0.09
377.038	0.02
377.245	0.01
377.452	0.02
377.659	0.02
377.866	0.03
378.073	0.06
378.28	0.05
378.487	0.08
378.694	0.06
378.901	0.06
379.108	0.04
379.315	0.12
379.522	0.13
379.729	0.09
379.936	0.06
380.143	0.06
380.35	0.11
380.557	0.07
380.763	0.08
380.97	0.06
381.177	0.07
381.384	0.07
381.591	0.02
381.797	0.08
382.004	0.07
382.211	0.07
382.418	-0
382.624	0.12
382.831	0.11
383.038	0.04
383.244	0.09
383.451	0.08
383.658	0.14
383.864	0.02
384.071	0.03
384.277	0.12
384.484	0.06
384.69	0.13
384.897	0.01
385.103	0.04
385.31	0.03
385.516	0.07
385.723	0.01
385.929	0.04
386.136	0.04
386.342	0.07
386.549	0.04
386.755	0.1
386.961	0.08
387.168	0.01
387.374	0.09
387.58	0.08
387.787	0.03
387.993	0.12
388.199	0.08
388.406	0.06
388.612	0.1
388.818	0.07
389.024	0.05
389.231	0.03
389.437	0.09
389.643	0.09
389.849	0.03
390.055	0.04
390.261	0.09
390.467	0.06
390.674	-0.01
390.88	0.07
391.086	0.06
391.292	0.02
391.498	0.11
391.704	0.05
391.91	0.07
392.116	0.04
392.322	-0.01
392.528	0.07
392.734	0.09
392.94	0.09
393.146	0.03
393.352	0.09
393.557	0.05
393.763	0.06
393.969	0.09
394.175	0.06
394.381	0.07
394.587	0.05
394.792	0.03
394.998	0.07
395.204	0.11
395.41	0.05
395.615	0.13
395.821	0.07
396.027	0.07
396.233	0.03
396.438	0.12
396.644	0.13
396.85	0.13
397.055	0.05
397.261	0.08
397.466	0.1
397.672	0.09
397.878	0.14
398.083	0.09
398.289	0.03
398.494	0.09
398.7	0.07
398.905	0.01
399.111	0.17
399.316	0.03
399.522	0.09
399.727	0.11
399.932	0.08
400.138	0.06
400.343	0.11
400.549	0.11
400.754	0.09
400.959	0.1
401.165	0.07
401.37	0.09
401.575	0.14
401.78	0.11
401.986	0.08
402.191	0.08
402.396	0.07
402.601	0.15
402.807	0.11
403.012	0.11
403.217	0.11
403.422	0.1
403.627	0.08
403.832	0.03
404.037	0.09
404.243	0.12
404.448	0.05
404.653	0.06
404.858	0.12
405.063	0.14
405.268	0.08
405.473	0.11
405.678	0.06
405.883	0.25
406.088	0.12
406.293	0.08
406.498	0.08
406.703	0.1
406.907	0.11
407.112	0.06
407.317	0.16
407.522	0.16
407.727	0.04
407.932	0.1
408.136	0.2
408.341	0.14
408.546	0.17
408.751	0.14
408.956	0.13
409.16	0.18
409.365	0.14
409.57	0.11
409.774	0.14
409.979	0.19
410.184	0.18
410.388	0.08
410.593	0.2
410.798	0.14
411.002	0.09
411.207	0.17
411.411	0.21
411.616	0.1
411.82	0.2
412.025	0.2
412.229	0.19
412.434	0.29
412.638	0.22
412.843	0.14
413.047	0.21
413.252	0.15
413.456	0.25
413.66	0.25
413.865	0.18
414.069	0.3
414.273	0.22
414.478	0.23
414.682	0.26
414.886	0.28
415.091	0.26
415.295	0.2
415.499	0.3
415.703	0.27
415.908	0.35
416.112	0.2
416.316	0.35
416.52	0.33
416.724	0.28
416.929	0.35
417.133	0.48
417.337	0.36
417.541	0.36
417.745	0.41
417.949	0.5
418.153	0.48
418.357	0.45
418.561	0.58
418.765	0.44
418.969	0.62
419.173	0.58
419.377	0.56
419.581	0.68
419.785	0.53
419.989	0.61
420.193	0.64
420.397	0.61
420.601	0.7
420.804	0.74
421.008	0.69
421.212	0.82
421.416	0.77
421.62	0.75
421.823	0.79
422.027	0.85
422.231	0.86
422.435	0.82
422.638	0.84
422.842	0.85
423.046	0.84
423.249	0.92
423.453	0.88
423.657	0.99
423.86	0.99
424.064	1.01
424.268	1.1
424.471	1.07
424.675	1.21
424.878	1.14
425.082	1.15
425.285	1.25
425.489	1.28
425.692	1.27
425.896	1.24
426.099	1.31
426.303	1.28
426.506	1.32
426.71	1.42
426.913	1.48
427.116	1.46
427.32	1.49
427.523	1.52
427.726	1.67
427.93	1.53
428.133	1.67
428.336	1.64
428.54	1.69
428.743	1.8
428.946	1.9
429.149	1.85
429.353	1.88
429.556	1.88
429.759	1.91
429.962	1.87
430.165	1.97
430.368	1.86
430.571	1.89
430.775	1.89
430.978	1.79
431.181	1.91
431.384	1.97
431.587	1.93
431.79	2.05
431.993	2.05
432.196	2
432.399	2.08
432.602	2.18
432.805	2.16
433.008	2.33
433.211	2.26
433.414	2.4
433.616	2.4
433.819	2.29
434.022	2.37
434.225	2.52
434.428	2.48
434.631	2.68
434.833	2.52
435.036	2.61
435.239	2.69
435.442	2.67
435.645	2.64
435.847	2.76
436.05	2.84
436.253	2.91
436.455	2.83
436.658	2.86
436.861	2.96
437.063	2.96
437.266	3.02
437.468	3.06
437.671	3.28
437.874	3.21
438.076	3.09
438.279	3.25
438.481	3.23
438.684	3.4
438.886	3.45
439.089	3.41
439.291	3.45
439.494	3.61
439.696	3.61
439.899	3.83
440.101	3.91
440.303	3.93
440.506	4.2
440.708	4.07
440.91	4.19
441.113	4.19
441.315	4.42
441.517	4.3
441.72	4.48
441.922	4.4
442.124	4.39
442.326	4.59
442.529	4.58
442.731	4.66
442.933	4.75
443.135	4.69
443.337	4.62
443.539	4.96
443.742	4.72
443.944	4.94
444.146	4.86
444.348	5
444.55	4.91
444.752	5.04
444.954	5
445.156	5.02
445.358	5.11
445.56	5.25
445.762	5.23
445.964	5.35
446.166	5.3
446.368	5.27
446.57	5.34
446.772	5.19
446.974	5.16
447.175	5.38
447.377	5.24
447.579	5.34
447.781	5.2
447.983	5.22
448.184	5.1
448.386	5.26
448.588	4.97
448.79	5.13
448.991	5.17
449.193	5.2
449.395	5.04
449.597	5
449.798	4.82
450	4.78
450.202	4.76
450.403	4.74
450.605	4.72
450.806	4.64
451.008	4.51
451.21	4.5
451.411	4.37
451.613	4.13
451.814	4.22
452.016	4.16
452.217	4.01
452.419	3.99
452.62	3.85
452.821	3.83
453.023	3.81
453.224	3.68
453.426	3.51
453.627	3.26
453.828	3.31
454.03	3.36
454.231	3.33
454.432	3.19
454.634	3.2
454.835	2.99
455.036	2.96
455.238	2.92
455.439	2.85
455.64	2.72
455.841	2.64
456.042	2.76
456.244	2.66
456.445	2.49
456.646	2.37
456.847	2.39
457.048	2.34
457.249	2.41
457.45	2.51
457.651	2.12
457.852	2.11
458.054	2.02
458.255	2.02
458.456	2.01
458.657	1.96
458.858	1.81
459.058	1.85
459.259	1.85
459.46	1.78
459.661	1.75
459.862	1.91
460.063	1.7
460.264	1.77
460.465	1.56
460.666	1.74
460.866	1.55
461.067	1.46
461.268	1.48
461.469	1.47
461.67	1.47
461.87	1.41
462.071	1.43
462.272	1.35
462.473	1.37
462.673	1.47
462.874	1.39
463.075	1.37
463.275	1.35
463.476	1.36
463.676	1.31
463.877	1.35
464.078	1.33
464.278	1.35
464.479	1.28
464.679	1.3
464.88	1.25
465.08	1.25
465.281	1.17
465.481	1.19
465.682	1.12
465.882	1.17
466.083	1.15
466.283	1.08
466.483	1.08
466.684	0.99
466.884	0.99
467.085	0.92
467.285	1.02
467.485	0.95
467.686	0.91
467.886	0.85
468.086	0.92
468.286	0.91
468.487	0.97
468.687	0.83
468.887	0.89
469.087	0.92
469.287	0.87
469.488	0.76
469.688	0.87
469.888	0.86
470.088	0.84
470.288	0.85
470.488	0.8
470.688	0.74
470.888	0.69
471.088	0.7
471.288	0.78
471.488	0.77
471.688	0.74
471.888	0.63
472.088	0.77
472.288	0.66
472.488	0.67
472.688	0.65
472.888	0.69
473.088	0.69
473.288	0.66
473.488	0.61
473.688	0.75
473.887	0.66
474.087	0.62
474.287	0.63
474.487	0.56
474.687	0.64
474.886	0.62
475.086	0.58
475.286	0.61
475.486	0.64
475.685	0.57
475.885	0.56
476.085	0.58
476.284	0.59
476.484	0.57
476.684	0.56
476.883	0.65
477.083	0.57
477.282	0.5
477.482	0.57
477.681	0.59
477.881	0.52
478.08	0.54
478.28	0.5
478.479	0.55
478.679	0.62
478.878	0.51
479.078	0.48
479.277	0.56
479.477	0.53
479.676	0.58
479.875	0.49
480.075	0.44
480.274	0.56
480.473	0.53
480.673	0.48
480.872	0.59
481.071	0.54
481.271	0.52
481.47	0.49
481.669	0.49
481.868	0.5
482.067	0.48
482.267	0.47
482.466	0.51
482.665	0.49
482.864	0.47
483.063	0.47
483.262	0.55
483.461	0.52
483.661	0.58
483.86	0.52
484.059	0.56
484.258	0.52
484.457	0.5
484.656	0.51
484.855	0.57
485.054	0.47
485.253	0.47
485.452	0.45
485.651	0.54
485.849	0.5
486.048	0.48
486.247	0.5
486.446	0.57
486.645	0.51
486.844	0.52
487.043	0.53
487.241	0.54
487.44	0.52
487.639	0.57
487.838	0.56
488.037	0.56
488.235	0.61
488.434	0.55
488.633	0.51
488.831	0.59
489.03	0.6
489.229	0.6
489.427	0.58
489.626	0.6
489.825	0.61
490.023	0.61
490.222	0.58
490.42	0.61
490.619	0.63
490.817	0.62
491.016	0.62
491.214	0.69
491.413	0.65
491.611	0.61
491.81	0.63
492.008	0.67
492.207	0.68
492.405	0.68
492.604	0.65
492.802	0.64
493	0.69
493.199	0.7
493.397	0.69
493.595	0.74
493.794	0.68
493.992	0.76
494.19	0.74
494.388	0.77
494.587	0.72
494.785	0.77
494.983	0.7
495.181	0.75
495.379	0.77
495.578	0.78
495.776	0.79
495.974	0.82
496.172	0.8
496.37	0.84
496.568	0.81
496.766	0.83
496.964	0.86
497.162	0.88
497.36	0.83
497.558	0.86
497.756	0.93
497.954	0.89
498.152	0.95
498.35	0.96
498.548	0.94
498.746	0.93
498.944	0.91
499.142	0.92
499.34	0.95
499.538	1.03
499.736	0.97
499.933	1.01
500.131	1.05
500.329	1.07
500.527	1.06
500.725	1.08
500.922	1.1
501.12	1.07
501.318	1.09
501.516	1.1
501.713	1.13
501.911	1.1
502.109	1.08
502.306	1.16
502.504	1.13
502.701	1.15
502.899	1.14
503.097	1.27
503.294	1.19
503.492	1.23
503.689	1.26
503.887	1.24
504.084	1.31
504.282	1.27
504.479	1.2
504.677	1.33
504.874	1.27
505.072	1.28
505.269	1.31
505.466	1.36
505.664	1.38
505.861	1.32
506.059	1.34
506.256	1.41
506.453	1.4
506.651	1.46
506.848	1.4
507.045	1.44
507.242	1.41
507.44	1.41
507.637	1.48
507.834	1.45
508.031	1.52
508.229	1.42
508.426	1.47
508.623	1.51
508.82	1.52
509.017	1.5
509.214	1.48
509.411	1.54
509.608	1.5
509.805	1.58
510.003	1.55
510.2	1.58
510.397	1.63
510.594	1.59
510.791	1.59
510.988	1.63
511.184	1.62
511.381	1.56
511.578	1.64
511.775	1.71
511.972	1.63
512.169	1.65
512.366	1.69
512.563	1.76
512.76	1.74
512.956	1.78
513.153	1.71
513.35	1.72
513.547	1.68
513.744	1.75
513.94	1.74
514.137	1.77
514.334	1.75
514.53	1.78
514.727	1.87
514.924	1.87
515.12	1.79
515.317	1.82
515.514	1.83
515.71	1.75
515.907	1.87
516.103	1.88
516.3	1.82
516.497	1.89
516.693	1.92
516.89	1.87
517.086	1.86
517.283	1.9
517.479	1.86
517.676	1.95
517.872	1.93
518.068	1.91
518.265	1.9
518.461	1.92
518.658	1.93
518.854	1.97
519.05	1.94
519.247	2
519.443	1.97
519.639	2.01
519.836	1.94
520.032	1.95
520.228	1.99
520.424	2.06
520.621	2.02
520.817	2.03
521.013	2.01
521.209	2.07
521.405	2.08
521.601	2.04
521.798	2
521.994	2.1
522.19	2.01
522.386	2.03
522.582	2.03
522.778	2.11
522.974	2.05
523.17	2.05
523.366	2.02
523.562	2.12
523.758	2.09
523.954	2.07
524.15	2.09
524.346	2.15
524.542	2.09
524.738	2.07
524.934	2.16
525.129	2.11
525.325	2.08
525.521	2.08
525.717	2.19
525.913	2.15
526.109	2.14
526.304	2.12
526.5	2.18
526.696	2.15
526.892	2.12
527.087	2.18
527.283	2.17
527.479	2.2
527.674	2.13
527.87	2.16
528.066	2.18
528.261	2.16
528.457	2.16
528.653	2.19
528.848	2.19
529.044	2.21
529.239	2.2
529.435	2.2
529.63	2.19
529.826	2.22
530.021	2.18
530.217	2.23
530.412	2.22
530.608	2.18
530.803	2.2
530.999	2.17
531.194	2.15
531.389	2.22
531.585	2.17
531.78	2.26
531.975	2.25
532.171	2.24
532.366	2.22
532.561	2.25
532.757	2.21
532.952	2.3
533.147	2.23
533.342	2.23
533.538	2.21
533.733	2.33
533.928	2.2
534.123	2.23
534.318	2.26
534.513	2.23
534.709	2.27
534.904	2.26
535.099	2.26
535.294	2.29
535.489	2.28
535.684	2.28
535.879	2.23
536.074	2.3
536.269	2.24
536.464	2.27
536.659	2.26
536.854	2.29
537.049	2.31
537.244	2.29
537.439	2.23
537.634	2.28
537.828	2.31
538.023	2.3
538.218	2.27
538.413	2.27
538.608	2.26
538.803	2.28
538.997	2.28
539.192	2.32
539.387	2.26
539.582	2.28
539.776	2.27
539.971	2.32
540.166	2.31
540.36	2.24
540.555	2.3
540.75	2.33
540.944	2.3
541.139	2.31
541.334	2.31
541.528	2.28
541.723	2.36
541.917	2.31
542.112	2.22
542.306	2.29
542.501	2.3
542.695	2.3
542.89	2.27
543.084	2.31
543.279	2.28
543.473	2.33
543.668	2.33
543.862	2.29
544.056	2.28
544.251	2.32
544.445	2.36
544.64	2.35
544.834	2.21
545.028	2.22
545.222	2.33
545.417	2.39
545.611	2.32
545.805	2.3
546	2.24
546.194	2.3
546.388	2.33
546.582	2.28
546.776	2.28
546.97	2.32
547.165	2.28
547.359	2.33
547.553	2.31
547.747	2.3
547.941	2.35
548.135	2.31
548.329	2.33
548.523	2.34
548.717	2.3
548.911	2.3
549.105	2.28
549.299	2.28
549.493	2.32
549.687	2.27
549.881	2.37
550.075	2.32
550.269	2.27
550.463	2.35
550.657	2.32
550.85	2.32
551.044	2.29
551.238	2.36
551.432	2.32
551.626	2.32
551.82	2.32
552.013	2.29
552.207	2.33
552.401	2.38
552.594	2.33
552.788	2.3
552.982	2.33
553.176	2.28
553.369	2.38
553.563	2.31
553.756	2.31
553.95	2.34
554.144	2.31
554.337	2.36
554.531	2.27
554.724	2.35
554.918	2.33
555.111	2.35
555.305	2.32
555.498	2.32
555.692	2.32
555.885	2.32
556.079	2.29
556.272	2.31
556.466	2.35
556.659	2.31
556.852	2.32
557.046	2.28
557.239	2.32
557.432	2.32
557.626	2.33
557.819	2.35
558.012	2.35
558.206	2.36
558.399	2.36
558.592	2.32
558.785	2.29
558.979	2.37
559.172	2.33
559.365	2.35
559.558	2.3
559.751	2.3
559.944	2.41
560.138	2.33
560.331	2.33
560.524	2.36
560.717	2.34
560.91	2.34
561.103	2.31
561.296	2.26
561.489	2.36
561.682	2.34
561.875	2.4
562.068	2.38
562.261	2.31
562.454	2.39
562.647	2.35
562.84	2.34
563.032	2.31
563.225	2.29
563.418	2.3
563.611	2.36
563.804	2.35
563.997	2.27
564.19	2.24
564.382	2.31
564.575	2.33
564.768	2.28
564.961	2.36
565.153	2.31
565.346	2.31
565.539	2.39
565.731	2.32
565.924	2.37
566.117	2.39
566.309	2.36
566.502	2.33
566.695	2.31
566.887	2.34
567.08	2.32
567.272	2.33
567.465	2.27
567.657	2.32
567.85	2.33
568.042	2.31
568.235	2.34
568.427	2.31
568.62	2.3
568.812	2.28
569.005	2.33
569.197	2.27
569.389	2.31
569.582	2.36
569.774	2.29
569.966	2.25
570.159	2.29
570.351	2.29
570.543	2.29
570.736	2.29
570.928	2.22
571.12	2.31
571.312	2.29
571.505	2.21
571.697	2.32
571.889	2.26
572.081	2.31
572.273	2.26
572.465	2.33
572.658	2.29
572.85	2.3
573.042	2.29
573.234	2.28
573.426	2.29
573.618	2.26
573.81	2.32
574.002	2.27
574.194	2.27
574.386	2.24
574.578	2.18
574.77	2.25
574.962	2.28
575.154	2.23
575.346	2.28
575.538	2.27
575.729	2.24
575.921	2.31
576.113	2.32
576.305	2.31
576.497	2.3
576.689	2.23
576.88	2.21
577.072	2.29
577.264	2.24
577.456	2.29
577.647	2.22
577.839	2.3
578.031	2.28
578.223	2.23
578.414	2.17
578.606	2.27
578.798	2.29
578.989	2.25
579.181	2.26
579.372	2.27
579.564	2.25
579.755	2.22
579.947	2.24
580.139	2.24
580.33	2.17
580.522	2.23
580.713	2.16
580.905	2.23
581.096	2.27
581.287	2.25
581.479	2.23
581.67	2.29
581.862	2.2
582.053	2.23
582.244	2.14
582.436	2.27
582.627	2.21
582.818	2.17
583.01	2.19
583.201	2.28
583.392	2.19
583.583	2.21
583.775	2.16
583.966	2.17
584.157	2.17
584.348	2.24
584.54	2.16
584.731	2.18
584.922	2.17
585.113	2.13
585.304	2.21
585.495	2.19
585.686	2.22
585.877	2.23
586.068	2.14
586.259	2.18
586.45	2.2
586.641	2.12
586.832	2.14
587.023	2.13
587.214	2.15
587.405	2.21
587.596	2.11
587.787	2.19
587.978	2.19
588.169	2.12
588.36	2.13
588.551	2.14
588.742	2.13
588.932	2.18
589.123	2.07
589.314	2.22
589.505	2.11
589.696	2.12
589.886	2.12
590.077	2.07
590.268	2.12
590.458	2.04
590.649	2.01
590.84	2.11
591.03	2.09
591.221	2.07
591.412	2
591.602	2.16
591.793	2.09
591.984	2.08
592.174	2.06
592.365	2.17
592.555	2.03
592.746	2.06
592.936	2.08
593.127	2.12
593.317	2.12
593.508	2.08
593.698	2.02
593.889	2.07
594.079	2.03
594.269	1.99
594.46	2.03
594.65	2.05
594.84	2.03
595.031	1.98
595.221	2.04
595.411	2
595.602	1.99
595.792	1.99
595.982	1.96
596.172	2.07
596.363	1.98
596.553	1.98
596.743	2
596.933	2.02
597.123	2.01
597.314	1.94
597.504	1.95
597.694	2.01
597.884	1.99
598.074	1.97
598.264	1.99
598.454	1.92
598.644	1.94
598.834	1.97
599.024	1.87
599.214	1.94
599.404	1.95
599.594	1.9
599.784	1.87
599.974	1.93
600.164	1.95
600.354	1.89
600.544	1.87
600.734	1.89
600.924	1.91
601.114	1.88
601.303	1.92
601.493	1.9
601.683	1.85
601.873	1.91
602.063	1.83
602.252	1.89
602.442	1.81
602.632	1.82
602.821	1.83
603.011	1.87
603.201	1.81
603.39	1.82
603.58	1.81
603.77	1.86
603.959	1.86
604.149	1.83
604.339	1.82
604.528	1.85
604.718	1.86
604.907	1.8
605.097	1.74
605.286	1.75
605.476	1.8
605.665	1.82
605.855	1.81
606.044	1.86
606.234	1.79
606.423	1.72
606.612	1.75
606.802	1.76
606.991	1.76
607.181	1.78
607.37	1.74
607.559	1.73
607.749	1.75
607.938	1.72
608.127	1.73
608.316	1.74
608.506	1.69
608.695	1.73
608.884	1.66
609.073	1.69
609.263	1.75
609.452	1.71
609.641	1.71
609.83	1.63
610.019	1.7
610.208	1.67
610.397	1.65
610.586	1.68
610.775	1.62
610.965	1.66
611.154	1.62
611.343	1.67
611.532	1.62
611.721	1.67
611.91	1.61
612.099	1.67
612.287	1.6
612.476	1.53
612.665	1.64
612.854	1.6
613.043	1.63
613.232	1.6
613.421	1.5
613.61	1.6
613.798	1.59
613.987	1.63
614.176	1.56
614.365	1.58
614.554	1.56
614.742	1.64
614.931	1.49
615.12	1.59
615.309	1.54
615.497	1.51
615.686	1.47
615.875	1.5
616.063	1.5
616.252	1.49
616.44	1.52
616.629	1.49
616.818	1.49
617.006	1.5
617.195	1.46
617.383	1.49
617.572	1.48
617.76	1.46
617.949	1.46
618.137	1.53
618.326	1.46
618.514	1.44
618.703	1.39
618.891	1.47
619.079	1.38
619.268	1.44
619.456	1.42
619.644	1.5
619.833	1.37
620.021	1.41
620.209	1.35
620.398	1.45
620.586	1.39
620.774	1.42
620.962	1.39
621.151	1.46
621.339	1.38
621.527	1.38
621.715	1.34
621.903	1.33
622.092	1.32
622.28	1.37
622.468	1.34
622.656	1.39
622.844	1.36
623.032	1.37
623.22	1.25
623.408	1.41
623.596	1.32
623.784	1.34
623.972	1.27
624.16	1.3
624.348	1.38
624.536	1.33
624.724	1.24
624.912	1.31
625.1	1.36
625.288	1.3
625.476	1.23
625.664	1.29
625.851	1.24
626.039	1.28
626.227	1.28
626.415	1.26
626.603	1.18
626.79	1.27
626.978	1.28
627.166	1.27
627.354	1.24
627.541	1.2
627.729	1.11
627.917	1.29
628.104	1.24
628.292	1.26
628.48	1.21
628.667	1.23
628.855	1.22
629.042	1.24
629.23	1.13
629.418	1.17
629.605	1.17
629.793	1.16
629.98	1.11
630.168	1.14
630.355	1.18
630.543	1.15
630.73	1.11
630.917	1.2
631.105	1.2
631.292	1.19
631.48	1.14
631.667	1.2
631.854	1.11
632.042	1.11
632.229	1.08
632.416	1.15
632.604	1.11
632.791	1.06
632.978	1.11
633.165	1.1
633.353	1.17
633.54	1.1
633.727	1.01
633.914	1.05
634.101	1.07
634.289	1.11
634.476	1.04
634.663	1.03
634.85	1.11
635.037	1.04
635.224	0.97
635.411	1.09
635.598	1.06
635.785	1.03
635.972	1.01
636.159	1.05
636.346	0.99
636.533	1.01
636.72	1.01
636.907	1.01
637.094	1.05
637.281	0.95
637.468	0.98
637.655	0.98
637.842	0.96
638.029	0.96
638.215	1.01
638.402	0.96
638.589	0.9
638.776	0.98
638.963	0.92
639.149	0.97
639.336	1.01
639.523	0.95
639.709	0.92
639.896	0.92
640.083	0.98
640.27	0.95
640.456	0.93
640.643	0.94
640.829	0.86
641.016	0.92
641.203	0.87
641.389	0.94
641.576	0.92
641.762	0.91
641.949	0.86
642.135	0.92
642.322	0.92
642.508	0.82
642.695	0.84
642.881	0.88
643.068	0.86
643.254	0.82
643.441	0.91
643.627	0.85
643.813	0.79
644	0.91
644.186	0.78
644.372	0.87
644.559	0.87
644.745	0.84
644.931	0.78
645.118	0.83
645.304	0.85
645.49	0.78
645.676	0.76
645.862	0.78
646.049	0.87
646.235	0.81
646.421	0.9
646.607	0.86
646.793	0.78
646.979	0.74
647.165	0.81
647.352	0.77
647.538	0.82
647.724	0.75
647.91	0.78
648.096	0.79
648.282	0.76
648.468	0.76
648.654	0.75
648.84	0.78
649.026	0.78
649.212	0.72
649.397	0.7
649.583	0.71
649.769	0.77
649.955	0.69
650.141	0.73
650.327	0.78
650.513	0.68
650.698	0.69
650.884	0.62
651.07	0.75
651.256	0.68
651.442	0.67
651.627	0.66
651.813	0.7
651.999	0.69
652.184	0.72
652.37	0.68
652.556	0.66
652.741	0.7
652.927	0.58
653.113	0.67
653.298	0.67
653.484	0.65
653.669	0.63
653.855	0.64
654.04	0.69
654.226	0.68
654.412	0.65
654.597	0.62
654.782	0.64
654.968	0.68
655.153	0.61
655.339	0.61
655.524	0.59
655.71	0.64
655.895	0.62
656.08	0.61
656.266	0.67
656.451	0.64
656.636	0.57
656.822	0.6
657.007	0.55
657.192	0.6
657.378	0.56
657.563	0.6
657.748	0.62
657.933	0.59
658.118	0.54
658.304	0.56
658.489	0.66
658.674	0.61
658.859	0.56
659.044	0.55
659.229	0.57
659.414	0.58
659.599	0.56
659.785	0.55
659.97	0.56
660.155	0.58
660.34	0.59
660.525	0.54
660.71	0.58
660.895	0.62
661.08	0.53
661.264	0.49
661.449	0.58
661.634	0.57
661.819	0.58
662.004	0.56
662.189	0.47
662.374	0.52
662.559	0.51
662.743	0.44
662.928	0.53
663.113	0.49
663.298	0.47
663.483	0.49
663.667	0.53
663.852	0.47
664.037	0.54
664.221	0.47
664.406	0.53
664.591	0.56
664.775	0.53
664.96	0.5
665.145	0.49
665.329	0.51
665.514	0.45
665.698	0.45
665.883	0.42
666.068	0.52
666.252	0.43
666.437	0.44
666.621	0.46
666.806	0.49
666.99	0.46
667.174	0.41
667.359	0.55
667.543	0.42
667.728	0.45
667.912	0.38
668.096	0.49
668.281	0.43
668.465	0.44
668.649	0.43
668.834	0.42
669.018	0.46
669.202	0.42
669.387	0.42
669.571	0.51
669.755	0.37
669.939	0.45
670.124	0.42
670.308	0.49
670.492	0.44
670.676	0.45
670.86	0.42
671.044	0.37
671.228	0.45
671.413	0.35
671.597	0.4
671.781	0.4
671.965	0.45
672.149	0.42
672.333	0.37
672.517	0.38
672.701	0.43
672.885	0.39
673.069	0.3
673.253	0.43
673.437	0.38
673.621	0.38
673.804	0.44
673.988	0.41
674.172	0.36
674.356	0.43
674.54	0.38
674.724	0.48
674.908	0.36
675.091	0.41
675.275	0.41
675.459	0.41
675.643	0.43
675.826	0.31
676.01	0.37
676.194	0.33
676.377	0.38
676.561	0.4
676.745	0.37
676.928	0.37
677.112	0.41
677.296	0.34
677.479	0.35
677.663	0.35
677.846	0.33
678.03	0.35
678.213	0.32
678.397	0.41
678.58	0.33
678.764	0.36
678.947	0.31
679.131	0.25
679.314	0.42
679.498	0.33
679.681	0.34
679.865	0.4
680.048	0.31
680.231	0.31
680.415	0.32
680.598	0.33
680.781	0.31
680.965	0.31
681.148	0.38
681.331	0.37
681.514	0.31
681.698	0.28
681.881	0.33
682.064	0.39
682.247	0.34
682.43	0.23
682.614	0.31
682.797	0.34
682.98	0.36
683.163	0.25
683.346	0.34
683.529	0.27
683.712	0.24
683.895	0.36
684.078	0.25
684.261	0.32
684.444	0.35
684.627	0.35
684.81	0.28
684.993	0.27
685.176	0.36
685.359	0.27
685.542	0.3
685.725	0.39
685.908	0.3
686.091	0.27
686.274	0.33
686.457	0.33
686.639	0.26
686.822	0.29
687.005	0.27
687.188	0.27
687.371	0.33
687.553	0.32
687.736	0.31
687.919	0.33
688.102	0.34
688.284	0.22
688.467	0.28
688.65	0.24
688.832	0.26
689.015	0.23
689.197	0.24
689.38	0.36
689.563	0.3
689.745	0.24
689.928	0.19
690.11	0.23
690.293	0.28
690.475	0.19
690.658	0.31
690.84	0.23
691.023	0.26
691.205	0.22
691.388	0.28
691.57	0.32
691.752	0.28
691.935	0.18
692.117	0.19
692.3	0.28
692.482	0.23
692.664	0.26
692.847	0.28
693.029	0.29
693.211	0.27
693.393	0.23
693.576	0.17
693.758	0.23
693.94	0.27
694.122	0.24
694.304	0.2
694.487	0.22
694.669	0.28
694.851	0.21
695.033	0.27
695.215	0.24
695.397	0.19
695.579	0.31
695.761	0.17
695.943	0.19
696.125	0.35
696.308	0.25
696.49	0.13
696.671	0.38
696.853	0.22
697.035	0.36
697.217	0.19
697.399	0.26
697.581	0.16
697.763	0.21
697.945	0.16
698.127	0.24
698.309	0.32
698.491	0.2
698.672	0.25
698.854	0.23
699.036	0.25
699.218	0.25
699.399	0.27
699.581	0.26
699.763	0.21
699.945	0.19
700.126	0.13
700.308	0.27
700.49	0.21
700.671	0.09
700.853	0.11
701.035	0.19
701.216	0.17
701.398	0.15
701.579	0.2
701.761	0.22
701.943	0.14
702.124	0.13
702.306	0.2
702.487	0.32
702.669	0.21
702.85	0.14
703.031	0.15
703.213	0.33
703.394	0.28
703.576	0.18
703.757	0.29
703.938	0.24
704.12	0.33
704.301	0.21
704.483	0.23
704.664	0.19
704.845	0.28
705.026	0.24
705.208	0.19
705.389	0.12
705.57	0.21
705.751	0.2
705.933	0.22
706.114	0.29
706.295	0.21
706.476	0.15
706.657	0.29
706.838	0.24
707.02	0.23
707.201	0.18
707.382	0.13
707.563	0.24
707.744	0.11
707.925	0.09
708.106	0.16
708.287	0.18
708.468	0.29
708.649	0.13
708.83	0.21
709.011	0.12
709.192	0.23
709.373	0.03
709.554	0.14
709.734	0.21
709.915	0.18
710.096	0.22
710.277	0.07
710.458	0.16
710.639	0.19
710.819	0.05
711	0.17
711.181	0.23
711.362	0.23
711.542	0.17
711.723	0.14
711.904	0.23
712.085	0.19
712.265	0.13
712.446	0.08
712.627	0.19
712.807	0.15
712.988	0.17
713.168	0.14
713.349	0.17
713.53	-0.02
713.71	0.13
713.891	0.09
714.071	0.18
714.252	0.17
714.432	0.12
714.613	0.06
714.793	0.19
714.974	0.18
715.154	0.18
715.334	0.17
715.515	0.24
715.695	0.07
715.876	0.11
716.056	0.17
716.236	0.17
716.417	0.13
716.597	0.08
716.777	0.32
716.957	0.16
717.138	0.11
717.318	0.1
717.498	0.04
717.678	0.14
717.859	0.12
718.039	0.01
718.219	0.18
718.399	0.21
718.579	0.03
718.759	0.06
718.939	0.16
719.12	0.14
719.3	0.14
719.48	-0.01
719.66	0.1
719.84	0.16
720.02	0.14
720.2	0.04
720.38	0.19
720.56	0.25
720.74	0.11
720.92	0.09
721.1	0.18
721.279	0.22
721.459	0.18
721.639	0.03
721.819	0.22
721.999	0.12
722.179	0.18
722.359	0.04
722.538	0.13
722.718	0.09
722.898	0.16
723.078	0.14
723.257	0.09
723.437	0.13
723.617	0.18
723.797	0.13
723.976	0.13
724.156	0.11
724.336	0.19
724.515	0.35
724.695	0.06
724.874	0.12
725.054	0.23
725.234	0.04
725.413	0.16
725.593	0.11
725.772	0.08
725.952	0.13
726.131	0.07
726.311	0.08
726.49	0.08
726.67	0.07
726.849	0.08
727.028	0.18
727.208	0.11
727.387	0.18
727.567	-0.01
727.746	0.21
727.925	0.04
728.105	0.03
728.284	0.05
728.463	-0.03
728.643	0.11
728.822	-0.03
729.001	0.07
729.18	0.14
729.359	0.12
729.539	0.14
729.718	0.1
729.897	0.21
730.076	0.11
730.255	0.03
730.434	0.1
730.614	0.16
730.793	0.15
730.972	0.08
731.151	0.21
731.33	0.19
731.509	0.12
731.688	0.09
731.867	0.13
732.046	-0.08
732.225	0.32
732.404	0.04
732.583	0.06
732.762	0.07
732.941	0.16
733.12	0.08
733.298	0.11
733.477	0.25
733.656	0.05
733.835	0.02
734.014	0.16
734.193	0.13
734.371	0.17
734.55	0.17
734.729	0
734.908	0.17
735.086	0.22
735.265	0.16
735.444	-0.01
735.623	0.04
735.801	0.08
735.98	0.08
736.159	0.13
736.337	0.2
736.516	0.17
736.694	0.1
736.873	0.05
737.052	0.12
737.23	0.22
737.409	-0.02
737.587	0.24
737.766	-0.04
737.944	0.02
738.123	0.24
738.301	0.18
738.479	0.09
738.658	0.04
738.836	-0.1
739.015	0.24
739.193	0.16
739.371	-0.03
739.55	0.14
739.728	-0.01
739.906	0.27
740.085	0.24
740.263	0.12
740.441	-0.07
740.62	0.25
740.798	0.14
740.976	-0.03
741.154	0.02
741.332	0.37
741.511	0.11
741.689	0.23
741.867	0.18
742.045	0.16
742.223	0.04
742.401	-0.06
742.579	0.04
742.757	0.12
742.935	0.1
743.114	0.03
743.292	0.1
743.47	0.15
743.648	0.03
743.826	0.2
744.004	0.15
744.181	0.16
744.359	0.04
744.537	0.07
744.715	0.18
744.893	0.18
745.071	0.04
745.249	0.03
745.427	0.04
745.605	0.1
745.782	0.06
745.96	0.11
746.138	0.1
746.316	0.14
746.493	0.03
746.671	0.17
746.849	-0.01
747.027	0.21
747.204	0.03
747.382	0.15
747.56	-0.08
747.737	0.13
747.915	0.04
748.093	0.14
748.27	0.05
748.448	0.04
748.625	-0.04
748.803	0.04
748.98	0.04
749.158	0.12
749.335	0.08
749.513	-0.04
749.69	0.08
749.868	0.17
750.045	0.21
750.223	-0.03
750.4	-0.07
750.578	0.25
750.755	0.01
750.932	-0.05
751.11	0.19
751.287	0.02
751.464	0.26
751.642	-0.12
751.819	-0.05
751.996	0.14
752.173	0.04
752.351	-0.09
752.528	0.03
752.705	0.04
752.882	0.04
753.06	0.13
753.237	0.13
753.414	0.24
753.591	0.24
753.768	0.04
753.945	0.11
754.122	0.01
754.299	0.23
754.476	-0.03
754.654	0.09
754.831	0.08
755.008	0.17
755.185	-0.02
755.362	0.04
755.539	0.09
755.716	0
755.892	-0.01
756.069	0.11
756.246	0.1
756.423	-0.03
756.6	0.19
756.777	0.01
756.954	0.14
757.131	0.01
757.307	-0.08
757.484	0.04
757.661	0.09
757.838	0.05
758.015	-0.02
758.191	0.14
758.368	0.15
758.545	0.24
758.721	0.11
758.898	-0.06
759.075	0.13
759.251	0.08
759.428	0.15
759.605	-0.11
759.781	0.06
759.958	0.14
760.134	0.14
760.311	0.01
760.488	0.13
760.664	0.21
760.841	0.08
761.017	0.01
761.194	0.01
761.37	0.1
761.547	0.05
761.723	0.08
761.899	0.15
762.076	-0.05
762.252	-0.02
762.429	0.02
762.605	0.21
762.781	-0.02
762.958	0.24
763.134	0.11
763.31	0.05
763.486	0.12
763.663	-0.1
763.839	0.3
764.015	-0.06
764.191	-0.08
764.368	0.06
764.544	0.05
764.72	0.16
764.896	0.26
765.072	0.12
765.248	-0.01
765.425	0.18
765.601	0.11
765.777	0.11
765.953	-0.1
766.129	0.06
766.305	0.01
766.481	0.17
766.657	0.06
766.833	0.26
767.009	0.03
767.185	-0
767.361	-0.04
767.537	-0.13
767.713	0.2
767.889	0.02
768.065	0.16
768.24	0.09
768.416	0.18
768.592	0.06
768.768	0.08
768.944	0.1
769.12	-0.09
769.295	0.18
769.471	-0.07
769.647	0
769.823	0.14
769.998	-0.12
770.174	-0.07
770.35	0.31
770.525	0.38
770.701	0.14
770.877	-0.05
771.052	0
771.228	-0.05
771.403	0.1
771.579	0.18
771.755	0.36
771.93	0.08
772.106	-0.04
772.281	-0.23
772.457	0.09
772.632	0.17
772.808	-0.14
772.983	0.05
773.159	-0.06
773.334	0.3
773.509	0
773.685	-0.04
773.86	0.31
774.036	0.18
774.211	0.11
774.386	-0.03
774.562	-0.05
774.737	0.15
774.912	-0.01
775.087	0.18
775.263	0.02
775.438	-0.1
775.613	-0.02
775.788	0.08
775.964	0.07
776.139	0.42
776.314	-0.17
776.489	0.09
776.664	-0.01
776.839	-0.11
777.014	0.26
777.19	0.29
777.365	0.32
777.54	0.31
777.715	0.08
777.89	0.09
778.065	-0.05
778.24	0.13
778.415	0.26
778.59	-0.18
778.765	0.09
778.94	0.07
779.115	-0.1
779.289	-0.12
779.464	0.08
779.639	0.08
779.814	-0.13
779.989	-0.12
780.164	0.22
780.339	0.18
780.513	-0.09
780.688	-0.08
780.863	0.1
781.038	0.22
781.212	-0.13
781.387	0.08
781.562	0.25
781.737	-0.02
781.911	0.18
782.086	-0.03
782.261	0.05
782.435	0.29
782.61	-0.03
782.784	-0
782.959	0.26
783.134	0.05
783.308	-0.19
783.483	-0.01
783.657	0.33
783.832	0.26
784.006	-0.16
784.181	0.2
784.355	0.22
784.53	-0.12
784.704	-0.02
784.878	0.31
785.053	0.24
785.227	0.31
785.402	0.35
785.576	-0.09
785.75	0.15
785.925	0.06
786.099	0.07
786.273	0.05
786.448	0.18
786.622	0.16
786.796	0.11
786.97	-0
787.145	0.58
787.319	-0.39
787.493	0.05
787.667	-0.2
787.841	0.13
788.015	0.3
788.19	0.06
788.364	0.25
788.538	0.35
788.712	0.18
788.886	0.12
789.06	0.35
789.234	0.15
789.408	-0.12
789.582	0.04
789.756	0.08
789.93	-0.09
790.104	0.1
790.278	0.11
790.452	-0.07
790.626	0.23
790.8	-0.06
790.973	0.12
791.147	0.21
791.321	0.17
791.495	0.12
791.669	0.27
791.843	0.11
792.016	0.18
792.19	0.46
792.364	-0.18
792.538	0.48
792.711	0.23
792.885	0.1
793.059	-0.35
793.233	-0.45
793.406	0.47
793.58	-0.06
793.754	0.35
793.927	0.15
794.101	0.32
794.274	0.11
794.448	0.2
794.622	-0.03
794.795	0.08
794.969	-0.18
795.142	0.32
795.316	0.06
795.489	0.06
795.663	0.31
795.836	0.29
796.009	-0.01
796.183	0.37
796.356	0.15
796.53	0.12
796.703	-0
796.876	0.45
797.05	0
797.223	-0.22
797.396	0.09
797.57	0.16
797.743	0.73
797.916	-0.08
798.09	-0.06
798.263	0.36
798.436	0.1
798.609	-0.2
798.782	-0.11
798.956	0.18
799.129	0.02
799.302	0.01
799.475	0.08
799.648	-0.09
799.821	-0.06
799.994	-0.03
800.167	-0.22
800.34	0.38
800.514	0.22
800.687	-0.12
800.86	-0.19
801.033	0.45
801.206	0.24
801.379	-0.19
801.551	0.42
801.724	0.35
801.897	0.45
802.07	0.13
802.243	-0.6
802.416	-0.21
802.589	-0.03
802.762	0.4
802.935	0.11
803.107	0.44
803.28	0.56
803.453	0.12
803.626	0.03
803.798	-0.07
803.971	-0.31
804.144	0.23
804.317	0.19
804.489	0.41
804.662	0.05
804.835	0.31
805.007	-0.35
805.18	0.58
805.353	0.21
805.525	-0.18
805.698	-0.12
805.87	0.52
806.043	0.45
806.215	-0.39
806.388	0.09
806.56	-0.09
806.733	0.48
806.905	-0.09
807.078	0.07
807.25	-0.16
807.423	-0.02
807.595	0.06
807.768	-0.02
807.94	0.44
808.112	0.26
808.285	0.3
808.457	-0.13
808.629	0.14
808.802	0.52
808.974	0.22
809.146	0.08
809.318	-0.25
809.491	-0.02
809.663	0.13
809.835	-0.15
810.007	0.25
810.18	0.16
810.352	-0.19
810.524	0.05
810.696	0.48
810.868	0.39
811.04	-0.09
811.212	0.29
811.384	0.64
811.556	0.03
811.728	0.1
811.901	0.76
812.073	0.14
812.245	0.2
812.417	-0.05
812.589	-0.52
812.76	0.17
812.932	0.41
813.104	0.57
813.276	-0.03
813.448	0.42
813.62	0.02
813.792	0.33
813.964	-0.01
814.136	0.12
814.307	-0.03
814.479	-0.31
814.651	-0.06
814.823	1.06
814.995	0.07
815.166	0.03
815.338	-0.3
815.51	-0.22
815.681	0.84
815.853	-0.19
816.025	-0.07
816.196	0.72
816.368	0.19
816.54	-0.46
816.711	-0.32
816.883	0.18
817.054	0.73
817.226	-0.21
817.398	0.13
817.569	0.1
817.741	-0.11
817.912	0.18
818.084	-0.22
818.255	0.19
818.426	-0.23
818.598	0.54
818.769	0.11
818.941	0.6
819.112	0.7
819.283	0.52
819.455	-0.17
819.626	-0.01
819.798	0.82
819.969	0.05
820.14	0.17
820.311	0.2
820.483	0.53
820.654	0.26
820.825	0.16
820.996	-0.2
821.168	-0.14
821.339	0.16
821.51	-0.45
821.681	-0.17
821.852	0.07
822.023	-0.27
822.195	-0.3
822.366	0.55
822.537	0.06
822.708	0.31
822.879	-0.55
823.05	0.67
823.221	0.18
823.392	0.4
823.563	-0.03
823.734	-0.19
823.905	0.01
824.076	-0.22
824.247	0.18
824.418	-0.85
824.589	0.57
824.759	-0.07
824.93	0.1
825.101	0.14
825.272	0.33
825.443	-0.13
825.614	0.33
825.784	-0.92
825.955	1.11
826.126	0.86
826.297	0.03
826.467	1.4
826.638	1.15
826.809	-0.55
826.98	0.49
827.15	0.75
827.321	-0.29
827.492	0.48
827.662	0.51
827.833	0.73
828.003	0.06
828.174	-0.27
828.345	-0.45
828.515	1.44
828.686	-0.29
828.856	-0.17
829.027	0.23
829.197	0.28
829.368	0.33
829.538	0.27
829.709	-0.25
829.879	-0.2
830.049	0.33
830.22	-0.7
830.39	0.18
830.56	0.06
830.731	-0.31
830.901	-0.38
831.072	0.14
831.242	0.5
831.412	0.41
831.582	0.2
831.753	-0.27
831.923	0.27
832.093	0.07
832.263	0.07
832.434	-0.33
832.604	-0.32
832.774	0.55
832.944	-0.37
833.114	-0.11
833.284	0.69
833.454	-0.28
833.624	-0.13
833.795	0.32
833.965	1.68
834.135	0.27
834.305	-0.78
834.475	-0.5
834.645	-0.08
834.815	-0.58
834.985	-0.5
835.155	0.04
835.325	0.41
835.494	0.74
835.664	-0.26
835.834	-0
836.004	0.52
836.174	-0.04
836.344	0.16
836.514	-0.31
836.684	0.23
836.853	0.35
837.023	-0.11
837.193	-0.49
837.363	0.69
837.532	1.11
837.702	0.04
837.872	-0.3
838.041	0.79
838.211	1.54
838.381	-0.47
838.55	-0.85
838.72	1.71
838.89	1.89
839.059	0.08
839.229	-0.21
839.398	1.54
839.568	0.19
839.738	-0.05
839.907	0.46
840.077	0.81
840.246	-0.08
840.416	0.03
840.585	-0.47
840.755	1.12
840.924	1.42
841.093	-0.9
841.263	0.2
841.432	-0.05
841.602	-0.86
841.771	-0.74
841.94	0.37
842.11	1.7
842.279	1.51
842.448	-0.6
842.617	-0.43
842.787	0.97
842.956	-0.45
843.125	-0.1
843.294	0.81
843.464	0.12
843.633	-0.2
843.802	0.11
843.971	0.36
844.14	0.37
844.309	0.89
844.479	-0.8
844.648	0.08
844.817	-0.14
844.986	0.2
845.155	-0.52
845.324	-0.33
845.493	-0.63
845.662	-0.62
845.831	0.68
846	0.19
846.169	0.31
846.338	1.88
846.507	-0.05
846.676	0.5
846.844	-0.78
847.013	1.59
847.182	-0
847.351	-0.44
847.52	-0.18
847.689	-0.16
847.858	-0.58
848.026	0.6
848.195	-0.44
848.364	-0.14
848.533	-0.43
848.701	-0.26
848.87	0.42
849.039	0.68
849.207	1.02
849.376	0.63
849.545	1.18
849.713	0.14
849.882	0.02
850.051	0.01
850.219	0.44
850.388	1.18
850.556	-0.79
850.725	-0.38
850.893	0.16
851.062	0.42
851.23	0.87
851.399	-0.74
851.567	0.22
851.736	-0.94
851.904	-1.44
852.073	0.82
852.241	0.71
852.41	0.95
852.578	-0.9
852.746	-0.43
852.915	0.34
853.083	-0.04
853.251	-0.35
853.42	-0.06
853.588	-0.12
853.756	1.34
853.924	-0.03
854.093	0.22
854.261	-0.39
854.429	-1.56
854.597	-0.05
854.765	-0.44
854.934	1.23
855.102	1.71
855.27	-0.06
855.438	0.52
855.606	1.71
855.774	1.49
855.942	-1.45
856.11	-1.97
856.278	0.64
856.446	0.46
856.614	-0.11
856.782	-0.72
856.95	0.49
857.118	1.1
857.286	0.33
857.454	-0.95
857.622	1
857.79	0.89
857.958	-1.05
858.126	-0.62
858.294	-2.61
858.462	-0.12
858.629	-0.99
858.797	-1.2
858.965	0.38
859.133	0.09
859.301	0.26
859.468	-0.16
859.636	-1.11
859.804	1.84
859.971	0.93
860.139	-0.54
860.307	1.85
860.474	-0.3
860.642	-0.49
860.81	0.54
860.977	-0.04
861.145	2.38
861.313	-0.01
861.48	-1.09
861.648	0.59
861.815	-0.63
861.983	-1.75
862.15	-0.08
862.318	0.85
862.485	1.38
862.653	0.92
862.82	-2.37
862.988	0.95
863.155	0.74
863.322	-1.22
863.49	-1.31
863.657	-0.01
863.824	1.94
863.992	1.74
864.159	-0.63
864.326	2.5
864.494	0.41
864.661	0.53
864.828	-1.61
864.996	0.97
865.163	2.3
865.33	0.45
865.497	-1.74
865.664	-0.32
865.832	-1.77
865.999	-1.91
866.166	-1.28
866.333	-0.2
866.5	-0.31
866.667	0.04
866.834	0.16
867.001	1.44
867.168	-2.57
867.335	0.64
867.502	-1.37
867.669	-0.17
867.836	1.9
868.003	-1.39
868.17	1.73
868.337	-0.79
868.504	2.97
868.671	-2.25
868.838	-1.31
869.005	0.41
869.172	0.69
869.339	-1.29
869.505	0.15
869.672	-0.37
869.839	1.66
870.006	-0.81
870.173	-3.86
870.339	1.3
870.506	3.56
870.673	-1.89
870.84	1.96
871.006	-0.18
871.173	-0.18
871.34	0.29
871.506	0.17
871.673	0.92
871.839	-1.87
872.006	0.27
872.173	-0.32
872.339	-0.95
872.506	1.33
872.672	-0.62
872.839	-1.32
873.005	0.37
873.172	1.74
873.338	0.32
873.505	0.12
873.671	0.38
873.838	0.85
874.004	-2
874.171	0.11
874.337	0.28
874.503	1.43
874.67	-1.44
874.836	0.51
875.002	3.03
875.169	0.44
875.335	0.62
875.501	-0.03
875.668	1.82
875.834	-0.05
876	0.86
876.166	0.7
876.332	1.64
876.499	3.31
876.665	0.1
876.831	0.46
876.997	3.27
877.163	1.92
877.329	-1.36
877.495	0.19
877.662	1.33
877.828	1.6
877.994	-1.3
878.16	-2.28
878.326	-0.38
878.492	0.86
878.658	-0.68
878.824	1.86
878.99	0.66
879.156	-0.55
879.322	1.97
879.487	-0.76
879.653	0.21
879.819	0.21
879.985	-1.09
880.151	-0.18
880.317	1.22
880.483	-0.53
880.648	0.05
880.814	-3.31
880.98	0.18
881.146	-1.89
881.312	-0.12
881.477	-1.33
881.643	0.2
881.809	1.16
881.974	2.09
882.14	-2.28
882.306	1.7
882.471	2.34
882.637	-0.59
882.803	1.32
882.968	4.38
883.134	2.94
883.299	1.39
883.465	-0.53
883.63	1.44
883.796	1.8
883.961	1.04
884.127	1.11
884.292	-4.28
884.458	-2.5
884.623	-2.5
