Data from Apollo_Calib_20240827__AbsoluteIrradiance__150__01-39-01-523.txt Node

Date: Wed Aug 28 01:39:01 BST 2024
User: biology
Spectrometer: FLMT08252
Trigger mode: 0
Integration Time (sec): 5.000000E-1
Scans to average: 5
Electric dark correction enabled: true
Nonlinearity correction enabled: false
Boxcar width: 0
XAxis mode: Wavelengths
Number of Pixels in Spectrum: 3648
>>>>>Begin Spectral Data<<<<<
179.588	-0
179.809	-0
180.03	-0
180.251	-0
180.473	-0
180.694	0
180.915	0
181.136	-0
181.357	-0
181.578	-0
181.799	-0
182.02	-0
182.241	-0
182.462	-0
182.683	0
182.904	-0
183.125	0
183.346	0
183.567	-0
183.788	-0
184.009	-0
184.23	0
184.451	0
184.672	-0
184.892	-0
185.113	0
185.334	0
185.555	-0
185.776	-0
185.996	0
186.217	0
186.438	-0
186.659	-0
186.879	0
187.1	-0
187.321	-0
187.541	-0
187.762	-0
187.983	0
188.203	-0
188.424	-0
188.644	-0
188.865	-0
189.086	-0
189.306	-0
189.527	-0
189.747	-0
189.968	-0
190.188	0
190.409	-0
190.629	0
190.849	-0
191.07	-0
191.29	0
191.511	-0
191.731	-0
191.951	-0
192.172	-0
192.392	-0
192.612	-0
192.833	-0
193.053	0
193.273	0
193.493	-0
193.714	-0
193.934	0
194.154	0
194.374	-0
194.594	0
194.815	0
195.035	-0
195.255	-0
195.475	-0
195.695	0
195.915	0
196.135	0
196.355	0
196.575	0
196.795	0
197.015	-0
197.235	-0
197.455	-0
197.675	0
197.895	-0
198.115	-0
198.335	-0
198.555	-0
198.775	-0
198.995	0
199.214	0
199.434	-0
199.654	-0
199.874	-0
200.094	0.77
200.313	-0.46
200.533	-0.32
200.753	-0.64
200.973	0.8
201.192	0.29
201.412	-1.17
201.632	-0.61
201.851	0.59
202.071	-0.19
202.291	-0.29
202.51	-0.28
202.73	0.34
202.95	-0.03
203.169	-1.06
203.389	-0.2
203.608	-0.1
203.828	-0.73
204.047	-0.58
204.267	-0.02
204.486	-0.14
204.706	0.09
204.925	-0.07
205.145	-0.58
205.364	0.29
205.583	0.87
205.803	-0.44
206.022	-0.62
206.242	-0.12
206.461	-0.42
206.68	-0.24
206.9	-0.13
207.119	0.46
207.338	0.47
207.557	-0.55
207.777	-0.07
207.996	-0.21
208.215	0.08
208.434	-0.34
208.654	-0.4
208.873	0.02
209.092	0.33
209.311	-0.3
209.53	-0.15
209.749	-0.06
209.968	-0.16
210.187	-0.04
210.407	-0.45
210.626	-0.22
210.845	-0.13
211.064	0.14
211.283	-0.18
211.502	0.16
211.721	0.08
211.94	-0.12
212.159	0.22
212.377	0.26
212.596	0.29
212.815	0.19
213.034	0.15
213.253	0.21
213.472	0.17
213.691	-0.15
213.91	-0.19
214.128	-0.29
214.347	0.52
214.566	-0.41
214.785	-0.37
215.003	0.11
215.222	-0.11
215.441	-0.02
215.66	-0.23
215.878	-0.02
216.097	0.08
216.316	-0.44
216.534	-0
216.753	-0.02
216.972	0.02
217.19	-0.14
217.409	-0.14
217.627	-0.17
217.846	0.05
218.064	0.09
218.283	-0.14
218.501	0.26
218.72	0.19
218.938	-0.27
219.157	-0.13
219.375	0.15
219.594	0.05
219.812	-0.11
220.031	-0.17
220.249	0.26
220.467	0.18
220.686	-0.08
220.904	-0.13
221.122	-0.16
221.341	0.54
221.559	0.02
221.777	-0.13
221.995	0.13
222.214	0.02
222.432	-0.07
222.65	-0.05
222.868	-0.08
223.086	0.04
223.305	0.28
223.523	-0.07
223.741	0.2
223.959	-0.18
224.177	-0.25
224.395	-0.1
224.613	-0.01
224.831	0.12
225.049	-0.36
225.267	-0.05
225.485	-0
225.703	-0.01
225.921	-0
226.139	-0.07
226.357	0.12
226.575	0.01
226.793	-0.12
227.011	0.48
227.229	0.04
227.447	0.07
227.665	-0.18
227.883	-0.27
228.1	0.1
228.318	0.08
228.536	-0.24
228.754	-0.23
228.972	0.07
229.189	0.13
229.407	-0.12
229.625	-0.18
229.843	0.14
230.06	0.1
230.278	-0.1
230.496	0
230.713	0.05
230.931	0.17
231.149	-0.08
231.366	-0.19
231.584	-0.05
231.801	0.3
232.019	-0.02
232.236	-0.17
232.454	-0.17
232.671	-0.05
232.889	-0.08
233.106	-0.2
233.324	-0.1
233.541	-0.07
233.759	-0.02
233.976	-0.1
234.194	-0.08
234.411	-0.01
234.628	-0.06
234.846	-0.14
235.063	-0.21
235.28	-0.09
235.498	-0.05
235.715	-0.17
235.932	0.09
236.149	-0
236.367	-0.09
236.584	0
236.801	-0.01
237.018	0.14
237.236	0.01
237.453	-0.11
237.67	0.12
237.887	-0.09
238.104	0.01
238.321	-0.14
238.538	-0.13
238.755	0.15
238.973	-0.16
239.19	0.03
239.407	0.01
239.624	-0.05
239.841	-0.15
240.058	-0.07
240.275	0.02
240.492	-0.05
240.709	0.01
240.925	-0.07
241.142	-0.02
241.359	-0.06
241.576	-0.04
241.793	-0.13
242.01	-0.1
242.227	0.08
242.444	0.01
242.66	0.04
242.877	0.03
243.094	-0.06
243.311	-0.07
243.527	0.01
243.744	0.01
243.961	0.12
244.178	-0.1
244.394	-0.06
244.611	0.04
244.828	0.08
245.044	-0.11
245.261	-0.04
245.477	0.01
245.694	0.01
245.911	-0.05
246.127	0.04
246.344	0.09
246.56	-0.02
246.777	-0.08
246.993	-0.06
247.21	0.1
247.426	0.02
247.643	-0
247.859	-0.11
248.076	-0.06
248.292	0.16
248.508	-0.03
248.725	-0.05
248.941	0.04
249.157	0.09
249.374	-0.15
249.59	-0.03
249.806	-0.03
250.023	-0
250.239	-0.07
250.455	-0.1
250.671	0.03
250.888	0.02
251.104	0.05
251.32	0.01
251.536	-0.02
251.752	-0.03
251.969	0.04
252.185	0.03
252.401	0.18
252.617	0.04
252.833	-0.01
253.049	-0.07
253.265	-0.05
253.481	0.05
253.697	-0.04
253.913	-0.11
254.129	-0.01
254.345	0.02
254.561	-0.01
254.777	0.01
254.993	-0.01
255.209	0.02
255.425	-0.06
255.641	-0.08
255.857	0.05
256.073	-0.03
256.288	-0.05
256.504	-0.07
256.72	-0.02
256.936	0.05
257.152	-0.04
257.367	-0.04
257.583	-0.02
257.799	0.07
258.015	-0.07
258.23	-0.08
258.446	0.09
258.662	-0.02
258.877	-0.1
259.093	-0.13
259.309	0.01
259.524	0.05
259.74	-0.08
259.955	-0.13
260.171	-0.05
260.387	0.01
260.602	0.07
260.818	0.02
261.033	-0.17
261.249	-0
261.464	-0.02
261.68	-0.07
261.895	0.03
262.11	0.01
262.326	-0.02
262.541	-0.17
262.757	0.09
262.972	0.02
263.187	-0
263.403	-0.05
263.618	0.02
263.833	0.07
264.049	-0.12
264.264	-0.01
264.479	-0.01
264.694	0.06
264.91	-0.1
265.125	-0.03
265.34	0.08
265.555	0.13
265.77	-0.01
265.986	-0.03
266.201	0.07
266.416	0.09
266.631	-0.03
266.846	-0.04
267.061	0.04
267.276	0.04
267.491	-0.15
267.706	0
267.921	0.01
268.136	0.01
268.351	0.03
268.566	-0.12
268.781	0.07
268.996	0.04
269.211	0.02
269.426	-0.04
269.641	-0.01
269.856	0.03
270.071	-0.13
270.285	-0.14
270.5	0.07
270.715	0.02
270.93	-0.02
271.145	-0.01
271.359	0.01
271.574	-0.02
271.789	-0.05
272.004	-0.13
272.218	-0.02
272.433	0.03
272.648	-0.05
272.862	0.02
273.077	-0.06
273.292	-0.01
273.506	-0.1
273.721	-0.04
273.936	0.04
274.15	0.07
274.365	-0.04
274.579	0.03
274.794	0.07
275.008	0.1
275.223	-0.09
275.437	-0
275.652	0.07
275.866	0
276.081	0
276.295	0.03
276.509	0.01
276.724	0.01
276.938	-0
277.153	0.01
277.367	-0.01
277.581	-0.03
277.796	-0
278.01	-0.1
278.224	0.04
278.438	0.09
278.653	-0.01
278.867	-0.02
279.081	-0.06
279.295	-0.05
279.51	0.02
279.724	-0.1
279.938	0.05
280.152	0.01
280.366	-0.04
280.58	-0
280.794	0.06
281.008	-0
281.222	-0.01
281.437	0.08
281.651	0
281.865	0.09
282.079	-0.02
282.293	-0.11
282.507	-0.02
282.721	-0.08
282.935	-0.03
283.148	-0.07
283.362	-0.05
283.576	-0.07
283.79	-0.03
284.004	-0.02
284.218	0.05
284.432	-0.01
284.646	-0.04
284.859	-0.02
285.073	-0.08
285.287	-0.05
285.501	-0.02
285.714	-0.06
285.928	-0.01
286.142	-0.06
286.356	-0.07
286.569	-0.01
286.783	0.07
286.997	0.04
287.21	-0.01
287.424	0
287.637	0.04
287.851	-0.03
288.065	0.06
288.278	-0.02
288.492	0.02
288.705	0.05
288.919	0.04
289.132	-0.11
289.346	0.08
289.559	-0.08
289.773	-0.07
289.986	0.01
290.2	-0
290.413	0.08
290.626	-0.03
290.84	-0.04
291.053	-0.01
291.267	0.04
291.48	0.01
291.693	-0.01
291.906	-0.06
292.12	0
292.333	-0.04
292.546	-0.03
292.76	0.09
292.973	0.02
293.186	0.07
293.399	-0.02
293.612	0.06
293.826	0.01
294.039	-0.02
294.252	0.02
294.465	-0.01
294.678	0.03
294.891	-0.03
295.104	-0.06
295.317	-0.05
295.53	0.01
295.743	0
295.956	-0.03
296.169	0.08
296.382	0.03
296.595	-0.01
296.808	-0.06
297.021	0.03
297.234	0.01
297.447	0
297.66	0.05
297.873	0.07
298.086	0.04
298.299	-0.04
298.511	-0.05
298.724	0.04
298.937	-0.02
299.15	-0.03
299.363	-0.02
299.575	0.02
299.788	0.07
300.001	-0.04
300.213	0.01
300.426	-0.05
300.639	-0.06
300.852	-0.04
301.064	0.02
301.277	0.04
301.489	0.06
301.702	0.03
301.915	0.02
302.127	-0
302.34	0.02
302.552	0.01
302.765	-0.02
302.977	0.02
303.19	0.01
303.402	0.01
303.615	-0.02
303.827	-0.02
304.04	-0.02
304.252	0.04
304.464	-0.02
304.677	0.09
304.889	0.08
305.102	-0.03
305.314	-0.03
305.526	0.03
305.739	0.03
305.951	-0.07
306.163	-0.02
306.375	0.1
306.588	-0.05
306.8	-0.01
307.012	-0.07
307.224	0.02
307.436	0.04
307.649	-0.08
307.861	0.02
308.073	0.05
308.285	-0.01
308.497	-0.06
308.709	-0.01
308.921	0
309.133	0.02
309.346	-0.01
309.558	0.02
309.77	0.01
309.982	0.04
310.194	0.04
310.406	0
310.617	0.06
310.829	-0.03
311.041	0.02
311.253	-0.05
311.465	-0.02
311.677	0.04
311.889	-0.03
312.101	-0.02
312.313	0.05
312.524	0.05
312.736	-0.02
312.948	-0.04
313.16	0.04
313.372	0.04
313.583	-0
313.795	0.02
314.007	-0.02
314.218	0
314.43	0.02
314.642	-0.01
314.853	-0.02
315.065	0.08
315.277	-0.02
315.488	-0.01
315.7	0.03
315.912	0.02
316.123	-0.04
316.335	0.02
316.546	0.11
316.758	0.01
316.969	-0.02
317.181	-0
317.392	0.04
317.604	0.05
317.815	-0.02
318.026	-0.04
318.238	-0.01
318.449	0.04
318.661	-0.06
318.872	-0.01
319.083	-0.04
319.295	0.05
319.506	0.01
319.717	0.04
319.929	0.02
320.14	-0.03
320.351	-0.01
320.562	-0.03
320.774	0.02
320.985	0.06
321.196	-0.05
321.407	-0.05
321.618	0.05
321.829	-0.01
322.041	0.05
322.252	0.01
322.463	0
322.674	0.03
322.885	-0.04
323.096	-0.05
323.307	-0
323.518	-0.01
323.729	-0.02
323.94	0.01
324.151	-0.03
324.362	-0.01
324.573	0.01
324.784	-0.04
324.995	0.04
325.206	0.03
325.417	-0.07
325.628	-0.04
325.838	0.02
326.049	-0.01
326.26	0.04
326.471	-0.01
326.682	0.03
326.892	-0
327.103	-0.03
327.314	-0.07
327.525	0.02
327.735	0.03
327.946	-0.07
328.157	-0.04
328.368	0.03
328.578	-0.05
328.789	-0
328.999	0.02
329.21	-0.02
329.421	0.04
329.631	-0.02
329.842	-0.03
330.052	0.02
330.263	0.07
330.473	0.02
330.684	-0.02
330.894	0.01
331.105	0.01
331.315	-0.01
331.526	-0.04
331.736	0.1
331.947	0.01
332.157	-0.02
332.367	-0.04
332.578	0
332.788	0.02
332.999	0.01
333.209	-0.03
333.419	-0.03
333.629	0.02
333.84	0.01
334.05	-0.03
334.26	0.04
334.47	0.01
334.681	0.04
334.891	-0.03
335.101	0.03
335.311	0.06
335.521	-0
335.732	-0.04
335.942	0.09
336.152	0.03
336.362	0.02
336.572	-0
336.782	0.03
336.992	-0.04
337.202	-0.05
337.412	-0.07
337.622	-0
337.832	0.01
338.042	-0.01
338.252	-0.01
338.462	-0.03
338.672	0.05
338.882	-0.01
339.092	0.01
339.302	0.06
339.511	-0.01
339.721	-0.05
339.931	-0.04
340.141	0.03
340.351	0.07
340.561	0.01
340.77	0
340.98	-0
341.19	0.02
341.4	-0.07
341.609	-0.06
341.819	0.01
342.029	-0.07
342.238	-0.04
342.448	-0.07
342.658	0.05
342.867	0.01
343.077	-0.01
343.286	0.01
343.496	0.05
343.706	0.09
343.915	-0.05
344.125	0.02
344.334	0.03
344.544	-0.06
344.753	-0.04
344.963	-0.04
345.172	-0.01
345.381	-0.01
345.591	0.03
345.8	-0.03
346.01	0.02
346.219	0.03
346.428	-0.15
346.638	0.01
346.847	0.01
347.056	0.07
347.266	-0.02
347.475	0.02
347.684	0.01
347.893	-0.01
348.103	0.01
348.312	-0
348.521	0
348.73	0.01
348.94	0.02
349.149	-0.01
349.358	-0.02
349.567	-0.02
349.776	-0.05
349.985	-0.04
350.194	0.03
350.403	0.05
350.612	-0.06
350.821	-0.04
351.03	-0.01
351.239	-0.09
351.448	0.03
351.657	-0.04
351.866	0.06
352.075	-0.03
352.284	0.04
352.493	-0.04
352.702	0.06
352.911	0.05
353.12	-0.01
353.329	-0.02
353.538	0.03
353.746	-0.03
353.955	-0.04
354.164	0.02
354.373	-0.01
354.582	0.06
354.79	0.02
354.999	0.06
355.208	-0.01
355.416	0.08
355.625	-0.05
355.834	-0.02
356.042	0.04
356.251	-0.01
356.46	-0.08
356.668	-0.01
356.877	0.13
357.085	0.06
357.294	-0.07
357.503	0.05
357.711	0.02
357.92	0.09
358.128	-0.03
358.337	-0.01
358.545	0.01
358.754	-0
358.962	0.03
359.17	-0
359.379	-0.01
359.587	0.03
359.796	0.02
360.004	0.02
360.212	-0
360.421	0.01
360.629	-0.03
360.837	-0.04
361.046	0.06
361.254	0.13
361.462	-0.01
361.67	0
361.879	-0
362.087	0.04
362.295	0.01
362.503	-0
362.711	-0.03
362.92	-0.03
363.128	-0.02
363.336	-0.01
363.544	-0.05
363.752	-0.05
363.96	-0.06
364.168	0.01
364.376	-0.01
364.584	0.01
364.792	0.04
365	-0
365.208	-0.02
365.416	-0.04
365.624	0.04
365.832	-0.03
366.04	0.05
366.248	0.02
366.456	0.01
366.664	0.03
366.872	-0
367.079	-0.02
367.287	-0
367.495	0.01
367.703	-0
367.911	-0.03
368.118	-0.03
368.326	0.02
368.534	-0.03
368.742	0.06
368.949	-0.04
369.157	-0.04
369.365	-0.01
369.572	0
369.78	-0.02
369.988	0.01
370.195	0.01
370.403	0.02
370.61	-0.06
370.818	-0
371.026	0.07
371.233	-0.03
371.441	-0.02
371.648	-0.02
371.856	0.01
372.063	0.01
372.271	-0.03
372.478	0
372.685	-0.02
372.893	0.04
373.1	-0.01
373.308	-0.03
373.515	0.06
373.722	0.02
373.93	-0.01
374.137	0.03
374.344	0.04
374.552	0.01
374.759	0.04
374.966	-0.02
375.173	-0
375.381	0.02
375.588	-0.01
375.795	-0.08
376.002	-0.02
376.209	-0.03
376.417	-0.02
376.624	-0
376.831	0.03
377.038	-0.03
377.245	-0.04
377.452	-0.02
377.659	0.02
377.866	-0.04
378.073	0.01
378.28	0.01
378.487	0.02
378.694	0.03
378.901	-0.03
379.108	-0.01
379.315	0.02
379.522	0.05
379.729	-0.02
379.936	-0.03
380.143	0.04
380.35	0.01
380.557	-0.01
380.763	-0.03
380.97	-0.01
381.177	0.04
381.384	-0
381.591	-0.05
381.797	-0
382.004	0.01
382.211	0.04
382.418	-0.02
382.624	0.02
382.831	0.02
383.038	-0.02
383.244	0
383.451	-0
383.658	0.03
383.864	-0.02
384.071	-0.01
384.277	0.05
384.484	-0.04
384.69	0.01
384.897	-0.04
385.103	-0.02
385.31	-0.06
385.516	-0.02
385.723	-0.01
385.929	0.02
386.136	-0.01
386.342	0
386.549	-0
386.755	0.08
386.961	0
387.168	0.02
387.374	0.01
387.58	0.04
387.787	0.02
387.993	-0.02
388.199	-0.01
388.406	-0.03
388.612	0.01
388.818	-0.03
389.024	-0.01
389.231	0.05
389.437	0.05
389.643	0.03
389.849	-0.01
390.055	0.02
390.261	0.01
390.467	0.02
390.674	-0.01
390.88	-0.02
391.086	0.04
391.292	-0.04
391.498	0.07
391.704	0.04
391.91	0.03
392.116	0.02
392.322	-0.08
392.528	-0
392.734	0.02
392.94	0.05
393.146	0.01
393.352	0.05
393.557	-0.02
393.763	0.02
393.969	0.05
394.175	0.03
394.381	0
394.587	0.02
394.792	-0.01
394.998	0.08
395.204	0.1
395.41	0.08
395.615	0.07
395.821	0.08
396.027	0.11
396.233	0.04
396.438	0.1
396.644	0.08
396.85	0.08
397.055	0.05
397.261	0.12
397.466	0.18
397.672	0.09
397.878	0.14
398.083	0.1
398.289	0.1
398.494	0.11
398.7	0.15
398.905	0.06
399.111	0.19
399.316	0.09
399.522	0.14
399.727	0.15
399.932	0.13
400.138	0.14
400.343	0.23
400.549	0.16
400.754	0.23
400.959	0.21
401.165	0.2
401.37	0.22
401.575	0.34
401.78	0.25
401.986	0.21
402.191	0.23
402.396	0.26
402.601	0.31
402.807	0.33
403.012	0.3
403.217	0.36
403.422	0.35
403.627	0.38
403.832	0.32
404.037	0.4
404.243	0.38
404.448	0.33
404.653	0.36
404.858	0.4
405.063	0.41
405.268	0.36
405.473	0.38
405.678	0.44
405.883	0.64
406.088	0.51
406.293	0.39
406.498	0.43
406.703	0.52
406.907	0.46
407.112	0.44
407.317	0.51
407.522	0.58
407.727	0.45
407.932	0.51
408.136	0.58
408.341	0.49
408.546	0.54
408.751	0.5
408.956	0.51
409.16	0.56
409.365	0.49
409.57	0.47
409.774	0.49
409.979	0.49
410.184	0.5
410.388	0.43
410.593	0.49
410.798	0.4
411.002	0.43
411.207	0.46
411.411	0.45
411.616	0.35
411.82	0.45
412.025	0.41
412.229	0.35
412.434	0.43
412.638	0.37
412.843	0.3
413.047	0.34
413.252	0.31
413.456	0.31
413.66	0.33
413.865	0.26
414.069	0.35
414.273	0.26
414.478	0.24
414.682	0.27
414.886	0.26
415.091	0.18
415.295	0.15
415.499	0.21
415.703	0.19
415.908	0.23
416.112	0.14
416.316	0.25
416.52	0.2
416.724	0.12
416.929	0.14
417.133	0.27
417.337	0.19
417.541	0.16
417.745	0.12
417.949	0.19
418.153	0.19
418.357	0.15
418.561	0.25
418.765	0.17
418.969	0.26
419.173	0.17
419.377	0.13
419.581	0.2
419.785	0.13
419.989	0.1
420.193	0.13
420.397	0.1
420.601	0.15
420.804	0.19
421.008	0.08
421.212	0.15
421.416	0.16
421.62	0.08
421.823	0.1
422.027	0.17
422.231	0.18
422.435	0.08
422.638	0.08
422.842	0.09
423.046	0.04
423.249	0.11
423.453	0.11
423.657	0.08
423.86	0.12
424.064	0.07
424.268	0.09
424.471	0.08
424.675	0.14
424.878	0.11
425.082	0.09
425.285	0.11
425.489	0.05
425.692	0.03
425.896	-0.01
426.099	0.07
426.303	-0.01
426.506	-0.01
426.71	0.02
426.913	0.09
427.116	0.12
427.32	0.07
427.523	0.06
427.726	0.11
427.93	-0.01
428.133	0.05
428.336	0.01
428.54	-0.03
428.743	0.03
428.946	0.09
429.149	0.04
429.353	0.04
429.556	-0.01
429.759	0.07
429.962	-0.04
430.165	0.02
430.368	0.04
430.571	0.05
430.775	0.07
430.978	0.03
431.181	0.06
431.384	0.05
431.587	-0.03
431.79	0.03
431.993	-0.01
432.196	0.02
432.399	0.03
432.602	0.06
432.805	0.04
433.008	-0.01
433.211	-0.05
433.414	0
433.616	0.04
433.819	0.02
434.022	-0.03
434.225	0.09
434.428	0.07
434.631	0.09
434.833	0.07
435.036	-0
435.239	0.1
435.442	0.07
435.645	0.01
435.847	0.06
436.05	0.04
436.253	0.04
436.455	-0.03
436.658	0.02
436.861	0.08
437.063	0
437.266	0.04
437.468	0.02
437.671	0.15
437.874	0.04
438.076	-0.04
438.279	-0.09
438.481	0.02
438.684	-0.01
438.886	0.04
439.089	-0.04
439.291	-0.03
439.494	0.02
439.696	0.01
439.899	0.04
440.101	0.05
440.303	-0.01
440.506	0.06
440.708	0.02
440.91	0.06
441.113	0.01
441.315	0.02
441.517	-0.06
441.72	0.06
441.922	-0.07
442.124	-0.03
442.326	-0
442.529	0.1
442.731	-0.05
442.933	0.1
443.135	0.02
443.337	-0.03
443.539	-0.03
443.742	-0.01
443.944	0.03
444.146	-0.03
444.348	-0.05
444.55	-0.02
444.752	0.02
444.954	0
445.156	0.01
445.358	-0.02
445.56	0.02
445.762	-0.02
445.964	-0.02
446.166	-0.04
446.368	-0.08
446.57	0.06
446.772	-0
446.974	-0.03
447.175	-0.05
447.377	-0.02
447.579	-0.02
447.781	-0.08
447.983	0.04
448.184	0.03
448.386	0.01
448.588	-0.05
448.79	0.04
448.991	0
449.193	-0.01
449.395	0.04
449.597	0.03
449.798	0.01
450	0
450.202	-0.01
450.403	0.03
450.605	0.01
450.806	-0
451.008	-0.07
451.21	-0.02
451.411	0
451.613	-0.04
451.814	-0.01
452.016	0
452.217	0.01
452.419	0.07
452.62	-0.03
452.821	0.03
453.023	0.04
453.224	0.02
453.426	0.01
453.627	-0.01
453.828	-0
454.03	-0.02
454.231	0.07
454.432	-0.04
454.634	0.05
454.835	-0.03
455.036	-0.08
455.238	0.05
455.439	0
455.64	-0.04
455.841	-0.05
456.042	0.1
456.244	0.05
456.445	-0.07
456.646	-0.06
456.847	-0.03
457.048	0.02
457.249	0.08
457.45	0.17
457.651	-0.07
457.852	0.06
458.054	0.02
458.255	-0.02
458.456	0.03
458.657	0
458.858	-0.03
459.058	0.01
459.259	0.03
459.46	0
459.661	-0.03
459.862	0.14
460.063	-0.05
460.264	0.04
460.465	-0.02
460.666	0.09
460.866	-0.02
461.067	0
461.268	-0
461.469	-0.03
461.67	-0.02
461.87	-0.07
462.071	-0.08
462.272	-0.03
462.473	0.02
462.673	0.03
462.874	-0.06
463.075	0
463.275	-0.02
463.476	0.03
463.676	-0
463.877	0
464.078	-0.02
464.278	0.05
464.479	-0.06
464.679	0.02
464.88	-0.01
465.08	0.11
465.281	-0.05
465.481	-0.02
465.682	-0.04
465.882	0.02
466.083	0
466.283	0
466.483	0.02
466.684	-0.03
466.884	-0.03
467.085	-0.02
467.285	0.06
467.485	-0.02
467.686	-0.01
467.886	-0.01
468.086	-0.03
468.286	-0.02
468.487	0.05
468.687	-0.06
468.887	-0.01
469.087	0.04
469.287	-0.02
469.488	-0.05
469.688	-0
469.888	0.04
470.088	0.06
470.288	0.05
470.488	0.01
470.688	-0.01
470.888	0.01
471.088	-0.04
471.288	0.04
471.488	0.04
471.688	0.03
471.888	-0.03
472.088	0.06
472.288	0.02
472.488	-0.07
472.688	-0.04
472.888	0.04
473.088	0.01
473.288	-0
473.488	-0.02
473.688	0.1
473.887	0.03
474.087	-0.01
474.287	0.02
474.487	-0.07
474.687	0.03
474.886	-0
475.086	-0.03
475.286	0.05
475.486	0.01
475.685	-0
475.885	-0.03
476.085	0.01
476.284	0.01
476.484	0.01
476.684	0.02
476.883	0.01
477.083	0.01
477.282	-0.06
477.482	0.04
477.681	0.05
477.881	0.02
478.08	-0.03
478.28	0.02
478.479	0.04
478.679	0.07
478.878	-0.03
479.078	0.02
479.277	0.01
479.477	-0.03
479.676	0.04
479.875	-0.01
480.075	-0.05
480.274	0
480.473	0.05
480.673	-0.03
480.872	0.04
481.071	0
481.271	0.02
481.47	-0.03
481.669	-0
481.868	-0.02
482.067	-0.05
482.267	-0
482.466	0.01
482.665	-0.04
482.864	-0.02
483.063	-0.01
483.262	0
483.461	0.05
483.661	0.05
483.86	-0
484.059	0.01
484.258	0
484.457	-0.02
484.656	0.02
484.855	0.04
485.054	-0.04
485.253	-0.03
485.452	-0.03
485.651	-0.02
485.849	-0.01
486.048	-0.02
486.247	-0.02
486.446	-0.01
486.645	-0.02
486.844	-0.03
487.043	-0
487.241	0.03
487.44	-0.02
487.639	-0.03
487.838	0.01
488.037	0
488.235	0.04
488.434	-0
488.633	-0.01
488.831	0.01
489.03	0.02
489.229	-0.01
489.427	-0.01
489.626	0.03
489.825	0.05
490.023	0
490.222	-0.04
490.42	0.02
490.619	0.05
490.817	0.02
491.016	-0.02
491.214	0.01
491.413	-0.01
491.611	0
491.81	-0.02
492.008	0
492.207	0.03
492.405	-0
492.604	-0.02
492.802	-0.02
493	-0
493.199	-0.03
493.397	0.01
493.595	-0.02
493.794	-0.01
493.992	0.05
494.19	0
494.388	0.03
494.587	-0.01
494.785	0.01
494.983	-0.01
495.181	-0.01
495.379	0
495.578	-0.04
495.776	0.05
495.974	0
496.172	0
496.37	-0.01
496.568	-0.03
496.766	-0.03
496.964	0.01
497.162	0
497.36	-0.03
497.558	0
497.756	0.02
497.954	-0
498.152	-0.05
498.35	-0.02
498.548	-0.02
498.746	0
498.944	-0.02
499.142	-0.01
499.34	-0.03
499.538	-0.01
499.736	-0.02
499.933	0.03
500.131	0.04
500.329	0.01
500.527	0.02
500.725	0.03
500.922	0.01
501.12	0
501.318	-0.02
501.516	-0.02
501.713	0.01
501.911	-0.01
502.109	-0.03
502.306	0.01
502.504	-0.01
502.701	-0.02
502.899	0.02
503.097	0.03
503.294	0
503.492	-0.01
503.689	0.01
503.887	0.01
504.084	0.04
504.282	-0
504.479	-0.04
504.677	-0.01
504.874	-0.02
505.072	-0.01
505.269	-0.02
505.466	0.02
505.664	-0.01
505.861	-0.04
506.059	-0.01
506.256	0
506.453	-0.02
506.651	0.04
506.848	0.02
507.045	-0.01
507.242	-0.01
507.44	-0.02
507.637	0.02
507.834	-0.02
508.031	0.03
508.229	-0.02
508.426	0.01
508.623	0.02
508.82	-0.02
509.017	-0.02
509.214	-0
509.411	0
509.608	0
509.805	0.01
510.003	-0.02
510.2	-0.01
510.397	0.01
510.594	-0.03
510.791	-0.03
510.988	-0.01
511.184	-0.02
511.381	-0
511.578	-0.02
511.775	0
511.972	-0.03
512.169	0.01
512.366	-0.01
512.563	-0.01
512.76	-0.02
512.956	0.01
513.153	-0.02
513.35	0.02
513.547	-0.01
513.744	-0.02
513.94	-0.04
514.137	0.02
514.334	-0
514.53	-0.01
514.727	0
514.924	0.02
515.12	-0.01
515.317	-0.03
515.514	-0.01
515.71	-0.02
515.907	-0.01
516.103	0.01
516.3	0.01
516.497	-0.01
516.693	0
516.89	-0.03
517.086	-0.02
517.283	0.04
517.479	-0.01
517.676	0
517.872	-0
518.068	-0.01
518.265	-0.02
518.461	-0.02
518.658	-0.02
518.854	0.02
519.05	-0.03
519.247	-0.02
519.443	0.02
519.639	-0
519.836	-0.03
520.032	0.02
520.228	0
520.424	0.04
520.621	-0
520.817	0.01
521.013	0.02
521.209	-0.01
521.405	0.04
521.601	-0
521.798	0.01
521.994	0.02
522.19	-0.03
522.386	-0.01
522.582	-0
522.778	-0.02
522.974	-0.02
523.17	-0.03
523.366	0.01
523.562	0.03
523.758	0.03
523.954	-0.04
524.15	-0.02
524.346	0.01
524.542	-0.01
524.738	-0.02
524.934	-0.02
525.129	-0.08
525.325	0.01
525.521	-0.01
525.717	0.01
525.913	-0.01
526.109	0
526.304	-0.03
526.5	0.01
526.696	0.01
526.892	-0
527.087	-0
527.283	-0.03
527.479	-0
527.674	-0.02
527.87	0.01
528.066	0.02
528.261	0.01
528.457	0.01
528.653	0.02
528.848	-0
529.044	0.02
529.239	-0.01
529.435	0.02
529.63	0.01
529.826	0.03
530.021	0.01
530.217	0.03
530.412	-0.02
530.608	-0.02
530.803	0.02
530.999	-0.01
531.194	-0.05
531.389	0.02
531.585	-0.07
531.78	0.01
531.975	-0.02
532.171	0.03
532.366	-0.01
532.561	-0
532.757	-0.02
532.952	-0.01
533.147	0.01
533.342	-0.02
533.538	0.02
533.733	0.04
533.928	-0.02
534.123	-0.03
534.318	-0.03
534.513	-0
534.709	-0.02
534.904	-0.01
535.099	-0.03
535.294	-0
535.489	0.01
535.684	-0.01
535.879	-0.02
536.074	-0.01
536.269	-0.02
536.464	0
536.659	-0
536.854	-0.02
537.049	0.01
537.244	0.01
537.439	-0.02
537.634	0.02
537.828	-0
538.023	-0.02
538.218	-0.02
538.413	-0.02
538.608	-0.04
538.803	0
538.997	-0.04
539.192	0.01
539.387	-0
539.582	0
539.776	0.01
539.971	-0.03
540.166	-0.01
540.36	-0.01
540.555	-0.01
540.75	-0.02
540.944	0.01
541.139	-0.05
541.334	-0.01
541.528	0.01
541.723	0.02
541.917	-0.04
542.112	-0.04
542.306	0
542.501	-0.04
542.695	-0
542.89	-0.02
543.084	-0.01
543.279	-0.01
543.473	-0.03
543.668	-0
543.862	-0.01
544.056	0.02
544.251	-0.01
544.445	0.01
544.64	-0.01
544.834	-0.04
545.028	0
545.222	-0
545.417	0.02
545.611	0
545.805	0
546	-0.03
546.194	-0.01
546.388	-0.01
546.582	0
546.776	-0
546.97	0
547.165	0.02
547.359	0.01
547.553	-0.02
547.747	0.01
547.941	-0.01
548.135	0.02
548.329	0.01
548.523	0.02
548.717	-0.01
548.911	-0
549.105	-0.03
549.299	-0
549.493	0.03
549.687	-0
549.881	0
550.075	-0.02
550.269	-0.04
550.463	0.04
550.657	-0.02
550.85	0.01
551.044	-0.01
551.238	0.02
551.432	-0.01
551.626	-0.02
551.82	0
552.013	-0.03
552.207	-0
552.401	0.01
552.594	0
552.788	-0
552.982	-0.01
553.176	-0
553.369	-0
553.563	-0.01
553.756	-0.05
553.95	-0.02
554.144	-0.01
554.337	0.03
554.531	0
554.724	0.01
554.918	-0.02
555.111	0.02
555.305	-0.01
555.498	0.04
555.692	0.02
555.885	-0.02
556.079	0.02
556.272	-0.01
556.466	0.04
556.659	-0
556.852	-0.01
557.046	0.01
557.239	0.04
557.432	-0.01
557.626	-0.04
557.819	-0.01
558.012	0.02
558.206	0.01
558.399	-0.02
558.592	0.01
558.785	-0.02
558.979	0.03
559.172	0.02
559.365	0.02
559.558	0.01
559.751	-0
559.944	-0.01
560.138	-0
560.331	0
560.524	-0
560.717	-0.01
560.91	-0.02
561.103	-0
561.296	0.01
561.489	0.01
561.682	0.01
561.875	0.03
562.068	0.01
562.261	-0
562.454	0.03
562.647	0
562.84	0.02
563.032	-0.02
563.225	0.03
563.418	-0.01
563.611	-0.02
563.804	0.01
563.997	-0.02
564.19	-0.01
564.382	-0.02
564.575	-0
564.768	0.01
564.961	-0.02
565.153	-0.01
565.346	0.01
565.539	0.02
565.731	0
565.924	-0
566.117	0.01
566.309	-0
566.502	-0.01
566.695	0.01
566.887	-0
567.08	0.01
567.272	-0.01
567.465	-0.03
567.657	0.02
567.85	-0.01
568.042	0.02
568.235	0.03
568.427	-0.01
568.62	-0.01
568.812	0.02
569.005	-0
569.197	-0.04
569.389	0
569.582	0.01
569.774	-0
569.966	-0.03
570.159	-0.03
570.351	0.01
570.543	-0.06
570.736	0.01
570.928	-0.05
571.12	0.01
571.312	-0.01
571.505	-0.01
571.697	0.02
571.889	-0.03
572.081	-0.02
572.273	-0.04
572.465	0.05
572.658	-0.02
572.85	0.01
573.042	0
573.234	-0.01
573.426	0.03
573.618	-0.06
573.81	-0.01
574.002	0.02
574.194	0.06
574.386	-0.03
574.578	-0.08
574.77	-0.01
574.962	-0.02
575.154	-0.04
575.346	-0.01
575.538	0.01
575.729	-0.03
575.921	-0.01
576.113	-0.01
576.305	0.05
576.497	-0.02
576.689	0
576.88	-0.05
577.072	-0
577.264	-0.01
577.456	0
577.647	-0.06
577.839	-0.02
578.031	0.04
578.223	-0.05
578.414	-0.04
578.606	0.01
578.798	-0.01
578.989	-0.02
579.181	-0.01
579.372	-0
579.564	-0.01
579.755	0
579.947	0.02
580.139	0.02
580.33	-0.05
580.522	-0.03
580.713	-0.05
580.905	-0.03
581.096	0
581.287	-0.02
581.479	-0.02
581.67	0
581.862	-0.02
582.053	-0.02
582.244	-0.05
582.436	-0.04
582.627	0.01
582.818	-0.02
583.01	-0.04
583.201	0.02
583.392	0.02
583.583	-0.04
583.775	-0.03
583.966	-0.03
584.157	-0.03
584.348	-0
584.54	-0.04
584.731	0.01
584.922	-0.02
585.113	-0.03
585.304	0.05
585.495	0.02
585.686	-0
585.877	0.02
586.068	0.01
586.259	0.01
586.45	0.01
586.641	-0.03
586.832	-0.06
587.023	-0
587.214	-0.05
587.405	-0.01
587.596	-0.01
587.787	0.02
587.978	0.01
588.169	-0.02
588.36	-0.01
588.551	0.01
588.742	-0.03
588.932	-0.01
589.123	0
589.314	0.01
589.505	0.02
589.696	-0
589.886	-0.01
590.077	-0.05
590.268	-0.01
590.458	-0.05
590.649	-0.05
590.84	0.02
591.03	-0.01
591.221	-0.03
591.412	-0.03
591.602	-0.01
591.793	0.05
591.984	-0.05
592.174	-0.03
592.365	0.05
592.555	-0.01
592.746	0.01
592.936	0
593.127	0.01
593.317	0.02
593.508	-0.03
593.698	-0.02
593.889	-0
594.079	0
594.269	-0.02
594.46	-0.01
594.65	-0.01
594.84	0
595.031	-0.03
595.221	-0.04
595.411	-0.06
595.602	-0
595.792	-0.03
595.982	-0.04
596.172	0.04
596.363	0.02
596.553	-0
596.743	-0.02
596.933	-0.01
597.123	0.02
597.314	-0.02
597.504	-0.01
597.694	0.03
597.884	-0
598.074	-0.02
598.264	-0.02
598.454	0.01
598.644	-0.01
598.834	-0
599.024	-0.05
599.214	-0.03
599.404	0.02
599.594	-0.02
599.784	-0.05
599.974	0.05
600.164	0.02
600.354	-0.04
600.544	-0.04
600.734	-0
600.924	0.03
601.114	-0.02
601.303	-0.01
601.493	0.01
601.683	-0.03
601.873	0.01
602.063	-0.05
602.252	0.02
602.442	-0.05
602.632	-0.02
602.821	-0.07
603.011	0.01
603.201	-0
603.39	-0.04
603.58	-0.04
603.77	0.02
603.959	0.01
604.149	-0.02
604.339	-0.02
604.528	0.04
604.718	0.01
604.907	-0.02
605.097	-0.01
605.286	-0.05
605.476	-0.02
605.665	0.03
605.855	-0.03
606.044	0.05
606.234	0.01
606.423	0
606.612	-0.05
606.802	0.01
606.991	0.02
607.181	-0.02
607.37	-0.05
607.559	-0.01
607.749	-0.03
607.938	-0
608.127	-0.02
608.316	-0.02
608.506	0.01
608.695	-0.03
608.884	-0.06
609.073	-0.01
609.263	0.02
609.452	0.01
609.641	-0.02
609.83	-0.05
610.019	-0.02
610.208	-0.03
610.397	-0.01
610.586	0.01
610.775	-0.03
610.965	-0.04
611.154	-0.04
611.343	0.02
611.532	0.02
611.721	-0.04
611.91	-0.05
612.099	0.03
612.287	-0.01
612.476	-0.02
612.665	0.03
612.854	-0.03
613.043	0.03
613.232	0
613.421	-0.04
613.61	-0.01
613.798	-0.01
613.987	0.02
614.176	-0.01
614.365	0.02
614.554	-0.01
614.742	0.01
614.931	-0.03
615.12	0.01
615.309	-0.02
615.497	0.03
615.686	-0.04
615.875	0
616.063	0.02
616.252	-0.02
616.44	-0.01
616.629	-0.02
616.818	0.01
617.006	-0.03
617.195	-0.02
617.383	-0
617.572	-0.01
617.76	-0.01
617.949	-0.03
618.137	0
618.326	0.02
618.514	-0.04
618.703	-0.03
618.891	0.04
619.079	-0.06
619.268	0.02
619.456	-0.03
619.644	0.03
619.833	-0.02
620.021	-0.02
620.209	-0.07
620.398	0
620.586	-0
620.774	-0
620.962	0
621.151	0.06
621.339	-0
621.527	-0.04
621.715	-0.07
621.903	-0.06
622.092	-0.02
622.28	-0
622.468	0.02
622.656	0
622.844	0.02
623.032	-0.02
623.22	-0.06
623.408	-0.02
623.596	-0.01
623.784	0.04
623.972	-0.07
624.16	-0.02
624.348	0.04
624.536	-0.03
624.724	-0.02
624.912	0.02
625.1	0.04
625.288	-0.05
625.476	-0.02
625.664	0.02
625.851	-0.04
626.039	-0
626.227	0.03
626.415	-0.01
626.603	-0.05
626.79	-0.01
626.978	-0.06
627.166	0
627.354	-0.02
627.541	-0.02
627.729	-0.07
627.917	-0.01
628.104	0.02
628.292	0.02
628.48	-0.01
628.667	0.02
628.855	0.01
629.042	0
629.23	-0.03
629.418	-0.02
629.605	-0.02
629.793	-0.04
629.98	-0.04
630.168	-0.03
630.355	-0.03
630.543	0.01
630.73	-0.04
630.917	0.04
631.105	0.04
631.292	-0.02
631.48	0
631.667	0.04
631.854	-0.01
632.042	-0.01
632.229	-0.08
632.416	-0.01
632.604	-0.02
632.791	-0.06
632.978	0.02
633.165	0
633.353	0
633.54	0.02
633.727	-0.12
633.914	-0.04
634.101	-0.06
634.289	0.04
634.476	-0.04
634.663	-0.04
634.85	-0.01
635.037	-0.02
635.224	-0.04
635.411	0.03
635.598	0.04
635.785	-0.01
635.972	-0.03
636.159	0.05
636.346	-0.02
636.533	0.01
636.72	-0.04
636.907	-0.03
637.094	0.02
637.281	-0.02
637.468	0
637.655	-0.02
637.842	0.01
638.029	-0.02
638.215	0.02
638.402	-0.02
638.589	-0.01
638.776	-0.04
638.963	-0.04
639.149	0.01
639.336	0.01
639.523	-0.02
639.709	-0.02
639.896	-0.02
640.083	0.03
640.27	0.02
640.456	-0.05
640.643	0
640.829	-0.05
641.016	-0.01
641.203	-0.05
641.389	0.04
641.576	0.01
641.762	-0.01
641.949	-0.03
642.135	-0
642.322	0.03
642.508	-0.07
642.695	0
642.881	-0.03
643.068	-0.02
643.254	-0.01
643.441	0.05
643.627	-0.04
643.813	-0.06
644	0.01
644.186	-0.04
644.372	-0.05
644.559	0.01
644.745	0.02
644.931	-0.01
645.118	-0.02
645.304	0
645.49	-0.03
645.676	-0.06
645.862	-0.01
646.049	0.04
646.235	0.01
646.421	0.09
646.607	0.03
646.793	-0.03
646.979	-0.03
647.165	-0.02
647.352	-0.05
647.538	0.02
647.724	-0.02
647.91	-0.01
648.096	0.02
648.282	0.02
648.468	-0.02
648.654	-0.02
648.84	0.01
649.026	-0.02
649.212	-0.02
649.397	-0.04
649.583	-0.06
649.769	0.02
649.955	0.01
650.141	0.01
650.327	0.06
650.513	-0.03
650.698	0.01
650.884	-0.08
651.07	0.02
651.256	0.01
651.442	-0.02
651.627	-0
651.813	0.02
651.999	-0.02
652.184	0.02
652.37	-0.03
652.556	-0.04
652.741	-0
652.927	-0.09
653.113	-0.02
653.298	-0.02
653.484	0.01
653.669	-0.06
653.855	0.02
654.04	0
654.226	-0.03
654.412	0
654.597	-0.04
654.782	0.02
654.968	0.02
655.153	0
655.339	-0.05
655.524	-0.04
655.71	0.03
655.895	-0.03
656.08	-0.04
656.266	0.07
656.451	-0.01
656.636	-0.01
656.822	0.02
657.007	-0.06
657.192	-0.02
657.378	-0.06
657.563	-0.01
657.748	0.01
657.933	-0.02
658.118	-0.04
658.304	0.04
658.489	-0.02
658.674	0.02
658.859	-0.04
659.044	0.02
659.229	0
659.414	-0.04
659.599	-0.01
659.785	-0.04
659.97	-0.04
660.155	-0
660.34	-0.02
660.525	-0.02
660.71	-0.03
660.895	-0.01
661.08	-0.02
661.264	-0.03
661.449	-0.01
661.634	0.06
661.819	-0
662.004	0.03
662.189	-0.1
662.374	-0.05
662.559	-0.05
662.743	-0.03
662.928	-0.02
663.113	-0.02
663.298	-0.1
663.483	-0.05
663.667	-0
663.852	-0.04
664.037	0.01
664.221	-0.04
664.406	0.02
664.591	-0.01
664.775	0.05
664.96	0.01
665.145	0.03
665.329	0.01
665.514	-0.03
665.698	0.01
665.883	-0.06
666.068	0.05
666.252	-0
666.437	-0.04
666.621	-0.01
666.806	0.03
666.99	-0.06
667.174	-0.04
667.359	0.07
667.543	0.02
667.728	0.01
667.912	-0.07
668.096	-0
668.281	-0.01
668.465	-0.01
668.649	-0.01
668.834	-0.04
669.018	-0.05
669.202	-0.04
669.387	-0.04
669.571	0.04
669.755	-0.05
669.939	-0.06
670.124	-0.02
670.308	0.04
670.492	0.03
670.676	-0.02
670.86	-0.05
671.044	-0.02
671.228	0.02
671.413	-0.06
671.597	-0.04
671.781	-0.02
671.965	-0
672.149	-0.05
672.333	0.02
672.517	-0.04
672.701	0.02
672.885	-0.01
673.069	-0.03
673.253	0.05
673.437	-0.03
673.621	-0.04
673.804	-0.02
673.988	-0.01
674.172	-0.02
674.356	-0.09
674.54	-0.04
674.724	0.07
674.908	-0.01
675.091	0.04
675.275	-0.04
675.459	0.03
675.643	-0.02
675.826	-0.01
676.01	0.01
676.194	-0.02
676.377	0.02
676.561	0.01
676.745	-0.04
676.928	0.01
677.112	0.03
677.296	0
677.479	-0.02
677.663	-0
677.846	0.01
678.03	-0.04
678.213	-0.03
678.397	-0
678.58	0
678.764	-0.03
678.947	-0.03
679.131	-0.01
679.314	0.03
679.498	-0.05
679.681	0
679.865	0.03
680.048	-0.02
680.231	0
680.415	-0.03
680.598	-0.03
680.781	-0.03
680.965	-0.02
681.148	0.01
681.331	0.01
681.514	0.04
681.698	-0.02
681.881	-0.03
682.064	-0.04
682.247	-0.02
682.43	-0.05
682.614	0.03
682.797	-0.01
682.98	0.05
683.163	-0.07
683.346	0.03
683.529	-0.01
683.712	-0.08
683.895	-0.02
684.078	-0.01
684.261	-0.03
684.444	-0.02
684.627	0.02
684.81	-0.01
684.993	0.01
685.176	-0.01
685.359	-0.03
685.542	-0.04
685.725	0.01
685.908	0.03
686.091	-0
686.274	0.03
686.457	0.04
686.639	-0
686.822	0.01
687.005	-0.02
687.188	-0
687.371	0.12
687.553	0.01
687.736	-0.01
687.919	0.08
688.102	0.02
688.284	-0.02
688.467	-0.01
688.65	-0.02
688.832	-0.03
689.015	-0.03
689.197	-0.05
689.38	0.09
689.563	0.06
689.745	-0.04
689.928	-0.05
690.11	-0.05
690.293	0.02
690.475	-0.09
690.658	0.02
690.84	-0
691.023	-0.03
691.205	-0.06
691.388	-0.05
691.57	0.05
691.752	0.02
691.935	-0.11
692.117	-0.04
692.3	0.03
692.482	-0.01
692.664	-0.02
692.847	0.01
693.029	0.09
693.211	0
693.393	-0.02
693.576	-0.06
693.758	-0.02
693.94	-0.02
694.122	-0.03
694.304	-0.03
694.487	0.04
694.669	0.1
694.851	-0.05
695.033	-0.04
695.215	-0.08
695.397	-0.05
695.579	0.03
695.761	-0.04
695.943	-0.05
696.125	0.04
696.308	-0.01
696.49	-0.08
696.671	0.1
696.853	-0.07
697.035	0.15
697.217	-0.01
697.399	0.04
697.581	-0.02
697.763	-0.02
697.945	-0.1
698.127	0
698.309	0.03
698.491	-0.03
698.672	-0.02
698.854	0.07
699.036	0.07
699.218	-0.04
699.399	-0.02
699.581	0.05
699.763	0.03
699.945	-0.04
700.126	-0.05
700.308	0.03
700.49	-0.01
700.671	-0.08
700.853	0.01
701.035	0.02
701.216	-0.07
701.398	-0.09
701.579	-0.02
701.761	0.06
701.943	-0.05
702.124	-0.04
702.306	-0.11
702.487	0.07
702.669	-0.08
702.85	-0.07
703.031	-0.05
703.213	0.03
703.394	0.03
703.576	-0.07
703.757	0.04
703.938	0.03
704.12	0.12
704.301	-0.03
704.483	-0.03
704.664	0.04
704.845	0.08
705.026	0
705.208	0.02
705.389	0.01
705.57	-0
705.751	-0.01
705.933	-0.1
706.114	0.02
706.295	0.01
706.476	-0.08
706.657	0.06
706.838	-0.02
707.02	-0.01
707.201	-0.02
707.382	-0.1
707.563	-0
707.744	-0.03
707.925	-0.05
708.106	-0.06
708.287	-0.03
708.468	0.1
708.649	-0.01
708.83	0.04
709.011	-0.04
709.192	-0
709.373	-0.06
709.554	-0.04
709.734	0.03
709.915	0.03
710.096	-0.07
710.277	-0.13
710.458	-0.01
710.639	-0.01
710.819	-0.11
711	-0.05
711.181	0.01
711.362	0.07
711.542	0.08
711.723	0.01
711.904	0.05
712.085	-0.03
712.265	-0.03
712.446	-0.09
712.627	-0.03
712.807	0.02
712.988	-0.01
713.168	-0.03
713.349	0.06
713.53	-0.14
713.71	-0.08
713.891	-0.05
714.071	0
714.252	0
714.432	-0.07
714.613	-0.07
714.793	-0.08
714.974	0.07
715.154	0.07
715.334	-0.01
715.515	0.11
715.695	-0.07
715.876	-0.04
716.056	-0.08
716.236	-0.07
716.417	-0.1
716.597	-0.11
716.777	0.11
716.957	-0.03
717.138	-0.01
717.318	0.03
717.498	-0.12
717.678	0
717.859	0.02
718.039	-0.1
718.219	0.06
718.399	0.03
718.579	-0.1
718.759	-0.12
718.939	0.01
719.12	-0.04
719.3	0.02
719.48	-0.22
719.66	-0.11
719.84	0.08
720.02	-0.02
720.2	0
720.38	-0.05
720.56	0.04
720.74	-0.01
720.92	0.04
721.1	-0.02
721.279	0.07
721.459	0.04
721.639	-0.11
721.819	0.03
721.999	-0.06
722.179	0.08
722.359	-0.11
722.538	0.04
722.718	-0.04
722.898	0
723.078	-0.07
723.257	-0.06
723.437	-0
723.617	0.02
723.797	-0.03
723.976	0.01
724.156	-0.03
724.336	0.1
724.515	0.08
724.695	-0.08
724.874	-0.06
725.054	0.05
725.234	-0.04
725.413	0.02
725.593	0.01
725.772	0.05
725.952	-0.05
726.131	-0.02
726.311	-0.05
726.49	0.04
726.67	-0.13
726.849	0.07
727.028	0.02
727.208	-0.05
727.387	-0.06
727.567	-0.08
727.746	-0.01
727.925	-0.13
728.105	-0.11
728.284	0.01
728.463	-0.01
728.643	0.13
728.822	-0.19
729.001	-0.03
729.18	0
729.359	0.01
729.539	-0.01
729.718	-0.04
729.897	-0.04
730.076	-0.05
730.255	-0.15
730.434	-0.05
730.614	-0
730.793	0.13
730.972	-0.1
731.151	-0.02
731.33	0.08
731.509	0.07
731.688	0.01
731.867	0.01
732.046	-0.12
732.225	0.15
732.404	-0.08
732.583	-0.06
732.762	0.02
732.941	0.12
733.12	-0.03
733.298	-0.1
733.477	-0.06
733.656	-0
733.835	-0.01
734.014	0.08
734.193	-0
734.371	0.09
734.55	-0.05
734.729	-0.04
734.908	0.07
735.086	-0.01
735.265	0.09
735.444	-0.16
735.623	-0.08
735.801	-0.09
735.98	0.06
736.159	-0.08
736.337	0.12
736.516	-0.09
736.694	0.04
736.873	-0.01
737.052	0.13
737.23	0.07
737.409	-0.04
737.587	0.12
737.766	-0.18
737.944	-0.06
738.123	0.01
738.301	0
738.479	-0.04
738.658	-0
738.836	-0.12
739.015	0
739.193	0.09
739.371	-0.06
739.55	-0.02
739.728	-0.07
739.906	0.05
740.085	0.09
740.263	0.04
740.441	-0.16
740.62	0.14
740.798	0.11
740.976	-0.08
741.154	-0.16
741.332	0.1
741.511	-0.11
741.689	0
741.867	0.1
742.045	0
742.223	-0.07
742.401	0.01
742.579	-0
742.757	-0.03
742.935	-0.11
743.114	-0.1
743.292	0
743.47	-0.05
743.648	0.09
743.826	-0.01
744.004	0.07
744.181	0.09
744.359	-0.05
744.537	0.06
744.715	-0.17
744.893	-0.03
745.071	-0.07
745.249	-0.03
745.427	-0.02
745.605	0.12
745.782	-0.02
745.96	0.06
746.138	-0.03
746.316	0.05
746.493	0.03
746.671	0.01
746.849	0.09
747.027	0.07
747.204	-0.18
747.382	-0.05
747.56	-0.07
747.737	-0.15
747.915	-0.04
748.093	0.01
748.27	-0.03
748.448	-0.02
748.625	-0.08
748.803	-0.11
748.98	-0.08
749.158	-0
749.335	0.05
749.513	-0.04
749.69	-0.07
749.868	-0.05
750.045	0.02
750.223	-0.18
750.4	-0.14
750.578	0.2
750.755	-0.07
750.932	-0.14
751.11	0.14
751.287	-0.2
751.464	0.08
751.642	-0.08
751.819	0
751.996	-0.01
752.173	-0
752.351	-0.1
752.528	-0.05
752.705	-0.14
752.882	-0.07
753.06	-0.03
753.237	0.02
753.414	0.09
753.591	0.07
753.768	-0
753.945	-0.08
754.122	-0.07
754.299	0.11
754.476	-0.06
754.654	-0.02
754.831	0.06
755.008	0.01
755.185	0.03
755.362	-0.16
755.539	0.02
755.716	-0.11
755.892	-0
756.069	0.04
756.246	-0.09
756.423	-0.1
756.6	0.1
756.777	0.02
756.954	0.12
757.131	0.01
757.307	-0.16
757.484	-0.07
757.661	-0.02
757.838	0.01
758.015	-0.06
758.191	0.08
758.368	0.05
758.545	0.17
758.721	0.04
758.898	-0.12
759.075	-0.05
759.251	0.07
759.428	0.11
759.605	-0.19
759.781	0.02
759.958	0.08
760.134	0
760.311	-0.04
760.488	0.05
760.664	0.17
760.841	-0.06
761.017	-0.05
761.194	-0.01
761.37	0.17
761.547	-0.02
761.723	-0.01
761.899	0.06
762.076	-0.16
762.252	-0.2
762.429	-0.14
762.605	0.01
762.781	-0.03
762.958	0.07
763.134	-0.04
763.31	-0.14
763.486	0.11
763.663	-0.26
763.839	-0
764.015	-0.09
764.191	-0.15
764.368	-0.04
764.544	-0.07
764.72	-0
764.896	0.11
765.072	0.05
765.248	-0.07
765.425	-0.08
765.601	-0.16
765.777	-0.12
765.953	-0.16
766.129	-0.09
766.305	-0.13
766.481	0.13
766.657	-0
766.833	0.15
767.009	-0.04
767.185	-0.11
767.361	-0.04
767.537	-0.06
767.713	0.01
767.889	-0.17
768.065	-0.04
768.24	-0.28
768.416	0.04
768.592	-0.05
768.768	0.01
768.944	-0.06
769.12	-0.18
769.295	-0.21
769.471	-0.09
769.647	-0.13
769.823	0.16
769.998	-0.08
770.174	-0.13
770.35	0.13
770.525	0.34
770.701	0.21
770.877	0.01
771.052	-0.14
771.228	0.07
771.403	-0.06
771.579	0.12
771.755	0.28
771.93	-0
772.106	-0.06
772.281	-0.06
772.457	0.09
772.632	0.1
772.808	-0.12
772.983	-0.05
773.159	-0.24
773.334	0.15
773.509	-0.03
773.685	-0.11
773.86	0.24
774.036	0.13
774.211	-0.07
774.386	-0.09
774.562	-0.01
774.737	0.07
774.912	-0.15
775.087	0.01
775.263	0.03
775.438	0.06
775.613	-0.17
775.788	-0.06
775.964	0.08
776.139	0.39
776.314	-0.17
776.489	-0.02
776.664	0.1
776.839	-0.11
777.014	0.29
777.19	0.25
777.365	0.2
777.54	0.16
777.715	-0.24
777.89	-0.07
778.065	-0.26
778.24	-0.05
778.415	0.17
778.59	-0.13
778.765	-0.13
778.94	0.03
779.115	-0.01
779.289	-0.1
779.464	0.1
779.639	0.04
779.814	-0.19
779.989	-0.13
780.164	0.11
780.339	-0.01
780.513	-0.07
780.688	-0.21
780.863	-0.06
781.038	0.18
781.212	-0.27
781.387	0.06
781.562	0.23
781.737	0.07
781.911	-0.1
782.086	-0.16
782.261	-0.02
782.435	0.26
782.61	0.02
782.784	0.02
782.959	0.32
783.134	-0.16
783.308	-0.31
783.483	0.04
783.657	0.25
783.832	0.16
784.006	-0.28
784.181	0.09
784.355	0.04
784.53	-0.01
784.704	-0.17
784.878	0.04
785.053	0.17
785.227	0.2
785.402	0.37
785.576	-0.37
785.75	-0.36
785.925	-0.07
786.099	0.04
786.273	0.07
786.448	0.02
786.622	-0.04
786.796	0.01
786.97	-0.14
787.145	0.43
787.319	-0.15
787.493	-0.17
787.667	-0.45
787.841	-0.03
788.015	0.24
788.19	-0.04
788.364	-0.03
788.538	0.07
788.712	0.09
788.886	0.17
789.06	0.27
789.234	0.07
789.408	-0.25
789.582	-0.21
789.756	-0.17
789.93	0.01
790.104	-0.01
790.278	0.04
790.452	-0.3
790.626	0.26
790.8	-0.22
790.973	0.06
791.147	0.27
791.321	0.17
791.495	0.14
791.669	0.2
791.843	0.05
792.016	0.1
792.19	0.34
792.364	-0.03
792.538	0.37
792.711	0.36
792.885	0
793.059	-0.17
793.233	-0.46
793.406	0.34
793.58	0.15
793.754	0.21
793.927	-0.13
794.101	0.25
794.274	0.12
794.448	0.1
794.622	-0.2
794.795	0.28
794.969	-0.11
795.142	0.3
795.316	-0.3
795.489	-0.11
795.663	0.46
795.836	-0.09
796.009	-0.09
796.183	0.26
796.356	0.07
796.53	0.25
796.703	-0.19
796.876	0.48
797.05	0.08
797.223	-0.19
797.396	-0.09
797.57	0.06
797.743	0.26
797.916	-0.08
798.09	-0.34
798.263	0.35
798.436	0.05
798.609	0.06
798.782	0
798.956	-0.03
799.129	-0.13
799.302	0.04
799.475	0.11
799.648	-0.31
799.821	-0.28
799.994	-0.01
800.167	-0.12
800.34	-0.08
800.514	0.22
800.687	-0.09
800.86	-0.1
801.033	-0.09
801.206	0.04
801.379	-0.21
801.551	0.21
801.724	0.22
801.897	0.31
802.07	-0.04
802.243	-0.43
802.416	-0.17
802.589	-0.17
802.762	0.1
802.935	-0.08
803.107	-0.02
803.28	0.44
803.453	0.43
803.626	-0.18
803.798	0.18
803.971	-0.15
804.144	0.22
804.317	-0.22
804.489	0.34
804.662	-0.2
804.835	0.04
805.007	-0.39
805.18	0.56
805.353	0.3
805.525	-0.37
805.698	-0.02
805.87	0.2
806.043	0.3
806.215	-0.06
806.388	-0.28
806.56	0.28
806.733	0.14
806.905	0.16
807.078	-0.31
807.25	-0.28
807.423	0.12
807.595	-0.03
807.768	0.16
807.94	0.55
808.112	0.07
808.285	-0.15
808.457	-0.08
808.629	-0.36
808.802	0.29
808.974	-0.27
809.146	-0.2
809.318	-0.25
809.491	-0.15
809.663	0.08
809.835	-0.17
810.007	-0.06
810.18	0.27
810.352	-0.4
810.524	0.27
810.696	0.35
810.868	0.2
811.04	-0.09
811.212	-0.36
811.384	0.16
811.556	0.11
811.728	0.13
811.901	0.72
812.073	-0.21
812.245	0.12
812.417	0.24
812.589	-0.73
812.76	-0.28
812.932	0.15
813.104	-0.1
813.276	-0.03
813.448	0.46
813.62	-0.12
813.792	0.07
813.964	-0.06
814.136	0.24
814.307	-0.29
814.479	-0.33
814.651	0.16
814.823	0.31
814.995	-0.01
815.166	-0.14
815.338	-0.65
815.51	-0.6
815.681	0.81
815.853	-0.46
816.025	-0.33
816.196	0.48
816.368	-0.14
816.54	-0.55
816.711	-0.57
816.883	-0.1
817.054	1.36
817.226	-0.57
817.398	0.11
817.569	0.22
817.741	0.18
817.912	0.01
818.084	-0.25
818.255	0.29
818.426	0.06
818.598	0.03
818.769	0.08
818.941	0.05
819.112	0.13
819.283	0.33
819.455	-0.65
819.626	-0.18
819.798	0.16
819.969	-0.04
820.14	-0.08
820.311	-0.12
820.483	0.38
820.654	-0.27
820.825	-0.3
820.996	-0.55
821.168	-0.6
821.339	-0.09
821.51	-0.42
821.681	-0.23
821.852	0.11
822.023	0.08
822.195	-0.55
822.366	0.22
822.537	-0.25
822.708	0.24
822.879	-0.09
823.05	0.42
823.221	-0.22
823.392	0.32
823.563	-0.09
823.734	0.29
823.905	0.06
824.076	-0.34
824.247	-0.15
824.418	-0.32
824.589	0.18
824.759	-0.66
824.93	-0.15
825.101	-0.68
825.272	0.61
825.443	0.46
825.614	0.46
825.784	-0.58
825.955	0.56
826.126	1.28
826.297	0.54
826.467	0.87
826.638	0.76
826.809	-0.76
826.98	-0.56
827.15	-0.19
827.321	0.07
827.492	1
827.662	0.61
827.833	0.56
828.003	0.42
828.174	-0.31
828.345	-0.73
828.515	0.53
828.686	0.14
828.856	-0.38
829.027	-0.19
829.197	0.47
829.368	0.13
829.538	-0.22
829.709	0.1
829.879	0.3
830.049	0.17
830.22	-0.44
830.39	0.35
830.56	0.1
830.731	0.02
830.901	-0.74
831.072	-0.09
831.242	-0.38
831.412	0.01
831.582	0.47
831.753	-0.48
831.923	0.19
832.093	0.29
832.263	0.12
832.434	-0.35
832.604	-0.15
832.774	0.3
832.944	-0.34
833.114	-0.2
833.284	0.78
833.454	-0.59
833.624	-0.2
833.795	-0.55
833.965	-0.09
834.135	0.36
834.305	-0.97
834.475	-0.25
834.645	0.14
834.815	0.23
834.985	-0.83
835.155	-0.38
835.325	0.07
835.494	0.45
835.664	0.5
835.834	-1
836.004	-0.33
836.174	0.44
836.344	0.61
836.514	-1.3
836.684	0.09
836.853	0.32
837.023	-0.27
837.193	-0.05
837.363	1.1
837.532	1.01
837.702	0.21
837.872	-0.07
838.041	0.85
838.211	1.61
838.381	-0.98
838.55	0.08
838.72	1.42
838.89	1.04
839.059	-0.64
839.229	0.05
839.398	0.57
839.568	0.27
839.738	-0.76
839.907	0.07
840.077	-0.05
840.246	0.05
840.416	-0.38
840.585	-0.88
840.755	1.16
840.924	0.8
841.093	-0.66
841.263	-0.21
841.432	0.19
841.602	-0.72
841.771	-0.67
841.94	0.1
842.11	1.94
842.279	0.93
842.448	-0.83
842.617	-1.16
842.787	0.49
842.956	-0.75
843.125	0.55
843.294	0.48
843.464	1.36
843.633	-0.7
843.802	-0.86
843.971	0
844.14	0.39
844.309	0.76
844.479	-0.33
844.648	-0.71
844.817	-0.68
844.986	0.47
845.155	0.14
845.324	-0.44
845.493	0.61
845.662	-0.86
845.831	0.39
846	0.41
846.169	0.23
846.338	1.11
846.507	-0.19
846.676	0.59
846.844	-0.3
847.013	-0.19
847.182	0.87
847.351	-0.4
847.52	0.32
847.689	-0.34
847.858	-0.48
848.026	-1.81
848.195	-0.56
848.364	0.15
848.533	-0.87
848.701	-0.34
848.87	0
849.039	0.41
849.207	1.42
849.376	0.8
849.545	0.52
849.713	-0.42
849.882	0.48
850.051	0.19
850.219	0.44
850.388	0.44
850.556	-0.23
850.725	-0.84
850.893	1.13
851.062	-0.12
851.23	0.65
851.399	-1.88
851.567	0.52
851.736	0.12
851.904	-1.32
852.073	-0.6
852.241	0.27
852.41	0.33
852.578	-0.31
852.746	-1.26
852.915	0.84
853.083	-0.29
853.251	-1.22
853.42	0.08
853.588	0.02
853.756	1.83
853.924	-0.22
854.093	-0.6
854.261	-0.1
854.429	-0.86
854.597	0.97
854.765	-1.83
854.934	0.48
855.102	1.24
855.27	0.2
855.438	0.79
855.606	1.16
855.774	1.33
855.942	-2.28
856.11	-1.29
856.278	0.11
856.446	0.28
856.614	-0.16
856.782	-1.45
856.95	0.75
857.118	0.54
857.286	0.02
857.454	-0.58
857.622	1.13
857.79	1.36
857.958	-0.95
858.126	-1.13
858.294	-1.85
858.462	0.12
858.629	0.04
858.797	-1.32
858.965	-0.05
859.133	1.16
859.301	-0.8
859.468	1.99
859.636	-1
859.804	1.01
859.971	-0.39
860.139	-0.04
860.307	0.54
860.474	0.21
860.642	-1.06
860.81	-0.78
860.977	-0.18
861.145	1.09
861.313	-0.06
861.48	-0.12
861.648	0.52
861.815	-0.01
861.983	-1.59
862.15	-1.13
862.318	0.6
862.485	1.72
862.653	-1.09
862.82	-1.1
862.988	1.43
863.155	1.55
863.322	-0.6
863.49	-1.94
863.657	-1.45
863.824	0.9
863.992	0.56
864.159	0.35
864.326	1.86
864.494	0.13
864.661	2.67
864.828	-1.09
864.996	0.57
865.163	0.4
865.33	-0.04
865.497	-1.18
865.664	-1.39
865.832	-2.18
865.999	-0.37
866.166	-1.84
866.333	-1.33
866.5	-0.85
866.667	-0.02
866.834	0.82
867.001	2.84
867.168	-2.25
867.335	0.05
867.502	-1.13
867.669	1.21
867.836	2.84
868.003	-0.2
868.17	1.49
868.337	-1.44
868.504	1.57
868.671	-0.96
868.838	-0.08
869.005	0.36
869.172	-0.86
869.339	-0.87
869.505	-0.35
869.672	-1.35
869.839	2.26
870.006	0.83
870.173	-1.38
870.339	0.29
870.506	1.1
870.673	-1.16
870.84	0.59
871.006	1.59
871.173	-1.52
871.34	-0.53
871.506	-2.74
871.673	1.21
871.839	-0.84
872.006	0.45
872.173	-0.53
872.339	-1.3
872.506	2.03
872.672	0.37
872.839	-1.54
873.005	0.32
873.172	2.23
873.338	2.23
873.505	0.44
873.671	-0.36
873.838	0.97
874.004	-1.45
874.171	-1.5
874.337	-0.9
874.503	0.8
874.67	-0.03
874.836	-0.77
875.002	1.74
875.169	-0.34
875.335	1.6
875.501	-1.03
875.668	0.27
875.834	1.78
876	-0.99
876.166	2.51
876.332	-1.53
876.499	1.83
876.665	-0.43
876.831	0.34
876.997	2.63
877.163	1.44
877.329	-0.17
877.495	-1.47
877.662	0.06
877.828	1.2
877.994	0.65
878.16	-2.63
878.326	0.73
878.492	-1.23
878.658	0.1
878.824	-0.23
878.99	0.88
879.156	-1.26
879.322	2.66
879.487	-0.14
879.653	-0.18
879.819	1.13
879.985	0.66
880.151	-1.18
880.317	0.33
880.483	0.66
880.648	1.63
880.814	-1.46
880.98	0.22
881.146	-2.82
881.312	-1.79
881.477	-2.43
881.643	-0.05
881.809	1.65
881.974	1.08
882.14	-0.65
882.306	0.74
882.471	5.87
882.637	-1.96
882.803	1.02
882.968	2.7
883.134	3.71
883.299	-0.46
883.465	1.9
883.63	0.76
883.796	1.52
883.961	2.95
884.127	2.59
884.292	-3.74
884.458	-1.45
884.623	-1.45
