Data from Apollo_Calib_20240827__AbsoluteIrradiance__250__03-19-01-294.txt Node

Date: Wed Aug 28 03:19:01 BST 2024
User: biology
Spectrometer: FLMT08252
Trigger mode: 0
Integration Time (sec): 5.000000E-1
Scans to average: 5
Electric dark correction enabled: true
Nonlinearity correction enabled: false
Boxcar width: 0
XAxis mode: Wavelengths
Number of Pixels in Spectrum: 3648
>>>>>Begin Spectral Data<<<<<
179.588	-0
179.809	-0
180.03	-0
180.251	-0
180.473	-0
180.694	0
180.915	0
181.136	-0
181.357	-0
181.578	-0
181.799	-0
182.02	-0
182.241	0
182.462	-0
182.683	0
182.904	-0
183.125	-0
183.346	0
183.567	0
183.788	0
184.009	-0
184.23	0
184.451	0
184.672	-0
184.892	-0
185.113	0
185.334	0
185.555	-0
185.776	-0
185.996	0
186.217	0
186.438	0
186.659	-0
186.879	0
187.1	-0
187.321	-0
187.541	-0
187.762	0
187.983	0
188.203	-0
188.424	-0
188.644	-0
188.865	0
189.086	-0
189.306	0
189.527	-0
189.747	0
189.968	-0
190.188	0
190.409	0
190.629	0
190.849	-0
191.07	-0
191.29	0
191.511	0
191.731	-0
191.951	-0
192.172	0
192.392	-0
192.612	-0
192.833	-0
193.053	0
193.273	0
193.493	0
193.714	0
193.934	0
194.154	0
194.374	0
194.594	0
194.815	0
195.035	0
195.255	0
195.475	-0
195.695	0
195.915	0
196.135	-0
196.355	0
196.575	0
196.795	0
197.015	-0
197.235	-0
197.455	-0
197.675	0
197.895	-0
198.115	-0
198.335	0
198.555	-0
198.775	0
198.995	0
199.214	0
199.434	-0
199.654	0
199.874	-0
200.094	1.76
200.313	0.23
200.533	0.13
200.753	-0.51
200.973	1.25
201.192	0.67
201.412	-1.13
201.632	0.07
201.851	0.63
202.071	-0.43
202.291	-0.12
202.51	-0.4
202.73	0.73
202.95	-0.1
203.169	-0.45
203.389	-0.27
203.608	0.41
203.828	-0.47
204.047	-0.13
204.267	0.22
204.486	0.19
204.706	0.56
204.925	0.03
205.145	-0.38
205.364	0.57
205.583	0.72
205.803	-0.27
206.022	-0.04
206.242	0.25
206.461	0.28
206.68	-0.4
206.9	0.45
207.119	0.6
207.338	0.6
207.557	-0.47
207.777	-0.39
207.996	-0.11
208.215	0.49
208.434	-0.34
208.654	-0.28
208.873	0.29
209.092	0.6
209.311	0.01
209.53	0.07
209.749	-0.06
209.968	-0.35
210.187	-0.07
210.407	-0.27
210.626	-0.04
210.845	0.45
211.064	-0.05
211.283	-0.46
211.502	0.16
211.721	0.01
211.94	-0.03
212.159	0.3
212.377	0.36
212.596	0.3
212.815	0.2
213.034	0.2
213.253	0.48
213.472	0.23
213.691	-0.14
213.91	-0.17
214.128	-0.07
214.347	0.66
214.566	-0.21
214.785	-0.33
215.003	0.36
215.222	0.15
215.441	0.17
215.66	-0.48
215.878	0.05
216.097	0.26
216.316	-0.04
216.534	0.1
216.753	0.04
216.972	0.11
217.19	0.05
217.409	-0.21
217.627	-0.11
217.846	-0.03
218.064	-0.09
218.283	-0.12
218.501	0.55
218.72	0.3
218.938	-0.28
219.157	-0.2
219.375	0.4
219.594	0.2
219.812	-0.05
220.031	-0.21
220.249	0.41
220.467	0.36
220.686	0
220.904	-0.15
221.122	-0.11
221.341	0.33
221.559	0.03
221.777	-0.06
221.995	0.15
222.214	0.1
222.432	-0.12
222.65	0.27
222.868	0.04
223.086	0.21
223.305	0.23
223.523	-0.07
223.741	0.51
223.959	-0
224.177	-0.27
224.395	-0.03
224.613	0.07
224.831	0.24
225.049	-0.17
225.267	-0.06
225.485	0.1
225.703	-0.03
225.921	-0.08
226.139	-0.02
226.357	0.23
226.575	0.1
226.793	0.1
227.011	0.57
227.229	0.03
227.447	0.26
227.665	-0.07
227.883	-0.19
228.1	0.03
228.318	0.15
228.536	-0.27
228.754	0.01
228.972	0.08
229.189	0.17
229.407	0.04
229.625	0.07
229.843	0.31
230.06	0.11
230.278	-0.08
230.496	0.03
230.713	0.06
230.931	0.14
231.149	-0.03
231.366	-0.14
231.584	0.04
231.801	0.37
232.019	0.03
232.236	-0.07
232.454	-0.17
232.671	0.03
232.889	0.04
233.106	-0.15
233.324	0.2
233.541	0.07
233.759	0.06
233.976	0
234.194	-0.04
234.411	0.06
234.628	-0.07
234.846	-0.05
235.063	0.05
235.28	0.05
235.498	0.01
235.715	-0
235.932	0.16
236.149	0.1
236.367	-0.09
236.584	0.08
236.801	-0.04
237.018	0.13
237.236	0.07
237.453	-0.11
237.67	0.2
237.887	-0.01
238.104	0.04
238.321	-0.09
238.538	0.06
238.755	0.11
238.973	-0.12
239.19	0.05
239.407	0.13
239.624	0.09
239.841	-0.06
240.058	-0.01
240.275	0.06
240.492	0.07
240.709	0.04
240.925	0.02
241.142	0.06
241.359	-0.09
241.576	-0.11
241.793	-0.07
242.01	0.01
242.227	0.25
242.444	0.17
242.66	0.11
242.877	-0.07
243.094	-0.08
243.311	0.07
243.527	0
243.744	0.03
243.961	0.14
244.178	-0.02
244.394	-0.04
244.611	0.2
244.828	0.21
245.044	-0.09
245.261	-0.01
245.477	0.02
245.694	0.15
245.911	0.02
246.127	0.07
246.344	0.22
246.56	0.1
246.777	0.01
246.993	0.04
247.21	0.07
247.426	0.16
247.643	-0.01
247.859	-0.12
248.076	-0.03
248.292	0.24
248.508	-0.01
248.725	0.02
248.941	0.06
249.157	0.18
249.374	-0.03
249.59	0.01
249.806	0.04
250.023	0.08
250.239	-0.07
250.455	-0.05
250.671	0.09
250.888	0.01
251.104	0.12
251.32	-0.1
251.536	-0.01
251.752	-0.02
251.969	0.07
252.185	0.04
252.401	0.17
252.617	0.05
252.833	0.02
253.049	0.03
253.265	0.1
253.481	0.08
253.697	0.04
253.913	-0.03
254.129	0.13
254.345	0.02
254.561	0
254.777	0.01
254.993	0.13
255.209	0
255.425	-0.05
255.641	0.03
255.857	0.08
256.073	0.08
256.288	-0.12
256.504	-0.01
256.72	0.06
256.936	0.16
257.152	0.05
257.367	-0.02
257.583	0.07
257.799	0.05
258.015	-0.02
258.23	0.01
258.446	0.12
258.662	0
258.877	-0.09
259.093	-0.11
259.309	0.07
259.524	0.06
259.74	-0.02
259.955	-0.13
260.171	0.01
260.387	0.06
260.602	0.13
260.818	0.07
261.033	-0.07
261.249	-0.01
261.464	-0.02
261.68	-0.01
261.895	0.04
262.11	0.12
262.326	-0.04
262.541	-0.09
262.757	0.09
262.972	0.08
263.187	0.01
263.403	0.04
263.618	0.1
263.833	0
264.049	-0.06
264.264	0.02
264.479	0.14
264.694	0.15
264.91	-0.05
265.125	0.01
265.34	0.11
265.555	0.22
265.77	0.1
265.986	0
266.201	0.01
266.416	0.14
266.631	-0.05
266.846	-0.02
267.061	0.06
267.276	0.05
267.491	-0.1
267.706	0.06
267.921	0.06
268.136	0.03
268.351	-0.04
268.566	-0.04
268.781	0.08
268.996	0.11
269.211	0.02
269.426	-0.04
269.641	0.03
269.856	0.07
270.071	-0
270.285	-0.08
270.5	0.06
270.715	0.13
270.93	0
271.145	0.01
271.359	0.08
271.574	-0.02
271.789	0.01
272.004	-0.06
272.218	0.03
272.433	0.1
272.648	0.02
272.862	0.08
273.077	0.04
273.292	-0
273.506	-0.04
273.721	0.01
273.936	0.02
274.15	0.1
274.365	0.02
274.579	0.08
274.794	0.03
275.008	0.14
275.223	-0.1
275.437	0.07
275.652	0.08
275.866	0.09
276.081	0.01
276.295	0.03
276.509	0.02
276.724	0.05
276.938	0
277.153	0.05
277.367	0.08
277.581	-0.01
277.796	-0
278.01	-0.05
278.224	0.12
278.438	0.13
278.653	-0.06
278.867	-0.03
279.081	-0.14
279.295	0.01
279.51	-0.01
279.724	-0.03
279.938	0.09
280.152	0.09
280.366	-0.02
280.58	0.01
280.794	0.13
281.008	0.13
281.222	0.08
281.437	0.15
281.651	0.06
281.865	0.09
282.079	0.03
282.293	-0.06
282.507	-0.03
282.721	-0.03
282.935	0.01
283.148	-0.06
283.362	0.05
283.576	-0.03
283.79	-0.01
284.004	-0
284.218	0.07
284.432	-0.02
284.646	0.03
284.859	0.04
285.073	0.03
285.287	0.02
285.501	0.03
285.714	0.01
285.928	0.05
286.142	0.02
286.356	-0.03
286.569	0.02
286.783	0.07
286.997	0.1
287.21	0.03
287.424	0.07
287.637	-0.02
287.851	0.04
288.065	0.04
288.278	0.01
288.492	0.03
288.705	0.04
288.919	0.08
289.132	-0.05
289.346	0.06
289.559	-0.06
289.773	-0.01
289.986	-0.02
290.2	0.01
290.413	0.07
290.626	-0.02
290.84	0.01
291.053	0.06
291.267	0.09
291.48	0.04
291.693	0.03
291.906	0.02
292.12	0.02
292.333	-0.02
292.546	0.01
292.76	0.05
292.973	0.04
293.186	0.04
293.399	-0.01
293.612	0.1
293.826	0.06
294.039	0.01
294.252	0.03
294.465	0.05
294.678	0.05
294.891	0.06
295.104	0
295.317	-0.02
295.53	0.07
295.743	0.01
295.956	0.05
296.169	0.1
296.382	0.03
296.595	0.01
296.808	0
297.021	0.06
297.234	0.09
297.447	0.04
297.66	0.07
297.873	0.09
298.086	0.04
298.299	-0.01
298.511	-0.02
298.724	0.02
298.937	-0.04
299.15	-0
299.363	0.06
299.575	0.09
299.788	0.07
300.001	-0.02
300.213	-0.01
300.426	-0.02
300.639	-0.01
300.852	-0.03
301.064	0.06
301.277	0.11
301.489	0.05
301.702	0.07
301.915	0.04
302.127	0.04
302.34	0.09
302.552	0.07
302.765	-0.02
302.977	0.08
303.19	0.02
303.402	-0.01
303.615	0.02
303.827	0.02
304.04	-0.02
304.252	0.08
304.464	0.01
304.677	0.12
304.889	0.08
305.102	-0.05
305.314	-0
305.526	0.04
305.739	0.11
305.951	-0.01
306.163	-0.01
306.375	0.11
306.588	0.05
306.8	0.02
307.012	-0.06
307.224	0.02
307.436	0.06
307.649	-0.03
307.861	0.03
308.073	0.08
308.285	0.03
308.497	0.02
308.709	-0.01
308.921	0.03
309.133	0.08
309.346	0.04
309.558	0.03
309.77	0.05
309.982	0.1
310.194	0.07
310.406	-0.01
310.617	0.14
310.829	0.02
311.041	0.05
311.253	-0.02
311.465	0.01
311.677	0.02
311.889	0.05
312.101	0.01
312.313	0.09
312.524	0.06
312.736	-0.04
312.948	0.02
313.16	0.14
313.372	0.07
313.583	0.02
313.795	-0.01
314.007	0.02
314.218	0.08
314.43	0.04
314.642	0.01
314.853	-0.02
315.065	0.1
315.277	0.02
315.488	0.03
315.7	0.06
315.912	0.06
316.123	0.01
316.335	0.03
316.546	0.15
316.758	0.01
316.969	-0
317.181	0.07
317.392	0.03
317.604	0.11
317.815	-0.02
318.026	-0.01
318.238	-0.02
318.449	0.06
318.661	-0.07
318.872	-0.02
319.083	0.01
319.295	0.08
319.506	-0.01
319.717	0.05
319.929	0.02
320.14	0.04
320.351	0.05
320.562	-0.04
320.774	0.04
320.985	-0.03
321.196	0
321.407	-0.04
321.618	0.06
321.829	0.05
322.041	0.05
322.252	-0.02
322.463	0.05
322.674	0.09
322.885	-0.03
323.096	-0.03
323.307	0.01
323.518	0.07
323.729	0.02
323.94	0.03
324.151	-0
324.362	0.06
324.573	0.04
324.784	-0.02
324.995	0.11
325.206	0.06
325.417	0.04
325.628	0.03
325.838	0.01
326.049	0.06
326.26	0.02
326.471	-0
326.682	0.06
326.892	0.02
327.103	-0.07
327.314	-0.03
327.525	0.1
327.735	0.09
327.946	0.01
328.157	0.02
328.368	0.07
328.578	0.01
328.789	0.06
328.999	0.03
329.21	0.02
329.421	0.07
329.631	0.01
329.842	-0.02
330.052	0.05
330.263	0.04
330.473	0.07
330.684	-0.01
330.894	0.01
331.105	0.06
331.315	0.04
331.526	-0.03
331.736	0.13
331.947	-0.01
332.157	0.04
332.367	-0
332.578	0.08
332.788	0.11
332.999	0.03
333.209	0.05
333.419	0.02
333.629	0.07
333.84	0.05
334.05	0.04
334.26	0.09
334.47	0.04
334.681	0.06
334.891	-0.01
335.101	0.09
335.311	0.13
335.521	0.03
335.732	-0.01
335.942	0.1
336.152	0.04
336.362	0.01
336.572	0.01
336.782	0.1
336.992	0.01
337.202	-0.03
337.412	-0.01
337.622	0.02
337.832	0.02
338.042	0.01
338.252	0.02
338.462	0
338.672	0.01
338.882	0.02
339.092	0.04
339.302	0.07
339.511	0.02
339.721	0.02
339.931	-0.04
340.141	0.07
340.351	0.06
340.561	0.08
340.77	0.04
340.98	0.02
341.19	0.06
341.4	0.01
341.609	-0.03
341.819	0
342.029	-0.02
342.238	-0
342.448	-0.02
342.658	0.07
342.867	0.02
343.077	0.05
343.286	0.06
343.496	0
343.706	0.09
343.915	-0.03
344.125	0.07
344.334	0.05
344.544	0.01
344.753	0
344.963	0.01
345.172	0.03
345.381	-0.03
345.591	0.01
345.8	0.01
346.01	0.09
346.219	0.04
346.428	-0.14
346.638	0.05
346.847	0.05
347.056	0.1
347.266	0.01
347.475	0.03
347.684	0.06
347.893	0.04
348.103	0.05
348.312	0.02
348.521	0.04
348.73	0.05
348.94	0.01
349.149	0.01
349.358	0.03
349.567	0.03
349.776	-0
349.985	-0.04
350.194	0.1
350.403	0.09
350.612	-0.05
350.821	0.02
351.03	0.02
351.239	-0.04
351.448	0.02
351.657	-0
351.866	0.1
352.075	0.02
352.284	0.07
352.493	-0.01
352.702	0.06
352.911	0.01
353.12	0.05
353.329	0.03
353.538	0.03
353.746	0.05
353.955	-0.01
354.164	0.06
354.373	0.02
354.582	0.04
354.79	0.03
354.999	0.05
355.208	0.04
355.416	0.09
355.625	0.01
355.834	-0.01
356.042	0.05
356.251	0.02
356.46	-0.03
356.668	0.08
356.877	0.15
357.085	0.11
357.294	-0.04
357.503	0.07
357.711	0.04
357.92	0.16
358.128	0.07
358.337	0.05
358.545	0.06
358.754	0.04
358.962	0.05
359.17	-0
359.379	0.04
359.587	0.01
359.796	0.06
360.004	0.08
360.212	0.04
360.421	0.11
360.629	0.01
360.837	0.05
361.046	0.03
361.254	0.05
361.462	0.03
361.67	0
361.879	0.03
362.087	0.07
362.295	0.05
362.503	0.02
362.711	0.01
362.92	-0.07
363.128	0.02
363.336	-0.04
363.544	0
363.752	-0.03
363.96	0.02
364.168	-0.01
364.376	0.04
364.584	0.03
364.792	0.1
365	0.05
365.208	0.02
365.416	0.03
365.624	0.08
365.832	0.03
366.04	0.1
366.248	0.03
366.456	0.05
366.664	0.02
366.872	0.03
367.079	0.03
367.287	0.03
367.495	0.06
367.703	-0.01
367.911	0.01
368.118	0.04
368.326	0.04
368.534	0.01
368.742	0.06
368.949	-0.02
369.157	0.01
369.365	0.06
369.572	0.02
369.78	0
369.988	0.03
370.195	0
370.403	0.08
370.61	0.01
370.818	0.01
371.026	0.07
371.233	0.01
371.441	0.04
371.648	0.01
371.856	0.04
372.063	0.04
372.271	0.02
372.478	0.06
372.685	0.02
372.893	0.1
373.1	-0.02
373.308	0.03
373.515	0.14
373.722	0.04
373.93	0.04
374.137	0.05
374.344	0.12
374.552	0.08
374.759	0.09
374.966	0.13
375.173	0.05
375.381	0.07
375.588	0.06
375.795	-0.04
376.002	0
376.209	-0
376.417	0.04
376.624	0.02
376.831	0.1
377.038	0.03
377.245	-0.04
377.452	-0.01
377.659	0.07
377.866	0.01
378.073	0.03
378.28	0.03
378.487	0.08
378.694	0.07
378.901	0.03
379.108	0.03
379.315	0.07
379.522	0.13
379.729	0.04
379.936	0.02
380.143	0.01
380.35	0.01
380.557	0.03
380.763	0.07
380.97	0.04
381.177	0.02
381.384	0.04
381.591	0.02
381.797	0.02
382.004	0.05
382.211	0.08
382.418	-0.01
382.624	0.13
382.831	0.07
383.038	0.01
383.244	0.04
383.451	0.07
383.658	0.09
383.864	0.05
384.071	0.04
384.277	0.18
384.484	0.03
384.69	0.08
384.897	0.03
385.103	0.03
385.31	0.01
385.516	0
385.723	0
385.929	0.03
386.136	0.04
386.342	0.05
386.549	0.04
386.755	0.09
386.961	0.09
387.168	-0.01
387.374	0.04
387.58	0.06
387.787	0.06
387.993	0.03
388.199	-0
388.406	0.03
388.612	0.04
388.818	-0.01
389.024	0.03
389.231	0.05
389.437	0.11
389.643	0.08
389.849	0.05
390.055	0.08
390.261	0.04
390.467	0.1
390.674	0.02
390.88	0.05
391.086	0.1
391.292	-0.01
391.498	0.13
391.704	0.09
391.91	0.06
392.116	0.03
392.322	-0.03
392.528	0.09
392.734	0.04
392.94	0.04
393.146	0.1
393.352	0.07
393.557	0.07
393.763	0.07
393.969	0.14
394.175	0.09
394.381	0.07
394.587	0.03
394.792	0.06
394.998	0.15
395.204	0.17
395.41	0.07
395.615	0.11
395.821	0.1
396.027	0.11
396.233	0.09
396.438	0.1
396.644	0.16
396.85	0.11
397.055	0.07
397.261	0.14
397.466	0.08
397.672	0.12
397.878	0.15
398.083	0.16
398.289	0.08
398.494	0.19
398.7	0.16
398.905	0.1
399.111	0.21
399.316	0.13
399.522	0.17
399.727	0.17
399.932	0.15
400.138	0.15
400.343	0.23
400.549	0.21
400.754	0.28
400.959	0.21
401.165	0.2
401.37	0.25
401.575	0.36
401.78	0.26
401.986	0.26
402.191	0.24
402.396	0.31
402.601	0.31
402.807	0.3
403.012	0.37
403.217	0.37
403.422	0.37
403.627	0.4
403.832	0.38
404.037	0.48
404.243	0.46
404.448	0.43
404.653	0.47
404.858	0.54
405.063	0.57
405.268	0.48
405.473	0.5
405.678	0.54
405.883	0.76
406.088	0.7
406.293	0.57
406.498	0.72
406.703	0.75
406.907	0.73
407.112	0.74
407.317	0.87
407.522	0.89
407.727	0.89
407.932	1.01
408.136	1.12
408.341	1.04
408.546	1.11
408.751	1.1
408.956	1.18
409.16	1.34
409.365	1.35
409.57	1.38
409.774	1.45
409.979	1.46
410.184	1.6
410.388	1.53
410.593	1.72
410.798	1.77
411.002	1.86
411.207	1.91
411.411	1.99
411.616	1.94
411.82	2.18
412.025	2.25
412.229	2.33
412.434	2.43
412.638	2.52
412.843	2.58
413.047	2.71
413.252	2.72
413.456	2.93
413.66	2.95
413.865	3.03
414.069	3.18
414.273	3.31
414.478	3.37
414.682	3.51
414.886	3.69
415.091	3.63
415.295	3.79
415.499	4.07
415.703	4.07
415.908	4.31
416.112	4.35
416.316	4.72
416.52	4.86
416.724	4.83
416.929	5
417.133	5.42
417.337	5.31
417.541	5.61
417.745	5.73
417.949	5.8
418.153	6.05
418.357	6.21
418.561	6.55
418.765	6.56
418.969	6.71
419.173	7.07
419.377	7.11
419.581	7.56
419.785	7.63
419.989	7.7
420.193	8.07
420.397	8.17
420.601	8.33
420.804	8.54
421.008	8.46
421.212	8.68
421.416	8.67
421.62	8.66
421.823	8.75
422.027	8.72
422.231	8.81
422.435	8.72
422.638	8.6
422.842	8.78
423.046	8.82
423.249	9.03
423.453	8.91
423.657	9.03
423.86	8.97
424.064	9.14
424.268	9.02
424.471	8.89
424.675	8.98
424.878	8.82
425.082	8.9
425.285	9.12
425.489	8.69
425.692	8.64
425.896	8.41
426.099	8.41
426.303	8.31
426.506	8.35
426.71	8.28
426.913	8.41
427.116	8.21
427.32	7.82
427.523	7.76
427.726	7.8
427.93	7.54
428.133	7.67
428.336	7.54
428.54	7.31
428.743	7.19
428.946	7.26
429.149	6.86
429.353	6.68
429.556	6.44
429.759	6.18
429.962	5.94
430.165	5.92
430.368	5.36
430.571	5.18
430.775	5.05
430.978	4.75
431.181	4.67
431.384	4.65
431.587	4.39
431.79	4.4
431.993	4.19
432.196	4.18
432.399	4.15
432.602	4.13
432.805	3.9
433.008	4.09
433.211	3.76
433.414	3.77
433.616	3.76
433.819	3.53
434.022	3.44
434.225	3.51
434.428	3.28
434.631	3.39
434.833	3.15
435.036	3.03
435.239	3.15
435.442	2.95
435.645	2.93
435.847	2.83
436.05	2.88
436.253	2.76
436.455	2.68
436.658	2.54
436.861	2.57
437.063	2.46
437.266	2.35
437.468	2.37
437.671	2.46
437.874	2.25
438.076	2.15
438.279	2.17
438.481	2.17
438.684	2.15
438.886	2.13
439.089	1.95
439.291	1.98
439.494	1.94
439.696	1.87
439.899	1.81
440.101	1.84
440.303	1.75
440.506	1.85
440.708	1.72
440.91	1.73
441.113	1.65
441.315	1.67
441.517	1.48
441.72	1.56
441.922	1.38
442.124	1.31
442.326	1.4
442.529	1.44
442.731	1.28
442.933	1.42
443.135	1.21
443.337	1.13
443.539	1.14
443.742	1.09
443.944	1.09
444.146	1.04
444.348	0.96
444.55	0.97
444.752	0.92
444.954	0.87
445.156	0.86
445.358	0.83
445.56	0.92
445.762	0.8
445.964	0.87
446.166	0.77
446.368	0.72
446.57	0.79
446.772	0.68
446.974	0.68
447.175	0.7
447.377	0.6
447.579	0.69
447.781	0.56
447.983	0.66
448.184	0.58
448.386	0.6
448.588	0.47
448.79	0.57
448.991	0.55
449.193	0.55
449.395	0.53
449.597	0.56
449.798	0.56
450	0.46
450.202	0.51
450.403	0.45
450.605	0.5
450.806	0.46
451.008	0.36
451.21	0.43
451.411	0.45
451.613	0.4
451.814	0.39
452.016	0.45
452.217	0.4
452.419	0.43
452.62	0.37
452.821	0.41
453.023	0.44
453.224	0.41
453.426	0.3
453.627	0.33
453.828	0.36
454.03	0.32
454.231	0.36
454.432	0.26
454.634	0.32
454.835	0.3
455.036	0.28
455.238	0.33
455.439	0.37
455.64	0.22
455.841	0.2
456.042	0.38
456.244	0.28
456.445	0.23
456.646	0.22
456.847	0.24
457.048	0.31
457.249	0.3
457.45	0.46
457.651	0.18
457.852	0.27
458.054	0.2
458.255	0.24
458.456	0.21
458.657	0.23
458.858	0.18
459.058	0.21
459.259	0.22
459.46	0.2
459.661	0.17
459.862	0.28
460.063	0.13
460.264	0.27
460.465	0.11
460.666	0.25
460.866	0.15
461.067	0.19
461.268	0.09
461.469	0.18
461.67	0.2
461.87	0.13
462.071	0.13
462.272	0.12
462.473	0.17
462.673	0.18
462.874	0.05
463.075	0.16
463.275	0.08
463.476	0.13
463.676	0.11
463.877	0.17
464.078	0.11
464.278	0.25
464.479	0.14
464.679	0.12
464.88	0.15
465.08	0.19
465.281	0.1
465.481	0.08
465.682	0.13
465.882	0.14
466.083	0.13
466.283	0.11
466.483	0.12
466.684	0.1
466.884	0.08
467.085	0.1
467.285	0.15
467.485	0.07
467.686	0.07
467.886	0.06
468.086	0.08
468.286	0.11
468.487	0.15
468.687	0.05
468.887	0.11
469.087	0.07
469.287	0.08
469.488	0.05
469.688	0.1
469.888	0.17
470.088	0.14
470.288	0.15
470.488	0.14
470.688	0.04
470.888	0.07
471.088	0.05
471.288	0.14
471.488	0.1
471.688	0.08
471.888	0.07
472.088	0.16
472.288	0.1
472.488	0.05
472.688	0.05
472.888	0.07
473.088	0.04
473.288	0.06
473.488	0.03
473.688	0.15
473.887	0.05
474.087	0.09
474.287	0.07
474.487	0.05
474.687	0.09
474.886	0
475.086	0.07
475.286	0.11
475.486	0.05
475.685	0.07
475.885	0.03
476.085	0.04
476.284	0.12
476.484	0.07
476.684	0.08
476.883	0.11
477.083	0.11
477.282	0.04
477.482	0.11
477.681	0.1
477.881	0.06
478.08	-0.01
478.28	0.03
478.479	0.07
478.679	0.13
478.878	0.05
479.078	-0.01
479.277	0.06
479.477	0.05
479.676	0.08
479.875	0.04
480.075	-0
480.274	0.08
480.473	0.04
480.673	0.03
480.872	0.07
481.071	0.06
481.271	0.05
481.47	0.02
481.669	0.05
481.868	0.02
482.067	0.04
482.267	0.02
482.466	0.03
482.665	-0.02
482.864	0
483.063	0.03
483.262	0.06
483.461	0.08
483.661	0.08
483.86	0.03
484.059	0.06
484.258	0.05
484.457	0.06
484.656	0.02
484.855	0.06
485.054	-0.02
485.253	0.02
485.452	-0.01
485.651	0.03
485.849	0.05
486.048	0.02
486.247	-0.01
486.446	0.05
486.645	-0.01
486.844	0.01
487.043	0.02
487.241	0.06
487.44	-0.02
487.639	0.05
487.838	0.07
488.037	0.02
488.235	0.06
488.434	0.05
488.633	0.02
488.831	0.03
489.03	0.03
489.229	0.04
489.427	0.05
489.626	0.06
489.825	0.09
490.023	0.02
490.222	0.01
490.42	0.02
490.619	0.07
490.817	0.07
491.016	0.02
491.214	0.07
491.413	0.02
491.611	0.02
491.81	0.02
492.008	0.05
492.207	0.02
492.405	0.03
492.604	0
492.802	0.01
493	0.05
493.199	0
493.397	0.02
493.595	0.02
493.794	0.01
493.992	0.05
494.19	-0
494.388	0.02
494.587	0.02
494.785	0.04
494.983	-0.01
495.181	0.02
495.379	0.03
495.578	0.03
495.776	0.02
495.974	0.04
496.172	0.05
496.37	0
496.568	-0.02
496.766	0.01
496.964	0.06
497.162	0.04
497.36	0.01
497.558	0.03
497.756	0.02
497.954	0.02
498.152	-0.02
498.35	0.03
498.548	0.01
498.746	0.03
498.944	0.01
499.142	-0
499.34	-0.01
499.538	0.03
499.736	0.02
499.933	0.06
500.131	0.05
500.329	0.02
500.527	0.07
500.725	0.06
500.922	0.03
501.12	0.04
501.318	0.04
501.516	0.02
501.713	0.02
501.911	0
502.109	-0.01
502.306	0
502.504	0
502.701	0.02
502.899	0
503.097	0.06
503.294	0.04
503.492	0.02
503.689	0.05
503.887	0.03
504.084	0.06
504.282	0.03
504.479	-0.03
504.677	0.03
504.874	-0.02
505.072	0.02
505.269	0.02
505.466	0.04
505.664	0.02
505.861	-0.01
506.059	0.01
506.256	0.04
506.453	0.01
506.651	0.05
506.848	0.02
507.045	0.05
507.242	0.04
507.44	0
507.637	0.01
507.834	-0.01
508.031	0.05
508.229	-0.02
508.426	0.03
508.623	0.04
508.82	0.01
509.017	-0.01
509.214	0.01
509.411	0.04
509.608	-0.01
509.805	0.02
510.003	-0.01
510.2	-0.01
510.397	0.06
510.594	-0.01
510.791	0
510.988	0.02
511.184	0.04
511.381	0
511.578	-0.01
511.775	0.03
511.972	-0.01
512.169	0.01
512.366	0.03
512.563	0.03
512.76	-0
512.956	0.05
513.153	-0
513.35	0.03
513.547	0.01
513.744	-0.01
513.94	-0.03
514.137	0.03
514.334	0
514.53	0.01
514.727	0
514.924	0.08
515.12	0.03
515.317	-0.03
515.514	0.03
515.71	-0
515.907	-0
516.103	0.03
516.3	0.02
516.497	0.05
516.693	0.05
516.89	0.03
517.086	-0.02
517.283	0.05
517.479	0.05
517.676	0.01
517.872	0.02
518.068	0.01
518.265	-0
518.461	-0.01
518.658	-0.02
518.854	0.03
519.05	-0
519.247	-0.02
519.443	0.04
519.639	0.01
519.836	0.03
520.032	0.01
520.228	0.01
520.424	0.09
520.621	0.03
520.817	0.02
521.013	0.02
521.209	0.03
521.405	0.05
521.601	0.02
521.798	0.02
521.994	0.08
522.19	-0
522.386	-0.02
522.582	0.03
522.778	0.03
522.974	0
523.17	0.02
523.366	0.02
523.562	0.04
523.758	0
523.954	-0.01
524.15	-0.01
524.346	0.03
524.542	-0.01
524.738	0
524.934	0.02
525.129	0.02
525.325	0.01
525.521	0.01
525.717	0.03
525.913	0.02
526.109	0.01
526.304	0.02
526.5	0.01
526.696	0.02
526.892	0
527.087	0.02
527.283	-0
527.479	0.03
527.674	0
527.87	0.01
528.066	0
528.261	0.02
528.457	0.04
528.653	0.02
528.848	-0.02
529.044	0.01
529.239	0.01
529.435	0.04
529.63	0.01
529.826	0.04
530.021	0.02
530.217	0.04
530.412	0.01
530.608	-0.02
530.803	-0
530.999	0.01
531.194	-0.03
531.389	0.02
531.585	-0.03
531.78	0.01
531.975	0.02
532.171	0.03
532.366	0.02
532.561	0.01
532.757	0
532.952	-0
533.147	0.05
533.342	0.01
533.538	-0.01
533.733	0.05
533.928	0.01
534.123	-0
534.318	-0.03
534.513	0.03
534.709	-0.01
534.904	-0.01
535.099	0.02
535.294	0.01
535.489	0.01
535.684	-0
535.879	-0.02
536.074	0
536.269	0.02
536.464	0
536.659	-0.02
536.854	0.01
537.049	0.02
537.244	0.01
537.439	0.02
537.634	0.01
537.828	0.03
538.023	0
538.218	-0.01
538.413	0
538.608	-0.01
538.803	0.02
538.997	-0.02
539.192	0.03
539.387	0.04
539.582	0.02
539.776	0.01
539.971	-0
540.166	0.01
540.36	0
540.555	-0
540.75	0.01
540.944	0.02
541.139	-0.01
541.334	0
541.528	0.01
541.723	0.02
541.917	-0.01
542.112	-0.03
542.306	0
542.501	0.01
542.695	0.02
542.89	0.01
543.084	-0
543.279	0.01
543.473	0
543.668	0.03
543.862	0.02
544.056	0.01
544.251	0.02
544.445	0.02
544.64	0.01
544.834	-0.01
545.028	0.01
545.222	-0
545.417	0.04
545.611	0.03
545.805	0.02
546	0
546.194	0.01
546.388	0
546.582	0.02
546.776	0.02
546.97	0.01
547.165	0.04
547.359	0.03
547.553	-0.02
547.747	0.02
547.941	0.01
548.135	0.01
548.329	0.04
548.523	0.02
548.717	0.02
548.911	-0.01
549.105	0.01
549.299	0.03
549.493	0.01
549.687	0.01
549.881	0.02
550.075	-0.01
550.269	-0.02
550.463	0.03
550.657	-0.02
550.85	0.03
551.044	-0.01
551.238	0.01
551.432	0
551.626	-0.03
551.82	0.02
552.013	-0.01
552.207	0
552.401	0.04
552.594	0.04
552.788	-0
552.982	0.01
553.176	0
553.369	0.02
553.563	0.03
553.756	-0.03
553.95	-0.04
554.144	0.01
554.337	0.03
554.531	-0.01
554.724	0.02
554.918	-0.01
555.111	0.03
555.305	0
555.498	0.06
555.692	0.04
555.885	0.01
556.079	0.03
556.272	-0.01
556.466	0.03
556.659	0.02
556.852	0.02
557.046	-0
557.239	0.05
557.432	-0.02
557.626	-0.02
557.819	0.02
558.012	0.02
558.206	0.02
558.399	0.04
558.592	0.03
558.785	0.02
558.979	0.04
559.172	0.02
559.365	0.02
559.558	0.03
559.751	0.01
559.944	0.04
560.138	-0
560.331	0.01
560.524	-0.01
560.717	-0.01
560.91	-0.01
561.103	0.01
561.296	0.02
561.489	0.03
561.682	0.01
561.875	0.05
562.068	0.01
562.261	0.02
562.454	0.03
562.647	0.03
562.84	0.02
563.032	0
563.225	0.01
563.418	0.01
563.611	-0.01
563.804	0.01
563.997	-0.01
564.19	0
564.382	0.02
564.575	0.02
564.768	0.03
564.961	0.02
565.153	0.01
565.346	0.04
565.539	0.04
565.731	0.01
565.924	0.03
566.117	0.02
566.309	0.01
566.502	-0.01
566.695	0.01
566.887	0.02
567.08	-0.01
567.272	0.01
567.465	-0.03
567.657	-0
567.85	0.02
568.042	0.02
568.235	0.05
568.427	0.01
568.62	0.01
568.812	0.03
569.005	0
569.197	-0.03
569.389	0.05
569.582	0.02
569.774	0.01
569.966	-0.02
570.159	-0.04
570.351	0
570.543	-0.01
570.736	-0.01
570.928	-0.01
571.12	0.02
571.312	0.01
571.505	-0.02
571.697	0.05
571.889	-0.03
572.081	0.02
572.273	0.01
572.465	0.04
572.658	0
572.85	0.03
573.042	0
573.234	0
573.426	0.03
573.618	-0.04
573.81	0
574.002	0.03
574.194	0.03
574.386	-0.03
574.578	-0.06
574.77	-0.02
574.962	0.02
575.154	-0.03
575.346	-0.02
575.538	0.04
575.729	-0.02
575.921	-0.02
576.113	0.01
576.305	0.04
576.497	-0.01
576.689	0.01
576.88	-0.01
577.072	0.01
577.264	-0.01
577.456	0.01
577.647	-0.07
577.839	-0.01
578.031	0.05
578.223	-0.04
578.414	-0.03
578.606	0.04
578.798	-0.01
578.989	0.01
579.181	-0.01
579.372	0.02
579.564	-0
579.755	0.02
579.947	0.02
580.139	0.02
580.33	-0.05
580.522	0.01
580.713	-0.05
580.905	0.01
581.096	0.03
581.287	0.01
581.479	0.02
581.67	0.03
581.862	0
582.053	-0
582.244	-0.03
582.436	-0
582.627	0.01
582.818	-0.01
583.01	-0.04
583.201	0.04
583.392	0.04
583.583	-0
583.775	-0.02
583.966	0.01
584.157	-0.03
584.348	-0.01
584.54	-0.05
584.731	0
584.922	-0
585.113	-0.02
585.304	0.01
585.495	0.04
585.686	0
585.877	0.01
586.068	0.01
586.259	0.02
586.45	0.03
586.641	-0.02
586.832	-0.05
587.023	0.02
587.214	0.01
587.405	0.02
587.596	-0.02
587.787	0.05
587.978	0.01
588.169	-0.03
588.36	-0.02
588.551	0.02
588.742	-0.02
588.932	0.03
589.123	-0.02
589.314	0.05
589.505	0.02
589.696	0
589.886	-0.02
590.077	-0.03
590.268	0.01
590.458	-0.03
590.649	-0.04
590.84	0.04
591.03	0.01
591.221	-0.05
591.412	-0.02
591.602	0.02
591.793	0.04
591.984	-0.03
592.174	0
592.365	0.07
592.555	-0.04
592.746	0
592.936	0.01
593.127	0.04
593.317	0.04
593.508	-0
593.698	-0.03
593.889	0.01
594.079	0.02
594.269	-0.03
594.46	-0
594.65	-0
594.84	-0.01
595.031	-0.01
595.221	-0.02
595.411	-0.03
595.602	0.04
595.792	0.02
595.982	0
596.172	0.07
596.363	-0.01
596.553	-0
596.743	-0.01
596.933	0.02
597.123	0.06
597.314	-0.03
597.504	-0.01
597.694	0.04
597.884	-0
598.074	-0.01
598.264	0
598.454	0
598.644	-0.02
598.834	0.01
599.024	-0.06
599.214	-0.01
599.404	0.01
599.594	-0
599.784	-0.03
599.974	0.03
600.164	0.02
600.354	-0.05
600.544	-0.04
600.734	-0
600.924	0.04
601.114	-0.03
601.303	0.02
601.493	0.01
601.683	-0.01
601.873	0.01
602.063	-0.04
602.252	0.01
602.442	-0.06
602.632	-0.03
602.821	-0.06
603.011	0.02
603.201	-0.01
603.39	-0.02
603.58	-0.02
603.77	0.02
603.959	0.04
604.149	0
604.339	-0.02
604.528	0.04
604.718	0.04
604.907	-0.02
605.097	-0.02
605.286	-0.03
605.476	0.02
605.665	0.01
605.855	-0.01
606.044	0.05
606.234	0.01
606.423	-0
606.612	-0.03
606.802	0.01
606.991	0.01
607.181	0.02
607.37	-0.04
607.559	0
607.749	-0.02
607.938	-0.01
608.127	0.01
608.316	0.01
608.506	0.02
608.695	0.01
608.884	-0.02
609.073	0.02
609.263	0.03
609.452	0.01
609.641	0.01
609.83	-0.02
610.019	-0.02
610.208	-0.04
610.397	-0.02
610.586	0.04
610.775	-0.01
610.965	-0.02
611.154	-0.01
611.343	0
611.532	-0.01
611.721	-0.03
611.91	-0.02
612.099	0.02
612.287	-0.02
612.476	-0.04
612.665	-0.02
612.854	-0.02
613.043	0.05
613.232	-0.03
613.421	-0.02
613.61	0.03
613.798	-0.04
613.987	0.05
614.176	-0
614.365	0.04
614.554	0.01
614.742	0
614.931	-0.04
615.12	0.04
615.309	-0.02
615.497	0.02
615.686	-0.03
615.875	0.01
616.063	0.02
616.252	-0.02
616.44	-0.02
616.629	0.01
616.818	0.06
617.006	-0.02
617.195	0
617.383	0
617.572	-0
617.76	-0.03
617.949	-0
618.137	0.04
618.326	0.04
618.514	-0.03
618.703	-0.02
618.891	0.06
619.079	-0.06
619.268	0.01
619.456	-0.01
619.644	0.04
619.833	0.01
620.021	-0.01
620.209	-0.06
620.398	0.05
620.586	-0.01
620.774	0.01
620.962	-0
621.151	0.05
621.339	0.03
621.527	-0.07
621.715	-0.06
621.903	-0.02
622.092	-0
622.28	0
622.468	-0
622.656	0.01
622.844	0.01
623.032	-0.02
623.22	-0.08
623.408	0.04
623.596	0.02
623.784	0.04
623.972	-0.03
624.16	-0.03
624.348	0.07
624.536	-0.02
624.724	-0.02
624.912	0.07
625.1	0.03
625.288	-0.01
625.476	-0.03
625.664	0.03
625.851	-0
626.039	-0
626.227	0.01
626.415	-0.01
626.603	-0.07
626.79	-0.01
626.978	-0.03
627.166	0.01
627.354	-0.01
627.541	-0.04
627.729	-0.07
627.917	0.02
628.104	0.05
628.292	-0
628.48	0.01
628.667	0.01
628.855	0.01
629.042	0.04
629.23	-0.02
629.418	-0.01
629.605	-0.04
629.793	-0.01
629.98	-0.01
630.168	-0.01
630.355	0.03
630.543	0.02
630.73	-0.02
630.917	0.07
631.105	0.05
631.292	-0.02
631.48	-0.01
631.667	0.1
631.854	0
632.042	0.01
632.229	-0
632.416	0.02
632.604	-0.01
632.791	-0.04
632.978	0.02
633.165	0.01
633.353	0.05
633.54	0.03
633.727	-0.07
633.914	-0.01
634.101	-0.08
634.289	0.06
634.476	0
634.663	-0.04
634.85	0.02
635.037	-0.06
635.224	-0.07
635.411	0.05
635.598	0.01
635.785	-0.01
635.972	-0
636.159	0.04
636.346	-0.01
636.533	0.01
636.72	-0.02
636.907	-0.03
637.094	0.02
637.281	-0.01
637.468	0.02
637.655	0
637.842	0.02
638.029	-0.02
638.215	0.01
638.402	-0.01
638.589	-0.04
638.776	-0.02
638.963	-0.03
639.149	0.06
639.336	0.08
639.523	0.02
639.709	-0.02
639.896	-0.01
640.083	0.05
640.27	0.03
640.456	-0.02
640.643	0
640.829	-0.02
641.016	0.01
641.203	-0.05
641.389	0.01
641.576	0.02
641.762	0.02
641.949	-0.03
642.135	0.04
642.322	0
642.508	-0.05
642.695	-0.01
642.881	0.01
643.068	0
643.254	-0.02
643.441	0.04
643.627	-0.03
643.813	-0.02
644	0.04
644.186	-0.05
644.372	0.06
644.559	0.04
644.745	-0.02
644.931	-0.04
645.118	-0.01
645.304	0.04
645.49	-0.02
645.676	-0.02
645.862	0.01
646.049	0.08
646.235	-0.01
646.421	0.05
646.607	0.05
646.793	-0.02
646.979	-0.04
647.165	0.04
647.352	0.02
647.538	0.04
647.724	0.04
647.91	-0.01
648.096	0.02
648.282	0.06
648.468	-0.01
648.654	-0.01
648.84	0.03
649.026	-0.02
649.212	-0
649.397	-0.01
649.583	-0.05
649.769	0.02
649.955	0.02
650.141	-0.01
650.327	0.08
650.513	-0.02
650.698	-0
650.884	-0.08
651.07	0.01
651.256	-0.03
651.442	0.01
651.627	-0.01
651.813	0.05
651.999	0.02
652.184	-0.01
652.37	-0.01
652.556	-0.01
652.741	0.06
652.927	-0.07
653.113	-0.02
653.298	0
653.484	-0
653.669	-0.07
653.855	0.01
654.04	0.02
654.226	0.02
654.412	-0.02
654.597	-0.02
654.782	0.04
654.968	0.04
655.153	0.02
655.339	-0.01
655.524	-0.02
655.71	0.05
655.895	-0.05
656.08	0
656.266	0.04
656.451	-0.01
656.636	-0.04
656.822	0.02
657.007	-0.03
657.192	-0.01
657.378	-0.06
657.563	-0.04
657.748	0.01
657.933	0.01
658.118	-0
658.304	-0.03
658.489	0.06
658.674	0.05
658.859	-0.03
659.044	0
659.229	0.03
659.414	-0.03
659.599	0.01
659.785	-0.02
659.97	-0.05
660.155	0.05
660.34	-0.02
660.525	0
660.71	-0.04
660.895	0.02
661.08	-0.02
661.264	-0.01
661.449	0.04
661.634	0.06
661.819	0.01
662.004	0.01
662.189	-0.04
662.374	-0.03
662.559	-0.01
662.743	-0.01
662.928	-0.01
663.113	-0.02
663.298	-0.05
663.483	-0.02
663.667	0.01
663.852	-0.07
664.037	0.01
664.221	-0.03
664.406	0.02
664.591	0.05
664.775	0.05
664.96	0.03
665.145	0.01
665.329	0.01
665.514	-0.01
665.698	0.01
665.883	-0.06
666.068	0.06
666.252	0.02
666.437	-0.05
666.621	-0.02
666.806	0.02
666.99	0
667.174	-0.03
667.359	0.07
667.543	0.02
667.728	-0.02
667.912	-0.09
668.096	0.06
668.281	-0.02
668.465	-0.02
668.649	-0.01
668.834	-0.05
669.018	-0.04
669.202	-0.01
669.387	-0.06
669.571	0.05
669.755	-0.04
669.939	0.01
670.124	-0.02
670.308	0.05
670.492	0.05
670.676	0.01
670.86	0.03
671.044	-0.04
671.228	0.02
671.413	-0.05
671.597	-0.02
671.781	-0.03
671.965	0.01
672.149	-0.01
672.333	0.01
672.517	-0.07
672.701	0.04
672.885	-0.01
673.069	-0.07
673.253	0.05
673.437	-0.05
673.621	-0.03
673.804	0.02
673.988	-0.01
674.172	0.01
674.356	-0.05
674.54	-0.01
674.724	0.06
674.908	-0.02
675.091	0
675.275	-0.02
675.459	-0.01
675.643	0.04
675.826	0.02
676.01	-0.01
676.194	-0.05
676.377	0.04
676.561	0.01
676.745	-0.01
676.928	0.02
677.112	0.05
677.296	-0.04
677.479	0.01
677.663	-0.02
677.846	0.01
678.03	-0.03
678.213	-0.01
678.397	-0.01
678.58	-0.02
678.764	-0.02
678.947	-0
679.131	0
679.314	0.04
679.498	-0.01
679.681	0.03
679.865	0.07
680.048	-0.02
680.231	-0
680.415	0
680.598	-0
680.781	0.02
680.965	-0.04
681.148	0.05
681.331	-0.03
681.514	0.03
681.698	-0.03
681.881	0.05
682.064	0.03
682.247	0.03
682.43	-0.06
682.614	-0.04
682.797	0.07
682.98	0.05
683.163	-0.03
683.346	0.05
683.529	0.04
683.712	-0.03
683.895	-0.02
684.078	-0.04
684.261	-0.01
684.444	-0.03
684.627	0.03
684.81	-0.03
684.993	0
685.176	0.06
685.359	-0.05
685.542	-0.03
685.725	0.07
685.908	-0.01
686.091	-0.01
686.274	0.02
686.457	0.01
686.639	0.02
686.822	0.06
687.005	-0.03
687.188	0.02
687.371	0.08
687.553	0.05
687.736	0.05
687.919	0.08
688.102	0.04
688.284	0.01
688.467	-0.02
688.65	0.02
688.832	0
689.015	-0.02
689.197	-0.07
689.38	0.08
689.563	0.05
689.745	-0.07
689.928	0
690.11	0.02
690.293	0.03
690.475	-0.09
690.658	0.01
690.84	0.04
691.023	-0.05
691.205	0.02
691.388	0.02
691.57	0.05
691.752	0.06
691.935	-0.08
692.117	0.01
692.3	0
692.482	0
692.664	-0.02
692.847	0.01
693.029	0.08
693.211	0.02
693.393	-0.02
693.576	0.01
693.758	0.01
693.94	0.02
694.122	-0.03
694.304	0.02
694.487	-0.02
694.669	0.11
694.851	-0.07
695.033	0.07
695.215	-0.06
695.397	-0.01
695.579	0.01
695.761	-0.03
695.943	-0.1
696.125	0.08
696.308	0.04
696.49	-0.1
696.671	0.09
696.853	-0.02
697.035	0.1
697.217	-0.01
697.399	-0.02
697.581	-0.01
697.763	0
697.945	0
698.127	0.01
698.309	0.03
698.491	0.06
698.672	0.01
698.854	0.06
699.036	0.08
699.218	-0.05
699.399	0.04
699.581	0.01
699.763	0.01
699.945	-0.01
700.126	-0.05
700.308	0.03
700.49	-0.04
700.671	-0.09
700.853	-0.04
701.035	-0.04
701.216	-0.03
701.398	-0.05
701.579	-0.02
701.761	0.01
701.943	-0.04
702.124	-0.07
702.306	-0.08
702.487	0.13
702.669	-0.03
702.85	-0
703.031	-0.06
703.213	0.09
703.394	0.09
703.576	-0.04
703.757	0.04
703.938	0.09
704.12	0.16
704.301	0.03
704.483	0
704.664	0
704.845	0.08
705.026	0.08
705.208	0.03
705.389	0.02
705.57	0.05
705.751	-0.04
705.933	-0.01
706.114	0.07
706.295	0.02
706.476	-0.08
706.657	0.13
706.838	-0.01
707.02	0.08
707.201	-0.04
707.382	-0.1
707.563	0.05
707.744	0.02
707.925	-0.1
708.106	-0.06
708.287	0.03
708.468	0.06
708.649	-0.03
708.83	0.03
709.011	-0.01
709.192	0.02
709.373	-0.04
709.554	-0
709.734	0.05
709.915	0.07
710.096	-0.01
710.277	-0.07
710.458	0.03
710.639	0.11
710.819	-0.12
711	-0.03
711.181	0.09
711.362	0.12
711.542	-0.01
711.723	0
711.904	0.05
712.085	-0.05
712.265	0.02
712.446	-0.05
712.627	-0.05
712.807	-0.01
712.988	-0.01
713.168	-0.03
713.349	-0.01
713.53	-0.13
713.71	-0.14
713.891	-0.02
714.071	-0.02
714.252	0.03
714.432	-0.04
714.613	-0.11
714.793	0.02
714.974	0.08
715.154	0.02
715.334	0.1
715.515	0.07
715.695	-0.1
715.876	0.02
716.056	-0.03
716.236	-0.11
716.417	0.01
716.597	-0.06
716.777	0.15
716.957	0.04
717.138	0.01
717.318	0.06
717.498	-0.08
717.678	0.03
717.859	0
718.039	-0.11
718.219	0.1
718.399	0.04
718.579	-0.1
718.759	-0.05
718.939	0.04
719.12	-0.01
719.3	0.04
719.48	-0.09
719.66	-0.08
719.84	0.1
720.02	-0.05
720.2	-0.11
720.38	-0
720.56	0.14
720.74	-0.06
720.92	0.01
721.1	0.1
721.279	0.1
721.459	-0.02
721.639	-0.08
721.819	0.05
721.999	-0.06
722.179	0
722.359	-0.12
722.538	-0.09
722.718	0
722.898	-0.04
723.078	-0.01
723.257	-0.01
723.437	-0.01
723.617	-0
723.797	-0.05
723.976	0
724.156	0.04
724.336	0.06
724.515	0.16
724.695	-0.04
724.874	-0.04
725.054	0.12
725.234	-0.07
725.413	0.02
725.593	-0.04
725.772	0.02
725.952	-0.06
726.131	-0.02
726.311	-0.04
726.49	0.02
726.67	-0.15
726.849	-0.01
727.028	0.01
727.208	0.05
727.387	0.06
727.567	-0.05
727.746	-0.02
727.925	-0.03
728.105	-0.08
728.284	-0.01
728.463	0.02
728.643	0.1
728.822	-0.12
729.001	0.02
729.18	0.05
729.359	0.09
729.539	-0.04
729.718	-0.01
729.897	0.05
730.076	-0.04
730.255	-0.11
730.434	0.03
730.614	-0.02
730.793	0.06
730.972	0
731.151	-0.02
731.33	-0.02
731.509	0.06
731.688	0
731.867	0.06
732.046	-0.14
732.225	0.25
732.404	0.03
732.583	-0.09
732.762	0.01
732.941	0.07
733.12	0.02
733.298	-0.07
733.477	0.01
733.656	-0.06
733.835	-0.15
734.014	0.18
734.193	0.01
734.371	0.06
734.55	0.08
734.729	-0.08
734.908	0.01
735.086	0.06
735.265	0.08
735.444	-0.16
735.623	-0.11
735.801	-0.09
735.98	0
736.159	-0.07
736.337	0.12
736.516	-0.05
736.694	0.04
736.873	-0.03
737.052	0.06
737.23	0.13
737.409	-0.1
737.587	0.14
737.766	-0.11
737.944	-0.04
738.123	0.07
738.301	0.09
738.479	-0.08
738.658	0
738.836	-0.21
739.015	0.02
739.193	0.16
739.371	-0.1
739.55	-0.1
739.728	-0.11
739.906	0.18
740.085	0.11
740.263	-0.03
740.441	-0.2
740.62	0.18
740.798	0.05
740.976	-0.03
741.154	-0.05
741.332	0.11
741.511	0
741.689	0.03
741.867	0.16
742.045	-0.04
742.223	-0.07
742.401	-0.02
742.579	-0.03
742.757	0.12
742.935	-0.15
743.114	-0.08
743.292	-0.03
743.47	-0.03
743.648	0.02
743.826	-0.12
744.004	0.08
744.181	0.02
744.359	-0.05
744.537	0.08
744.715	-0.03
744.893	-0.01
745.071	-0.02
745.249	-0.06
745.427	0.03
745.605	0.12
745.782	0.09
745.96	0.08
746.138	0.08
746.316	0.11
746.493	-0.08
746.671	0.02
746.849	-0.08
747.027	0.23
747.204	-0.12
747.382	-0.01
747.56	-0.07
747.737	0.01
747.915	-0.07
748.093	0.06
748.27	-0.06
748.448	-0.02
748.625	-0.05
748.803	-0.11
748.98	0.03
749.158	0.04
749.335	0.1
749.513	-0.1
749.69	-0.02
749.868	0.02
750.045	0.03
750.223	-0.07
750.4	-0.29
750.578	0.27
750.755	0.05
750.932	-0.06
751.11	0.08
751.287	-0.11
751.464	0.09
751.642	-0.13
751.819	0.09
751.996	0.04
752.173	-0.03
752.351	-0.05
752.528	0.04
752.705	-0.06
752.882	-0.08
753.06	0.08
753.237	0.16
753.414	0.11
753.591	0.16
753.768	-0.02
753.945	-0.05
754.122	0.05
754.299	0.08
754.476	0
754.654	0.12
754.831	0.12
755.008	0.1
755.185	-0.08
755.362	-0.09
755.539	-0.04
755.716	-0.02
755.892	-0.02
756.069	-0.04
756.246	-0.02
756.423	-0.02
756.6	0.1
756.777	0.07
756.954	0.05
757.131	0.05
757.307	-0.19
757.484	-0.07
757.661	0.05
757.838	0.04
758.015	-0.2
758.191	0.1
758.368	0.02
758.545	0.16
758.721	0.12
758.898	-0.18
759.075	0.1
759.251	0.11
759.428	0.08
759.605	-0.09
759.781	-0.1
759.958	0.05
760.134	0.04
760.311	-0.06
760.488	0.15
760.664	0.2
760.841	-0.02
761.017	-0.05
761.194	0.15
761.37	0.06
761.547	0.01
761.723	0.03
761.899	0.03
762.076	-0.03
762.252	-0.07
762.429	-0.1
762.605	0.14
762.781	-0.06
762.958	0.03
763.134	-0.02
763.31	-0.06
763.486	0.17
763.663	-0.19
763.839	0.02
764.015	-0.19
764.191	-0.1
764.368	-0.01
764.544	-0.06
764.72	0
764.896	0.15
765.072	0.08
765.248	-0.09
765.425	0.1
765.601	-0.05
765.777	-0
765.953	-0.12
766.129	-0.01
766.305	-0.06
766.481	-0.01
766.657	-0.02
766.833	0.17
767.009	-0.04
767.185	-0.03
767.361	-0
767.537	-0.11
767.713	0.16
767.889	-0.16
768.065	-0.09
768.24	-0.16
768.416	0.07
768.592	-0.06
768.768	0.03
768.944	-0
769.12	-0.03
769.295	-0.12
769.471	0.08
769.647	-0.03
769.823	0.1
769.998	-0.07
770.174	-0.11
770.35	0.35
770.525	0.2
770.701	0.06
770.877	-0
771.052	-0
771.228	0.15
771.403	0.06
771.579	0.05
771.755	0.3
771.93	-0.1
772.106	-0.09
772.281	-0.25
772.457	0.14
772.632	0.17
772.808	-0.12
772.983	-0.1
773.159	-0.18
773.334	0.08
773.509	0.04
773.685	0.03
773.86	0.35
774.036	0.12
774.211	-0
774.386	-0.09
774.562	0.14
774.737	0.09
774.912	-0.1
775.087	0.03
775.263	0.01
775.438	-0.11
775.613	-0.05
775.788	-0.03
775.964	0.26
776.139	0.5
776.314	-0.16
776.489	0.06
776.664	-0.15
776.839	-0.1
777.014	0.11
777.19	0.12
777.365	0.24
777.54	0.28
777.715	-0.11
777.89	-0.02
778.065	-0.13
778.24	-0
778.415	0.1
778.59	-0.06
778.765	-0.12
778.94	0.06
779.115	-0.1
779.289	-0.01
779.464	-0.06
779.639	-0.06
779.814	-0.22
779.989	0.03
780.164	0.21
780.339	0.06
780.513	-0.01
780.688	-0.29
780.863	-0.03
781.038	0.29
781.212	-0.19
781.387	0.14
781.562	0.33
781.737	0.04
781.911	0.17
782.086	-0.21
782.261	0.23
782.435	0.15
782.61	0.09
782.784	0.19
782.959	0.23
783.134	0.07
783.308	-0.35
783.483	-0.11
783.657	0.29
783.832	0.11
784.006	-0.14
784.181	-0.03
784.355	0.24
784.53	-0.07
784.704	-0.17
784.878	0.24
785.053	0.14
785.227	0.26
785.402	0.26
785.576	-0.24
785.75	0.05
785.925	-0.17
786.099	-0.13
786.273	0
786.448	0.26
786.622	0.18
786.796	-0.05
786.97	-0.19
787.145	0.49
787.319	-0.41
787.493	0.03
787.667	-0.25
787.841	-0.08
788.015	0.25
788.19	-0.06
788.364	0.26
788.538	0.3
788.712	0.16
788.886	-0.18
789.06	0.22
789.234	0.1
789.408	-0.17
789.582	0.1
789.756	-0.04
789.93	-0.1
790.104	0.15
790.278	-0.19
790.452	-0.11
790.626	0.2
790.8	-0.11
790.973	0.24
791.147	0.04
791.321	0.2
791.495	0.16
791.669	0.26
791.843	0.15
792.016	0.13
792.19	0.36
792.364	-0.22
792.538	0.31
792.711	0.05
792.885	0.11
793.059	-0.07
793.233	-0.4
793.406	0.17
793.58	0.02
793.754	0.02
793.927	-0.1
794.101	0.29
794.274	-0.12
794.448	0.15
794.622	-0.37
794.795	0.31
794.969	-0.09
795.142	0.34
795.316	-0.2
795.489	-0.09
795.663	0.4
795.836	0.06
796.009	-0.23
796.183	0.37
796.356	-0.03
796.53	0.04
796.703	0.02
796.876	0.55
797.05	-0.11
797.223	-0.01
797.396	0.01
797.57	-0.14
797.743	0.32
797.916	-0.01
798.09	-0.14
798.263	0.33
798.436	0.21
798.609	-0.01
798.782	-0.11
798.956	0.01
799.129	0.03
799.302	-0.08
799.475	-0.23
799.648	-0.27
799.821	-0.11
799.994	-0.01
800.167	-0.24
800.34	0.13
800.514	0.11
800.687	-0.04
800.86	-0.11
801.033	0.05
801.206	-0.04
801.379	0.14
801.551	0.29
801.724	0.3
801.897	0.54
802.07	-0.01
802.243	-0.35
802.416	-0.38
802.589	-0.11
802.762	0.11
802.935	0.29
803.107	0.38
803.28	0.23
803.453	0.11
803.626	-0.26
803.798	0.05
803.971	-0.34
804.144	0.08
804.317	0.16
804.489	0.45
804.662	-0.05
804.835	0.18
805.007	-0.19
805.18	0.41
805.353	0.12
805.525	-0.01
805.698	0.07
805.87	0.33
806.043	0.44
806.215	-0.29
806.388	-0.08
806.56	0.09
806.733	0.31
806.905	0.41
807.078	-0.07
807.25	-0.22
807.423	-0.08
807.595	-0.06
807.768	0.05
807.94	0.54
808.112	0.04
808.285	0.27
808.457	-0.07
808.629	0.1
808.802	0.22
808.974	-0.22
809.146	-0.44
809.318	-0.3
809.491	0.18
809.663	0.17
809.835	-0.1
810.007	0.19
810.18	-0.26
810.352	-0.29
810.524	-0.12
810.696	0.39
810.868	0.01
811.04	-0.07
811.212	-0.25
811.384	0.19
811.556	0.17
811.728	0.25
811.901	0.74
812.073	-0.29
812.245	-0.09
812.417	0.27
812.589	-0.48
812.76	0.32
812.932	0.03
813.104	0.58
813.276	0.32
813.448	0.5
813.62	0.03
813.792	0.03
813.964	-0.08
814.136	0.35
814.307	0.21
814.479	-0.52
814.651	-0.46
814.823	0.71
814.995	-0.22
815.166	0.23
815.338	-0.32
815.51	-0.54
815.681	0.91
815.853	0.07
816.025	-0.07
816.196	0.49
816.368	0.27
816.54	-0.04
816.711	-0.35
816.883	-0
817.054	0.78
817.226	-0.63
817.398	0.37
817.569	-0.29
817.741	0.19
817.912	0.36
818.084	-0.08
818.255	0.31
818.426	-0.31
818.598	-0.12
818.769	0.11
818.941	0.42
819.112	0.49
819.283	0.18
819.455	-0.29
819.626	0.16
819.798	0.27
819.969	0.12
820.14	0
820.311	0.19
820.483	0.39
820.654	0.21
820.825	-0
820.996	-0.41
821.168	-0.43
821.339	-0.33
821.51	-0.08
821.681	-0.12
821.852	-0.03
822.023	-0.33
822.195	-0.71
822.366	0.55
822.537	0.13
822.708	0.28
822.879	-0.36
823.05	0.86
823.221	0.36
823.392	0.34
823.563	0.37
823.734	-0.13
823.905	0.35
824.076	-0.21
824.247	-0.62
824.418	-0.22
824.589	0.35
824.759	-0.18
824.93	0.06
825.101	-0.57
825.272	0.58
825.443	0.54
825.614	0.21
825.784	-1
825.955	0.82
826.126	0.85
826.297	0.07
826.467	0.65
826.638	0.63
826.809	-0.94
826.98	-0.16
827.15	0.26
827.321	-0.06
827.492	0.76
827.662	-0.03
827.833	0.81
828.003	0.02
828.174	-0.77
828.345	-0.99
828.515	0.58
828.686	-0.23
828.856	-0.34
829.027	0.06
829.197	0.44
829.368	0.37
829.538	-0.54
829.709	-0.69
829.879	0.35
830.049	0.17
830.22	-0.42
830.39	0.12
830.56	0.51
830.731	0.19
830.901	-1.17
831.072	-0.18
831.242	-0.14
831.412	0.85
831.582	-0.44
831.753	-0.65
831.923	0.44
832.093	-0.38
832.263	-0.23
832.434	-0.2
832.604	-0.34
832.774	0.37
832.944	0.08
833.114	0.21
833.284	0.43
833.454	-0.22
833.624	-0.37
833.795	-0.43
833.965	0.83
834.135	0.74
834.305	-0.93
834.475	-0.18
834.645	0.44
834.815	0.05
834.985	-0.46
835.155	0.13
835.325	0.18
835.494	0.2
835.664	0.05
835.834	-0.95
836.004	0.19
836.174	0.27
836.344	0.24
836.514	-0.91
836.684	-0.2
836.853	0.47
837.023	-0.18
837.193	-0.39
837.363	0.88
837.532	0.97
837.702	-0.33
837.872	-0.28
838.041	0.37
838.211	1.68
838.381	-0.39
838.55	-0.47
838.72	1.61
838.89	0.56
839.059	-0.4
839.229	-0.54
839.398	1.42
839.568	0.36
839.738	-0.17
839.907	0.82
840.077	-0.13
840.246	0.01
840.416	-0.61
840.585	-0.56
840.755	1.41
840.924	0.92
841.093	0.02
841.263	-0.18
841.432	-0.24
841.602	-0.52
841.771	-0.92
841.94	0.08
842.11	1.54
842.279	1.24
842.448	-0.71
842.617	-0.17
842.787	1.12
842.956	-0.63
843.125	0.15
843.294	0.33
843.464	1.14
843.633	0.23
843.802	-0.8
843.971	0.49
844.14	0.75
844.309	0.36
844.479	-0.89
844.648	-0.32
844.817	-0.85
844.986	0.16
845.155	-1.15
845.324	-0.22
845.493	-0.01
845.662	-0.92
845.831	1.36
846	0.13
846.169	-0.69
846.338	0.64
846.507	0.07
846.676	-0.26
846.844	-0.43
847.013	1.2
847.182	-0.63
847.351	-0.14
847.52	0.15
847.689	0.37
847.858	0.56
848.026	0
848.195	0.98
848.364	-0.39
848.533	-0.87
848.701	-0.4
848.87	0.39
849.039	1.52
849.207	0.1
849.376	0.98
849.545	1.35
849.713	-0.23
849.882	0.28
850.051	0.26
850.219	-0.18
850.388	0.22
850.556	-0.51
850.725	0.26
850.893	0.34
851.062	-0.47
851.23	0.35
851.399	-0.27
851.567	0.35
851.736	-0.19
851.904	-1.34
852.073	-0.34
852.241	1.62
852.41	0.01
852.578	0.42
852.746	-0.75
852.915	0.96
853.083	0.4
853.251	-0.54
853.42	-0.8
853.588	0.82
853.756	1.22
853.924	-0.11
854.093	-0.93
854.261	-0.23
854.429	-1.39
854.597	0.59
854.765	-0.83
854.934	1.15
855.102	0.58
855.27	-0.3
855.438	0.93
855.606	0.78
855.774	1.11
855.942	-0.98
856.11	-1.84
856.278	0.78
856.446	1.53
856.614	-0.21
856.782	-0.11
856.95	1.31
857.118	0.32
857.286	0.21
857.454	-0.39
857.622	0.96
857.79	1.1
857.958	0.11
858.126	0.23
858.294	-1.87
858.462	0.2
858.629	-0.58
858.797	-1.03
858.965	-0.56
859.133	-0.16
859.301	-0.34
859.468	-0.2
859.636	-0.37
859.804	1.97
859.971	0.91
860.139	0.28
860.307	1.28
860.474	0.11
860.642	-0.86
860.81	-0.48
860.977	-0.93
861.145	1.69
861.313	-0.83
861.48	-0.75
861.648	1.22
861.815	-0.34
861.983	-1.58
862.15	-0.42
862.318	1.36
862.485	1.18
862.653	-0.48
862.82	-1.79
862.988	1.3
863.155	-1.51
863.322	-1.47
863.49	-2.27
863.657	-0.84
863.824	2.04
863.992	1.46
864.159	-0.44
864.326	1.95
864.494	0.14
864.661	1.72
864.828	-0.53
864.996	2.02
865.163	0.69
865.33	-1.35
865.497	-2.26
865.664	-0.76
865.832	-1.91
865.999	0.13
866.166	0.12
866.333	-0.83
866.5	-0.87
866.667	-0.34
866.834	-2.04
867.001	1.06
867.168	-1.81
867.335	0.37
867.502	-2.8
867.669	0.71
867.836	3.44
868.003	0.25
868.17	2.65
868.337	2.39
868.504	2.24
868.671	-0.94
868.838	-1.08
869.005	1.44
869.172	1.78
869.339	1.51
869.505	0.46
869.672	-0.36
869.839	2.03
870.006	0.19
870.173	-2.66
870.339	1.59
870.506	2.02
870.673	-0.43
870.84	0.49
871.006	0.68
871.173	-0.35
871.34	2.21
871.506	-1.91
871.673	1.27
871.839	-2.02
872.006	0.43
872.173	-0.16
872.339	0.23
872.506	1.57
872.672	0.57
872.839	-2.26
873.005	-0.25
873.172	3.44
873.338	0.32
873.505	1.26
873.671	1.6
873.838	2.17
874.004	-2.18
874.171	-2.05
874.337	0.75
874.503	1.41
874.67	1.5
874.836	0.09
875.002	2.58
875.169	1.08
875.335	-0.66
875.501	0.49
875.668	0.79
875.834	1.28
876	-0.57
876.166	2.52
876.332	1.4
876.499	3.57
876.665	0.22
876.831	-0.03
876.997	4.23
877.163	2.54
877.329	-0.6
877.495	0.02
877.662	2.47
877.828	2.07
877.994	-0.7
878.16	-2.18
878.326	0.28
878.492	0.83
878.658	-0.76
878.824	0.43
878.99	1.51
879.156	-0.76
879.322	2.82
879.487	-0.97
879.653	1.61
879.819	0.11
879.985	-1.04
880.151	0.97
880.317	0.84
880.483	0.56
880.648	1.89
880.814	-2.28
880.98	2.08
881.146	-2.25
881.312	-2.45
881.477	0
881.643	0.36
881.809	3.41
881.974	0.23
882.14	-2.16
882.306	0.21
882.471	4.3
882.637	-0.52
882.803	1.43
882.968	4.45
883.134	2.45
883.299	1.48
883.465	-0.69
883.63	2.46
883.796	2.01
883.961	0.85
884.127	1.15
884.292	-4.25
884.458	-1.49
884.623	-1.49
