Data from Apollo_Calib_20240827__AbsoluteIrradiance__411__06-00-02-225.txt Node

Date: Wed Aug 28 06:00:02 BST 2024
User: biology
Spectrometer: FLMT08252
Trigger mode: 0
Integration Time (sec): 5.000000E-1
Scans to average: 5
Electric dark correction enabled: true
Nonlinearity correction enabled: false
Boxcar width: 0
XAxis mode: Wavelengths
Number of Pixels in Spectrum: 3648
>>>>>Begin Spectral Data<<<<<
179.588	-0
179.809	-0
180.03	-0
180.251	-0
180.473	-0
180.694	0
180.915	0
181.136	-0
181.357	0
181.578	-0
181.799	-0
182.02	-0
182.241	0
182.462	-0
182.683	0
182.904	0
183.125	-0
183.346	0
183.567	0
183.788	0
184.009	-0
184.23	0
184.451	0
184.672	-0
184.892	-0
185.113	0
185.334	0
185.555	-0
185.776	-0
185.996	0
186.217	0
186.438	0
186.659	0
186.879	0
187.1	0
187.321	0
187.541	-0
187.762	0
187.983	0
188.203	0
188.424	0
188.644	0
188.865	0
189.086	0
189.306	0
189.527	0
189.747	0
189.968	0
190.188	0
190.409	0
190.629	0
190.849	0
191.07	0
191.29	0
191.511	0
191.731	0
191.951	-0
192.172	0
192.392	0
192.612	-0
192.833	0
193.053	0
193.273	0
193.493	0
193.714	0
193.934	0
194.154	0
194.374	0
194.594	0
194.815	0
195.035	0
195.255	0
195.475	-0
195.695	0
195.915	0
196.135	-0
196.355	0
196.575	0
196.795	0
197.015	-0
197.235	0
197.455	-0
197.675	0
197.895	0
198.115	0
198.335	0
198.555	0
198.775	0
198.995	0
199.214	0
199.434	0
199.654	0
199.874	0
200.094	1.85
200.313	0.72
200.533	0.47
200.753	0.54
200.973	1.1
201.192	0.82
201.412	-0.35
201.632	-0.07
201.851	1.38
202.071	-0.27
202.291	0.21
202.51	-0.27
202.73	0.68
202.95	0.3
203.169	-0.07
203.389	0.7
203.608	0.47
203.828	0.03
204.047	-0.02
204.267	0.58
204.486	0.21
204.706	0.72
204.925	0.02
205.145	-0.1
205.364	0.46
205.583	0.97
205.803	0.25
206.022	-0.17
206.242	0.36
206.461	0.45
206.68	-0.12
206.9	0.28
207.119	1.11
207.338	0.77
207.557	0.15
207.777	0.44
207.996	0.2
208.215	0.68
208.434	0.24
208.654	0.02
208.873	0.45
209.092	0.71
209.311	0.11
209.53	0.42
209.749	0.12
209.968	0.1
210.187	0.39
210.407	-0.07
210.626	-0.04
210.845	0.42
211.064	0.13
211.283	0.04
211.502	0.64
211.721	0.29
211.94	0.19
212.159	0.51
212.377	0.31
212.596	0.51
212.815	0.35
213.034	0.42
213.253	0.46
213.472	0.48
213.691	0.35
213.91	-0.04
214.128	-0.02
214.347	0.65
214.566	-0.23
214.785	-0.05
215.003	0.25
215.222	0.27
215.441	0.17
215.66	-0.21
215.878	0.29
216.097	0.36
216.316	0.04
216.534	0.13
216.753	0.27
216.972	0.22
217.19	0.2
217.409	0.11
217.627	-0.02
217.846	0.22
218.064	0.22
218.283	0.16
218.501	0.67
218.72	0.29
218.938	-0.1
219.157	-0
219.375	0.43
219.594	0.28
219.812	-0.03
220.031	-0.17
220.249	0.67
220.467	0.51
220.686	0.01
220.904	-0.11
221.122	0.06
221.341	0.47
221.559	0.24
221.777	0.07
221.995	0.09
222.214	0.33
222.432	0.07
222.65	0.34
222.868	0.16
223.086	0.33
223.305	0.24
223.523	0.22
223.741	0.4
223.959	0.11
224.177	-0.15
224.395	-0.02
224.613	0.21
224.831	0.09
225.049	0.12
225.267	0
225.485	0.09
225.703	0.1
225.921	0.06
226.139	0.12
226.357	0.18
226.575	0.27
226.793	0.05
227.011	0.63
227.229	0.27
227.447	0.25
227.665	0.15
227.883	-0.07
228.1	0.12
228.318	0.16
228.536	0.04
228.754	0.05
228.972	0.19
229.189	0.27
229.407	0.04
229.625	-0.05
229.843	0.32
230.06	0.3
230.278	0.05
230.496	0.08
230.713	0.09
230.931	0.27
231.149	0.1
231.366	-0.02
231.584	0.17
231.801	0.44
232.019	0.12
232.236	-0.14
232.454	-0
232.671	0.16
232.889	0.06
233.106	0.07
233.324	0.08
233.541	0.18
233.759	0.21
233.976	0.02
234.194	0.09
234.411	0.09
234.628	0.07
234.846	0.07
235.063	0.18
235.28	0.07
235.498	0.12
235.715	-0.06
235.932	0.33
236.149	0.04
236.367	0.06
236.584	0.16
236.801	0.09
237.018	0.2
237.236	0.1
237.453	-0.01
237.67	0.23
237.887	-0
238.104	0.05
238.321	0.05
238.538	-0.09
238.755	0.21
238.973	-0.06
239.19	0.16
239.407	0.16
239.624	0.18
239.841	0.07
240.058	0.05
240.275	0.01
240.492	0.04
240.709	0.06
240.925	0.09
241.142	0.06
241.359	-0.05
241.576	0.05
241.793	0.04
242.01	0.18
242.227	0.1
242.444	0.23
242.66	0.17
242.877	0.14
243.094	0.08
243.311	0.07
243.527	0.11
243.744	0.18
243.961	0.17
244.178	0.02
244.394	0.01
244.611	0.14
244.828	0.18
245.044	-0.04
245.261	0.1
245.477	0.14
245.694	0.09
245.911	-0.03
246.127	0.06
246.344	0.24
246.56	0.16
246.777	0.07
246.993	0.07
247.21	0.13
247.426	0.17
247.643	-0.01
247.859	-0.02
248.076	0.02
248.292	0.21
248.508	0.05
248.725	0.13
248.941	0.19
249.157	0.22
249.374	0.06
249.59	0.11
249.806	0.02
250.023	0.23
250.239	0.03
250.455	0.04
250.671	0.03
250.888	0.1
251.104	0.12
251.32	0.05
251.536	0.07
251.752	0.03
251.969	0.08
252.185	0.08
252.401	0.27
252.617	0.12
252.833	0.03
253.049	0.04
253.265	0.1
253.481	0.1
253.697	0.03
253.913	-0.07
254.129	0.14
254.345	0.06
254.561	0.08
254.777	0.04
254.993	0.15
255.209	0.08
255.425	0.1
255.641	-0.06
255.857	0.17
256.073	0.09
256.288	-0.01
256.504	0.04
256.72	0.1
256.936	0.2
257.152	0.15
257.367	0.03
257.583	0.11
257.799	0.13
258.015	-0.07
258.23	0.11
258.446	0.24
258.662	0.08
258.877	0.01
259.093	0.01
259.309	0.09
259.524	0.16
259.74	0.04
259.955	-0.03
260.171	0.14
260.387	0.13
260.602	0.14
260.818	0.08
261.033	0.02
261.249	0.07
261.464	0.08
261.68	-0.05
261.895	0.1
262.11	0.13
262.326	0.01
262.541	-0.03
262.757	0.15
262.972	0.1
263.187	0.12
263.403	0.08
263.618	0.1
263.833	0.07
264.049	0.09
264.264	0.08
264.479	0.17
264.694	0.2
264.91	-0
265.125	0.09
265.34	0.1
265.555	0.23
265.77	0.17
265.986	0.03
266.201	0.07
266.416	0.13
266.631	0
266.846	0.1
267.061	0.13
267.276	0.1
267.491	-0.06
267.706	0.1
267.921	0.06
268.136	0.1
268.351	0.04
268.566	0.04
268.781	0.17
268.996	0.13
269.211	0.02
269.426	0.01
269.641	0.02
269.856	0.15
270.071	-0.03
270.285	0.02
270.5	0.13
270.715	0.12
270.93	0.04
271.145	0.11
271.359	0.07
271.574	0.02
271.789	0.03
272.004	0.01
272.218	0.06
272.433	0.13
272.648	-0.03
272.862	0.2
273.077	0.09
273.292	0.11
273.506	0.03
273.721	0.06
273.936	0.15
274.15	0.11
274.365	0.04
274.579	0.1
274.794	0.15
275.008	0.1
275.223	-0.03
275.437	0.12
275.652	0.11
275.866	0.13
276.081	0.04
276.295	0.1
276.509	0.08
276.724	0.14
276.938	0.11
277.153	0.14
277.367	0.12
277.581	0.01
277.796	0.05
278.01	0.07
278.224	0.11
278.438	0.16
278.653	0.03
278.867	0.01
279.081	0.08
279.295	-0.01
279.51	0.13
279.724	-0.03
279.938	0.14
280.152	0.09
280.366	-0
280.58	0.06
280.794	0.12
281.008	0.04
281.222	0.16
281.437	0.16
281.651	0.03
281.865	0.18
282.079	0.04
282.293	-0.02
282.507	0.03
282.721	0.05
282.935	0.03
283.148	0
283.362	0
283.576	-0
283.79	0.05
284.004	0.05
284.218	0.07
284.432	0.09
284.646	0.02
284.859	0.04
285.073	0.06
285.287	0.07
285.501	0.02
285.714	0.05
285.928	0.07
286.142	0.08
286.356	0.03
286.569	0.06
286.783	0.14
286.997	0.09
287.21	0.09
287.424	0.1
287.637	0.06
287.851	-0.01
288.065	0.11
288.278	0.03
288.492	0.06
288.705	0.02
288.919	0.15
289.132	0.04
289.346	0.14
289.559	0.01
289.773	-0.01
289.986	0.02
290.2	0.05
290.413	0.07
290.626	0.02
290.84	0.03
291.053	0.1
291.267	0.14
291.48	0.09
291.693	0.08
291.906	0.01
292.12	0.03
292.333	0.03
292.546	0.02
292.76	0.11
292.973	0.07
293.186	0.1
293.399	0.05
293.612	0.09
293.826	0.02
294.039	0.1
294.252	0.02
294.465	0.1
294.678	0.09
294.891	0.07
295.104	0.02
295.317	0.04
295.53	0.1
295.743	0.02
295.956	0.07
296.169	0.14
296.382	0.11
296.595	0.04
296.808	0.02
297.021	0.11
297.234	0.11
297.447	0.05
297.66	0.08
297.873	0.1
298.086	0.08
298.299	0.01
298.511	0.02
298.724	0.02
298.937	0.02
299.15	0.03
299.363	0.04
299.575	0.14
299.788	0.12
300.001	0
300.213	-0.02
300.426	0.04
300.639	0.02
300.852	0.01
301.064	0.07
301.277	0.06
301.489	0.09
301.702	0.11
301.915	0.05
302.127	0.05
302.34	0.11
302.552	0.07
302.765	0.02
302.977	0.12
303.19	0.08
303.402	0.04
303.615	0.06
303.827	0.05
304.04	0.08
304.252	0.09
304.464	0.07
304.677	0.12
304.889	0.08
305.102	0.02
305.314	0.01
305.526	0.13
305.739	0.11
305.951	0.01
306.163	0.04
306.375	0.1
306.588	-0
306.8	0.05
307.012	0.03
307.224	0.05
307.436	0.12
307.649	-0.01
307.861	0.08
308.073	0.11
308.285	0.03
308.497	0.01
308.709	0.05
308.921	0.06
309.133	0.12
309.346	0.08
309.558	0.09
309.77	0.08
309.982	0.1
310.194	0.09
310.406	0.04
310.617	0.11
310.829	0.05
311.041	0.06
311.253	-0
311.465	0.04
311.677	0.11
311.889	0.05
312.101	0.06
312.313	0.1
312.524	0.1
312.736	0.05
312.948	0.02
313.16	0.12
313.372	0.07
313.583	0.1
313.795	0.07
314.007	0.04
314.218	0.07
314.43	0.07
314.642	-0.01
314.853	0.04
315.065	0.12
315.277	0.03
315.488	0.05
315.7	0.07
315.912	0.05
316.123	0.04
316.335	0.08
316.546	0.15
316.758	0.05
316.969	0.07
317.181	0.06
317.392	0.08
317.604	0.11
317.815	-0.02
318.026	0.07
318.238	0.05
318.449	0.06
318.661	-0.01
318.872	0.03
319.083	0.03
319.295	0.1
319.506	0.01
319.717	0.07
319.929	0.06
320.14	0.05
320.351	0.05
320.562	0.02
320.774	0.09
320.985	0.04
321.196	-0.02
321.407	-0.02
321.618	0.06
321.829	0.05
322.041	0.06
322.252	-0
322.463	0.07
322.674	0.1
322.885	-0.01
323.096	0.07
323.307	0.02
323.518	0.11
323.729	0.01
323.94	0.06
324.151	0.02
324.362	0.08
324.573	0.05
324.784	0.02
324.995	0.13
325.206	0.11
325.417	0.09
325.628	0.04
325.838	0.07
326.049	0.06
326.26	0.07
326.471	0.09
326.682	0.08
326.892	0.04
327.103	-0.02
327.314	-0.01
327.525	0.08
327.735	0.08
327.946	0.13
328.157	0
328.368	0.1
328.578	0.06
328.789	0.08
328.999	0.05
329.21	0.08
329.421	0.06
329.631	0
329.842	0.02
330.052	0.08
330.263	0.12
330.473	0.09
330.684	0.03
330.894	0.04
331.105	0.06
331.315	0.07
331.526	-0.01
331.736	0.08
331.947	0.04
332.157	0.06
332.367	-0.02
332.578	0.08
332.788	0.09
332.999	0.1
333.209	0.09
333.419	0.01
333.629	0.06
333.84	0.04
334.05	0.05
334.26	0.12
334.47	0.03
334.681	0.11
334.891	0.05
335.101	0.09
335.311	0.14
335.521	0.08
335.732	0.01
335.942	0.1
336.152	0.11
336.362	0.04
336.572	0.04
336.782	0.12
336.992	0.04
337.202	0.05
337.412	0.01
337.622	0.04
337.832	0.05
338.042	0.03
338.252	0.02
338.462	0.04
338.672	0.08
338.882	0.06
339.092	0.04
339.302	0.08
339.511	0.11
339.721	0.03
339.931	-0.01
340.141	0.08
340.351	0.1
340.561	0.07
340.77	0.08
340.98	0.04
341.19	0.08
341.4	0.05
341.609	-0.04
341.819	0.02
342.029	0.01
342.238	0.02
342.448	0.01
342.658	0.08
342.867	0.05
343.077	0.08
343.286	0.07
343.496	0.09
343.706	0.09
343.915	-0.01
344.125	0.1
344.334	0.09
344.544	-0.02
344.753	0.02
344.963	0.03
345.172	0.05
345.381	0.03
345.591	0.01
345.8	0.06
346.01	0.12
346.219	0.09
346.428	-0.06
346.638	0.06
346.847	0.05
347.056	0.11
347.266	0.03
347.475	0.05
347.684	0.09
347.893	0.11
348.103	0.1
348.312	0.04
348.521	0.01
348.73	0.07
348.94	0.05
349.149	-0.02
349.358	0.04
349.567	0.03
349.776	-0.01
349.985	-0.01
350.194	0.09
350.403	0.13
350.612	-0.01
350.821	0.05
351.03	0.02
351.239	-0.03
351.448	0.06
351.657	0.04
351.866	0.11
352.075	0.02
352.284	0.08
352.493	0.03
352.702	0.09
352.911	0.09
353.12	0.03
353.329	0.05
353.538	0.03
353.746	0.07
353.955	0.01
354.164	0.1
354.373	0.06
354.582	0.08
354.79	0.07
354.999	0.1
355.208	0.06
355.416	0.12
355.625	0.01
355.834	0.02
356.042	0.04
356.251	0.08
356.46	-0.01
356.668	0.07
356.877	0.12
357.085	0.08
357.294	-0.05
357.503	0.05
357.711	0.03
357.92	0.13
358.128	0.03
358.337	0.07
358.545	0.05
358.754	0.03
358.962	0.06
359.17	0.01
359.379	0.11
359.587	0.07
359.796	0.02
360.004	0.11
360.212	0.07
360.421	0.11
360.629	0.04
360.837	0.04
361.046	0.11
361.254	0.15
361.462	0.04
361.67	0.04
361.879	0.06
362.087	0.08
362.295	0.09
362.503	-0.01
362.711	0.02
362.92	0.03
363.128	0.06
363.336	0.01
363.544	-0.02
363.752	0.06
363.96	0.02
364.168	0.04
364.376	0.02
364.584	0.06
364.792	0.03
365	0.06
365.208	0.06
365.416	0.09
365.624	0.12
365.832	0.06
366.04	0.15
366.248	0.1
366.456	0.08
366.664	0.08
366.872	0.09
367.079	0.04
367.287	0.03
367.495	0.09
367.703	0.07
367.911	0.04
368.118	0.07
368.326	0.04
368.534	0.04
368.742	0.11
368.949	-0.02
369.157	0.01
369.365	0.05
369.572	0.07
369.78	0.04
369.988	0.07
370.195	0.08
370.403	0.09
370.61	0.02
370.818	0.07
371.026	0.1
371.233	0.04
371.441	0.03
371.648	-0.01
371.856	0.04
372.063	0.08
372.271	0.02
372.478	0.01
372.685	0.03
372.893	0.11
373.1	0.01
373.308	0.08
373.515	0.15
373.722	0.12
373.93	0.06
374.137	0.1
374.344	0.13
374.552	0.08
374.759	0.07
374.966	0.14
375.173	0.03
375.381	0.11
375.588	0.06
375.795	-0.01
376.002	0.03
376.209	-0.01
376.417	0.1
376.624	0.03
376.831	0.05
377.038	0.03
377.245	-0.02
377.452	0
377.659	0.08
377.866	0.03
378.073	0.02
378.28	0.06
378.487	0.08
378.694	0.08
378.901	0.08
379.108	0.04
379.315	0.1
379.522	0.12
379.729	0.07
379.936	0.05
380.143	0.04
380.35	0.09
380.557	0.03
380.763	0.04
380.97	0.05
381.177	0.07
381.384	0.05
381.591	0.02
381.797	0.06
382.004	0.13
382.211	0.15
382.418	0.07
382.624	0.12
382.831	0.1
383.038	0.05
383.244	0.07
383.451	0.05
383.658	0.08
383.864	0.08
384.071	0.05
384.277	0.1
384.484	0.04
384.69	0.12
384.897	0.05
385.103	0.03
385.31	0.02
385.516	0.05
385.723	0.06
385.929	0.01
386.136	-0
386.342	0.06
386.549	0.03
386.755	0.12
386.961	0.01
387.168	0.01
387.374	0.08
387.58	0.07
387.787	0.01
387.993	0.05
388.199	0.03
388.406	0.01
388.612	0.1
388.818	0.04
389.024	0.04
389.231	0.05
389.437	0.13
389.643	0.07
389.849	0.06
390.055	0.08
390.261	0.09
390.467	0.07
390.674	0.06
390.88	0.05
391.086	0.07
391.292	0.04
391.498	0.12
391.704	0.04
391.91	0.1
392.116	0.04
392.322	-0.01
392.528	0.08
392.734	0.07
392.94	0.03
393.146	0.01
393.352	0.09
393.557	0.05
393.763	0.09
393.969	0.09
394.175	0.07
394.381	0.08
394.587	0.04
394.792	0.07
394.998	0.14
395.204	0.13
395.41	0.03
395.615	0.11
395.821	0.09
396.027	0.12
396.233	-0
396.438	0.07
396.644	0.16
396.85	0.1
397.055	0.06
397.261	0.05
397.466	0.12
397.672	0.06
397.878	0.13
398.083	0.11
398.289	0.04
398.494	0.11
398.7	0.11
398.905	0
399.111	0.12
399.316	0.02
399.522	0.07
399.727	0.06
399.932	0.04
400.138	0.07
400.343	0.1
400.549	0.1
400.754	0.04
400.959	0.04
401.165	0.07
401.37	0.07
401.575	0.14
401.78	0.07
401.986	0.09
402.191	0.03
402.396	0.07
402.601	0.12
402.807	0.08
403.012	0.07
403.217	0.12
403.422	0.07
403.627	0.04
403.832	0.04
404.037	0.09
404.243	0.07
404.448	0
404.653	0.03
404.858	0.06
405.063	0.11
405.268	0.06
405.473	0.07
405.678	0.02
405.883	0.18
406.088	0.11
406.293	0.05
406.498	0.03
406.703	0.06
406.907	0.06
407.112	0.04
407.317	0.1
407.522	0.13
407.727	0.08
407.932	0.09
408.136	0.17
408.341	0.06
408.546	0.06
408.751	0.08
408.956	0.02
409.16	0.06
409.365	0.07
409.57	0.07
409.774	0.07
409.979	0.13
410.184	0.07
410.388	0.05
410.593	0.11
410.798	0.1
411.002	0.07
411.207	0.07
411.411	0.12
411.616	0.06
411.82	0.06
412.025	0.11
412.229	0.04
412.434	0.12
412.638	0.06
412.843	0.03
413.047	0.11
413.252	0.08
413.456	0.04
413.66	0.08
413.865	0.04
414.069	0.14
414.273	0.06
414.478	0.04
414.682	0.06
414.886	0.06
415.091	0.05
415.295	0
415.499	0.05
415.703	0.06
415.908	0.14
416.112	-0.04
416.316	0.15
416.52	0.08
416.724	-0
416.929	0.05
417.133	0.19
417.337	0.06
417.541	0.03
417.745	0.06
417.949	0.1
418.153	0.09
418.357	0.02
418.561	0.15
418.765	0.1
418.969	0.15
419.173	0.12
419.377	0.06
419.581	0.16
419.785	0.1
419.989	0.02
420.193	0.07
420.397	0.09
420.601	0.13
420.804	0.11
421.008	0.05
421.212	0.1
421.416	0.13
421.62	0.04
421.823	0.1
422.027	0.19
422.231	0.1
422.435	0.06
422.638	0.13
422.842	0.07
423.046	0.05
423.249	0.12
423.453	0.16
423.657	0.13
423.86	0.07
424.064	0.07
424.268	0.12
424.471	0.09
424.675	0.13
424.878	0.12
425.082	0.06
425.285	0.13
425.489	0.11
425.692	0.09
425.896	0.07
426.099	0.11
426.303	0.04
426.506	-0
426.71	0.1
426.913	0.14
427.116	0.13
427.32	0.05
427.523	0.1
427.726	0.14
427.93	0.08
428.133	0.08
428.336	0.06
428.54	0.08
428.743	0.1
428.946	0.14
429.149	0.02
429.353	0.13
429.556	0.05
429.759	0.08
429.962	0.02
430.165	0.06
430.368	0.06
430.571	0.09
430.775	0.12
430.978	0.1
431.181	0.08
431.384	0.14
431.587	0.09
431.79	0.09
431.993	0.1
432.196	0.09
432.399	0.11
432.602	0.17
432.805	0.09
433.008	0.08
433.211	0.03
433.414	0.15
433.616	0.1
433.819	0.09
434.022	0.02
434.225	0.15
434.428	0.13
434.631	0.2
434.833	0.1
435.036	0.1
435.239	0.11
435.442	0.11
435.645	0.08
435.847	0.12
436.05	0.16
436.253	0.07
436.455	0.04
436.658	0.08
436.861	0.17
437.063	0.07
437.266	0.03
437.468	0.14
437.671	0.25
437.874	0.12
438.076	-0.01
438.279	0.01
438.481	0.07
438.684	0.06
438.886	0.14
439.089	0.05
439.291	0.13
439.494	0.13
439.696	0.02
439.899	0.09
440.101	0.12
440.303	0.06
440.506	0.15
440.708	0.12
440.91	0.14
441.113	0.05
441.315	0.16
441.517	0.03
441.72	0.15
441.922	0.05
442.124	0.08
442.326	0.12
442.529	0.16
442.731	0.07
442.933	0.21
443.135	0.08
443.337	0.06
443.539	0.09
443.742	0.1
443.944	0.15
444.146	0.05
444.348	0.11
444.55	0.09
444.752	0.1
444.954	0.03
445.156	0.11
445.358	0.09
445.56	0.14
445.762	0.14
445.964	0.1
446.166	0.09
446.368	0.09
446.57	0.14
446.772	0.1
446.974	0.13
447.175	0.13
447.377	0.11
447.579	0.07
447.781	0.01
447.983	0.17
448.184	0.11
448.386	0.13
448.588	0.05
448.79	0.1
448.991	0.04
449.193	0.14
449.395	0.11
449.597	0.16
449.798	0.15
450	0.1
450.202	0.09
450.403	0.09
450.605	0.1
450.806	0.09
451.008	0.05
451.21	0.1
451.411	0.13
451.613	0.1
451.814	0.1
452.016	0.18
452.217	0.1
452.419	0.13
452.62	0.08
452.821	0.15
453.023	0.19
453.224	0.14
453.426	0.1
453.627	0.16
453.828	0.16
454.03	0.12
454.231	0.15
454.432	0.09
454.634	0.19
454.835	0.1
455.036	0.07
455.238	0.18
455.439	0.2
455.64	0.06
455.841	0.08
456.042	0.22
456.244	0.14
456.445	0.1
456.646	0.07
456.847	0.12
457.048	0.16
457.249	0.14
457.45	0.31
457.651	0.06
457.852	0.21
458.054	0.13
458.255	0.08
458.456	0.17
458.657	0.12
458.858	0.07
459.058	0.14
459.259	0.2
459.46	0.1
459.661	0.08
459.862	0.22
460.063	0.11
460.264	0.17
460.465	0.07
460.666	0.21
460.866	0.14
461.067	0.15
461.268	0.13
461.469	0.09
461.67	0.07
461.87	0.06
462.071	0.14
462.272	0.11
462.473	0.12
462.673	0.16
462.874	0.09
463.075	0.14
463.275	0.08
463.476	0.13
463.676	0.14
463.877	0.17
464.078	0.1
464.278	0.19
464.479	0.12
464.679	0.15
464.88	0.15
465.08	0.25
465.281	0.09
465.481	0.13
465.682	0.12
465.882	0.18
466.083	0.15
466.283	0.13
466.483	0.14
466.684	0.05
466.884	0.1
467.085	0.11
467.285	0.18
467.485	0.11
467.686	0.12
467.886	0.08
468.086	0.1
468.286	0.2
468.487	0.18
468.687	0.08
468.887	0.15
469.087	0.17
469.287	0.15
469.488	0.07
469.688	0.15
469.888	0.18
470.088	0.2
470.288	0.21
470.488	0.23
470.688	0.1
470.888	0.1
471.088	0.07
471.288	0.21
471.488	0.2
471.688	0.2
471.888	0.11
472.088	0.24
472.288	0.18
472.488	0.12
472.688	0.16
472.888	0.18
473.088	0.16
473.288	0.2
473.488	0.21
473.688	0.25
473.887	0.17
474.087	0.17
474.287	0.21
474.487	0.14
474.687	0.18
474.886	0.2
475.086	0.17
475.286	0.19
475.486	0.2
475.685	0.19
475.885	0.21
476.085	0.22
476.284	0.22
476.484	0.23
476.684	0.22
476.883	0.26
477.083	0.25
477.282	0.2
477.482	0.29
477.681	0.29
477.881	0.21
478.08	0.21
478.28	0.23
478.479	0.25
478.679	0.29
478.878	0.22
479.078	0.21
479.277	0.24
479.477	0.23
479.676	0.3
479.875	0.24
480.075	0.22
480.274	0.27
480.473	0.33
480.673	0.24
480.872	0.32
481.071	0.3
481.271	0.32
481.47	0.28
481.669	0.27
481.868	0.27
482.067	0.29
482.267	0.29
482.466	0.31
482.665	0.3
482.864	0.29
483.063	0.31
483.262	0.36
483.461	0.39
483.661	0.37
483.86	0.37
484.059	0.38
484.258	0.36
484.457	0.37
484.656	0.36
484.855	0.43
485.054	0.33
485.253	0.38
485.452	0.36
485.651	0.4
485.849	0.44
486.048	0.38
486.247	0.39
486.446	0.48
486.645	0.42
486.844	0.46
487.043	0.43
487.241	0.47
487.44	0.44
487.639	0.49
487.838	0.52
488.037	0.51
488.235	0.61
488.434	0.56
488.633	0.5
488.831	0.62
489.03	0.62
489.229	0.61
489.427	0.58
489.626	0.66
489.825	0.66
490.023	0.66
490.222	0.62
490.42	0.67
490.619	0.68
490.817	0.72
491.016	0.7
491.214	0.76
491.413	0.73
491.611	0.76
491.81	0.75
492.008	0.8
492.207	0.83
492.405	0.83
492.604	0.77
492.802	0.86
493	0.86
493.199	0.88
493.397	0.88
493.595	0.93
493.794	0.94
493.992	1.08
494.19	0.97
494.388	1.07
494.587	0.99
494.785	1.04
494.983	1
495.181	1.09
495.379	1.12
495.578	1.15
495.776	1.14
495.974	1.19
496.172	1.2
496.37	1.24
496.568	1.25
496.766	1.27
496.964	1.38
497.162	1.36
497.36	1.37
497.558	1.45
497.756	1.47
497.954	1.47
498.152	1.51
498.35	1.57
498.548	1.53
498.746	1.58
498.944	1.58
499.142	1.65
499.34	1.66
499.538	1.8
499.736	1.73
499.933	1.85
500.131	1.84
500.329	1.94
500.527	1.96
500.725	2.03
500.922	2.04
501.12	2.08
501.318	2.16
501.516	2.14
501.713	2.26
501.911	2.25
502.109	2.25
502.306	2.38
502.504	2.33
502.701	2.4
502.899	2.46
503.097	2.63
503.294	2.55
503.492	2.72
503.689	2.79
503.887	2.75
504.084	2.92
504.282	2.86
504.479	2.87
504.677	3.07
504.874	3.02
505.072	3.05
505.269	3.24
505.466	3.25
505.664	3.35
505.861	3.29
506.059	3.44
506.256	3.51
506.453	3.56
506.651	3.7
506.848	3.73
507.045	3.81
507.242	3.8
507.44	3.89
507.637	4
507.834	4.05
508.031	4.21
508.229	4.15
508.426	4.17
508.623	4.35
508.82	4.44
509.017	4.43
509.214	4.48
509.411	4.68
509.608	4.69
509.805	4.85
510.003	4.9
510.2	4.96
510.397	5.17
510.594	5.11
510.791	5.22
510.988	5.29
511.184	5.35
511.381	5.28
511.578	5.43
511.775	5.67
511.972	5.64
512.169	5.72
512.366	5.84
512.563	5.99
512.76	6.04
512.956	6.13
513.153	6.08
513.35	6.16
513.547	6.27
513.744	6.43
513.94	6.5
514.137	6.61
514.334	6.58
514.53	6.7
514.727	6.98
514.924	6.87
515.12	6.91
515.317	7.02
515.514	6.98
515.71	7.03
515.907	7.31
516.103	7.36
516.3	7.27
516.497	7.45
516.693	7.48
516.89	7.52
517.086	7.66
517.283	7.62
517.479	7.5
517.676	7.83
517.872	7.9
518.068	7.93
518.265	7.92
518.461	7.92
518.658	8.07
518.854	8.06
519.05	8.23
519.247	8.24
519.443	8.17
519.639	8.3
519.836	8.21
520.032	8.23
520.228	8.38
520.424	8.32
520.621	8.41
520.817	8.47
521.013	8.4
521.209	8.63
521.405	8.6
521.601	8.53
521.798	8.5
521.994	8.46
522.19	8.45
522.386	8.44
522.582	8.61
522.778	8.68
522.974	8.55
523.17	8.53
523.366	8.41
523.562	8.46
523.758	8.49
523.954	8.31
524.15	8.51
524.346	8.41
524.542	8.46
524.738	8.35
524.934	8.47
525.129	8.39
525.325	8.25
525.521	8.19
525.717	8.42
525.913	8.2
526.109	8.15
526.304	8.26
526.5	8.13
526.696	8.13
526.892	7.97
527.087	8.23
527.283	8.07
527.479	7.92
527.674	7.68
527.87	7.83
528.066	7.72
528.261	7.69
528.457	7.54
528.653	7.66
528.848	7.57
529.044	7.58
529.239	7.34
529.435	7.3
529.63	7.27
529.826	7.19
530.021	7.17
530.217	7.13
530.412	6.97
530.608	7.02
530.803	6.94
530.999	6.74
531.194	6.71
531.389	6.77
531.585	6.71
531.78	6.7
531.975	6.56
532.171	6.56
532.366	6.46
532.561	6.37
532.757	6.29
532.952	6.36
533.147	6.08
533.342	6.15
533.538	6.03
533.733	6.09
533.928	5.79
534.123	5.87
534.318	5.84
534.513	5.67
534.709	5.77
534.904	5.61
535.099	5.57
535.294	5.55
535.489	5.47
535.684	5.34
535.879	5.28
536.074	5.32
536.269	5.23
536.464	5.2
536.659	5.09
536.854	5.05
537.049	5.02
537.244	4.96
537.439	4.86
537.634	4.83
537.828	4.84
538.023	4.74
538.218	4.65
538.413	4.55
538.608	4.59
538.803	4.53
538.997	4.44
539.192	4.42
539.387	4.36
539.582	4.25
539.776	4.23
539.971	4.22
540.166	4.22
540.36	4.1
540.555	4.11
540.75	4.1
540.944	4.05
541.139	3.95
541.334	3.93
541.528	3.9
541.723	3.9
541.917	3.81
542.112	3.68
542.306	3.66
542.501	3.64
542.695	3.66
542.89	3.55
543.084	3.57
543.279	3.51
543.473	3.51
543.668	3.53
543.862	3.39
544.056	3.33
544.251	3.36
544.445	3.32
544.64	3.3
544.834	3.13
545.028	3.11
545.222	3.17
545.417	3.19
545.611	3.09
545.805	3.11
546	2.97
546.194	2.98
546.388	2.94
546.582	2.92
546.776	2.88
546.97	2.85
547.165	2.83
547.359	2.77
547.553	2.7
547.747	2.71
547.941	2.71
548.135	2.63
548.329	2.66
548.523	2.6
548.717	2.5
548.911	2.53
549.105	2.44
549.299	2.47
549.493	2.42
549.687	2.39
549.881	2.44
550.075	2.38
550.269	2.25
550.463	2.3
550.657	2.27
550.85	2.24
551.044	2.2
551.238	2.19
551.432	2.1
551.626	2.12
551.82	2.1
552.013	2.03
552.207	2.09
552.401	2.07
552.594	1.98
552.788	1.92
552.982	1.91
553.176	1.86
553.369	1.92
553.563	1.88
553.756	1.79
553.95	1.79
554.144	1.79
554.337	1.83
554.531	1.7
554.724	1.7
554.918	1.68
555.111	1.67
555.305	1.65
555.498	1.66
555.692	1.65
555.885	1.57
556.079	1.59
556.272	1.51
556.466	1.56
556.659	1.46
556.852	1.49
557.046	1.43
557.239	1.44
557.432	1.4
557.626	1.41
557.819	1.41
558.012	1.42
558.206	1.38
558.399	1.31
558.592	1.29
558.785	1.28
558.979	1.28
559.172	1.25
559.365	1.27
559.558	1.19
559.751	1.16
559.944	1.2
560.138	1.18
560.331	1.13
560.524	1.15
560.717	1.15
560.91	1.1
561.103	1.11
561.296	1.04
561.489	1.07
561.682	1.06
561.875	1.06
562.068	1.07
562.261	1.02
562.454	1.05
562.647	0.95
562.84	0.97
563.032	0.94
563.225	0.96
563.418	0.91
563.611	0.94
563.804	0.91
563.997	0.85
564.19	0.83
564.382	0.89
564.575	0.86
564.768	0.84
564.961	0.84
565.153	0.81
565.346	0.82
565.539	0.83
565.731	0.83
565.924	0.81
566.117	0.85
566.309	0.78
566.502	0.74
566.695	0.74
566.887	0.76
567.08	0.74
567.272	0.71
567.465	0.68
567.657	0.69
567.85	0.72
568.042	0.73
568.235	0.71
568.427	0.66
568.62	0.65
568.812	0.66
569.005	0.65
569.197	0.59
569.389	0.62
569.582	0.63
569.774	0.65
569.966	0.55
570.159	0.58
570.351	0.56
570.543	0.59
570.736	0.59
570.928	0.53
571.12	0.55
571.312	0.53
571.505	0.5
571.697	0.58
571.889	0.53
572.081	0.53
572.273	0.48
572.465	0.56
572.658	0.5
572.85	0.5
573.042	0.49
573.234	0.5
573.426	0.5
573.618	0.43
573.81	0.46
574.002	0.5
574.194	0.46
574.386	0.42
574.578	0.35
574.77	0.42
574.962	0.44
575.154	0.39
575.346	0.42
575.538	0.43
575.729	0.37
575.921	0.43
576.113	0.38
576.305	0.41
576.497	0.4
576.689	0.36
576.88	0.36
577.072	0.4
577.264	0.35
577.456	0.37
577.647	0.26
577.839	0.35
578.031	0.39
578.223	0.31
578.414	0.3
578.606	0.35
578.798	0.34
578.989	0.3
579.181	0.34
579.372	0.34
579.564	0.3
579.755	0.31
579.947	0.3
580.139	0.34
580.33	0.23
580.522	0.3
580.713	0.21
580.905	0.28
581.096	0.3
581.287	0.29
581.479	0.29
581.67	0.3
581.862	0.26
582.053	0.27
582.244	0.22
582.436	0.26
582.627	0.24
582.818	0.24
583.01	0.2
583.201	0.28
583.392	0.28
583.583	0.25
583.775	0.23
583.966	0.24
584.157	0.23
584.348	0.23
584.54	0.21
584.731	0.23
584.922	0.22
585.113	0.2
585.304	0.25
585.495	0.27
585.686	0.24
585.877	0.27
586.068	0.24
586.259	0.22
586.45	0.23
586.641	0.19
586.832	0.17
587.023	0.2
587.214	0.2
587.405	0.18
587.596	0.17
587.787	0.24
587.978	0.21
588.169	0.16
588.36	0.19
588.551	0.21
588.742	0.18
588.932	0.19
589.123	0.17
589.314	0.21
589.505	0.2
589.696	0.19
589.886	0.15
590.077	0.15
590.268	0.18
590.458	0.14
590.649	0.13
590.84	0.22
591.03	0.18
591.221	0.14
591.412	0.14
591.602	0.17
591.793	0.18
591.984	0.1
592.174	0.13
592.365	0.22
592.555	0.12
592.746	0.12
592.936	0.17
593.127	0.17
593.317	0.18
593.508	0.12
593.698	0.13
593.889	0.16
594.079	0.13
594.269	0.12
594.46	0.13
594.65	0.15
594.84	0.12
595.031	0.12
595.221	0.11
595.411	0.08
595.602	0.15
595.792	0.13
595.982	0.12
596.172	0.17
596.363	0.12
596.553	0.14
596.743	0.13
596.933	0.13
597.123	0.15
597.314	0.09
597.504	0.11
597.694	0.16
597.884	0.15
598.074	0.12
598.264	0.11
598.454	0.13
598.644	0.11
598.834	0.12
599.024	0.06
599.214	0.07
599.404	0.14
599.594	0.09
599.784	0.1
599.974	0.13
600.164	0.13
600.354	0.09
600.544	0.08
600.734	0.12
600.924	0.13
601.114	0.09
601.303	0.11
601.493	0.12
601.683	0.08
601.873	0.1
602.063	0.04
602.252	0.15
602.442	0.03
602.632	0.07
602.821	0.05
603.011	0.12
603.201	0.1
603.39	0.07
603.58	0.08
603.77	0.11
603.959	0.11
604.149	0.07
604.339	0.07
604.528	0.11
604.718	0.12
604.907	0.09
605.097	0.08
605.286	0.07
605.476	0.11
605.665	0.13
605.855	0.07
606.044	0.1
606.234	0.09
606.423	0.07
606.612	0.04
606.802	0.07
606.991	0.09
607.181	0.1
607.37	0.05
607.559	0.08
607.749	0.03
607.938	0.08
608.127	0.06
608.316	0.06
608.506	0.1
608.695	0.07
608.884	0.08
609.073	0.07
609.263	0.1
609.452	0.1
609.641	0.08
609.83	0.03
610.019	0.08
610.208	0.06
610.397	0.06
610.586	0.09
610.775	0.06
610.965	0.07
611.154	0.02
611.343	0.07
611.532	0.09
611.721	0.03
611.91	0.04
612.099	0.11
612.287	0.06
612.476	0.04
612.665	0.08
612.854	0.05
613.043	0.11
613.232	0.09
613.421	0.04
613.61	0.08
613.798	0.03
613.987	0.1
614.176	0.08
614.365	0.08
614.554	0.05
614.742	0.08
614.931	0.05
615.12	0.1
615.309	0.06
615.497	0.07
615.686	0.03
615.875	0.04
616.063	0.11
616.252	0.04
616.44	0.03
616.629	0.06
616.818	0.09
617.006	0.03
617.195	0.06
617.383	0.07
617.572	0.09
617.76	0.05
617.949	0.05
618.137	0.1
618.326	0.1
618.514	0.04
618.703	0.04
618.891	0.12
619.079	-0
619.268	0.07
619.456	0.04
619.644	0.13
619.833	0.05
620.021	0.05
620.209	0
620.398	0.06
620.586	0.04
620.774	0.06
620.962	0.05
621.151	0.13
621.339	0.07
621.527	0
621.715	0.03
621.903	0.03
622.092	0.04
622.28	0.06
622.468	0.04
622.656	0.01
622.844	0.1
623.032	0.05
623.22	-0
623.408	0.09
623.596	0.06
623.784	0.09
623.972	0.04
624.16	0.04
624.348	0.12
624.536	0.05
624.724	0.05
624.912	0.09
625.1	0.07
625.288	0.03
625.476	0.05
625.664	0.09
625.851	0.08
626.039	0.05
626.227	0.1
626.415	0.05
626.603	0.01
626.79	0.04
626.978	0.04
627.166	0.09
627.354	0.07
627.541	0.03
627.729	-0.01
627.917	0.1
628.104	0.1
628.292	0.07
628.48	0.04
628.667	0.06
628.855	0.06
629.042	0.04
629.23	0.03
629.418	0.02
629.605	0.05
629.793	0.03
629.98	0.04
630.168	0.05
630.355	0.05
630.543	0.06
630.73	0.03
630.917	0.1
631.105	0.11
631.292	0.01
631.48	0.03
631.667	0.1
631.854	0.05
632.042	0.04
632.229	0.02
632.416	0.05
632.604	0.03
632.791	0
632.978	0.08
633.165	0.06
633.353	0.12
633.54	0.07
633.727	-0.02
633.914	0.03
634.101	-0.02
634.289	0.09
634.476	0.01
634.663	-0
634.85	0.1
635.037	0.03
635.224	0
635.411	0.09
635.598	0.07
635.785	0.07
635.972	0.07
636.159	0.09
636.346	0.03
636.533	0.05
636.72	0.03
636.907	0.02
637.094	0.06
637.281	0.02
637.468	0.08
637.655	0.04
637.842	0.06
638.029	0.04
638.215	0.11
638.402	0.05
638.589	0.01
638.776	0.03
638.963	0.03
639.149	0.11
639.336	0.11
639.523	0.04
639.709	0.04
639.896	0.02
640.083	0.06
640.27	0.07
640.456	0.05
640.643	0.06
640.829	-0.01
641.016	0.05
641.203	0.01
641.389	0.1
641.576	0.1
641.762	0.05
641.949	0.02
642.135	0.07
642.322	0.02
642.508	-0.03
642.695	0.04
642.881	0.06
643.068	0.03
643.254	0.04
643.441	0.12
643.627	0.05
643.813	-0
644	0.05
644.186	0.03
644.372	-0
644.559	0.11
644.745	0.04
644.931	0.06
645.118	0.08
645.304	0.01
645.49	-0.01
645.676	0.03
645.862	0.06
646.049	0.09
646.235	0.05
646.421	0.13
646.607	0.11
646.793	0.02
646.979	0.01
647.165	0.07
647.352	0.05
647.538	0.09
647.724	0.07
647.91	0.03
648.096	0.08
648.282	0.1
648.468	-0.01
648.654	0.06
648.84	0.04
649.026	0.05
649.212	0.06
649.397	0.04
649.583	0
649.769	0.05
649.955	0.07
650.141	0.09
650.327	0.09
650.513	0.01
650.698	0.07
650.884	-0.04
651.07	0.06
651.256	0.07
651.442	0.03
651.627	0.05
651.813	0.09
651.999	0.07
652.184	0.05
652.37	0.07
652.556	0.01
652.741	0.08
652.927	-0.03
653.113	0.02
653.298	0.05
653.484	0.02
653.669	-0.02
653.855	0.06
654.04	0.06
654.226	0.06
654.412	0.02
654.597	0.02
654.782	0.07
654.968	0.1
655.153	0.02
655.339	0.05
655.524	-0.01
655.71	0.07
655.895	0.01
656.08	0.01
656.266	0.07
656.451	0.05
656.636	0
656.822	0.06
657.007	0.02
657.192	0.03
657.378	0
657.563	0.02
657.748	0.09
657.933	0.09
658.118	0.02
658.304	0.02
658.489	0.05
658.674	0.08
658.859	0.01
659.044	0.05
659.229	0.09
659.414	0.02
659.599	0.06
659.785	-0.01
659.97	0.01
660.155	0.09
660.34	0.05
660.525	0.04
660.71	0.03
660.895	0.08
661.08	0.02
661.264	-0.01
661.449	0.12
661.634	0.12
661.819	0.07
662.004	0.05
662.189	-0.03
662.374	0
662.559	0.01
662.743	0.01
662.928	0.05
663.113	0.03
663.298	0.02
663.483	0.01
663.667	0.06
663.852	0.01
664.037	0.11
664.221	0.02
664.406	0.08
664.591	0.05
664.775	0.03
664.96	0.05
665.145	0.03
665.329	0.09
665.514	0.02
665.698	0.04
665.883	0.03
666.068	0.13
666.252	0.07
666.437	0.02
666.621	0.05
666.806	0.09
666.99	0.07
667.174	0.02
667.359	0.12
667.543	0.04
667.728	0.04
667.912	0
668.096	0.09
668.281	0.01
668.465	0.04
668.649	0.04
668.834	0.01
669.018	0.05
669.202	0.03
669.387	0.01
669.571	0.11
669.755	0.04
669.939	0.03
670.124	0.06
670.308	0.13
670.492	0.07
670.676	0.04
670.86	0.05
671.044	0.06
671.228	0.1
671.413	0.02
671.597	0.03
671.781	0.02
671.965	0.12
672.149	0.1
672.333	0.05
672.517	0.03
672.701	0.14
672.885	0.04
673.069	0.04
673.253	0.08
673.437	0.07
673.621	0.02
673.804	0.07
673.988	0.06
674.172	0.08
674.356	0.02
674.54	0.06
674.724	0.13
674.908	0.08
675.091	0.1
675.275	0.03
675.459	0.1
675.643	0.11
675.826	0.05
676.01	0.08
676.194	0.08
676.377	0.11
676.561	0.1
676.745	0.07
676.928	0.09
677.112	0.12
677.296	0.04
677.479	0.07
677.663	0.02
677.846	0.08
678.03	0.02
678.213	0.01
678.397	0.11
678.58	0.06
678.764	0.03
678.947	0.02
679.131	0.01
679.314	0.06
679.498	0.05
679.681	0.06
679.865	0.13
680.048	0.05
680.231	0.08
680.415	0.04
680.598	0.03
680.781	0.07
680.965	0.06
681.148	0.07
681.331	0.05
681.514	0.05
681.698	0.03
681.881	0.08
682.064	0.11
682.247	0.09
682.43	0.03
682.614	0.13
682.797	0.08
682.98	0.08
683.163	0.01
683.346	0.14
683.529	0.05
683.712	0.05
683.895	0.1
684.078	0.02
684.261	-0
684.444	0.09
684.627	0.04
684.81	0.03
684.993	0.09
685.176	0.1
685.359	0
685.542	0.07
685.725	0.11
685.908	0.03
686.091	0.04
686.274	0.1
686.457	0.09
686.639	0.03
686.822	0.12
687.005	0.09
687.188	0.11
687.371	0.11
687.553	0.1
687.736	0.07
687.919	0.18
688.102	0.12
688.284	0.03
688.467	0.09
688.65	0.05
688.832	0.07
689.015	0.03
689.197	0.04
689.38	0.15
689.563	0.17
689.745	-0
689.928	0.02
690.11	0.1
690.293	0.08
690.475	0.01
690.658	0.04
690.84	0.06
691.023	0.04
691.205	0.03
691.388	0.06
691.57	0.11
691.752	0.13
691.935	-0.02
692.117	0.03
692.3	0.03
692.482	0.07
692.664	0.05
692.847	0.05
693.029	0.16
693.211	0.09
693.393	0.06
693.576	0.04
693.758	0.07
693.94	0.07
694.122	0.08
694.304	0.04
694.487	0.11
694.669	0.14
694.851	0.01
695.033	0.06
695.215	-0.01
695.397	0.03
695.579	0.09
695.761	0.06
695.943	0
696.125	0.12
696.308	0.06
696.49	-0.04
696.671	0.2
696.853	0.06
697.035	0.19
697.217	0.08
697.399	0.06
697.581	0.01
697.763	0.04
697.945	-0.02
698.127	0.07
698.309	0.14
698.491	0.06
698.672	0.04
698.854	0.12
699.036	0.11
699.218	-0
699.399	0.13
699.581	0.09
699.763	0.08
699.945	0.04
700.126	0.02
700.308	0.08
700.49	0.03
700.671	-0.03
700.853	0.03
701.035	0.02
701.216	0.08
701.398	-0
701.579	0.06
701.761	0.05
701.943	0.06
702.124	0.02
702.306	0.07
702.487	0.17
702.669	0.1
702.85	0.03
703.031	-0.01
703.213	0.14
703.394	0.14
703.576	-0
703.757	0.1
703.938	0.14
704.12	0.21
704.301	0.12
704.483	0.07
704.664	0.1
704.845	0.2
705.026	0.14
705.208	0.08
705.389	0.05
705.57	0.09
705.751	0.07
705.933	0.05
706.114	0.16
706.295	0.11
706.476	-0.02
706.657	0.18
706.838	0.13
707.02	0.15
707.201	0.04
707.382	0
707.563	0.09
707.744	0
707.925	0.02
708.106	0.02
708.287	0.12
708.468	0.19
708.649	0
708.83	0.07
709.011	0.04
709.192	0.11
709.373	0.03
709.554	0.09
709.734	0.11
709.915	0.09
710.096	0.05
710.277	-0.05
710.458	0.07
710.639	0.09
710.819	-0.07
711	0
711.181	0.12
711.362	0.13
711.542	0.08
711.723	0.06
711.904	0.12
712.085	0.12
712.265	0.05
712.446	0.07
712.627	0.02
712.807	0.06
712.988	0.03
713.168	-0.05
713.349	0.11
713.53	-0.09
713.71	-0.02
713.891	0
714.071	0.05
714.252	0.1
714.432	0.03
714.613	-0.03
714.793	0.1
714.974	0.13
715.154	0.11
715.334	0.11
715.515	0.21
715.695	0.01
715.876	0.02
716.056	0.06
716.236	0.09
716.417	0.08
716.597	0.07
716.777	0.19
716.957	0.09
717.138	0.06
717.318	0.09
717.498	-0.03
717.678	0.11
717.859	0.03
718.039	-0.06
718.219	0.06
718.399	0.07
718.579	0.02
718.759	-0.03
718.939	0.13
719.12	0.05
719.3	0.05
719.48	-0.02
719.66	-0.09
719.84	0.16
720.02	0.07
720.2	0.04
720.38	0.04
720.56	0.2
720.74	0.01
720.92	0.06
721.1	0.12
721.279	0.15
721.459	0.07
721.639	0.03
721.819	0.01
721.999	0.02
722.179	0.1
722.359	-0.06
722.538	0.06
722.718	0.16
722.898	0.02
723.078	-0.01
723.257	0.03
723.437	0.08
723.617	0.09
723.797	-0.01
723.976	0.07
724.156	0.06
724.336	0.12
724.515	0.17
724.695	-0.08
724.874	0.04
725.054	0.14
725.234	-0.06
725.413	0.06
725.593	0.04
725.772	0.04
725.952	-0.01
726.131	0.13
726.311	0.08
726.49	0.01
726.67	0.09
726.849	0.03
727.028	0.11
727.208	0.08
727.387	0.12
727.567	0.02
727.746	0.08
727.925	0.03
728.105	-0.1
728.284	0.08
728.463	0.05
728.643	0.07
728.822	0.02
729.001	-0.01
729.18	0.08
729.359	0.09
729.539	0.07
729.718	0.03
729.897	0.03
730.076	-0
730.255	0.01
730.434	0.11
730.614	0.05
730.793	0.13
730.972	-0.02
731.151	0.08
731.33	0.14
731.509	0.13
731.688	0.16
731.867	0.11
732.046	-0.06
732.225	0.23
732.404	0.04
732.583	-0.03
732.762	0.06
732.941	0.18
733.12	0.1
733.298	0.06
733.477	0.19
733.656	0.1
733.835	-0.02
734.014	0.12
734.193	0.02
734.371	0.14
734.55	0.14
734.729	-0.08
734.908	0.06
735.086	0.06
735.265	0.19
735.444	-0.11
735.623	-0.1
735.801	-0.04
735.98	0.09
736.159	0.05
736.337	0.24
736.516	0.02
736.694	0.17
736.873	0.04
737.052	0.24
737.23	0.23
737.409	0.06
737.587	0.26
737.766	-0.15
737.944	-0.02
738.123	0.16
738.301	0.15
738.479	0.07
738.658	0.16
738.836	-0.04
739.015	0.08
739.193	0.1
739.371	0.06
739.55	-0.02
739.728	0.06
739.906	0.18
740.085	0.17
740.263	0.06
740.441	-0.07
740.62	0.32
740.798	0.17
740.976	-0.04
741.154	0.07
741.332	0.2
741.511	-0.01
741.689	0.09
741.867	0.16
742.045	0.08
742.223	0.11
742.401	0
742.579	0.03
742.757	0.12
742.935	-0.02
743.114	0.12
743.292	0.12
743.47	0.08
743.648	0.13
743.826	-0.05
744.004	0.12
744.181	0.18
744.359	0.13
744.537	0.12
744.715	0.07
744.893	0.09
745.071	0.14
745.249	0.07
745.427	0.11
745.605	0.11
745.782	0.13
745.96	0.17
746.138	0.12
746.316	0.18
746.493	0
746.671	0.14
746.849	0.06
747.027	0.16
747.204	0.09
747.382	0.25
747.56	0.09
747.737	-0.06
747.915	-0.06
748.093	0.14
748.27	-0.01
748.448	0.09
748.625	-0.09
748.803	-0.05
748.98	0.07
749.158	0.15
749.335	0.14
749.513	0.1
749.69	0.1
749.868	0.1
750.045	0.15
750.223	0.03
750.4	-0.15
750.578	0.26
750.755	0.07
750.932	-0.04
751.11	0.15
751.287	-0.09
751.464	0.15
751.642	-0.03
751.819	0.1
751.996	0.14
752.173	0.04
752.351	-0.02
752.528	0.13
752.705	0.07
752.882	-0.07
753.06	-0.01
753.237	0.1
753.414	0.27
753.591	0.21
753.768	0.19
753.945	0.03
754.122	0.06
754.299	0.1
754.476	0.11
754.654	0.09
754.831	0.06
755.008	0.02
755.185	0.01
755.362	-0.09
755.539	0.1
755.716	0.03
755.892	0.04
756.069	0.06
756.246	0
756.423	0.01
756.6	0.23
756.777	0.05
756.954	0.18
757.131	0.18
757.307	-0.01
757.484	0
757.661	0.16
757.838	0.15
758.015	-0.01
758.191	0.15
758.368	0.12
758.545	0.23
758.721	0.1
758.898	-0.07
759.075	0.08
759.251	0.19
759.428	0.16
759.605	-0.04
759.781	0.01
759.958	0.08
760.134	0.16
760.311	0.05
760.488	0.26
760.664	0.26
760.841	0.1
761.017	-0.08
761.194	0.1
761.37	0.11
761.547	0.12
761.723	0.11
761.899	0.02
762.076	0.06
762.252	-0.05
762.429	0.02
762.605	0.04
762.781	0.09
762.958	0.16
763.134	-0.01
763.31	-0.03
763.486	0.12
763.663	-0.11
763.839	0.13
764.015	-0.04
764.191	0.04
764.368	-0.04
764.544	-0.05
764.72	0.22
764.896	0.12
765.072	0.01
765.248	0.01
765.425	0.13
765.601	0.1
765.777	0.09
765.953	-0.11
766.129	0.17
766.305	0
766.481	0.21
766.657	0.11
766.833	0.17
767.009	-0.02
767.185	0.08
767.361	0.09
767.537	-0.05
767.713	0.17
767.889	-0.04
768.065	0.11
768.24	0.12
768.416	0.18
768.592	-0.04
768.768	0.02
768.944	0.08
769.12	0.03
769.295	-0.05
769.471	0.08
769.647	0.18
769.823	0.14
769.998	-0.04
770.174	-0.04
770.35	0.41
770.525	0.31
770.701	0.09
770.877	0.01
771.052	0.13
771.228	0.1
771.403	0.01
771.579	0.01
771.755	0.32
771.93	0.06
772.106	0.01
772.281	0.05
772.457	0.16
772.632	0.08
772.808	-0.05
772.983	0.02
773.159	-0.06
773.334	0.31
773.509	-0.03
773.685	-0.03
773.86	0.33
774.036	0.35
774.211	0.11
774.386	0.14
774.562	0.14
774.737	0.4
774.912	-0.08
775.087	0.13
775.263	0.14
775.438	-0.08
775.613	0.04
775.788	0.06
775.964	0.29
776.139	0.28
776.314	-0.13
776.489	0.15
776.664	0.16
776.839	0.06
777.014	0.19
777.19	0.23
777.365	0.31
777.54	0.47
777.715	0.04
777.89	0.16
778.065	0.1
778.24	0.16
778.415	0.12
778.59	-0.07
778.765	-0.05
778.94	0.12
779.115	0.06
779.289	-0.05
779.464	0.23
779.639	0.15
779.814	-0.17
779.989	-0.07
780.164	0.19
780.339	0.07
780.513	0.04
780.688	0.01
780.863	-0.04
781.038	0.2
781.212	-0.1
781.387	0.19
781.562	0.32
781.737	-0.08
781.911	0.29
782.086	-0.1
782.261	0.08
782.435	0.36
782.61	0.09
782.784	-0.12
782.959	0.24
783.134	0.05
783.308	0.01
783.483	0.07
783.657	0.31
783.832	0.24
784.006	-0.25
784.181	0.12
784.355	0.32
784.53	0.07
784.704	-0.14
784.878	0.13
785.053	0.32
785.227	0.24
785.402	0.51
785.576	-0.14
785.75	-0.1
785.925	0.12
786.099	0.19
786.273	0.04
786.448	0.19
786.622	0.21
786.796	0.01
786.97	0.17
787.145	0.47
787.319	-0.24
787.493	-0.05
787.667	-0.33
787.841	0.01
788.015	0.4
788.19	0.03
788.364	0.11
788.538	0.17
788.712	0.14
788.886	-0.02
789.06	0.55
789.234	0.23
789.408	-0.09
789.582	0.14
789.756	-0.03
789.93	-0.11
790.104	-0.05
790.278	-0.02
790.452	-0.07
790.626	0.1
790.8	-0.16
790.973	0.1
791.147	0.08
791.321	0.46
791.495	0.1
791.669	0.16
791.843	0.02
792.016	0.33
792.19	0.4
792.364	0.02
792.538	0.53
792.711	0.31
792.885	-0.04
793.059	0.04
793.233	-0.32
793.406	0.37
793.58	0.19
793.754	0.18
793.927	0.02
794.101	0.28
794.274	0.1
794.448	0.22
794.622	-0.16
794.795	0.36
794.969	0.02
795.142	0.37
795.316	0.06
795.489	-0.27
795.663	0.65
795.836	0.03
796.009	0.11
796.183	0.48
796.356	0.27
796.53	0.12
796.703	0.08
796.876	0.16
797.05	0.19
797.223	-0.05
797.396	0.21
797.57	0.19
797.743	0.38
797.916	0.35
798.09	0.12
798.263	0.33
798.436	0.25
798.609	0.23
798.782	0.13
798.956	-0
799.129	0.2
799.302	-0.04
799.475	-0.14
799.648	-0.02
799.821	-0.22
799.994	-0.13
800.167	-0.25
800.34	-0.02
800.514	0.23
800.687	0.16
800.86	-0.09
801.033	0.26
801.206	0.11
801.379	0.01
801.551	0.32
801.724	0.35
801.897	0.61
802.07	0.02
802.243	-0.47
802.416	0.08
802.589	-0.24
802.762	0.27
802.935	0.27
803.107	0.6
803.28	0.6
803.453	0.33
803.626	0.06
803.798	0.13
803.971	-0.04
804.144	0.46
804.317	0.36
804.489	0.35
804.662	-0.04
804.835	0.21
805.007	-0.09
805.18	0.37
805.353	0.55
805.525	0.01
805.698	0.09
805.87	0.16
806.043	0.25
806.215	-0.14
806.388	-0.18
806.56	0.24
806.733	0.6
806.905	0.22
807.078	-0.2
807.25	-0.11
807.423	0.5
807.595	0.2
807.768	0.15
807.94	0.7
808.112	0.09
808.285	-0.01
808.457	0.16
808.629	-0.2
808.802	0.52
808.974	0.11
809.146	0.12
809.318	0.1
809.491	0.19
809.663	0.5
809.835	0.25
810.007	0.24
810.18	-0.04
810.352	-0.24
810.524	0.01
810.696	0.39
810.868	0.31
811.04	0.14
811.212	0.22
811.384	0.39
811.556	0.18
811.728	-0.18
811.901	0.34
812.073	0.08
812.245	0.22
812.417	0.36
812.589	-0.67
812.76	-0.13
812.932	0.56
813.104	0.47
813.276	0.12
813.448	0.65
813.62	0.21
813.792	0.41
813.964	0.27
814.136	0.31
814.307	0.3
814.479	-0.03
814.651	0.06
814.823	1.1
814.995	0.1
815.166	0.35
815.338	-0.07
815.51	-0.49
815.681	0.8
815.853	0.08
816.025	-0.24
816.196	0.79
816.368	0.19
816.54	-0.44
816.711	-0.02
816.883	0.69
817.054	1.07
817.226	-0.53
817.398	0.48
817.569	-0.05
817.741	0.21
817.912	0.15
818.084	0.63
818.255	0.31
818.426	0.56
818.598	-0.1
818.769	-0.19
818.941	0.42
819.112	0.78
819.283	0.55
819.455	-0.03
819.626	0.38
819.798	0.43
819.969	0.52
820.14	0.23
820.311	-0.02
820.483	0.15
820.654	0.4
820.825	-0.02
820.996	0.1
821.168	-0.33
821.339	0.02
821.51	-0.06
821.681	0.11
821.852	0.41
822.023	-0.19
822.195	-0.12
822.366	0.45
822.537	-0
822.708	0.58
822.879	-0.4
823.05	0.71
823.221	0.19
823.392	0.58
823.563	0.1
823.734	0.39
823.905	0.19
824.076	0.06
824.247	-0.22
824.418	0.09
824.589	0.79
824.759	-0.15
824.93	0.1
825.101	-0.37
825.272	0.93
825.443	0.63
825.614	0.49
825.784	-0.28
825.955	1.56
826.126	1.02
826.297	-0.29
826.467	1.23
826.638	0.77
826.809	-0.19
826.98	0.47
827.15	0.23
827.321	-0.12
827.492	0.92
827.662	0.49
827.833	1.17
828.003	0.76
828.174	-0.39
828.345	-0.37
828.515	0.15
828.686	0.11
828.856	-0.28
829.027	0.35
829.197	0.04
829.368	0.51
829.538	-0.1
829.709	-0.34
829.879	-0.12
830.049	1.02
830.22	-0.32
830.39	0.55
830.56	0.78
830.731	0.78
830.901	-0.41
831.072	0.37
831.242	0.66
831.412	0.17
831.582	0.76
831.753	-0.24
831.923	0.82
832.093	0.6
832.263	0.04
832.434	-0.08
832.604	0.15
832.774	-0.09
832.944	-0.03
833.114	-0.21
833.284	-0.01
833.454	0.21
833.624	-0.37
833.795	-0.6
833.965	0.66
834.135	1.09
834.305	-0.56
834.475	-0.52
834.645	0.68
834.815	0.15
834.985	0.43
835.155	-0.14
835.325	0.69
835.494	0.7
835.664	0.21
835.834	-0.03
836.004	-0.28
836.174	0.7
836.344	0.09
836.514	-0.04
836.684	0.07
836.853	0.5
837.023	0.4
837.193	0.06
837.363	0.53
837.532	0.7
837.702	0.98
837.872	0.31
838.041	0.89
838.211	1.62
838.381	-0.34
838.55	0.74
838.72	2.15
838.89	1.03
839.059	-0.01
839.229	-0.74
839.398	1.69
839.568	0.39
839.738	0.29
839.907	0.76
840.077	0.93
840.246	-0.08
840.416	0.08
840.585	-0.43
840.755	2.06
840.924	1.77
841.093	0.34
841.263	-0.1
841.432	0.92
841.602	-0.45
841.771	-0.21
841.94	0.36
842.11	1.97
842.279	1.85
842.448	-0.12
842.617	0.19
842.787	1.27
842.956	-0.52
843.125	0.33
843.294	0.8
843.464	1.34
843.633	0.55
843.802	0.18
843.971	0.18
844.14	1.2
844.309	1.16
844.479	-0.48
844.648	0.05
844.817	0.77
844.986	0.36
845.155	0.17
845.324	0.97
845.493	-0.01
845.662	0.02
845.831	0.56
846	1.09
846.169	0.74
846.338	1.67
846.507	0.39
846.676	0.81
846.844	0.53
847.013	0.75
847.182	0.49
847.351	0.15
847.52	-0.06
847.689	0.17
847.858	0.35
848.026	-0.43
848.195	0.77
848.364	-0.1
848.533	-0.34
848.701	0.11
848.87	0.52
849.039	1.54
849.207	1.9
849.376	1.64
849.545	1.65
849.713	0
849.882	0.36
850.051	0.35
850.219	0.41
850.388	0.75
850.556	-0.52
850.725	-0.03
850.893	0.93
851.062	0.13
851.23	1.13
851.399	-0.67
851.567	0.44
851.736	0.19
851.904	-1.06
852.073	0.73
852.241	0.95
852.41	0.96
852.578	-0.5
852.746	-0.47
852.915	0.87
853.083	0.22
853.251	-1.22
853.42	-0.07
853.588	0.58
853.756	1.3
853.924	0.51
854.093	-0.29
854.261	-0.34
854.429	-0.87
854.597	0.91
854.765	-1.28
854.934	1.42
855.102	1.97
855.27	0.58
855.438	0.98
855.606	1.17
855.774	2.28
855.942	-1.73
856.11	-1.81
856.278	0.88
856.446	0.17
856.614	0.42
856.782	-0.15
856.95	1.62
857.118	1.76
857.286	0.72
857.454	-0.43
857.622	2.61
857.79	2.5
857.958	-1.12
858.126	-0.09
858.294	-1.6
858.462	0.22
858.629	-0.69
858.797	-0.44
858.965	0.74
859.133	0.51
859.301	-1.2
859.468	1.36
859.636	0.17
859.804	1.51
859.971	1.71
860.139	0.17
860.307	1.99
860.474	1.17
860.642	-0.42
860.81	-0.9
860.977	-0.49
861.145	0.73
861.313	-0.56
861.48	-1.37
861.648	1.58
861.815	0.81
861.983	-0.99
862.15	0.06
862.318	1.68
862.485	2.77
862.653	-0.61
862.82	-0.5
862.988	0.25
863.155	0.62
863.322	-0.13
863.49	-0.65
863.657	0.16
863.824	2.54
863.992	1.01
864.159	0.93
864.326	1.04
864.494	1.51
864.661	3.76
864.828	-0.28
864.996	2.65
865.163	3.17
865.33	-0.14
865.497	-2.09
865.664	0.5
865.832	-1.88
865.999	0.67
866.166	-1.12
866.333	0.55
866.5	0.18
866.667	0.68
866.834	0.39
867.001	1.69
867.168	-0.59
867.335	0.85
867.502	-1.39
867.669	1.04
867.836	3.68
868.003	0.19
868.17	1.3
868.337	2.27
868.504	3.37
868.671	-0.26
868.838	-1.37
869.005	-0.05
869.172	2
869.339	0.39
869.505	0.49
869.672	-0.74
869.839	2.74
870.006	1.07
870.173	-0.01
870.339	1.77
870.506	3.98
870.673	-1.1
870.84	3.63
871.006	1.59
871.173	0.86
871.34	1.07
871.506	-1.22
871.673	0.91
871.839	-1.76
872.006	1.88
872.173	0.36
872.339	-0.61
872.506	2.37
872.672	-0.73
872.839	-1.2
873.005	0.37
873.172	3.85
873.338	1.4
873.505	0.27
873.671	-0.44
873.838	1
874.004	-0.59
874.171	-0.19
874.337	2.16
874.503	3.15
874.67	1.15
874.836	1.16
875.002	3.11
875.169	0.89
875.335	1.03
875.501	-1.44
875.668	2.08
875.834	0.34
876	0.11
876.166	1.27
876.332	2.6
876.499	4.51
876.665	1.23
876.831	0.37
876.997	3.75
877.163	0.86
877.329	1.1
877.495	0.11
877.662	1.43
877.828	1.32
877.994	0.15
878.16	-2.68
878.326	-0.5
878.492	0
878.658	0.11
878.824	0.47
878.99	3.63
879.156	-0.39
879.322	3.21
879.487	0.02
879.653	2.41
879.819	0.97
879.985	0.24
880.151	1.59
880.317	2.81
880.483	0.82
880.648	3.33
880.814	-1.64
880.98	3.51
881.146	-2.63
881.312	0.83
881.477	2.31
881.643	1.71
881.809	3.32
881.974	2.93
882.14	-0.47
882.306	-0.75
882.471	2.36
882.637	0.83
882.803	2.17
882.968	3.26
883.134	3.2
883.299	1.82
883.465	0.73
883.63	1.77
883.796	0.91
883.961	1.34
884.127	1.53
884.292	-3.56
884.458	-1.24
884.623	-1.23
