Data from Apollo_Calib_20240827__AbsoluteIrradiance__388__05-37-03-078.txt Node

Date: Wed Aug 28 05:37:03 BST 2024
User: biology
Spectrometer: FLMT08252
Trigger mode: 0
Integration Time (sec): 5.000000E-1
Scans to average: 5
Electric dark correction enabled: true
Nonlinearity correction enabled: false
Boxcar width: 0
XAxis mode: Wavelengths
Number of Pixels in Spectrum: 3648
>>>>>Begin Spectral Data<<<<<
179.588	-0
179.809	-0
180.03	-0
180.251	-0
180.473	-0
180.694	0
180.915	0
181.136	-0
181.357	0
181.578	0
181.799	-0
182.02	-0
182.241	-0
182.462	-0
182.683	0
182.904	-0
183.125	-0
183.346	0
183.567	0
183.788	-0
184.009	-0
184.23	-0
184.451	0
184.672	-0
184.892	-0
185.113	0
185.334	0
185.555	-0
185.776	-0
185.996	0
186.217	0
186.438	-0
186.659	-0
186.879	-0
187.1	-0
187.321	-0
187.541	-0
187.762	-0
187.983	0
188.203	-0
188.424	-0
188.644	-0
188.865	-0
189.086	-0
189.306	-0
189.527	-0
189.747	-0
189.968	-0
190.188	0
190.409	-0
190.629	0
190.849	-0
191.07	-0
191.29	0
191.511	-0
191.731	-0
191.951	-0
192.172	-0
192.392	-0
192.612	-0
192.833	-0
193.053	0
193.273	0
193.493	-0
193.714	-0
193.934	0
194.154	0
194.374	-0
194.594	-0
194.815	0
195.035	-0
195.255	-0
195.475	-0
195.695	0
195.915	0
196.135	-0
196.355	0
196.575	0
196.795	-0
197.015	-0
197.235	-0
197.455	-0
197.675	-0
197.895	-0
198.115	-0
198.335	-0
198.555	-0
198.775	0
198.995	-0
199.214	0
199.434	-0
199.654	-0
199.874	-0
200.094	0.84
200.313	-0.38
200.533	-0.95
200.753	-0.5
200.973	0.78
201.192	0.44
201.412	-1.06
201.632	-0.71
201.851	0.8
202.071	-0.35
202.291	-0.64
202.51	-0.87
202.73	0.29
202.95	-0.46
203.169	-1.15
203.389	-0.14
203.608	-0.4
203.828	-0.91
204.047	-0.81
204.267	0.22
204.486	0.15
204.706	-0.36
204.925	-0.35
205.145	-0.52
205.364	0.31
205.583	0.51
205.803	-0.47
206.022	-0.57
206.242	-0.02
206.461	-0.33
206.68	-0.25
206.9	0.18
207.119	0.34
207.338	0.33
207.557	-0.3
207.777	-0.18
207.996	-0.08
208.215	0.42
208.434	-0.29
208.654	-0.51
208.873	-0.09
209.092	0.13
209.311	-0.42
209.53	-0.22
209.749	-0.1
209.968	-0.4
210.187	-0.34
210.407	-0.57
210.626	-0.57
210.845	0.11
211.064	0.07
211.283	-0.25
211.502	0.09
211.721	0.02
211.94	-0.4
212.159	0.2
212.377	0.26
212.596	0.2
212.815	-0.17
213.034	-0.01
213.253	0.11
213.472	0.02
213.691	-0.37
213.91	-0.42
214.128	-0.25
214.347	0.25
214.566	-0.25
214.785	-0.48
215.003	0.22
215.222	-0.12
215.441	-0.17
215.66	-0.34
215.878	-0.19
216.097	0.05
216.316	-0.36
216.534	-0.37
216.753	0.02
216.972	-0.15
217.19	-0.21
217.409	-0.24
217.627	-0.29
217.846	-0.24
218.064	-0.15
218.283	-0.33
218.501	0.28
218.72	0.12
218.938	-0.26
219.157	-0.25
219.375	0.17
219.594	0.05
219.812	-0.37
220.031	-0.29
220.249	0.22
220.467	0.25
220.686	-0.29
220.904	-0.37
221.122	-0.13
221.341	0.2
221.559	-0.12
221.777	-0.27
221.995	-0.05
222.214	0.05
222.432	-0.2
222.65	0.01
222.868	0.03
223.086	0.02
223.305	0.01
223.523	-0.08
223.741	0.3
223.959	-0.36
224.177	-0.3
224.395	-0.23
224.613	-0.1
224.831	0.13
225.049	-0.19
225.267	-0.14
225.485	0.11
225.703	-0.22
225.921	-0.26
226.139	-0.14
226.357	0.09
226.575	-0.04
226.793	-0.13
227.011	0.54
227.229	0.02
227.447	0.15
227.665	-0.2
227.883	-0.18
228.1	-0.06
228.318	0.13
228.536	-0.3
228.754	-0.18
228.972	0.09
229.189	0.09
229.407	-0.15
229.625	-0.14
229.843	0.13
230.06	0
230.278	-0.24
230.496	-0.06
230.713	-0.1
230.931	0.09
231.149	-0.16
231.366	-0.21
231.584	-0.08
231.801	0.2
232.019	-0.14
232.236	-0.24
232.454	-0.12
232.671	-0.02
232.889	-0.13
233.106	-0.23
233.324	0.01
233.541	0.03
233.759	-0
233.976	-0.21
234.194	0.03
234.411	-0.11
234.628	-0.21
234.846	-0.11
235.063	-0.04
235.28	-0.02
235.498	-0.09
235.715	-0.25
235.932	0.12
236.149	0.1
236.367	-0.16
236.584	-0.01
236.801	-0.22
237.018	0.06
237.236	-0.02
237.453	-0.25
237.67	0.1
237.887	-0.08
238.104	-0.02
238.321	-0.21
238.538	-0.13
238.755	0.08
238.973	-0.27
239.19	-0.05
239.407	0.04
239.624	-0.08
239.841	-0.21
240.058	-0.25
240.275	-0.05
240.492	0.06
240.709	-0.01
240.925	-0.11
241.142	-0.13
241.359	-0.17
241.576	-0.17
241.793	-0.04
242.01	-0.06
242.227	0.06
242.444	-0.02
242.66	0.04
242.877	0.05
243.094	-0.07
243.311	-0.04
243.527	-0.09
243.744	-0.04
243.961	0.07
244.178	-0.11
244.394	-0.07
244.611	0.09
244.828	0.09
245.044	-0.13
245.261	-0.05
245.477	0.01
245.694	0.05
245.911	-0.16
246.127	-0.03
246.344	0.03
246.56	0.04
246.777	-0.06
246.993	0.05
247.21	0.04
247.426	-0.1
247.643	-0.08
247.859	-0.08
248.076	-0.12
248.292	0.18
248.508	-0.12
248.725	-0.07
248.941	0
249.157	0.03
249.374	-0.13
249.59	-0.11
249.806	-0.08
250.023	0.02
250.239	-0.16
250.455	-0.04
250.671	-0.09
250.888	-0.03
251.104	-0.01
251.32	-0.1
251.536	-0.02
251.752	-0.09
251.969	-0.06
252.185	0.02
252.401	0.13
252.617	-0.01
252.833	-0
253.049	-0.06
253.265	-0.02
253.481	0.02
253.697	-0.07
253.913	-0.09
254.129	-0.02
254.345	-0.06
254.561	-0.06
254.777	-0.09
254.993	0.02
255.209	-0.08
255.425	-0.07
255.641	-0.1
255.857	0.12
256.073	-0.02
256.288	-0.16
256.504	-0.1
256.72	0.02
256.936	0.01
257.152	-0.02
257.367	-0.11
257.583	0
257.799	0.06
258.015	-0.05
258.23	-0.07
258.446	0.1
258.662	0.01
258.877	-0.11
259.093	-0.08
259.309	-0.05
259.524	-0.02
259.74	-0.07
259.955	-0.13
260.171	0.02
260.387	-0.02
260.602	0.04
260.818	0.04
261.033	-0.12
261.249	-0.06
261.464	-0.1
261.68	-0.15
261.895	0.01
262.11	0.04
262.326	-0.09
262.541	-0.11
262.757	0.05
262.972	-0
263.187	-0.02
263.403	-0.04
263.618	0.02
263.833	0.04
264.049	-0.09
264.264	-0.06
264.479	0.06
264.694	0.05
264.91	-0.15
265.125	-0.06
265.34	0.03
265.555	0.1
265.77	0.02
265.986	-0.03
266.201	0.03
266.416	0.05
266.631	-0.11
266.846	-0.04
267.061	-0.03
267.276	0.05
267.491	-0.18
267.706	-0.04
267.921	0.05
268.136	0
268.351	-0.04
268.566	-0.15
268.781	0.03
268.996	0.09
269.211	-0.05
269.426	-0.12
269.641	-0.05
269.856	-0.03
270.071	-0.06
270.285	-0.12
270.5	0.03
270.715	0.06
270.93	-0.02
271.145	-0.03
271.359	0.08
271.574	-0.11
271.789	-0.06
272.004	-0.06
272.218	-0.06
272.433	0.07
272.648	-0.07
272.862	-0.01
273.077	0.02
273.292	-0.03
273.506	-0.08
273.721	-0.13
273.936	0
274.15	-0.05
274.365	-0.05
274.579	0
274.794	-0
275.008	0.03
275.223	-0.06
275.437	-0.06
275.652	0.05
275.866	0.05
276.081	-0.04
276.295	0.01
276.509	0.02
276.724	-0.03
276.938	-0.07
277.153	0.01
277.367	-0.04
277.581	-0.09
277.796	-0.08
278.01	-0.11
278.224	0.08
278.438	0.11
278.653	-0.12
278.867	-0.07
279.081	-0.17
279.295	-0.03
279.51	0.02
279.724	-0.12
279.938	-0
280.152	-0.03
280.366	-0.06
280.58	-0
280.794	0.07
281.008	-0.02
281.222	0.07
281.437	0.05
281.651	-0.02
281.865	0.09
282.079	-0.03
282.293	-0.13
282.507	-0.07
282.721	-0.02
282.935	-0.02
283.148	-0.16
283.362	-0.04
283.576	-0.09
283.79	-0.02
284.004	-0.06
284.218	0.04
284.432	-0.05
284.646	-0.07
284.859	-0.03
285.073	-0
285.287	0.02
285.501	-0.06
285.714	-0.03
285.928	-0.04
286.142	-0.03
286.356	-0.08
286.569	-0.07
286.783	0.03
286.997	0.06
287.21	-0.02
287.424	-0.02
287.637	-0.04
287.851	-0.03
288.065	0.04
288.278	-0.07
288.492	0.03
288.705	-0
288.919	0.02
289.132	-0.1
289.346	0.05
289.559	-0.11
289.773	-0.1
289.986	-0.03
290.2	-0.02
290.413	0.03
290.626	-0.06
290.84	-0.02
291.053	-0.01
291.267	0.07
291.48	0
291.693	-0.02
291.906	-0.07
292.12	-0.02
292.333	-0.1
292.546	0.02
292.76	0.04
292.973	0.03
293.186	0.01
293.399	-0.03
293.612	0.05
293.826	-0.05
294.039	-0.04
294.252	-0.02
294.465	-0.01
294.678	0.02
294.891	0.05
295.104	-0.06
295.317	-0.05
295.53	0.02
295.743	-0.01
295.956	-0.03
296.169	0.13
296.382	0.04
296.595	-0.02
296.808	-0.02
297.021	0.05
297.234	0.01
297.447	-0.03
297.66	0
297.873	0.09
298.086	0.03
298.299	-0.06
298.511	-0.07
298.724	-0.03
298.937	-0.05
299.15	-0.04
299.363	-0
299.575	0.01
299.788	-0.02
300.001	-0.01
300.213	-0.08
300.426	-0.03
300.639	-0.02
300.852	-0.02
301.064	0.01
301.277	0.09
301.489	-0
301.702	0.07
301.915	-0.02
302.127	-0.02
302.34	0.01
302.552	0.04
302.765	-0.06
302.977	-0
303.19	-0.02
303.402	-0.03
303.615	-0.02
303.827	-0.07
304.04	0.01
304.252	0.04
304.464	-0.05
304.677	0.1
304.889	0.03
305.102	-0.06
305.314	-0.06
305.526	0.04
305.739	0.04
305.951	-0.06
306.163	-0.04
306.375	0.1
306.588	-0.01
306.8	-0.05
307.012	-0.05
307.224	0.01
307.436	0.06
307.649	-0.08
307.861	0.01
308.073	0.01
308.285	-0.01
308.497	-0.06
308.709	-0.04
308.921	-0.02
309.133	0.01
309.346	-0.05
309.558	-0.02
309.77	0.03
309.982	0.05
310.194	-0.01
310.406	-0.08
310.617	0.09
310.829	0.01
311.041	-0.01
311.253	-0.02
311.465	-0.06
311.677	-0
311.889	-0.01
312.101	-0.04
312.313	0.02
312.524	0.07
312.736	-0.07
312.948	-0.03
313.16	0.08
313.372	0
313.583	-0.03
313.795	-0.02
314.007	-0.07
314.218	0.04
314.43	0
314.642	-0.04
314.853	-0.06
315.065	-0.01
315.277	-0.03
315.488	-0
315.7	0.04
315.912	0.04
316.123	-0.03
316.335	0.01
316.546	0.06
316.758	-0.01
316.969	-0.04
317.181	0.01
317.392	-0.01
317.604	0.05
317.815	-0.06
318.026	-0.09
318.238	-0.08
318.449	-0
318.661	-0.1
318.872	-0.07
319.083	-0.06
319.295	-0
319.506	-0.03
319.717	0.01
319.929	0.02
320.14	-0.02
320.351	-0.01
320.562	-0.05
320.774	0.04
320.985	0.04
321.196	-0.05
321.407	-0.07
321.618	-0.04
321.829	-0.02
322.041	0.02
322.252	0.01
322.463	0.03
322.674	0.01
322.885	-0.07
323.096	-0.04
323.307	-0.03
323.518	-0.02
323.729	-0.05
323.94	-0.05
324.151	-0.02
324.362	0.02
324.573	-0.02
324.784	-0.03
324.995	0.05
325.206	0.06
325.417	-0.02
325.628	-0.04
325.838	0.01
326.049	0.02
326.26	0.01
326.471	-0.01
326.682	0.04
326.892	-0.01
327.103	-0.05
327.314	-0.06
327.525	0.01
327.735	0.02
327.946	-0.01
328.157	-0.06
328.368	0
328.578	-0.04
328.789	0.06
328.999	-0.04
329.21	-0.04
329.421	0.01
329.631	-0.01
329.842	-0.03
330.052	-0.01
330.263	0.01
330.473	-0
330.684	-0.05
330.894	-0.02
331.105	0.04
331.315	-0.05
331.526	-0.05
331.736	0.05
331.947	0.02
332.157	-0.01
332.367	-0.06
332.578	0.01
332.788	0.02
332.999	0
333.209	-0.03
333.419	-0.05
333.629	0.03
333.84	0
334.05	-0.03
334.26	0.05
334.47	-0
334.681	0.05
334.891	-0.04
335.101	0.04
335.311	0.07
335.521	-0.01
335.732	-0.05
335.942	0.06
336.152	0.05
336.362	-0.01
336.572	0.01
336.782	-0.01
336.992	-0.03
337.202	-0.03
337.412	-0.06
337.622	-0.02
337.832	-0
338.042	0.02
338.252	-0.03
338.462	-0.07
338.672	-0.01
338.882	-0.02
339.092	-0.02
339.302	0.04
339.511	0.04
339.721	-0.06
339.931	-0.06
340.141	0.03
340.351	0.06
340.561	0.05
340.77	-0.01
340.98	-0.03
341.19	-0
341.4	-0.07
341.609	-0.05
341.819	-0.04
342.029	-0.07
342.238	-0.01
342.448	-0.05
342.658	-0
342.867	-0.04
343.077	-0.03
343.286	-0.01
343.496	0.04
343.706	0.05
343.915	-0.06
344.125	-0.02
344.334	0.02
344.544	-0.06
344.753	-0.01
344.963	-0.01
345.172	-0.07
345.381	-0.02
345.591	-0.05
345.8	-0
346.01	0.05
346.219	0.03
346.428	-0.12
346.638	-0.01
346.847	0.01
347.056	0.03
347.266	-0.07
347.475	-0.03
347.684	0.01
347.893	0
348.103	-0.01
348.312	-0.02
348.521	0.02
348.73	-0.01
348.94	-0.01
349.149	-0
349.358	-0
349.567	-0.04
349.776	-0.07
349.985	-0.06
350.194	0.01
350.403	0.04
350.612	-0.02
350.821	-0.04
351.03	-0.03
351.239	-0.02
351.448	-0.01
351.657	-0.03
351.866	0.05
352.075	-0.01
352.284	0.05
352.493	-0.03
352.702	0.03
352.911	-0.01
353.12	-0.01
353.329	-0
353.538	-0.01
353.746	-0.06
353.955	-0.05
354.164	0.02
354.373	-0.01
354.582	0.03
354.79	-0.01
354.999	0.02
355.208	-0.04
355.416	0.04
355.625	-0.06
355.834	-0.07
356.042	-0.01
356.251	-0.05
356.46	-0.04
356.668	-0.02
356.877	0.12
357.085	-0.01
357.294	-0.09
357.503	-0.02
357.711	-0.01
357.92	0.12
358.128	-0.03
358.337	-0.01
358.545	0.06
358.754	-0.03
358.962	0.03
359.17	-0.02
359.379	0.01
359.587	0.03
359.796	-0.01
360.004	0.01
360.212	0.01
360.421	0.02
360.629	-0.06
360.837	0.01
361.046	0.01
361.254	0.1
361.462	-0.01
361.67	-0.02
361.879	-0.01
362.087	0.05
362.295	-0.02
362.503	-0.02
362.711	-0.03
362.92	-0.05
363.128	-0.02
363.336	-0.07
363.544	-0.09
363.752	-0.02
363.96	-0.04
364.168	-0.03
364.376	-0
364.584	0.03
364.792	0.02
365	0.01
365.208	-0.03
365.416	0.01
365.624	0.03
365.832	-0.05
366.04	0.07
366.248	-0.01
366.456	-0.01
366.664	0
366.872	-0.04
367.079	-0.01
367.287	-0.02
367.495	0.01
367.703	0.01
367.911	-0.01
368.118	-0.03
368.326	-0.03
368.534	-0.03
368.742	0.04
368.949	-0.04
369.157	0.02
369.365	0.01
369.572	-0.05
369.78	-0.06
369.988	-0.02
370.195	-0
370.403	0.05
370.61	-0.02
370.818	-0
371.026	0.04
371.233	-0.04
371.441	0.02
371.648	-0.01
371.856	0.01
372.063	-0.03
372.271	-0.02
372.478	-0.03
372.685	-0.08
372.893	0.03
373.1	-0.03
373.308	-0.03
373.515	0.04
373.722	0.02
373.93	-0.03
374.137	0.05
374.344	0.03
374.552	0.02
374.759	0.01
374.966	-0.05
375.173	-0.04
375.381	0.03
375.588	-0.02
375.795	-0.09
376.002	-0.04
376.209	-0.07
376.417	-0.02
376.624	-0.03
376.831	0.01
377.038	-0.04
377.245	-0.07
377.452	-0.06
377.659	0.01
377.866	-0.06
378.073	-0.01
378.28	-0.02
378.487	0.07
378.694	-0.02
378.901	-0.04
379.108	-0.04
379.315	0.03
379.522	0.07
379.729	-0.02
379.936	-0.01
380.143	-0.03
380.35	0.01
380.557	-0.02
380.763	-0.02
380.97	-0.01
381.177	0.01
381.384	0.04
381.591	-0.08
381.797	0
382.004	0.03
382.211	-0
382.418	0.02
382.624	0.04
382.831	0.01
383.038	-0.01
383.244	-0.02
383.451	-0.03
383.658	0
383.864	-0.03
384.071	-0.06
384.277	0.06
384.484	-0.05
384.69	0.01
384.897	-0.02
385.103	-0.03
385.31	-0.03
385.516	-0.02
385.723	-0.04
385.929	-0.05
386.136	-0.06
386.342	0.05
386.549	-0.04
386.755	0.03
386.961	0.03
387.168	0.01
387.374	0.01
387.58	0.01
387.787	-0.03
387.993	-0
388.199	-0.04
388.406	-0.01
388.612	-0.03
388.818	-0.02
389.024	-0.01
389.231	-0.01
389.437	0.1
389.643	-0
389.849	-0.03
390.055	-0.01
390.261	-0.03
390.467	0
390.674	-0.02
390.88	-0.01
391.086	0.01
391.292	-0.06
391.498	0.02
391.704	0.01
391.91	-0.05
392.116	-0.07
392.322	-0.09
392.528	0.02
392.734	-0.03
392.94	-0.05
393.146	-0.01
393.352	-0
393.557	-0.03
393.763	-0
393.969	0.01
394.175	0.01
394.381	0.01
394.587	-0.07
394.792	-0.01
394.998	0.03
395.204	0.04
395.41	-0.01
395.615	0.02
395.821	0.04
396.027	0.03
396.233	-0.03
396.438	-0.01
396.644	0.04
396.85	-0.02
397.055	-0
397.261	0
397.466	-0.02
397.672	-0.02
397.878	-0.01
398.083	-0.01
398.289	-0.05
398.494	0.02
398.7	-0.03
398.905	-0.07
399.111	0.04
399.316	-0.04
399.522	-0.02
399.727	-0.01
399.932	-0.02
400.138	-0.04
400.343	0.04
400.549	0.04
400.754	0.01
400.959	0
401.165	-0.03
401.37	0.03
401.575	0.06
401.78	-0.03
401.986	-0.04
402.191	-0.02
402.396	-0.04
402.601	-0.02
402.807	-0.02
403.012	0
403.217	0.03
403.422	-0.02
403.627	-0.01
403.832	-0.06
404.037	0.02
404.243	-0.04
404.448	-0.02
404.653	-0.03
404.858	-0
405.063	0.02
405.268	-0.05
405.473	-0.06
405.678	-0.06
405.883	0.05
406.088	0.02
406.293	-0.08
406.498	-0.06
406.703	-0.04
406.907	-0.04
407.112	-0.05
407.317	-0.01
407.522	0.01
407.727	-0.06
407.932	-0.04
408.136	0.03
408.341	-0.03
408.546	-0.02
408.751	-0
408.956	-0.05
409.16	-0.01
409.365	-0.04
409.57	-0.06
409.774	0.02
409.979	0.02
410.184	0.01
410.388	-0.02
410.593	0
410.798	0.02
411.002	-0.03
411.207	0.01
411.411	-0.02
411.616	-0.1
411.82	-0.03
412.025	-0
412.229	-0.05
412.434	0.05
412.638	-0
412.843	-0.02
413.047	-0
413.252	-0.06
413.456	-0.01
413.66	0.05
413.865	-0.05
414.069	0.06
414.273	-0.07
414.478	-0.05
414.682	-0.06
414.886	-0
415.091	-0.08
415.295	-0.09
415.499	-0.02
415.703	-0.05
415.908	0.04
416.112	-0.14
416.316	-0.03
416.52	-0.03
416.724	-0.01
416.929	-0.07
417.133	0.05
417.337	-0.05
417.541	-0.08
417.745	-0.02
417.949	0.01
418.153	0.01
418.357	-0.08
418.561	0.08
418.765	-0.04
418.969	0.12
419.173	0.01
419.377	-0.03
419.581	0.11
419.785	-0.05
419.989	-0.09
420.193	-0.03
420.397	-0.02
420.601	0.03
420.804	0
421.008	-0.02
421.212	0.01
421.416	-0.01
421.62	-0.06
421.823	-0.01
422.027	0.06
422.231	0.05
422.435	0
422.638	-0.02
422.842	-0.09
423.046	-0.04
423.249	0.02
423.453	0.01
423.657	-0.01
423.86	-0.02
424.064	-0.03
424.268	0.05
424.471	-0.05
424.675	0.09
424.878	0.08
425.082	-0.06
425.285	0.05
425.489	-0.04
425.692	0
425.896	-0.06
426.099	0.02
426.303	-0.06
426.506	-0.07
426.71	0.01
426.913	0.02
427.116	0.04
427.32	0
427.523	-0.03
427.726	0.09
427.93	-0.06
428.133	-0.06
428.336	-0.11
428.54	-0.08
428.743	0.01
428.946	-0.01
429.149	-0.07
429.353	-0.05
429.556	-0.02
429.759	-0.05
429.962	-0.03
430.165	-0
430.368	-0.05
430.571	-0.04
430.775	0.01
430.978	0
431.181	0.04
431.384	0.01
431.587	-0.04
431.79	0.02
431.993	-0.04
432.196	-0.02
432.399	-0.01
432.602	0.03
432.805	-0.02
433.008	0.01
433.211	-0.09
433.414	0.02
433.616	0
433.819	-0.01
434.022	-0.11
434.225	0.04
434.428	0.01
434.631	0.1
434.833	-0.05
435.036	-0.04
435.239	0.05
435.442	0.01
435.645	-0.03
435.847	-0.02
436.05	0.06
436.253	-0.05
436.455	-0.08
436.658	0.02
436.861	0.06
437.063	-0.06
437.266	0.03
437.468	-0.02
437.671	0.14
437.874	0
438.076	-0.07
438.279	-0.1
438.481	-0.01
438.684	-0.1
438.886	0.03
439.089	-0.1
439.291	0.02
439.494	0.03
439.696	-0.08
439.899	-0.04
440.101	-0.02
440.303	-0.11
440.506	0.03
440.708	-0.05
440.91	-0.01
441.113	-0.06
441.315	0.05
441.517	-0.03
441.72	0.04
441.922	-0.09
442.124	-0.05
442.326	-0
442.529	0.04
442.731	-0.01
442.933	0.08
443.135	-0.03
443.337	-0.06
443.539	-0.01
443.742	-0.06
443.944	0.01
444.146	-0.05
444.348	-0.01
444.55	-0.05
444.752	-0.03
444.954	-0.1
445.156	-0
445.358	-0.06
445.56	0.05
445.762	0.03
445.964	-0.03
446.166	-0.03
446.368	-0.06
446.57	-0.02
446.772	-0.02
446.974	-0.07
447.175	-0.02
447.377	-0.05
447.579	-0.03
447.781	-0.09
447.983	0.08
448.184	-0
448.386	0.03
448.588	-0.06
448.79	-0.03
448.991	-0.06
449.193	-0.02
449.395	-0.02
449.597	0.05
449.798	0.01
450	0.02
450.202	-0
450.403	0
450.605	0.02
450.806	-0.04
451.008	-0.12
451.21	-0.05
451.411	0.02
451.613	0
451.814	-0.04
452.016	0.03
452.217	-0.01
452.419	-0.01
452.62	-0.05
452.821	0.03
453.023	0.04
453.224	0.05
453.426	-0.05
453.627	0
453.828	0.03
454.03	-0
454.231	0.01
454.432	-0.07
454.634	0.1
454.835	-0.03
455.036	-0.05
455.238	0.06
455.439	0.05
455.64	-0.01
455.841	-0.03
456.042	0.06
456.244	0.05
456.445	-0.07
456.646	-0.1
456.847	-0.06
457.048	0.01
457.249	0.03
457.45	0.13
457.651	-0.04
457.852	0.03
458.054	0.03
458.255	-0.04
458.456	0.04
458.657	0.01
458.858	-0.07
459.058	-0.01
459.259	0.03
459.46	-0.03
459.661	-0.01
459.862	0.1
460.063	-0.07
460.264	0.03
460.465	-0.07
460.666	0.06
460.866	0.01
461.067	-0.04
461.268	-0.05
461.469	-0.01
461.67	-0.03
461.87	-0.01
462.071	-0.02
462.272	-0.09
462.473	-0.05
462.673	-0.01
462.874	-0.07
463.075	0.02
463.275	-0.1
463.476	0.02
463.676	0.06
463.877	0.02
464.078	-0.04
464.278	0.02
464.479	-0.06
464.679	-0.01
464.88	0.01
465.08	0.08
465.281	-0.03
465.481	-0.04
465.682	-0.05
465.882	-0.01
466.083	-0
466.283	-0.03
466.483	-0.02
466.684	-0.04
466.884	-0.06
467.085	0
467.285	0.05
467.485	-0.03
467.686	-0.03
467.886	-0.03
468.086	-0.04
468.286	-0.03
468.487	0.04
468.687	-0.04
468.887	-0.02
469.087	0.03
469.287	-0
469.488	-0.06
469.688	-0.01
469.888	0.05
470.088	0.02
470.288	0.04
470.488	0.02
470.688	-0.03
470.888	-0.04
471.088	-0.04
471.288	0.05
471.488	0.01
471.688	0.01
471.888	-0.02
472.088	0.04
472.288	0.03
472.488	-0.04
472.688	-0.03
472.888	-0.01
473.088	0.01
473.288	-0.01
473.488	-0.02
473.688	0.08
473.887	0.01
474.087	-0.04
474.287	0.02
474.487	-0.03
474.687	0.04
474.886	-0.03
475.086	-0.02
475.286	-0.03
475.486	0
475.685	-0.03
475.885	-0.03
476.085	0
476.284	0.02
476.484	-0.03
476.684	0.06
476.883	0.04
477.083	0.04
477.282	-0.03
477.482	0.05
477.681	0.03
477.881	0.03
478.08	-0.04
478.28	-0.03
478.479	0.03
478.679	0.05
478.878	-0.03
479.078	-0.03
479.277	-0.01
479.477	0
479.676	0.03
479.875	0.03
480.075	-0.05
480.274	-0.02
480.473	0
480.673	-0.02
480.872	0.05
481.071	-0.01
481.271	0.02
481.47	-0.04
481.669	-0.01
481.868	0
482.067	-0.05
482.267	-0.01
482.466	-0.01
482.665	-0.03
482.864	-0.02
483.063	-0.04
483.262	0.03
483.461	0.06
483.661	0.04
483.86	0.02
484.059	0.05
484.258	-0
484.457	-0.01
484.656	-0.01
484.855	0.06
485.054	-0.02
485.253	0
485.452	-0.02
485.651	0.01
485.849	0.01
486.048	-0.02
486.247	-0.01
486.446	0.03
486.645	-0.02
486.844	-0.02
487.043	-0
487.241	0.04
487.44	-0.02
487.639	-0.01
487.838	0.04
488.037	0.03
488.235	0.08
488.434	0.02
488.633	-0.01
488.831	0.05
489.03	0.03
489.229	0.02
489.427	0.03
489.626	0.05
489.825	0.08
490.023	0.04
490.222	0.02
490.42	0.05
490.619	0.05
490.817	0.04
491.016	0.01
491.214	0.07
491.413	0.02
491.611	0.02
491.81	0.04
492.008	0.05
492.207	0.05
492.405	0.04
492.604	-0.03
492.802	0.03
493	0.05
493.199	0.03
493.397	0.03
493.595	0.06
493.794	0.04
493.992	0.09
494.19	0.05
494.388	0.07
494.587	0.03
494.785	0.05
494.983	-0.01
495.181	0.07
495.379	0.06
495.578	0.03
495.776	0.06
495.974	0.06
496.172	0.05
496.37	0.03
496.568	0.03
496.766	0.07
496.964	0.1
497.162	0.08
497.36	0.04
497.558	0.08
497.756	0.09
497.954	0.07
498.152	0.06
498.35	0.08
498.548	0.09
498.746	0.07
498.944	0.05
499.142	0.06
499.34	0.06
499.538	0.09
499.736	0.07
499.933	0.13
500.131	0.13
500.329	0.1
500.527	0.14
500.725	0.15
500.922	0.15
501.12	0.11
501.318	0.11
501.516	0.11
501.713	0.14
501.911	0.14
502.109	0.12
502.306	0.13
502.504	0.13
502.701	0.13
502.899	0.15
503.097	0.2
503.294	0.17
503.492	0.14
503.689	0.17
503.887	0.21
504.084	0.21
504.282	0.17
504.479	0.15
504.677	0.19
504.874	0.16
505.072	0.19
505.269	0.18
505.466	0.25
505.664	0.25
505.861	0.19
506.059	0.19
506.256	0.24
506.453	0.22
506.651	0.29
506.848	0.28
507.045	0.22
507.242	0.26
507.44	0.25
507.637	0.26
507.834	0.26
508.031	0.3
508.229	0.24
508.426	0.3
508.623	0.31
508.82	0.25
509.017	0.27
509.214	0.31
509.411	0.33
509.608	0.29
509.805	0.31
510.003	0.33
510.2	0.36
510.397	0.39
510.594	0.33
510.791	0.36
510.988	0.4
511.184	0.39
511.381	0.38
511.578	0.37
511.775	0.44
511.972	0.37
512.169	0.41
512.366	0.43
512.563	0.45
512.76	0.43
512.956	0.47
513.153	0.43
513.35	0.48
513.547	0.45
513.744	0.46
513.94	0.45
514.137	0.51
514.334	0.49
514.53	0.51
514.727	0.51
514.924	0.58
515.12	0.51
515.317	0.51
515.514	0.5
515.71	0.51
515.907	0.56
516.103	0.6
516.3	0.57
516.497	0.59
516.693	0.62
516.89	0.6
517.086	0.58
517.283	0.64
517.479	0.61
517.676	0.61
517.872	0.62
518.068	0.63
518.265	0.62
518.461	0.64
518.658	0.57
518.854	0.64
519.05	0.64
519.247	0.64
519.443	0.65
519.639	0.69
519.836	0.66
520.032	0.66
520.228	0.68
520.424	0.72
520.621	0.69
520.817	0.72
521.013	0.7
521.209	0.71
521.405	0.77
521.601	0.72
521.798	0.71
521.994	0.77
522.19	0.69
522.386	0.67
522.582	0.69
522.778	0.72
522.974	0.67
523.17	0.72
523.366	0.72
523.562	0.77
523.758	0.72
523.954	0.66
524.15	0.7
524.346	0.75
524.542	0.71
524.738	0.68
524.934	0.7
525.129	0.7
525.325	0.68
525.521	0.67
525.717	0.73
525.913	0.71
526.109	0.71
526.304	0.68
526.5	0.69
526.696	0.7
526.892	0.66
527.087	0.71
527.283	0.65
527.479	0.69
527.674	0.64
527.87	0.64
528.066	0.64
528.261	0.68
528.457	0.65
528.653	0.63
528.848	0.63
529.044	0.65
529.239	0.61
529.435	0.66
529.63	0.59
529.826	0.66
530.021	0.59
530.217	0.63
530.412	0.57
530.608	0.57
530.803	0.57
530.999	0.57
531.194	0.52
531.389	0.57
531.585	0.53
531.78	0.53
531.975	0.53
532.171	0.54
532.366	0.53
532.561	0.53
532.757	0.52
532.952	0.52
533.147	0.53
533.342	0.51
533.538	0.46
533.733	0.54
533.928	0.46
534.123	0.45
534.318	0.44
534.513	0.47
534.709	0.46
534.904	0.44
535.099	0.44
535.294	0.46
535.489	0.44
535.684	0.43
535.879	0.39
536.074	0.45
536.269	0.37
536.464	0.42
536.659	0.41
536.854	0.42
537.049	0.4
537.244	0.4
537.439	0.38
537.634	0.41
537.828	0.38
538.023	0.38
538.218	0.33
538.413	0.35
538.608	0.36
538.803	0.36
538.997	0.31
539.192	0.38
539.387	0.36
539.582	0.36
539.776	0.33
539.971	0.31
540.166	0.33
540.36	0.3
540.555	0.35
540.75	0.3
540.944	0.29
541.139	0.28
541.334	0.3
541.528	0.34
541.723	0.33
541.917	0.28
542.112	0.25
542.306	0.26
542.501	0.29
542.695	0.27
542.89	0.25
543.084	0.28
543.279	0.28
543.473	0.25
543.668	0.26
543.862	0.24
544.056	0.27
544.251	0.24
544.445	0.29
544.64	0.25
544.834	0.22
545.028	0.24
545.222	0.24
545.417	0.25
545.611	0.24
545.805	0.23
546	0.22
546.194	0.25
546.388	0.21
546.582	0.23
546.776	0.22
546.97	0.21
547.165	0.24
547.359	0.23
547.553	0.18
547.747	0.21
547.941	0.2
548.135	0.2
548.329	0.24
548.523	0.2
548.717	0.17
548.911	0.18
549.105	0.19
549.299	0.2
549.493	0.19
549.687	0.19
549.881	0.2
550.075	0.18
550.269	0.14
550.463	0.19
550.657	0.15
550.85	0.18
551.044	0.15
551.238	0.15
551.432	0.13
551.626	0.13
551.82	0.16
552.013	0.12
552.207	0.15
552.401	0.15
552.594	0.16
552.788	0.14
552.982	0.13
553.176	0.12
553.369	0.14
553.563	0.13
553.756	0.08
553.95	0.1
554.144	0.12
554.337	0.16
554.531	0.14
554.724	0.13
554.918	0.1
555.111	0.15
555.305	0.12
555.498	0.17
555.692	0.13
555.885	0.1
556.079	0.13
556.272	0.1
556.466	0.15
556.659	0.11
556.852	0.1
557.046	0.1
557.239	0.13
557.432	0.05
557.626	0.08
557.819	0.09
558.012	0.14
558.206	0.12
558.399	0.09
558.592	0.1
558.785	0.08
558.979	0.11
559.172	0.09
559.365	0.11
559.558	0.08
559.751	0.08
559.944	0.08
560.138	0.05
560.331	0.06
560.524	0.06
560.717	0.09
560.91	0.07
561.103	0.09
561.296	0.08
561.489	0.09
561.682	0.07
561.875	0.1
562.068	0.09
562.261	0.09
562.454	0.1
562.647	0.08
562.84	0.08
563.032	0.05
563.225	0.05
563.418	0.07
563.611	0.05
563.804	0.05
563.997	0.02
564.19	0.02
564.382	0.08
564.575	0.04
564.768	0.07
564.961	0.05
565.153	0.04
565.346	0.07
565.539	0.06
565.731	0.09
565.924	0.08
566.117	0.05
566.309	0.05
566.502	0.05
566.695	0.04
566.887	0.06
567.08	0.05
567.272	0.03
567.465	0.04
567.657	0.06
567.85	0.05
568.042	0.07
568.235	0.07
568.427	0.02
568.62	0.05
568.812	0.03
569.005	0.04
569.197	-0.01
569.389	0.06
569.582	0.04
569.774	0.04
569.966	0.01
570.159	0.02
570.351	0.04
570.543	0.02
570.736	0.03
570.928	0.02
571.12	0.04
571.312	0.01
571.505	-0
571.697	0.06
571.889	0.02
572.081	0.02
572.273	-0
572.465	0.07
572.658	0.02
572.85	0.02
573.042	0.01
573.234	0.01
573.426	0.07
573.618	0
573.81	0.03
574.002	0.06
574.194	0.06
574.386	-0.01
574.578	-0.03
574.77	-0
574.962	0.03
575.154	-0.01
575.346	-0
575.538	0.04
575.729	-0.01
575.921	-0
576.113	-0
576.305	0.04
576.497	0.02
576.689	0
576.88	-0.01
577.072	0.05
577.264	0.02
577.456	-0
577.647	-0.04
577.839	0.03
578.031	0.07
578.223	-0.03
578.414	-0.01
578.606	0.05
578.798	-0.01
578.989	-0.01
579.181	-0.02
579.372	0.02
579.564	-0
579.755	0.02
579.947	0.03
580.139	0.03
580.33	-0.05
580.522	-0.01
580.713	-0.05
580.905	0.01
581.096	0.01
581.287	0
581.479	0.01
581.67	0.05
581.862	0.01
582.053	-0.01
582.244	-0.05
582.436	0.01
582.627	0.02
582.818	-0.02
583.01	-0.01
583.201	0.03
583.392	0.01
583.583	-0.01
583.775	0.01
583.966	-0.01
584.157	-0
584.348	-0
584.54	-0.03
584.731	0
584.922	0.01
585.113	-0.03
585.304	0.03
585.495	0.04
585.686	0.02
585.877	0.02
586.068	0
586.259	0.01
586.45	0
586.641	-0.04
586.832	-0.05
587.023	0.01
587.214	-0.01
587.405	-0.01
587.596	-0.03
587.787	0.07
587.978	0
588.169	-0.02
588.36	-0.03
588.551	0.01
588.742	-0.03
588.932	0.02
589.123	-0
589.314	0.02
589.505	0.01
589.696	-0.01
589.886	-0.02
590.077	-0.04
590.268	0.01
590.458	-0.04
590.649	-0.04
590.84	0.02
591.03	-0.02
591.221	-0.04
591.412	-0.04
591.602	0.01
591.793	0.04
591.984	-0.02
592.174	-0.02
592.365	0.05
592.555	-0.03
592.746	0
592.936	0.01
593.127	-0.01
593.317	0.01
593.508	-0.03
593.698	-0.03
593.889	-0
594.079	-0.01
594.269	-0.03
594.46	-0.04
594.65	-0.01
594.84	-0.02
595.031	-0.02
595.221	-0.02
595.411	-0.04
595.602	0.02
595.792	-0.02
595.982	-0.04
596.172	0.04
596.363	-0
596.553	-0.01
596.743	-0.03
596.933	-0.02
597.123	0.04
597.314	-0.02
597.504	-0.03
597.694	0.03
597.884	0.03
598.074	-0.04
598.264	-0.03
598.454	-0.02
598.644	-0.02
598.834	-0.03
599.024	-0.05
599.214	-0.03
599.404	0.02
599.594	-0.02
599.784	-0.05
599.974	0.05
600.164	0.03
600.354	-0.03
600.544	-0.06
600.734	0
600.924	0.02
601.114	-0.04
601.303	-0.02
601.493	-0.02
601.683	-0.03
601.873	0.03
602.063	-0.07
602.252	0
602.442	-0.05
602.632	-0.02
602.821	-0.05
603.011	0.01
603.201	-0.02
603.39	-0.02
603.58	-0.03
603.77	0.01
603.959	0.02
604.149	-0.02
604.339	-0.02
604.528	0
604.718	0.02
604.907	-0.02
605.097	-0.02
605.286	-0.06
605.476	0.01
605.665	0
605.855	-0.02
606.044	0.06
606.234	0
606.423	-0
606.612	-0.07
606.802	-0.02
606.991	-0.01
607.181	-0
607.37	-0.02
607.559	0.01
607.749	-0.03
607.938	-0.04
608.127	-0
608.316	-0.06
608.506	-0.01
608.695	-0.02
608.884	-0.04
609.073	0
609.263	0
609.452	-0
609.641	0.01
609.83	-0.03
610.019	-0
610.208	-0.02
610.397	-0.02
610.586	-0.01
610.775	-0.04
610.965	-0.04
611.154	-0.03
611.343	-0.02
611.532	-0
611.721	-0.04
611.91	-0.03
612.099	-0
612.287	0.01
612.476	-0.05
612.665	-0
612.854	-0.02
613.043	0.02
613.232	-0.03
613.421	-0.07
613.61	0
613.798	-0.05
613.987	0.03
614.176	-0.02
614.365	0.03
614.554	-0.03
614.742	0.01
614.931	-0.06
615.12	0.02
615.309	-0.03
615.497	-0.02
615.686	-0.03
615.875	0.01
616.063	0
616.252	-0.01
616.44	-0.03
616.629	-0.02
616.818	0.03
617.006	-0.04
617.195	-0.01
617.383	0.02
617.572	-0.03
617.76	-0.01
617.949	-0.05
618.137	-0.01
618.326	0.02
618.514	-0.05
618.703	-0.04
618.891	0.04
619.079	-0.06
619.268	0.02
619.456	-0.04
619.644	0.06
619.833	-0.02
620.021	-0.03
620.209	-0.06
620.398	0.02
620.586	-0.03
620.774	0.01
620.962	-0.01
621.151	0.06
621.339	-0.02
621.527	-0.06
621.715	-0.06
621.903	-0.05
622.092	-0.06
622.28	0.01
622.468	-0.02
622.656	-0.04
622.844	0
623.032	-0.03
623.22	-0.07
623.408	0.03
623.596	0.01
623.784	-0.01
623.972	-0.05
624.16	-0.03
624.348	0.06
624.536	0.01
624.724	0
624.912	0.04
625.1	0.01
625.288	-0.04
625.476	-0.06
625.664	-0.01
625.851	-0.06
626.039	-0.02
626.227	-0.03
626.415	-0
626.603	-0.08
626.79	-0.01
626.978	-0.02
627.166	0.01
627.354	-0.01
627.541	-0.04
627.729	-0.06
627.917	0.02
628.104	0.01
628.292	-0.01
628.48	-0.02
628.667	0.01
628.855	0
629.042	-0
629.23	-0.03
629.418	-0.01
629.605	-0.03
629.793	-0.03
629.98	-0.03
630.168	-0
630.355	-0.01
630.543	-0
630.73	-0.04
630.917	0.03
631.105	0.02
631.292	-0.02
631.48	0.01
631.667	0.03
631.854	0.01
632.042	-0.01
632.229	-0.08
632.416	-0.02
632.604	-0.03
632.791	-0.05
632.978	0.02
633.165	-0
633.353	0.04
633.54	-0
633.727	-0.08
633.914	-0.06
634.101	-0.06
634.289	0.03
634.476	-0.05
634.663	-0.08
634.85	0.03
635.037	-0.04
635.224	-0.05
635.411	-0
635.598	0.04
635.785	-0.02
635.972	-0.01
636.159	0.01
636.346	-0.02
636.533	0
636.72	-0.02
636.907	-0.03
637.094	-0.01
637.281	0
637.468	0.01
637.655	-0.05
637.842	-0.02
638.029	-0.05
638.215	0
638.402	-0.02
638.589	-0.04
638.776	-0.04
638.963	-0.03
639.149	0.03
639.336	0.06
639.523	0
639.709	-0.01
639.896	-0.04
640.083	0.05
640.27	0
640.456	-0.02
640.643	-0
640.829	-0.05
641.016	-0
641.203	-0.05
641.389	-0
641.576	-0.01
641.762	-0.01
641.949	-0.04
642.135	-0
642.322	-0.02
642.508	-0.06
642.695	0
642.881	-0.03
643.068	-0.02
643.254	-0.02
643.441	0.01
643.627	-0.04
643.813	-0.05
644	0
644.186	-0.02
644.372	-0.01
644.559	0.02
644.745	-0.04
644.931	-0.06
645.118	-0.01
645.304	-0.02
645.49	-0.03
645.676	-0.04
645.862	-0
646.049	0.05
646.235	-0.02
646.421	0.03
646.607	0.03
646.793	-0.03
646.979	-0.01
647.165	-0.01
647.352	-0.01
647.538	0.04
647.724	-0.06
647.91	0.01
648.096	0
648.282	0.05
648.468	-0.04
648.654	-0.04
648.84	0.01
649.026	-0.02
649.212	-0.03
649.397	-0.07
649.583	-0.07
649.769	0.03
649.955	-0.01
650.141	0.01
650.327	0.02
650.513	-0.03
650.698	0
650.884	-0.09
651.07	-0.02
651.256	-0.01
651.442	-0.02
651.627	-0.02
651.813	0
651.999	-0
652.184	0.01
652.37	-0.02
652.556	-0.05
652.741	0.05
652.927	-0.07
653.113	-0.04
653.298	-0.01
653.484	-0.01
653.669	-0.03
653.855	-0.04
654.04	0.03
654.226	-0.02
654.412	-0.03
654.597	-0.03
654.782	0.02
654.968	0.03
655.153	-0
655.339	-0.05
655.524	-0.06
655.71	0.01
655.895	-0.04
656.08	-0.06
656.266	0.01
656.451	-0.01
656.636	-0.06
656.822	-0
657.007	-0.06
657.192	-0.04
657.378	-0.07
657.563	-0.05
657.748	0.03
657.933	-0.01
658.118	-0.06
658.304	-0.05
658.489	0.02
658.674	0.02
658.859	-0.04
659.044	-0.01
659.229	-0.01
659.414	-0.05
659.599	-0.01
659.785	-0.08
659.97	-0.03
660.155	0.01
660.34	-0.02
660.525	-0.04
660.71	-0.03
660.895	0.02
661.08	-0.04
661.264	-0.05
661.449	0.04
661.634	0.05
661.819	0
662.004	-0.01
662.189	-0.1
662.374	-0.05
662.559	-0.06
662.743	-0.03
662.928	-0.05
663.113	-0.04
663.298	-0.11
663.483	-0.05
663.667	0.01
663.852	-0.07
664.037	0.01
664.221	-0.05
664.406	-0.01
664.591	0
664.775	-0.02
664.96	-0.01
665.145	0
665.329	-0.01
665.514	-0.07
665.698	-0.01
665.883	-0.1
666.068	0.03
666.252	-0.02
666.437	-0.06
666.621	-0.01
666.806	-0
666.99	-0.02
667.174	-0.1
667.359	0.03
667.543	-0.03
667.728	-0.03
667.912	-0.07
668.096	-0.03
668.281	-0.03
668.465	-0.02
668.649	0.01
668.834	-0.07
669.018	-0.01
669.202	-0.02
669.387	-0.04
669.571	-0
669.755	-0.04
669.939	-0.05
670.124	-0.01
670.308	0.03
670.492	0.02
670.676	0
670.86	-0.06
671.044	-0.07
671.228	-0
671.413	-0.06
671.597	-0.03
671.781	-0.1
671.965	0.02
672.149	-0.03
672.333	-0.02
672.517	-0.05
672.701	0
672.885	-0.03
673.069	-0.08
673.253	0.04
673.437	-0.04
673.621	-0.06
673.804	-0.01
673.988	-0.03
674.172	-0.03
674.356	-0.11
674.54	-0.07
674.724	0.05
674.908	-0.03
675.091	0.01
675.275	-0.02
675.459	0.01
675.643	-0.07
675.826	-0.02
676.01	-0
676.194	-0.07
676.377	0.03
676.561	0.01
676.745	-0.03
676.928	0
677.112	0.03
677.296	-0.09
677.479	-0.02
677.663	-0.07
677.846	0.01
678.03	-0.04
678.213	-0.05
678.397	-0.02
678.58	-0.02
678.764	-0.06
678.947	-0.05
679.131	-0.09
679.314	0.01
679.498	-0.03
679.681	-0.01
679.865	0.01
680.048	-0.05
680.231	-0.03
680.415	-0.01
680.598	-0.06
680.781	-0.05
680.965	-0.06
681.148	-0.02
681.331	-0.03
681.514	-0.02
681.698	-0.05
681.881	-0.03
682.064	-0.02
682.247	-0.01
682.43	-0.1
682.614	-0.02
682.797	0.03
682.98	0.01
683.163	-0.07
683.346	-0.02
683.529	-0.05
683.712	-0.09
683.895	0.02
684.078	-0.1
684.261	-0.04
684.444	-0.04
684.627	-0.07
684.81	-0.03
684.993	-0.06
685.176	0.04
685.359	-0.05
685.542	-0.06
685.725	0.04
685.908	-0.01
686.091	-0.04
686.274	0.03
686.457	-0.01
686.639	-0.01
686.822	0.02
687.005	-0.01
687.188	-0.01
687.371	0.05
687.553	0.01
687.736	-0.02
687.919	0.08
688.102	0.04
688.284	-0.05
688.467	0.01
688.65	-0.03
688.832	-0.09
689.015	0
689.197	-0.1
689.38	0.09
689.563	0.06
689.745	-0.06
689.928	-0.04
690.11	-0.05
690.293	-0.02
690.475	-0.11
690.658	0.02
690.84	-0.02
691.023	-0.01
691.205	-0.03
691.388	-0.01
691.57	-0.03
691.752	-0.02
691.935	-0.08
692.117	-0.04
692.3	-0.04
692.482	0.01
692.664	-0.02
692.847	-0.04
693.029	0.07
693.211	-0.01
693.393	-0.06
693.576	-0.05
693.758	0.01
693.94	-0.06
694.122	-0.01
694.304	-0.04
694.487	-0.05
694.669	0.02
694.851	-0.07
695.033	-0.05
695.215	-0.09
695.397	-0.08
695.579	-0.01
695.761	-0.08
695.943	-0.1
696.125	0.01
696.308	-0
696.49	-0.13
696.671	0.13
696.853	0.01
697.035	0.09
697.217	-0.02
697.399	0.02
697.581	-0.07
697.763	-0.02
697.945	-0.08
698.127	-0.1
698.309	0.06
698.491	-0.03
698.672	-0.03
698.854	0.02
699.036	0.02
699.218	-0.03
699.399	0.06
699.581	0.02
699.763	-0.03
699.945	-0.03
700.126	-0.06
700.308	0
700.49	-0.03
700.671	-0.12
700.853	-0.05
701.035	-0.05
701.216	-0.01
701.398	-0.1
701.579	-0.04
701.761	0.02
701.943	-0.08
702.124	-0.02
702.306	-0.1
702.487	0.09
702.669	-0.02
702.85	-0.07
703.031	-0.07
703.213	0.06
703.394	0.05
703.576	-0.07
703.757	0.05
703.938	-0.01
704.12	0.13
704.301	-0.01
704.483	-0.08
704.664	0.01
704.845	0.13
705.026	0.02
705.208	-0.05
705.389	-0.07
705.57	-0.03
705.751	-0.02
705.933	-0.07
706.114	0.02
706.295	-0.03
706.476	-0.1
706.657	0.1
706.838	0.02
707.02	0.04
707.201	-0.04
707.382	-0.08
707.563	0.01
707.744	-0.07
707.925	-0.05
708.106	-0.06
708.287	-0.07
708.468	0.09
708.649	-0.08
708.83	-0.01
709.011	-0
709.192	0.02
709.373	-0.06
709.554	0.02
709.734	0.06
709.915	-0.01
710.096	-0.02
710.277	-0.17
710.458	0.05
710.639	0
710.819	-0.12
711	-0.03
711.181	0.01
711.362	0.06
711.542	0.06
711.723	0.02
711.904	0.02
712.085	0.08
712.265	-0.03
712.446	-0.08
712.627	-0.02
712.807	-0.02
712.988	-0.07
713.168	-0.11
713.349	-0.06
713.53	-0.17
713.71	-0.11
713.891	-0.04
714.071	-0.07
714.252	-0.05
714.432	-0.08
714.613	-0.13
714.793	-0.02
714.974	0.07
715.154	-0.01
715.334	-0.03
715.515	0.04
715.695	-0.13
715.876	0.01
716.056	-0.07
716.236	-0.08
716.417	-0.05
716.597	-0.05
716.777	0.12
716.957	-0.03
717.138	0.03
717.318	0.01
717.498	-0.05
717.678	-0.04
717.859	-0.02
718.039	-0.07
718.219	-0.05
718.399	0.07
718.579	-0.07
718.759	-0.14
718.939	-0.04
719.12	-0.02
719.3	-0.04
719.48	-0.21
719.66	-0.09
719.84	0.05
720.02	-0.04
720.2	-0.08
720.38	-0.09
720.56	0.11
720.74	0.01
720.92	-0.02
721.1	0.04
721.279	0.08
721.459	-0.01
721.639	-0.09
721.819	0.07
721.999	-0.05
722.179	0.14
722.359	-0.14
722.538	-0.05
722.718	-0.08
722.898	-0.03
723.078	-0.09
723.257	-0.07
723.437	-0.02
723.617	0
723.797	-0.1
723.976	-0.04
724.156	-0.02
724.336	-0.02
724.515	0.07
724.695	-0.15
724.874	-0.13
725.054	0.05
725.234	-0.1
725.413	0.02
725.593	-0.03
725.772	0
725.952	-0.05
726.131	-0.09
726.311	-0.05
726.49	-0.06
726.67	-0.11
726.849	-0.03
727.028	0.02
727.208	-0.03
727.387	0
727.567	-0.15
727.746	-0.03
727.925	-0.09
728.105	-0.02
728.284	-0.04
728.463	-0.06
728.643	0.01
728.822	-0.17
729.001	-0.12
729.18	0.05
729.359	0.07
729.539	-0.05
729.718	-0.12
729.897	0.04
730.076	-0.07
730.255	-0.11
730.434	0.07
730.614	0.01
730.793	0.04
730.972	-0.01
731.151	0.01
731.33	0.06
731.509	0.04
731.688	0
731.867	-0.1
732.046	-0.11
732.225	0.2
732.404	-0.07
732.583	-0.04
732.762	-0.08
732.941	0.07
733.12	-0.05
733.298	-0.03
733.477	0.06
733.656	-0.06
733.835	-0.08
734.014	0.09
734.193	-0.03
734.371	0.05
734.55	0.05
734.729	-0.14
734.908	-0.03
735.086	-0.07
735.265	0.06
735.444	-0.16
735.623	-0.08
735.801	-0.06
735.98	-0.1
736.159	-0.12
736.337	0.08
736.516	-0.05
736.694	-0.02
736.873	-0.1
737.052	0.12
737.23	0.13
737.409	-0.18
737.587	0.2
737.766	-0.2
737.944	-0.1
738.123	0.08
738.301	-0.02
738.479	-0.09
738.658	-0.01
738.836	-0.21
739.015	-0.05
739.193	-0.01
739.371	-0.12
739.55	-0.07
739.728	-0.11
739.906	0.07
740.085	0.14
740.263	-0.03
740.441	-0.12
740.62	0.2
740.798	0.09
740.976	-0.12
741.154	-0.12
741.332	0.05
741.511	-0.13
741.689	0.02
741.867	0.04
742.045	0.05
742.223	-0.04
742.401	-0.1
742.579	-0.18
742.757	-0.05
742.935	-0.17
743.114	-0.14
743.292	-0.09
743.47	-0.03
743.648	-0.02
743.826	0.05
744.004	-0.02
744.181	0
744.359	-0.07
744.537	-0.03
744.715	0.03
744.893	0
745.071	-0.06
745.249	-0.21
745.427	-0.08
745.605	-0.06
745.782	-0.08
745.96	0.02
746.138	-0.05
746.316	0.04
746.493	-0.06
746.671	-0.01
746.849	-0.14
747.027	0.02
747.204	-0.13
747.382	0.02
747.56	-0.16
747.737	-0.07
747.915	-0.12
748.093	-0.05
748.27	-0.1
748.448	-0.03
748.625	-0.15
748.803	-0.16
748.98	-0.07
749.158	-0.07
749.335	0.04
749.513	-0.06
749.69	-0.13
749.868	0.01
750.045	-0.02
750.223	-0.11
750.4	-0.21
750.578	0.22
750.755	-0.11
750.932	-0.15
751.11	0.19
751.287	-0.15
751.464	0.01
751.642	0.01
751.819	-0
751.996	-0.09
752.173	-0.12
752.351	-0.09
752.528	-0.06
752.705	-0.1
752.882	-0.08
753.06	-0.01
753.237	-0.01
753.414	0.1
753.591	0.08
753.768	-0.06
753.945	-0.15
754.122	-0.09
754.299	0.04
754.476	-0.13
754.654	-0.04
754.831	0
755.008	0.11
755.185	-0.1
755.362	-0.12
755.539	0.01
755.716	-0.11
755.892	-0.08
756.069	-0.09
756.246	-0.09
756.423	-0.2
756.6	0.03
756.777	0.03
756.954	0.06
757.131	-0.01
757.307	-0.17
757.484	-0.15
757.661	-0.08
757.838	0.05
758.015	-0.27
758.191	0.14
758.368	-0.02
758.545	0.1
758.721	-0.11
758.898	-0.2
759.075	0.04
759.251	0.04
759.428	0
759.605	-0.13
759.781	0.03
759.958	0.17
760.134	0.06
760.311	-0.04
760.488	0.14
760.664	0.13
760.841	-0.11
761.017	-0.16
761.194	-0.04
761.37	0.09
761.547	-0.11
761.723	-0.04
761.899	0.04
762.076	-0.11
762.252	-0.13
762.429	-0.03
762.605	0.02
762.781	-0.08
762.958	0.01
763.134	-0.12
763.31	-0.12
763.486	0.08
763.663	-0.23
763.839	-0.05
764.015	-0.26
764.191	-0.16
764.368	-0.09
764.544	-0.15
764.72	-0.07
764.896	0.05
765.072	0.04
765.248	-0.07
765.425	0
765.601	0
765.777	-0.08
765.953	-0.18
766.129	-0.11
766.305	-0.22
766.481	-0.04
766.657	-0.08
766.833	0.18
767.009	-0.29
767.185	-0.11
767.361	-0.11
767.537	-0.09
767.713	0.25
767.889	-0.05
768.065	-0.03
768.24	-0.31
768.416	0.09
768.592	-0.06
768.768	-0.08
768.944	0
769.12	-0.22
769.295	-0.08
769.471	-0.16
769.647	0.06
769.823	0.07
769.998	-0.23
770.174	-0.17
770.35	0.33
770.525	0.1
770.701	-0.06
770.877	0.01
771.052	-0.14
771.228	0.1
771.403	0.17
771.579	0.01
771.755	0.18
771.93	-0.15
772.106	-0.17
772.281	-0.14
772.457	-0.05
772.632	-0.13
772.808	-0.22
772.983	-0.18
773.159	-0.31
773.334	0.1
773.509	-0.14
773.685	-0.04
773.86	0.19
774.036	0.22
774.211	-0.02
774.386	0.13
774.562	-0.11
774.737	-0.08
774.912	-0.07
775.087	0.03
775.263	-0.07
775.438	-0.15
775.613	-0.31
775.788	-0.09
775.964	0.16
776.139	0.25
776.314	-0.29
776.489	0.08
776.664	-0.02
776.839	-0.24
777.014	0.05
777.19	-0.03
777.365	0.2
777.54	0.18
777.715	-0.18
777.89	-0.13
778.065	-0.22
778.24	-0.04
778.415	0.04
778.59	-0.24
778.765	-0.02
778.94	-0.07
779.115	-0.02
779.289	-0.09
779.464	-0.16
779.639	-0.01
779.814	-0.32
779.989	-0.3
780.164	0.03
780.339	-0.02
780.513	-0.16
780.688	-0.3
780.863	-0.01
781.038	0
781.212	-0.2
781.387	-0.11
781.562	0.36
781.737	-0.1
781.911	0.18
782.086	-0.15
782.261	-0.12
782.435	0.13
782.61	-0.18
782.784	-0.09
782.959	0.29
783.134	-0.07
783.308	-0.3
783.483	-0.2
783.657	0.41
783.832	0.06
784.006	-0.35
784.181	-0.17
784.355	0.24
784.53	-0.2
784.704	-0.22
784.878	0.14
785.053	0.19
785.227	0.08
785.402	0.32
785.576	-0.34
785.75	0.05
785.925	-0.13
786.099	-0
786.273	-0.1
786.448	0.04
786.622	0.01
786.796	-0.17
786.97	-0.05
787.145	0.43
787.319	-0.46
787.493	-0.35
787.667	-0.47
787.841	-0.02
788.015	-0.02
788.19	-0.17
788.364	-0.1
788.538	0.23
788.712	0.03
788.886	-0.23
789.06	0.16
789.234	0.04
789.408	-0.11
789.582	-0.15
789.756	-0.2
789.93	-0.25
790.104	-0.02
790.278	-0.21
790.452	-0.11
790.626	0.16
790.8	-0.26
790.973	0.07
791.147	0.27
791.321	0.27
791.495	0.05
791.669	-0.06
791.843	0.08
792.016	0.01
792.19	0.36
792.364	-0.22
792.538	0.34
792.711	0.25
792.885	0.04
793.059	-0.36
793.233	-0.63
793.406	0.08
793.58	0.01
793.754	-0.02
793.927	-0.12
794.101	0.37
794.274	-0.06
794.448	0.05
794.622	-0.23
794.795	0.03
794.969	-0.26
795.142	0.18
795.316	0.05
795.489	-0.29
795.663	0.31
795.836	-0.01
796.009	-0.65
796.183	0.17
796.356	-0.05
796.53	-0.17
796.703	0.05
796.876	0.29
797.05	-0.12
797.223	0.05
797.396	-0.01
797.57	-0.03
797.743	0.36
797.916	-0.07
798.09	-0.03
798.263	0.26
798.436	0.14
798.609	-0.21
798.782	-0.17
798.956	0.19
799.129	-0.22
799.302	-0.14
799.475	-0.26
799.648	-0.38
799.821	-0.36
799.994	0.12
800.167	-0.46
800.34	0.09
800.514	0.02
800.687	-0.24
800.86	-0.28
801.033	-0.05
801.206	0.07
801.379	-0.32
801.551	0.04
801.724	-0.1
801.897	0.45
802.07	-0.2
802.243	-0.57
802.416	-0.22
802.589	-0.13
802.762	0.1
802.935	-0.23
803.107	0.06
803.28	0.16
803.453	-0.03
803.626	-0.26
803.798	-0.1
803.971	-0.31
804.144	-0.04
804.317	0.08
804.489	-0.01
804.662	0.18
804.835	-0.12
805.007	-0.56
805.18	0.45
805.353	0.05
805.525	-0.4
805.698	0.05
805.87	-0.05
806.043	0.32
806.215	-0.27
806.388	-0.13
806.56	0.02
806.733	0.19
806.905	-0.02
807.078	-0.19
807.25	-0.15
807.423	-0.2
807.595	-0.12
807.768	-0.09
807.94	0.1
808.112	0.03
808.285	-0.42
808.457	-0.46
808.629	-0.57
808.802	0.26
808.974	-0.26
809.146	-0.1
809.318	-0.55
809.491	-0.06
809.663	-0.46
809.835	-0.62
810.007	0.16
810.18	-0.23
810.352	-0.53
810.524	-0.07
810.696	0.03
810.868	0.22
811.04	-0.32
811.212	-0.08
811.384	0.42
811.556	0.03
811.728	-0.19
811.901	0.34
812.073	-0.1
812.245	0.33
812.417	-0.47
812.589	-0.62
812.76	0.04
812.932	0.24
813.104	0.12
813.276	-0.54
813.448	0.3
813.62	-0.24
813.792	0.14
813.964	-0.26
814.136	-0.24
814.307	-0.3
814.479	-0.19
814.651	-0.44
814.823	0.74
814.995	-0.11
815.166	0.31
815.338	-0.63
815.51	-0.9
815.681	0.36
815.853	0.01
816.025	-0.3
816.196	0.74
816.368	0.47
816.54	-0.68
816.711	-0.87
816.883	-0.07
817.054	0.83
817.226	-0.66
817.398	-0.2
817.569	-0.63
817.741	-0.08
817.912	-0.25
818.084	-0.09
818.255	0.12
818.426	-0.2
818.598	-0.39
818.769	-0.27
818.941	0.21
819.112	0.56
819.283	0.1
819.455	-0.61
819.626	0.18
819.798	0.02
819.969	-0.45
820.14	-0.21
820.311	0.06
820.483	0.2
820.654	-0.23
820.825	-0.01
820.996	-0.13
821.168	-0.6
821.339	-0.49
821.51	-0.76
821.681	0.87
821.852	-0.25
822.023	-0.46
822.195	-0.76
822.366	0.63
822.537	-0.01
822.708	0.22
822.879	-0.51
823.05	0.15
823.221	-0.25
823.392	0.32
823.563	-0.56
823.734	-0.06
823.905	-0.46
824.076	-0.36
824.247	-0.65
824.418	-0.73
824.589	0.25
824.759	-0.41
824.93	-0.37
825.101	-0.74
825.272	0.38
825.443	0.3
825.614	0.45
825.784	-0.8
825.955	0.73
826.126	0.41
826.297	-0.21
826.467	0.68
826.638	1.04
826.809	-1.5
826.98	-0.6
827.15	0.28
827.321	-0.28
827.492	0.16
827.662	-0.04
827.833	1.2
828.003	0.23
828.174	-0.45
828.345	-0.99
828.515	-0.08
828.686	0.09
828.856	-0.37
829.027	-0.35
829.197	0.21
829.368	0.61
829.538	-0.68
829.709	-0.55
829.879	-0.06
830.049	-0.04
830.22	-0.22
830.39	-0.72
830.56	0.53
830.731	-0.43
830.901	-0.46
831.072	-0.3
831.242	0.09
831.412	0.38
831.582	-0.48
831.753	-1.32
831.923	0.29
832.093	0.17
832.263	-0.38
832.434	-0.47
832.604	-0.64
832.774	0.16
832.944	-0.08
833.114	-0.65
833.284	-0.25
833.454	-1.15
833.624	-0.63
833.795	-0.53
833.965	0.46
834.135	0.79
834.305	-1.14
834.475	-1.07
834.645	-0.82
834.815	-0
834.985	-1.17
835.155	-0.25
835.325	0.55
835.494	-0.63
835.664	-0.71
835.834	-1.28
836.004	-0.3
836.174	-0.13
836.344	-0.4
836.514	-0.63
836.684	-0.16
836.853	-0.53
837.023	-0.08
837.193	-0.86
837.363	0.56
837.532	0.01
837.702	-0.87
837.872	-0.52
838.041	0.11
838.211	0.74
838.381	-0.35
838.55	-1.06
838.72	1.57
838.89	0.9
839.059	-0.75
839.229	-0.68
839.398	0.26
839.568	0.11
839.738	-0.78
839.907	0.84
840.077	0.38
840.246	-0.74
840.416	-0.65
840.585	-0.7
840.755	0.72
840.924	0.45
841.093	-0.5
841.263	-1.21
841.432	-0.43
841.602	-1.05
841.771	-0.9
841.94	-0.14
842.11	1.38
842.279	0.58
842.448	-0.67
842.617	-0.79
842.787	0.96
842.956	-0.87
843.125	-0.28
843.294	-0.59
843.464	0.84
843.633	0.27
843.802	-1.05
843.971	-0.03
844.14	0.34
844.309	0.01
844.479	-0.7
844.648	-0.97
844.817	-0.93
844.986	-0.45
845.155	-0.95
845.324	-0.67
845.493	-0.63
845.662	-0.73
845.831	1.08
846	-0.51
846.169	-0.12
846.338	1.04
846.507	-0.49
846.676	-0.59
846.844	-0.22
847.013	0.74
847.182	-0.98
847.351	-1.3
847.52	-0.35
847.689	-0.01
847.858	-0.9
848.026	-0.77
848.195	-0.83
848.364	-0.34
848.533	-1.55
848.701	-0.51
848.87	-0.35
849.039	-0.09
849.207	0.47
849.376	-0.17
849.545	0.57
849.713	-0.52
849.882	-0.68
850.051	0.07
850.219	0.19
850.388	1.14
850.556	-1.24
850.725	-1.62
850.893	0.16
851.062	-0.6
851.23	0.09
851.399	-1.72
851.567	-0.29
851.736	-1.67
851.904	-1.12
852.073	-1.28
852.241	0.77
852.41	-0.75
852.578	-0.98
852.746	-1.13
852.915	0.72
853.083	-0.74
853.251	-1.79
853.42	-0.26
853.588	-0.63
853.756	0.05
853.924	0.41
854.093	-0.25
854.261	-0.49
854.429	-1.81
854.597	-0.57
854.765	-1.68
854.934	0.52
855.102	1.64
855.27	-1.36
855.438	0.04
855.606	1.01
855.774	1.42
855.942	-2.71
856.11	-0.75
856.278	0.19
856.446	0.41
856.614	-0.15
856.782	-0.33
856.95	0.85
857.118	0.18
857.286	-0.31
857.454	-1.92
857.622	-0.42
857.79	0.03
857.958	-1.98
858.126	-1.28
858.294	-2.16
858.462	-0.4
858.629	-0.9
858.797	-0.66
858.965	0.55
859.133	-1.13
859.301	-0.79
859.468	-0.66
859.636	-0.94
859.804	2.53
859.971	-0.24
860.139	-1.39
860.307	0.38
860.474	0.02
860.642	-1.03
860.81	-1.42
860.977	0.07
861.145	0.99
861.313	-0.36
861.48	-0.15
861.648	0.76
861.815	-1.78
861.983	-2.03
862.15	-0.54
862.318	0.72
862.485	1.5
862.653	-1.65
862.82	-1.96
862.988	1.59
863.155	-1.02
863.322	-1.4
863.49	-1.98
863.657	-1.62
863.824	1.21
863.992	0.36
864.159	0.11
864.326	1.74
864.494	-0.2
864.661	1.1
864.828	-2.14
864.996	0.98
865.163	0.36
865.33	-2.63
865.497	-3.43
865.664	-1.61
865.832	-3.43
865.999	-0.57
866.166	-2.75
866.333	0.59
866.5	-1.2
866.667	-0.6
866.834	-2.91
867.001	1.4
867.168	-2.35
867.335	0.25
867.502	-0.95
867.669	-0.36
867.836	3.36
868.003	-1.31
868.17	0.47
868.337	-0.6
868.504	1.8
868.671	-1.58
868.838	-2.42
869.005	-0.39
869.172	-0.28
869.339	-0.69
869.505	-0.22
869.672	-1.41
869.839	1.04
870.006	-0.24
870.173	-2.13
870.339	0.57
870.506	2.37
870.673	-1.33
870.84	0.53
871.006	1.25
871.173	-1.28
871.34	0.22
871.506	-1.32
871.673	0.03
871.839	-3.3
872.006	-0.8
872.173	-1.58
872.339	-0.6
872.506	2.05
872.672	-1.18
872.839	-2.8
873.005	0.4
873.172	3.75
873.338	0.45
873.505	0.16
873.671	-1.16
873.838	1.22
874.004	-2.38
874.171	-0.33
874.337	0.87
874.503	0.44
874.67	1.39
874.836	-0.66
875.002	1.79
875.169	1.61
875.335	-0.46
875.501	-2.42
875.668	-1.46
875.834	1.27
876	-0.89
876.166	1.55
876.332	-0.52
876.499	3.14
876.665	-0.84
876.831	-1.17
876.997	3.13
877.163	-1.18
877.329	-1.91
877.495	0.13
877.662	0.44
877.828	-1.94
877.994	0.38
878.16	-4.59
878.326	-2.4
878.492	-0.5
878.658	-0.78
878.824	-0.97
878.99	-0.04
879.156	-1.46
879.322	2.5
879.487	0.07
879.653	-1.09
879.819	-0.71
879.985	-2.85
880.151	0.89
880.317	0.46
880.483	-0.81
880.648	-0.17
880.814	-1.61
880.98	-1.69
881.146	-2.59
881.312	-1.5
881.477	0.18
881.643	-1.21
881.809	1.77
881.974	0.82
882.14	-3.72
882.306	-2.11
882.471	2.52
882.637	-2.58
882.803	0.03
882.968	1.57
883.134	3.77
883.299	-0.68
883.465	-0.68
883.63	1.84
883.796	1.08
883.961	1.67
884.127	-0.93
884.292	-4.59
884.458	-0.94
884.623	-0.94
