Data from Apollo_Calib_20240827__AbsoluteIrradiance__226__02-55-01-349.txt Node

Date: Wed Aug 28 02:55:01 BST 2024
User: biology
Spectrometer: FLMT08252
Trigger mode: 0
Integration Time (sec): 5.000000E-1
Scans to average: 5
Electric dark correction enabled: true
Nonlinearity correction enabled: false
Boxcar width: 0
XAxis mode: Wavelengths
Number of Pixels in Spectrum: 3648
>>>>>Begin Spectral Data<<<<<
179.588	-0
179.809	-0
180.03	-0
180.251	-0
180.473	-0
180.694	0
180.915	0
181.136	-0
181.357	-0
181.578	0
181.799	-0
182.02	-0
182.241	0
182.462	-0
182.683	0
182.904	-0
183.125	-0
183.346	0
183.567	-0
183.788	-0
184.009	-0
184.23	0
184.451	0
184.672	-0
184.892	-0
185.113	-0
185.334	0
185.555	-0
185.776	-0
185.996	0
186.217	0
186.438	-0
186.659	-0
186.879	0
187.1	-0
187.321	-0
187.541	-0
187.762	-0
187.983	-0
188.203	-0
188.424	-0
188.644	-0
188.865	-0
189.086	-0
189.306	-0
189.527	-0
189.747	-0
189.968	-0
190.188	0
190.409	0
190.629	0
190.849	-0
191.07	-0
191.29	-0
191.511	0
191.731	-0
191.951	-0
192.172	-0
192.392	-0
192.612	-0
192.833	-0
193.053	0
193.273	0
193.493	-0
193.714	-0
193.934	0
194.154	0
194.374	-0
194.594	-0
194.815	-0
195.035	0
195.255	-0
195.475	-0
195.695	0
195.915	0
196.135	-0
196.355	0
196.575	0
196.795	0
197.015	-0
197.235	-0
197.455	-0
197.675	-0
197.895	-0
198.115	-0
198.335	0
198.555	-0
198.775	-0
198.995	0
199.214	0
199.434	-0
199.654	-0
199.874	-0
200.094	0.54
200.313	-0.51
200.533	-0.6
200.753	-0.64
200.973	0.62
201.192	-0.01
201.412	-1.64
201.632	-0.31
201.851	0.41
202.071	-0.85
202.291	-0.85
202.51	-0.62
202.73	-0.08
202.95	-0.77
203.169	-1.03
203.389	-0.42
203.608	0.05
203.828	-0.4
204.047	-0.97
204.267	0.22
204.486	-0.29
204.706	-0.06
204.925	-0.72
205.145	-0.64
205.364	0.39
205.583	0.19
205.803	-0.36
206.022	-0.6
206.242	0.05
206.461	0.02
206.68	-0.47
206.9	-0.17
207.119	0.2
207.338	0.4
207.557	-0.64
207.777	-0.36
207.996	-0.31
208.215	0.35
208.434	-0.44
208.654	-0.44
208.873	0.07
209.092	0.06
209.311	-0.46
209.53	-0.35
209.749	-0.3
209.968	-0.45
210.187	-0.55
210.407	-0.44
210.626	-0.33
210.845	0.01
211.064	-0.25
211.283	-0.38
211.502	0.29
211.721	-0.3
211.94	-0.28
212.159	-0.23
212.377	0.11
212.596	0.13
212.815	-0.31
213.034	-0.05
213.253	-0.02
213.472	0.07
213.691	-0.25
213.91	-0.54
214.128	-0.43
214.347	-0.02
214.566	-0.56
214.785	-0.59
215.003	0.08
215.222	0.11
215.441	-0.18
215.66	-0.49
215.878	-0.14
216.097	0.14
216.316	-0.36
216.534	-0.33
216.753	-0.03
216.972	-0.11
217.19	-0.38
217.409	-0.31
217.627	-0.17
217.846	-0.14
218.064	-0.06
218.283	-0.29
218.501	0.26
218.72	0.15
218.938	-0.26
219.157	-0.27
219.375	0.06
219.594	0.3
219.812	-0.35
220.031	-0.32
220.249	0.32
220.467	0.25
220.686	-0.17
220.904	-0.3
221.122	-0.22
221.341	0.26
221.559	-0.09
221.777	-0.19
221.995	-0.04
222.214	0
222.432	-0.21
222.65	0.05
222.868	-0.11
223.086	0.11
223.305	0.07
223.523	-0.17
223.741	0.14
223.959	-0.19
224.177	-0.28
224.395	-0.17
224.613	-0.04
224.831	0.04
225.049	-0.24
225.267	-0.25
225.485	-0.01
225.703	-0.12
225.921	-0.1
226.139	-0.16
226.357	0.17
226.575	-0.08
226.793	-0.33
227.011	0.59
227.229	0.03
227.447	0.03
227.665	-0.21
227.883	-0.28
228.1	-0.16
228.318	0.16
228.536	-0.35
228.754	-0.27
228.972	-0.08
229.189	0.06
229.407	-0.22
229.625	-0.23
229.843	0.14
230.06	0.05
230.278	-0.24
230.496	-0.2
230.713	-0.07
230.931	0.13
231.149	-0.06
231.366	-0.35
231.584	-0.11
231.801	0.33
232.019	-0.12
232.236	-0.27
232.454	-0.17
232.671	-0.04
232.889	-0.2
233.106	-0.12
233.324	-0.15
233.541	-0.1
233.759	-0.05
233.976	-0.19
234.194	-0.07
234.411	-0.16
234.628	-0.22
234.846	-0.18
235.063	-0.1
235.28	-0.17
235.498	-0.02
235.715	-0.22
235.932	0.12
236.149	-0.05
236.367	-0.2
236.584	0.01
236.801	-0.19
237.018	0.11
237.236	-0.06
237.453	-0.17
237.67	0.01
237.887	-0.07
238.104	-0.08
238.321	-0.14
238.538	-0.11
238.755	0.07
238.973	-0.27
239.19	-0.1
239.407	-0.06
239.624	-0.01
239.841	-0.27
240.058	-0.13
240.275	0.05
240.492	-0.03
240.709	-0.1
240.925	-0.15
241.142	0
241.359	-0.14
241.576	-0.1
241.793	-0.08
242.01	-0.08
242.227	0.02
242.444	0.03
242.66	-0.03
242.877	-0.07
243.094	-0.1
243.311	-0.16
243.527	-0.08
243.744	-0.01
243.961	0.06
244.178	-0.07
244.394	-0.04
244.611	0.11
244.828	0.11
245.044	-0.14
245.261	-0.06
245.477	-0.03
245.694	0.05
245.911	-0.15
246.127	-0.08
246.344	0.11
246.56	0.03
246.777	-0.13
246.993	0.01
247.21	-0.08
247.426	-0.02
247.643	-0.09
247.859	-0.16
248.076	-0.17
248.292	0.13
248.508	-0.12
248.725	-0.02
248.941	-0.02
249.157	0.04
249.374	-0.08
249.59	-0.06
249.806	-0.06
250.023	0.1
250.239	-0.13
250.455	-0.13
250.671	0.01
250.888	0.04
251.104	-0.01
251.32	-0.09
251.536	-0.04
251.752	-0.11
251.969	0.01
252.185	-0.07
252.401	0.13
252.617	0
252.833	-0.07
253.049	-0.09
253.265	-0.04
253.481	0.01
253.697	-0.1
253.913	-0.12
254.129	0.04
254.345	-0.03
254.561	-0.15
254.777	-0.11
254.993	0.03
255.209	-0.04
255.425	-0.08
255.641	-0.11
255.857	0.07
256.073	-0.03
256.288	-0.17
256.504	-0.16
256.72	0
256.936	0.1
257.152	-0.06
257.367	-0.11
257.583	-0.07
257.799	0.04
258.015	-0.08
258.23	-0.09
258.446	0.09
258.662	-0.07
258.877	-0.08
259.093	-0.14
259.309	0.02
259.524	0.01
259.74	-0.11
259.955	-0.12
260.171	-0.08
260.387	-0.11
260.602	-0.02
260.818	0.01
261.033	-0.06
261.249	-0.09
261.464	-0.08
261.68	-0.18
261.895	0.06
262.11	0.06
262.326	-0.05
262.541	-0.17
262.757	0.03
262.972	-0.04
263.187	-0.05
263.403	-0.06
263.618	0
263.833	-0.04
264.049	-0.13
264.264	-0.09
264.479	0.03
264.694	0.11
264.91	-0.07
265.125	-0.08
265.34	-0.01
265.555	0.1
265.77	0.04
265.986	-0.1
266.201	-0.02
266.416	0.04
266.631	-0.03
266.846	-0.03
267.061	-0.01
267.276	0
267.491	-0.15
267.706	-0.02
267.921	0.01
268.136	0.04
268.351	-0.07
268.566	-0.12
268.781	0.04
268.996	0.02
269.211	-0.07
269.426	-0.06
269.641	-0.03
269.856	0.02
270.071	-0.09
270.285	-0.17
270.5	-0.03
270.715	0.08
270.93	-0.04
271.145	-0.06
271.359	0.05
271.574	-0.09
271.789	-0.02
272.004	-0.13
272.218	-0.07
272.433	0.09
272.648	-0.09
272.862	0.03
273.077	-0.05
273.292	-0.05
273.506	-0.06
273.721	-0.11
273.936	0.02
274.15	0.03
274.365	-0.06
274.579	-0.02
274.794	0.03
275.008	0.03
275.223	-0.14
275.437	-0.01
275.652	0.02
275.866	0.01
276.081	0.01
276.295	0.06
276.509	-0.04
276.724	-0.02
276.938	-0.07
277.153	0
277.367	0.08
277.581	-0.03
277.796	-0.04
278.01	-0.11
278.224	0.05
278.438	0.05
278.653	-0.13
278.867	-0.13
279.081	-0.19
279.295	-0.02
279.51	-0.02
279.724	-0.1
279.938	-0.03
280.152	-0.04
280.366	-0.12
280.58	-0.06
280.794	0.11
281.008	0
281.222	0.05
281.437	0.06
281.651	-0.02
281.865	0.11
282.079	-0.05
282.293	-0.11
282.507	-0.05
282.721	0.01
282.935	-0.01
283.148	-0.13
283.362	-0.05
283.576	-0.06
283.79	0
284.004	-0.09
284.218	0.05
284.432	-0.06
284.646	-0.02
284.859	-0.1
285.073	-0.06
285.287	-0.03
285.501	-0.03
285.714	-0.06
285.928	0.02
286.142	0.04
286.356	-0.08
286.569	-0.07
286.783	0.07
286.997	-0.02
287.21	-0.07
287.424	0.01
287.637	-0.01
287.851	-0.04
288.065	-0
288.278	-0.05
288.492	-0.04
288.705	-0.05
288.919	-0.03
289.132	-0.06
289.346	-0
289.559	-0.11
289.773	-0.07
289.986	-0.05
290.2	-0.04
290.413	0.01
290.626	-0.06
290.84	-0.06
291.053	-0.01
291.267	0.06
291.48	0
291.693	-0.04
291.906	-0.06
292.12	-0.04
292.333	-0.05
292.546	-0.06
292.76	0.09
292.973	-0.02
293.186	0.01
293.399	-0.06
293.612	-0.02
293.826	0.01
294.039	-0.01
294.252	-0.06
294.465	-0.02
294.678	0.04
294.891	-0.02
295.104	-0.1
295.317	-0.03
295.53	-0.02
295.743	-0.03
295.956	-0.02
296.169	0.06
296.382	-0.05
296.595	-0.03
296.808	-0.09
297.021	0.06
297.234	0.06
297.447	-0.01
297.66	0.01
297.873	0
298.086	0.01
298.299	-0.05
298.511	-0.11
298.724	-0.04
298.937	-0.05
299.15	-0.06
299.363	-0.03
299.575	0.02
299.788	0.05
300.001	0
300.213	-0.09
300.426	-0.01
300.639	-0.04
300.852	-0.07
301.064	-0.01
301.277	0.05
301.489	0.03
301.702	0.03
301.915	0.01
302.127	0.02
302.34	-0.02
302.552	-0.04
302.765	-0.03
302.977	0.01
303.19	-0.01
303.402	-0.05
303.615	-0.04
303.827	-0.09
304.04	-0.05
304.252	-0
304.464	-0.04
304.677	0.07
304.889	0
305.102	-0.06
305.314	-0.06
305.526	0.02
305.739	0.04
305.951	-0.07
306.163	-0.05
306.375	0.07
306.588	-0.05
306.8	-0.06
307.012	-0.1
307.224	0.03
307.436	0.02
307.649	-0.08
307.861	0
308.073	-0.02
308.285	-0.02
308.497	-0.08
308.709	-0.07
308.921	-0.03
309.133	0.01
309.346	-0.02
309.558	-0.04
309.77	-0.01
309.982	0.05
310.194	0.05
310.406	-0.05
310.617	0.07
310.829	0.03
311.041	0.04
311.253	-0.04
311.465	-0.01
311.677	-0.07
311.889	-0.02
312.101	-0.07
312.313	0.01
312.524	0.03
312.736	-0.05
312.948	-0
313.16	0.03
313.372	0.04
313.583	-0.02
313.795	-0.04
314.007	-0.06
314.218	0
314.43	0.02
314.642	-0.02
314.853	-0.12
315.065	0.03
315.277	-0.02
315.488	-0.01
315.7	0.04
315.912	-0
316.123	-0.02
316.335	0
316.546	0.05
316.758	0
316.969	-0.05
317.181	0.01
317.392	0.01
317.604	0.03
317.815	-0.07
318.026	-0.1
318.238	-0.08
318.449	-0.01
318.661	-0.07
318.872	-0.06
319.083	-0.08
319.295	0.05
319.506	-0.03
319.717	-0
319.929	0.02
320.14	-0.05
320.351	0.01
320.562	-0.06
320.774	-0.03
320.985	-0.01
321.196	-0.05
321.407	-0.08
321.618	0.02
321.829	0
322.041	0.03
322.252	-0
322.463	0
322.674	0.01
322.885	-0.08
323.096	-0.03
323.307	-0.02
323.518	0.02
323.729	-0.06
323.94	-0.04
324.151	-0.03
324.362	0.04
324.573	0.02
324.784	-0.09
324.995	0.04
325.206	-0
325.417	-0.04
325.628	0.01
325.838	-0.01
326.049	-0.01
326.26	0.03
326.471	-0.02
326.682	0
326.892	-0.04
327.103	-0.07
327.314	-0.08
327.525	0.04
327.735	-0.04
327.946	-0.04
328.157	-0.07
328.368	0.01
328.578	-0.06
328.789	-0.02
328.999	-0.04
329.21	0
329.421	-0.01
329.631	-0.06
329.842	-0.05
330.052	-0.04
330.263	0.05
330.473	-0.04
330.684	-0.05
330.894	-0.01
331.105	-0.04
331.315	-0.05
331.526	-0.06
331.736	0.05
331.947	0.03
332.157	0.01
332.367	-0.07
332.578	-0.01
332.788	0.03
332.999	-0.01
333.209	-0.02
333.419	-0.06
333.629	0.01
333.84	-0.01
334.05	-0.04
334.26	0.03
334.47	-0.05
334.681	0.02
334.891	-0.05
335.101	-0
335.311	0.06
335.521	-0.02
335.732	-0.06
335.942	0.08
336.152	0.01
336.362	0.02
336.572	0.01
336.782	0.01
336.992	-0.02
337.202	-0.06
337.412	-0.01
337.622	0.03
337.832	-0.04
338.042	-0.04
338.252	-0.06
338.462	-0.01
338.672	0.03
338.882	-0.01
339.092	-0.09
339.302	0.07
339.511	-0
339.721	-0.05
339.931	-0.06
340.141	0.04
340.351	0.06
340.561	-0.01
340.77	-0.03
340.98	0
341.19	-0.01
341.4	-0.04
341.609	-0.07
341.819	-0.02
342.029	-0.09
342.238	0.01
342.448	-0.03
342.658	-0
342.867	-0.04
343.077	-0.01
343.286	-0.01
343.496	0
343.706	0.08
343.915	-0.06
344.125	-0.06
344.334	-0.02
344.544	-0.07
344.753	-0.03
344.963	-0.04
345.172	-0.03
345.381	-0.05
345.591	-0.06
345.8	-0.02
346.01	-0
346.219	0.02
346.428	-0.17
346.638	-0.05
346.847	-0.03
347.056	0.02
347.266	-0.05
347.475	-0.02
347.684	0.01
347.893	0.01
348.103	-0.01
348.312	-0.03
348.521	-0.03
348.73	-0.03
348.94	-0.01
349.149	-0.02
349.358	-0.04
349.567	-0.05
349.776	-0.08
349.985	-0.07
350.194	0.01
350.403	0.03
350.612	-0.08
350.821	-0.06
351.03	-0.01
351.239	-0.08
351.448	-0
351.657	-0.04
351.866	0.04
352.075	0.01
352.284	-0.04
352.493	-0.08
352.702	0.07
352.911	0.02
353.12	-0.01
353.329	-0.05
353.538	-0.02
353.746	-0.01
353.955	-0.06
354.164	-0.02
354.373	-0.05
354.582	0.02
354.79	-0.02
354.999	0.01
355.208	-0.01
355.416	0.09
355.625	-0.06
355.834	-0.03
356.042	0.02
356.251	-0.03
356.46	-0.05
356.668	0.03
356.877	0.09
357.085	0.02
357.294	-0.09
357.503	-0.01
357.711	0.01
357.92	0.08
358.128	-0.01
358.337	-0.04
358.545	0.01
358.754	-0.05
358.962	0.01
359.17	-0.03
359.379	-0
359.587	-0.01
359.796	-0.05
360.004	0.04
360.212	0
360.421	0.01
360.629	-0.05
360.837	-0
361.046	0.04
361.254	0.1
361.462	-0
361.67	-0.02
361.879	0.01
362.087	0.06
362.295	0
362.503	-0.04
362.711	-0.06
362.92	-0.02
363.128	-0.05
363.336	-0.05
363.544	-0.08
363.752	-0.02
363.96	-0.04
364.168	-0.06
364.376	-0.03
364.584	0.01
364.792	0.05
365	-0.01
365.208	0
365.416	-0.03
365.624	0.03
365.832	-0.05
366.04	0.05
366.248	0.03
366.456	0.02
366.664	-0.01
366.872	0.01
367.079	-0.04
367.287	-0.02
367.495	-0.01
367.703	-0.02
367.911	-0.02
368.118	-0.04
368.326	0
368.534	-0.03
368.742	0.05
368.949	-0.09
369.157	-0.01
369.365	0.02
369.572	-0.05
369.78	-0.04
369.988	0.02
370.195	-0
370.403	0.02
370.61	-0.05
370.818	-0.01
371.026	0.07
371.233	-0.07
371.441	-0.01
371.648	-0.05
371.856	0.04
372.063	-0.01
372.271	-0.06
372.478	-0.02
372.685	-0.05
372.893	0.04
373.1	-0.04
373.308	-0.05
373.515	0.12
373.722	0
373.93	-0.07
374.137	-0.04
374.344	0.08
374.552	0.06
374.759	0.01
374.966	-0.02
375.173	-0.04
375.381	0.05
375.588	-0.01
375.795	-0.06
376.002	-0.04
376.209	-0.05
376.417	-0.04
376.624	0.04
376.831	0.02
377.038	-0.03
377.245	-0.09
377.452	-0.07
377.659	-0.02
377.866	-0.03
378.073	-0.05
378.28	-0.05
378.487	0.02
378.694	0.01
378.901	-0.07
379.108	-0.02
379.315	0.07
379.522	0.03
379.729	-0.02
379.936	-0.03
380.143	0.03
380.35	0.02
380.557	-0.03
380.763	-0.04
380.97	0.03
381.177	-0.03
381.384	0.03
381.591	-0.06
381.797	-0.03
382.004	0.04
382.211	-0.01
382.418	-0.05
382.624	0.02
382.831	0.07
383.038	-0.02
383.244	-0.03
383.451	-0.01
383.658	-0.01
383.864	-0.03
384.071	-0.07
384.277	0.02
384.484	-0.06
384.69	0.02
384.897	-0.07
385.103	-0.02
385.31	-0.04
385.516	-0.02
385.723	-0.06
385.929	-0.03
386.136	-0.05
386.342	-0.03
386.549	-0.04
386.755	0.06
386.961	-0
387.168	-0.03
387.374	-0.03
387.58	-0
387.787	-0.01
387.993	0
388.199	-0.01
388.406	-0.01
388.612	-0.02
388.818	-0.04
389.024	-0.04
389.231	0.01
389.437	0.05
389.643	-0.01
389.849	-0.06
390.055	0.01
390.261	0
390.467	0.02
390.674	-0.04
390.88	-0.04
391.086	0.02
391.292	-0.05
391.498	-0.02
391.704	-0
391.91	0
392.116	-0.02
392.322	-0.08
392.528	-0.01
392.734	-0.06
392.94	-0.03
393.146	-0.04
393.352	0.01
393.557	-0.03
393.763	-0.02
393.969	-0
394.175	-0.04
394.381	-0
394.587	-0.06
394.792	0
394.998	0.02
395.204	0.01
395.41	-0.08
395.615	0.02
395.821	-0
396.027	0.01
396.233	-0.08
396.438	-0.04
396.644	0.04
396.85	0.02
397.055	-0.03
397.261	-0.03
397.466	0.08
397.672	-0.01
397.878	-0
398.083	-0.01
398.289	-0.02
398.494	0.05
398.7	0.04
398.905	-0.05
399.111	0.07
399.316	-0.07
399.522	-0.03
399.727	-0.05
399.932	-0.05
400.138	-0.01
400.343	0.04
400.549	0.02
400.754	0.03
400.959	0.01
401.165	-0.02
401.37	0.02
401.575	0.07
401.78	-0.03
401.986	-0.09
402.191	-0.08
402.396	-0.05
402.601	0
402.807	0.02
403.012	-0.02
403.217	0
403.422	0.01
403.627	0.02
403.832	-0.01
404.037	0.03
404.243	0.02
404.448	0.01
404.653	0.01
404.858	0
405.063	0.03
405.268	-0.02
405.473	-0.06
405.678	-0.04
405.883	0.15
406.088	0.03
406.293	-0.04
406.498	0.02
406.703	0.05
406.907	-0.02
407.112	-0.06
407.317	0.03
407.522	0.03
407.727	-0.05
407.932	0.04
408.136	0.06
408.341	0.03
408.546	0.04
408.751	0.02
408.956	0.01
409.16	0.07
409.365	-0.05
409.57	-0.01
409.774	0.01
409.979	0.04
410.184	0
410.388	-0.04
410.593	0.11
410.798	0.04
411.002	0.02
411.207	0.05
411.411	0.04
411.616	0.01
411.82	0.02
412.025	0.11
412.229	0.02
412.434	0.14
412.638	0.06
412.843	0.06
413.047	0.11
413.252	-0.02
413.456	0.03
413.66	0.11
413.865	0
414.069	0.16
414.273	0.05
414.478	0.06
414.682	0.08
414.886	0.07
415.091	0.04
415.295	-0
415.499	0.12
415.703	0.12
415.908	0.16
416.112	0.02
416.316	0.16
416.52	0.13
416.724	0.07
416.929	0.09
417.133	0.29
417.337	0.12
417.541	0.14
417.745	0.12
417.949	0.22
418.153	0.19
418.357	0.13
418.561	0.28
418.765	0.22
418.969	0.29
419.173	0.22
419.377	0.19
419.581	0.34
419.785	0.18
419.989	0.19
420.193	0.27
420.397	0.17
420.601	0.34
420.804	0.28
421.008	0.32
421.212	0.3
421.416	0.35
421.62	0.22
421.823	0.27
422.027	0.37
422.231	0.33
422.435	0.24
422.638	0.3
422.842	0.27
423.046	0.23
423.249	0.3
423.453	0.35
423.657	0.34
423.86	0.3
424.064	0.32
424.268	0.38
424.471	0.27
424.675	0.39
424.878	0.33
425.082	0.32
425.285	0.35
425.489	0.32
425.692	0.27
425.896	0.25
426.099	0.29
426.303	0.23
426.506	0.19
426.71	0.24
426.913	0.28
427.116	0.29
427.32	0.21
427.523	0.25
427.726	0.34
427.93	0.24
428.133	0.24
428.336	0.2
428.54	0.19
428.743	0.26
428.946	0.23
429.149	0.17
429.353	0.27
429.556	0.21
429.759	0.13
429.962	0.13
430.165	0.17
430.368	0.18
430.571	0.11
430.775	0.14
430.978	0.14
431.181	0.19
431.384	0.11
431.587	0.07
431.79	0.16
431.993	0.11
432.196	0.11
432.399	0.09
432.602	0.17
432.805	0.15
433.008	0.06
433.211	0.09
433.414	0.1
433.616	0.13
433.819	0.09
434.022	-0.02
434.225	0.16
434.428	0.15
434.631	0.17
434.833	0.09
435.036	0.09
435.239	0.15
435.442	0.07
435.645	0.04
435.847	0.08
436.05	0.09
436.253	0.06
436.455	0.03
436.658	0.05
436.861	0.15
437.063	0.05
437.266	0.09
437.468	0.05
437.671	0.15
437.874	0.05
438.076	-0.01
438.279	-0.04
438.481	0.07
438.684	0.02
438.886	0.06
439.089	-0.04
439.291	0.12
439.494	0.06
439.696	0.02
439.899	-0.01
440.101	0.07
440.303	-0.07
440.506	0.07
440.708	0.02
440.91	0.06
441.113	-0.04
441.315	0.07
441.517	-0.06
441.72	0.08
441.922	-0.02
442.124	-0.02
442.326	0.02
442.529	0.08
442.731	-0.01
442.933	0.09
443.135	0.01
443.337	0.01
443.539	0.01
443.742	-0.01
443.944	0.04
444.146	-0.01
444.348	-0.02
444.55	0.02
444.752	-0
444.954	-0.05
445.156	0.01
445.358	-0.03
445.56	0.07
445.762	-0.01
445.964	0.04
446.166	-0.01
446.368	-0.05
446.57	0.07
446.772	-0
446.974	0.01
447.175	-0.04
447.377	-0.03
447.579	-0.02
447.781	-0.11
447.983	0.07
448.184	0.03
448.386	-0.02
448.588	-0.07
448.79	0.01
448.991	-0.05
449.193	-0.02
449.395	0
449.597	0.08
449.798	0.02
450	-0.04
450.202	-0
450.403	0.01
450.605	0.02
450.806	-0
451.008	-0.09
451.21	-0.04
451.411	0.01
451.613	-0.04
451.814	0.01
452.016	0.03
452.217	-0
452.419	0.02
452.62	-0.03
452.821	0
453.023	0.04
453.224	0.05
453.426	-0.02
453.627	-0
453.828	0.04
454.03	0.02
454.231	0.06
454.432	-0.07
454.634	0.07
454.835	-0.05
455.036	-0.06
455.238	0.02
455.439	0.09
455.64	-0.08
455.841	-0.05
456.042	0.1
456.244	0.05
456.445	-0.05
456.646	-0.1
456.847	-0.05
457.048	-0.01
457.249	0.06
457.45	0.18
457.651	-0.05
457.852	0.09
458.054	0
458.255	-0.05
458.456	-0
458.657	-0
458.858	-0.02
459.058	-0.02
459.259	-0
459.46	-0
459.661	-0.09
459.862	0.1
460.063	-0.06
460.264	0.04
460.465	-0.06
460.666	0.03
460.866	-0.02
461.067	-0.03
461.268	-0.06
461.469	-0.08
461.67	-0.04
461.87	-0
462.071	-0.08
462.272	-0.06
462.473	-0.03
462.673	0
462.874	-0.08
463.075	-0.01
463.275	-0.07
463.476	-0.03
463.676	0.01
463.877	-0.05
464.078	-0.04
464.278	0
464.479	-0.05
464.679	-0.01
464.88	-0.04
465.08	0.03
465.281	-0.07
465.481	-0.04
465.682	0.01
465.882	-0
466.083	0
466.283	-0.03
466.483	-0.06
466.684	-0.06
466.884	-0.05
467.085	-0.07
467.285	0.03
467.485	-0.08
467.686	-0.03
467.886	-0.07
468.086	-0.02
468.286	-0.01
468.487	-0.05
468.687	-0.07
468.887	-0.03
469.087	0.04
469.287	-0.09
469.488	-0.11
469.688	-0.02
469.888	0.02
470.088	-0.02
470.288	0.05
470.488	0.02
470.688	-0.04
470.888	-0.04
471.088	-0.03
471.288	-0.01
471.488	0.03
471.688	0.01
471.888	-0.07
472.088	0.05
472.288	0.06
472.488	-0.05
472.688	-0.03
472.888	-0.03
473.088	-0.02
473.288	-0.03
473.488	0
473.688	0.05
473.887	-0.01
474.087	-0.05
474.287	-0.02
474.487	-0.04
474.687	-0
474.886	-0.08
475.086	-0.02
475.286	-0.02
475.486	-0
475.685	-0.02
475.885	-0.02
476.085	0.01
476.284	0.02
476.484	-0.03
476.684	-0.01
476.883	0.04
477.083	0.03
477.282	-0.03
477.482	0.05
477.681	0.01
477.881	0.01
478.08	-0.09
478.28	-0.04
478.479	0.02
478.679	0.05
478.878	-0.02
479.078	-0.02
479.277	-0.02
479.477	-0.02
479.676	0.04
479.875	-0.01
480.075	-0.1
480.274	0.01
480.473	-0.01
480.673	-0.05
480.872	0.03
481.071	0.01
481.271	0
481.47	-0.02
481.669	-0.03
481.868	-0.02
482.067	-0.07
482.267	-0.03
482.466	-0.08
482.665	-0.05
482.864	-0.05
483.063	-0.02
483.262	0.01
483.461	0.04
483.661	0.01
483.86	-0.01
484.059	0
484.258	-0.01
484.457	-0.02
484.656	0.01
484.855	0.03
485.054	-0.08
485.253	-0.04
485.452	-0.07
485.651	-0.01
485.849	-0.03
486.048	-0.03
486.247	-0.02
486.446	-0.01
486.645	-0.05
486.844	-0.03
487.043	-0.04
487.241	0.03
487.44	-0.06
487.639	-0.03
487.838	0
488.037	-0.02
488.235	0.03
488.434	-0.01
488.633	-0.03
488.831	-0.01
489.03	0.01
489.229	-0.02
489.427	-0.04
489.626	0.04
489.825	0.04
490.023	-0
490.222	-0.03
490.42	0.01
490.619	0.04
490.817	0
491.016	-0.02
491.214	0.03
491.413	-0.02
491.611	-0.03
491.81	-0.01
492.008	0.01
492.207	0.01
492.405	0
492.604	-0.06
492.802	-0.02
493	-0.02
493.199	-0.04
493.397	0
493.595	-0.01
493.794	-0.02
493.992	0.01
494.19	-0.04
494.388	-0.01
494.587	-0.02
494.785	-0
494.983	-0.05
495.181	0.01
495.379	-0.02
495.578	-0.02
495.776	-0
495.974	-0
496.172	-0.01
496.37	-0.02
496.568	-0.05
496.766	-0.05
496.964	0.03
497.162	-0
497.36	-0.06
497.558	0
497.756	0
497.954	0
498.152	-0.05
498.35	-0.02
498.548	-0.02
498.746	0.01
498.944	-0.04
499.142	-0.03
499.34	-0.03
499.538	0.01
499.736	-0.04
499.933	0.03
500.131	0.02
500.329	-0.01
500.527	-0.01
500.725	0.02
500.922	0.02
501.12	-0
501.318	0
501.516	-0.06
501.713	-0.01
501.911	-0.03
502.109	-0.04
502.306	0.01
502.504	-0.02
502.701	-0.03
502.899	-0.02
503.097	0.07
503.294	-0
503.492	-0.03
503.689	-0.01
503.887	-0.01
504.084	0.03
504.282	-0
504.479	-0.03
504.677	0.01
504.874	-0.04
505.072	-0.03
505.269	-0.01
505.466	0.01
505.664	0
505.861	-0.04
506.059	-0.01
506.256	0.02
506.453	-0.02
506.651	0.02
506.848	-0.01
507.045	0
507.242	-0
507.44	-0.02
507.637	-0.03
507.834	-0.01
508.031	0.02
508.229	-0.04
508.426	-0.02
508.623	0.01
508.82	-0.03
509.017	-0.03
509.214	-0.04
509.411	-0.01
509.608	-0.05
509.805	-0.01
510.003	-0.03
510.2	-0.01
510.397	0.02
510.594	-0.02
510.791	-0.04
510.988	-0.02
511.184	0.01
511.381	-0.01
511.578	-0.02
511.775	0.02
511.972	-0.01
512.169	-0.01
512.366	-0.02
512.563	-0.01
512.76	-0.06
512.956	0.01
513.153	-0.02
513.35	-0
513.547	-0.03
513.744	-0.05
513.94	-0.05
514.137	0
514.334	-0.01
514.53	0
514.727	0.01
514.924	0.05
515.12	-0.03
515.317	-0.06
515.514	-0.02
515.71	-0.03
515.907	-0.02
516.103	0.02
516.3	0.01
516.497	0.01
516.693	0.03
516.89	-0.01
517.086	-0.05
517.283	0.01
517.479	-0.01
517.676	-0.03
517.872	-0.02
518.068	-0.03
518.265	-0.03
518.461	-0.01
518.658	-0.05
518.854	0.01
519.05	-0.03
519.247	-0.05
519.443	0.02
519.639	-0.01
519.836	-0
520.032	-0
520.228	-0.01
520.424	0.03
520.621	-0.01
520.817	-0.02
521.013	-0
521.209	-0.01
521.405	0.03
521.601	-0.02
521.798	-0.01
521.994	0.06
522.19	-0.02
522.386	-0.04
522.582	-0.02
522.778	-0.01
522.974	-0.02
523.17	-0.01
523.366	0
523.562	0.02
523.758	0
523.954	-0.02
524.15	-0.03
524.346	-0.01
524.542	-0.02
524.738	-0.04
524.934	-0.01
525.129	-0.02
525.325	-0
525.521	-0.03
525.717	-0
525.913	-0.02
526.109	-0.02
526.304	-0
526.5	-0.01
526.696	0.01
526.892	-0.02
527.087	-0.02
527.283	-0.04
527.479	-0.01
527.674	-0.04
527.87	-0.04
528.066	-0.01
528.261	0.01
528.457	-0.02
528.653	-0.01
528.848	-0.03
529.044	0.01
529.239	-0
529.435	0.02
529.63	0
529.826	0.05
530.021	0.02
530.217	0.01
530.412	-0.02
530.608	-0.04
530.803	-0
530.999	-0.03
531.194	-0.08
531.389	0
531.585	-0.07
531.78	-0.02
531.975	-0.01
532.171	0.02
532.366	-0.03
532.561	0
532.757	-0.04
532.952	-0.03
533.147	0.01
533.342	-0.01
533.538	-0.02
533.733	0.02
533.928	-0.01
534.123	-0.03
534.318	-0.04
534.513	-0
534.709	-0.01
534.904	-0.02
535.099	-0.02
535.294	-0
535.489	-0.02
535.684	-0.02
535.879	-0.05
536.074	-0.02
536.269	-0.03
536.464	-0.01
536.659	-0.03
536.854	-0.02
537.049	-0
537.244	-0.01
537.439	-0.01
537.634	0.02
537.828	-0
538.023	-0.01
538.218	-0.04
538.413	-0.02
538.608	-0.03
538.803	0
538.997	-0.04
539.192	0.02
539.387	0.01
539.582	0.01
539.776	-0
539.971	-0.03
540.166	0
540.36	-0.04
540.555	-0.01
540.75	-0.03
540.944	-0.01
541.139	-0.04
541.334	-0.04
541.528	0
541.723	0.02
541.917	-0.04
542.112	-0.05
542.306	-0.02
542.501	-0.03
542.695	-0.02
542.89	-0.04
543.084	-0.02
543.279	-0.03
543.473	-0.04
543.668	-0.01
543.862	-0.01
544.056	0.01
544.251	-0.01
544.445	-0.02
544.64	-0.02
544.834	-0.05
545.028	-0.01
545.222	-0.03
545.417	0.02
545.611	-0.01
545.805	-0.01
546	-0.01
546.194	-0.01
546.388	-0.01
546.582	0.01
546.776	-0.01
546.97	-0
547.165	0
547.359	-0.01
547.553	-0.05
547.747	-0
547.941	-0
548.135	-0.02
548.329	0
548.523	-0.01
548.717	-0.02
548.911	-0.03
549.105	-0.03
549.299	-0.01
549.493	0.02
549.687	-0.01
549.881	0.01
550.075	-0.01
550.269	-0.05
550.463	0
550.657	-0.02
550.85	-0.01
551.044	-0.02
551.238	-0
551.432	-0.02
551.626	-0.02
551.82	-0
552.013	-0.05
552.207	-0.03
552.401	0.01
552.594	0
552.788	-0.03
552.982	-0.02
553.176	-0.05
553.369	-0.01
553.563	-0.02
553.756	-0.04
553.95	-0.05
554.144	-0.01
554.337	0.01
554.531	0
554.724	0
554.918	-0
555.111	0.01
555.305	-0
555.498	0.04
555.692	0.01
555.885	-0.04
556.079	0.01
556.272	-0.03
556.466	-0.02
556.659	0.01
556.852	-0.01
557.046	-0.03
557.239	0
557.432	-0.04
557.626	-0.04
557.819	-0.01
558.012	0
558.206	-0.01
558.399	-0
558.592	0.01
558.785	-0.01
558.979	-0
559.172	-0
559.365	-0.02
559.558	-0.01
559.751	-0.03
559.944	-0.01
560.138	-0.04
560.331	-0.03
560.524	-0.04
560.717	-0.02
560.91	0.01
561.103	-0
561.296	-0
561.489	0.01
561.682	0.01
561.875	0.01
562.068	0.02
562.261	-0
562.454	0.04
562.647	0
562.84	-0.01
563.032	-0.02
563.225	-0.01
563.418	-0.01
563.611	-0.03
563.804	-0.01
563.997	-0.03
564.19	-0.03
564.382	-0.02
564.575	-0.02
564.768	-0.04
564.961	-0.01
565.153	-0.03
565.346	-0.01
565.539	0.01
565.731	0.01
565.924	0.02
566.117	-0
566.309	0.01
566.502	-0.02
566.695	0
566.887	-0
567.08	-0.02
567.272	-0.04
567.465	-0.02
567.657	0.01
567.85	0
568.042	0
568.235	0.01
568.427	-0.01
568.62	0
568.812	0
569.005	-0.01
569.197	-0.05
569.389	0
569.582	0
569.774	0.01
569.966	-0.03
570.159	-0.05
570.351	-0.02
570.543	-0.04
570.736	-0.01
570.928	-0.05
571.12	-0.03
571.312	-0.02
571.505	-0.05
571.697	0.01
571.889	-0.04
572.081	-0.02
572.273	-0.04
572.465	0.04
572.658	-0.02
572.85	-0.01
573.042	-0.01
573.234	-0.03
573.426	0.04
573.618	-0.05
573.81	-0
574.002	0.02
574.194	-0
574.386	-0.05
574.578	-0.07
574.77	-0.04
574.962	-0.03
575.154	-0.06
575.346	-0.03
575.538	0.01
575.729	-0.02
575.921	-0.03
576.113	-0.02
576.305	-0
576.497	-0.01
576.689	-0.03
576.88	-0.04
577.072	0.02
577.264	-0.03
577.456	-0.02
577.647	-0.1
577.839	0
578.031	0.04
578.223	-0.05
578.414	-0.04
578.606	-0.01
578.798	-0.02
578.989	-0.04
579.181	-0.02
579.372	-0.02
579.564	-0.02
579.755	-0.01
579.947	-0.02
580.139	0.01
580.33	-0.05
580.522	-0.04
580.713	-0.1
580.905	-0.02
581.096	0.01
581.287	-0.04
581.479	0
581.67	0.01
581.862	-0
582.053	-0.04
582.244	-0.06
582.436	-0.03
582.627	-0.02
582.818	-0.04
583.01	-0.07
583.201	0.01
583.392	0.01
583.583	-0.02
583.775	-0.04
583.966	-0.04
584.157	-0.04
584.348	-0.03
584.54	-0.05
584.731	-0.01
584.922	-0.02
585.113	-0.04
585.304	-0
585.495	-0
585.686	-0.01
585.877	-0.01
586.068	-0.02
586.259	0
586.45	-0
586.641	-0.06
586.832	-0.07
587.023	0.01
587.214	-0.03
587.405	-0.02
587.596	-0.06
587.787	0.02
587.978	0
588.169	-0.05
588.36	-0.04
588.551	-0.02
588.742	-0.03
588.932	-0.03
589.123	-0.01
589.314	0
589.505	-0
589.696	-0.02
589.886	-0.03
590.077	-0.07
590.268	-0.02
590.458	-0.03
590.649	-0.05
590.84	0.01
591.03	-0.04
591.221	-0.03
591.412	-0.05
591.602	-0
591.793	0.01
591.984	-0.05
592.174	-0.03
592.365	0.05
592.555	-0.03
592.746	0.01
592.936	-0
593.127	0
593.317	0.02
593.508	-0.06
593.698	-0.04
593.889	0
594.079	0
594.269	-0.05
594.46	-0.02
594.65	-0.02
594.84	0.02
595.031	-0.06
595.221	-0.04
595.411	-0.04
595.602	0
595.792	-0.01
595.982	-0.04
596.172	0.05
596.363	-0
596.553	-0.03
596.743	-0.02
596.933	-0.02
597.123	0.04
597.314	-0.03
597.504	-0.06
597.694	0.02
597.884	0.01
598.074	-0.03
598.264	-0.05
598.454	-0
598.644	-0.01
598.834	-0.04
599.024	-0.1
599.214	-0.04
599.404	0.01
599.594	-0.01
599.784	-0.05
599.974	0.03
600.164	0.01
600.354	-0.04
600.544	-0.07
600.734	-0.02
600.924	-0.01
601.114	-0.05
601.303	-0.01
601.493	0
601.683	-0.03
601.873	-0
602.063	-0.07
602.252	0.04
602.442	-0.07
602.632	-0.05
602.821	-0.07
603.011	0.01
603.201	-0.03
603.39	-0.04
603.58	-0.03
603.77	-0
603.959	0.03
604.149	-0.03
604.339	-0.05
604.528	0.02
604.718	0.01
604.907	-0.03
605.097	-0.04
605.286	-0.03
605.476	-0.02
605.665	0.02
605.855	-0.03
606.044	-0
606.234	0.02
606.423	-0.01
606.612	-0.07
606.802	-0.02
606.991	-0.03
607.181	-0.02
607.37	-0.06
607.559	0
607.749	-0.06
607.938	-0.03
608.127	-0.04
608.316	-0.04
608.506	-0.01
608.695	-0.02
608.884	-0.04
609.073	-0.01
609.263	0.02
609.452	0.01
609.641	0.01
609.83	-0.05
610.019	-0.01
610.208	-0.05
610.397	-0.02
610.586	0.01
610.775	-0.04
610.965	-0.04
611.154	-0.07
611.343	-0.03
611.532	-0.03
611.721	-0.06
611.91	-0.06
612.099	-0.01
612.287	-0.02
612.476	-0.07
612.665	-0.02
612.854	-0.03
613.043	0.04
613.232	-0.04
613.421	-0.06
613.61	-0.01
613.798	-0.05
613.987	0
614.176	-0.03
614.365	0
614.554	-0
614.742	0.01
614.931	-0.04
615.12	0.03
615.309	-0.02
615.497	-0.03
615.686	-0.08
615.875	-0.03
616.063	-0.01
616.252	-0.04
616.44	-0.06
616.629	-0.02
616.818	-0.01
617.006	-0.02
617.195	-0.04
617.383	-0.01
617.572	-0.02
617.76	-0.06
617.949	-0.09
618.137	0
618.326	0.01
618.514	-0.03
618.703	-0.05
618.891	0.03
619.079	-0.08
619.268	-0.01
619.456	-0.07
619.644	0
619.833	-0.02
620.021	-0.02
620.209	-0.08
620.398	-0.02
620.586	0.01
620.774	-0.01
620.962	-0.02
621.151	0.02
621.339	-0.02
621.527	-0.06
621.715	-0.06
621.903	-0.06
622.092	-0.05
622.28	-0
622.468	-0.05
622.656	-0.04
622.844	0.01
623.032	-0.06
623.22	-0.07
623.408	0.02
623.596	-0.01
623.784	-0.01
623.972	-0.06
624.16	-0.06
624.348	0.05
624.536	-0.03
624.724	-0.04
624.912	0
625.1	-0.01
625.288	-0.05
625.476	-0.04
625.664	0.01
625.851	-0.05
626.039	-0.03
626.227	-0.01
626.415	-0.03
626.603	-0.07
626.79	-0.01
626.978	-0.07
627.166	-0
627.354	-0.04
627.541	-0.04
627.729	-0.09
627.917	0.02
628.104	-0.01
628.292	0.01
628.48	-0.03
628.667	-0.04
628.855	-0.02
629.042	-0.02
629.23	-0.05
629.418	-0.05
629.605	-0.05
629.793	-0.07
629.98	-0.09
630.168	-0.02
630.355	-0.04
630.543	0
630.73	-0.05
630.917	0.03
631.105	0.05
631.292	-0.06
631.48	-0.03
631.667	0.05
631.854	-0.01
632.042	-0.05
632.229	-0.06
632.416	-0.03
632.604	-0.02
632.791	-0.08
632.978	-0
633.165	0.01
633.353	0.03
633.54	-0.01
633.727	-0.07
633.914	-0.04
634.101	-0
634.289	0.04
634.476	-0.08
634.663	-0.08
634.85	-0.02
635.037	-0.07
635.224	-0.08
635.411	0.01
635.598	0.03
635.785	0
635.972	-0.02
636.159	0.01
636.346	-0.05
636.533	-0.01
636.72	-0.03
636.907	-0.04
637.094	0.01
637.281	-0.06
637.468	-0
637.655	-0.03
637.842	-0.05
638.029	-0.01
638.215	0.01
638.402	0
638.589	-0.07
638.776	-0.02
638.963	-0.04
639.149	0.01
639.336	0.06
639.523	-0.03
639.709	-0.03
639.896	-0.06
640.083	0.05
640.27	-0
640.456	-0.02
640.643	0
640.829	-0.07
641.016	-0
641.203	-0.09
641.389	0.01
641.576	0.01
641.762	-0.04
641.949	-0.08
642.135	0.01
642.322	-0.01
642.508	-0.06
642.695	-0.05
642.881	-0.04
643.068	-0.02
643.254	-0.01
643.441	0.02
643.627	-0.01
643.813	-0.07
644	0.02
644.186	-0.05
644.372	0.01
644.559	0.03
644.745	-0.01
644.931	-0.07
645.118	-0.02
645.304	-0.02
645.49	-0.06
645.676	-0.05
645.862	-0
646.049	0.04
646.235	-0.03
646.421	0.07
646.607	0.06
646.793	-0.05
646.979	-0.07
647.165	0.01
647.352	-0.02
647.538	0.03
647.724	-0.03
647.91	-0.04
648.096	0.02
648.282	-0.01
648.468	-0.02
648.654	-0.02
648.84	-0
649.026	-0.02
649.212	-0.03
649.397	-0.05
649.583	-0.05
649.769	0
649.955	0
650.141	-0.01
650.327	0.04
650.513	-0.01
650.698	0.01
650.884	-0.08
651.07	-0.01
651.256	0.01
651.442	-0.04
651.627	-0.05
651.813	-0.03
651.999	0.02
652.184	-0.02
652.37	-0.04
652.556	-0.04
652.741	0.04
652.927	-0.1
653.113	-0.05
653.298	0.01
653.484	-0.04
653.669	-0.07
653.855	-0.01
654.04	-0
654.226	0.01
654.412	-0.04
654.597	-0.07
654.782	-0.03
654.968	0.01
655.153	-0.02
655.339	-0.06
655.524	-0.06
655.71	0
655.895	-0.04
656.08	-0.03
656.266	0.04
656.451	0.01
656.636	-0.04
656.822	-0.01
657.007	-0.06
657.192	-0.03
657.378	-0.08
657.563	-0.04
657.748	-0.03
657.933	-0
658.118	-0.07
658.304	-0.04
658.489	-0.01
658.674	-0.05
658.859	-0.06
659.044	-0.03
659.229	-0.01
659.414	-0.05
659.599	-0.01
659.785	-0.1
659.97	-0.04
660.155	0.02
660.34	-0.05
660.525	-0.04
660.71	-0.05
660.895	-0.01
661.08	-0.03
661.264	-0.06
661.449	0.02
661.634	0.04
661.819	-0.02
662.004	-0.04
662.189	-0.09
662.374	-0.02
662.559	-0.09
662.743	-0.11
662.928	-0.07
663.113	-0.01
663.298	-0.06
663.483	-0.05
663.667	-0.03
663.852	-0.08
664.037	-0.01
664.221	-0.04
664.406	0.02
664.591	-0.01
664.775	-0.04
664.96	-0.08
665.145	-0.03
665.329	0.01
665.514	-0.06
665.698	-0.01
665.883	-0.12
666.068	0.05
666.252	-0.01
666.437	-0.1
666.621	-0.03
666.806	0.02
666.99	-0.04
667.174	-0.05
667.359	0.01
667.543	-0.06
667.728	-0.02
667.912	-0.11
668.096	0.01
668.281	-0.03
668.465	-0.04
668.649	0.01
668.834	-0.06
669.018	-0.05
669.202	-0.06
669.387	-0.07
669.571	0
669.755	-0.06
669.939	-0.03
670.124	-0.04
670.308	0.02
670.492	0.01
670.676	-0.01
670.86	-0.05
671.044	-0.07
671.228	0.03
671.413	-0.07
671.597	-0.08
671.781	-0.07
671.965	-0
672.149	-0.01
672.333	-0.05
672.517	-0.02
672.701	0.01
672.885	-0.02
673.069	-0.11
673.253	0.03
673.437	-0.04
673.621	-0.05
673.804	-0.08
673.988	-0.04
674.172	-0.02
674.356	-0.06
674.54	-0.03
674.724	0.1
674.908	-0.01
675.091	-0.03
675.275	-0.04
675.459	-0.02
675.643	0.06
675.826	-0.03
676.01	-0.04
676.194	0
676.377	0.02
676.561	0.02
676.745	-0.03
676.928	-0.04
677.112	0.01
677.296	-0.02
677.479	-0.06
677.663	-0.05
677.846	-0.01
678.03	-0.04
678.213	-0.01
678.397	-0.01
678.58	0.02
678.764	-0.08
678.947	-0.06
679.131	-0.05
679.314	0.02
679.498	-0.04
679.681	-0.07
679.865	0.03
680.048	-0.04
680.231	-0.08
680.415	-0.02
680.598	-0.08
680.781	-0.04
680.965	-0.07
681.148	0.02
681.331	-0.05
681.514	0.03
681.698	-0.06
681.881	-0.01
682.064	-0.03
682.247	0.03
682.43	-0.08
682.614	0
682.797	0.01
682.98	-0.01
683.163	-0.09
683.346	0.01
683.529	-0.05
683.712	-0.04
683.895	-0.02
684.078	-0.07
684.261	0.01
684.444	-0.01
684.627	-0.03
684.81	-0.03
684.993	-0.01
685.176	0
685.359	-0.09
685.542	-0.06
685.725	0.02
685.908	-0.07
686.091	-0.04
686.274	-0
686.457	0
686.639	-0.01
686.822	-0.02
687.005	-0.02
687.188	-0.03
687.371	0.03
687.553	0.01
687.736	-0
687.919	0.09
688.102	0.02
688.284	-0.07
688.467	-0.04
688.65	-0.04
688.832	-0.12
689.015	-0.04
689.197	-0.08
689.38	0.05
689.563	0.1
689.745	-0.08
689.928	-0.05
690.11	0.02
690.293	-0.01
690.475	-0.11
690.658	-0.01
690.84	-0.06
691.023	-0.08
691.205	-0.06
691.388	-0.07
691.57	0.01
691.752	0.01
691.935	-0.09
692.117	-0.03
692.3	0.02
692.482	-0.02
692.664	-0.03
692.847	0.03
693.029	0.03
693.211	-0
693.393	-0.05
693.576	-0.06
693.758	-0.05
693.94	-0.07
694.122	-0.07
694.304	-0.04
694.487	-0.1
694.669	0.07
694.851	-0.09
695.033	-0.02
695.215	-0.05
695.397	-0.04
695.579	0.02
695.761	-0.09
695.943	-0.08
696.125	0.07
696.308	-0.01
696.49	-0.06
696.671	0.08
696.853	-0.01
697.035	0.1
697.217	-0.08
697.399	-0
697.581	-0.07
697.763	-0.05
697.945	-0.1
698.127	-0.06
698.309	0.09
698.491	-0
698.672	-0.03
698.854	0.05
699.036	0.04
699.218	-0.08
699.399	-0.01
699.581	-0
699.763	-0.04
699.945	-0.05
700.126	-0.09
700.308	-0.03
700.49	-0.07
700.671	-0.16
700.853	-0.06
701.035	-0.06
701.216	-0.09
701.398	-0.09
701.579	-0.11
701.761	-0.01
701.943	-0.11
702.124	-0.08
702.306	-0.08
702.487	0.12
702.669	-0.04
702.85	-0.04
703.031	-0.15
703.213	0.09
703.394	-0.01
703.576	-0.09
703.757	0.08
703.938	-0.02
704.12	0.16
704.301	-0.08
704.483	-0.07
704.664	-0.03
704.845	0.06
705.026	-0.02
705.208	-0.06
705.389	-0
705.57	0.02
705.751	-0.06
705.933	-0.06
706.114	0.02
706.295	0.01
706.476	-0.09
706.657	0.07
706.838	0.05
707.02	0.03
707.201	-0.08
707.382	-0.07
707.563	0
707.744	-0.05
707.925	-0.1
708.106	-0.08
708.287	-0.03
708.468	0.04
708.649	-0.01
708.83	-0.03
709.011	-0.06
709.192	0.03
709.373	-0.12
709.554	-0.04
709.734	-0.03
709.915	-0.01
710.096	-0.03
710.277	-0.12
710.458	-0.03
710.639	-0.03
710.819	-0.1
711	-0.1
711.181	0.02
711.362	0.04
711.542	-0.02
711.723	-0.08
711.904	0.06
712.085	-0.04
712.265	0
712.446	-0.08
712.627	-0.1
712.807	-0.04
712.988	-0.05
713.168	-0.11
713.349	-0
713.53	-0.16
713.71	-0.04
713.891	-0.13
714.071	-0.05
714.252	-0.1
714.432	-0.11
714.613	-0.14
714.793	-0.01
714.974	0.01
715.154	0.05
715.334	-0.03
715.515	0.01
715.695	-0.08
715.876	-0.08
716.056	-0.09
716.236	-0.05
716.417	-0.01
716.597	-0.11
716.777	0.08
716.957	-0.07
717.138	-0.03
717.318	-0
717.498	-0.1
717.678	-0.01
717.859	-0
718.039	-0.14
718.219	-0.06
718.399	0.01
718.579	-0.05
718.759	-0.13
718.939	0.04
719.12	-0.01
719.3	-0.03
719.48	-0.17
719.66	-0.19
719.84	0.1
720.02	-0.08
720.2	-0.07
720.38	-0.09
720.56	0.12
720.74	-0.05
720.92	0.01
721.1	0.08
721.279	0.03
721.459	-0.01
721.639	-0.12
721.819	0.03
721.999	-0.07
722.179	-0.01
722.359	-0.12
722.538	-0.02
722.718	0.03
722.898	-0.01
723.078	-0.04
723.257	-0.05
723.437	0.01
723.617	0.02
723.797	-0.05
723.976	-0.1
724.156	-0.09
724.336	0.05
724.515	0.05
724.695	-0.14
724.874	-0.07
725.054	0.04
725.234	-0.18
725.413	-0.1
725.593	0.03
725.772	0.01
725.952	-0.04
726.131	-0.07
726.311	-0.1
726.49	-0.05
726.67	-0.09
726.849	-0.13
727.028	0.03
727.208	-0.05
727.387	-0.03
727.567	-0.17
727.746	-0.05
727.925	-0.1
728.105	-0.14
728.284	-0.01
728.463	-0.26
728.643	-0.05
728.822	-0.11
729.001	-0.13
729.18	-0.09
729.359	0.05
729.539	-0.09
729.718	-0.05
729.897	0.01
730.076	-0.06
730.255	-0.14
730.434	-0.05
730.614	0.1
730.793	0.08
730.972	-0.11
731.151	-0.01
731.33	0.05
731.509	0.03
731.688	-0.01
731.867	-0.05
732.046	-0.21
732.225	0.18
732.404	-0.06
732.583	-0.11
732.762	-0.03
732.941	0.05
733.12	-0.02
733.298	-0.09
733.477	0.04
733.656	-0.09
733.835	-0.17
734.014	0.05
734.193	-0.02
734.371	0.03
734.55	0.01
734.729	-0.22
734.908	-0.02
735.086	-0.11
735.265	0.06
735.444	-0.22
735.623	-0.05
735.801	-0.1
735.98	-0.06
736.159	-0.17
736.337	0.02
736.516	0.01
736.694	-0.14
736.873	-0.04
737.052	0.12
737.23	0.11
737.409	-0.05
737.587	0.19
737.766	-0.23
737.944	-0.1
738.123	0.04
738.301	0.03
738.479	-0.09
738.658	-0.03
738.836	-0.28
739.015	0
739.193	0.09
739.371	-0.21
739.55	-0.13
739.728	-0.16
739.906	-0.02
740.085	0.06
740.263	-0
740.441	-0.21
740.62	-0.01
740.798	0
740.976	-0.21
741.154	-0.1
741.332	0.07
741.511	-0.07
741.689	-0.01
741.867	0.12
742.045	-0.1
742.223	-0.19
742.401	-0.17
742.579	-0.25
742.757	0.03
742.935	-0.18
743.114	-0.12
743.292	-0.11
743.47	-0.05
743.648	-0.05
743.826	-0.08
744.004	-0.01
744.181	0.09
744.359	-0.05
744.537	-0.02
744.715	-0.08
744.893	-0.05
745.071	-0.08
745.249	-0.06
745.427	-0.19
745.605	0.07
745.782	-0
745.96	0.05
746.138	0.04
746.316	0.02
746.493	0
746.671	-0.06
746.849	-0.1
747.027	0.1
747.204	-0.08
747.382	-0.02
747.56	-0.23
747.737	0.03
747.915	-0.04
748.093	0.02
748.27	-0.14
748.448	-0.14
748.625	-0.17
748.803	-0.04
748.98	-0.22
749.158	0.03
749.335	0.06
749.513	-0.07
749.69	-0.09
749.868	-0.03
750.045	0.08
750.223	-0.1
750.4	-0.3
750.578	0.19
750.755	-0.09
750.932	-0.29
751.11	0.15
751.287	-0.3
751.464	0.11
751.642	-0.12
751.819	-0.01
751.996	0.01
752.173	-0.05
752.351	-0.21
752.528	-0.06
752.705	0.04
752.882	-0.07
753.06	0.07
753.237	-0.04
753.414	0.09
753.591	0.14
753.768	-0.02
753.945	-0.09
754.122	-0.11
754.299	0.15
754.476	-0.1
754.654	-0.03
754.831	-0.06
755.008	-0.01
755.185	-0.19
755.362	-0.11
755.539	-0.02
755.716	-0.06
755.892	-0.11
756.069	-0.14
756.246	-0.06
756.423	-0.01
756.6	0.21
756.777	-0.15
756.954	0.05
757.131	-0.24
757.307	-0.16
757.484	-0.12
757.661	0.04
757.838	-0.04
758.015	-0.07
758.191	0.04
758.368	-0.07
758.545	0.22
758.721	0.01
758.898	-0.26
759.075	-0.06
759.251	0.03
759.428	0.05
759.605	-0.26
759.781	-0.18
759.958	0.01
760.134	0.09
760.311	-0.14
760.488	0.08
760.664	0.13
760.841	0
761.017	-0.2
761.194	-0.03
761.37	-0.08
761.547	-0.02
761.723	-0.07
761.899	0.03
762.076	-0.15
762.252	-0.11
762.429	-0.14
762.605	-0.06
762.781	-0.04
762.958	0.04
763.134	-0.11
763.31	-0.17
763.486	0.12
763.663	-0.18
763.839	-0.1
764.015	-0.3
764.191	-0.07
764.368	-0.01
764.544	-0.14
764.72	-0.04
764.896	0.01
765.072	-0.07
765.248	-0.12
765.425	-0.09
765.601	-0.03
765.777	0.06
765.953	-0.25
766.129	-0.21
766.305	-0.11
766.481	0.06
766.657	-0.06
766.833	0.07
767.009	-0.18
767.185	-0.1
767.361	-0.12
767.537	-0.23
767.713	0.08
767.889	-0.16
768.065	-0.02
768.24	-0.07
768.416	0.04
768.592	-0.19
768.768	0.01
768.944	0.05
769.12	-0.11
769.295	-0.15
769.471	-0.08
769.647	-0.11
769.823	0.04
769.998	-0.17
770.174	-0.13
770.35	0.32
770.525	0.22
770.701	-0.26
770.877	-0.12
771.052	-0.08
771.228	0.25
771.403	-0.05
771.579	-0.03
771.755	0.17
771.93	-0.27
772.106	-0.12
772.281	-0.26
772.457	-0.03
772.632	0.05
772.808	-0.25
772.983	-0.07
773.159	-0.24
773.334	-0.02
773.509	-0.12
773.685	-0.17
773.86	0.3
774.036	0.09
774.211	0.03
774.386	-0.15
774.562	0.01
774.737	-0.05
774.912	-0.15
775.087	0.12
775.263	0.1
775.438	-0.05
775.613	-0.16
775.788	-0.09
775.964	-0.05
776.139	0.32
776.314	-0.24
776.489	0.08
776.664	-0.04
776.839	-0.21
777.014	-0
777.19	0.09
777.365	0.21
777.54	0.1
777.715	-0.16
777.89	-0.12
778.065	-0.19
778.24	-0.1
778.415	-0.05
778.59	-0.27
778.765	-0.21
778.94	-0.04
779.115	-0.03
779.289	-0.13
779.464	0.05
779.639	-0.11
779.814	-0.34
779.989	-0.34
780.164	0.04
780.339	0.04
780.513	-0.16
780.688	-0.24
780.863	-0.19
781.038	0.07
781.212	-0.33
781.387	-0.14
781.562	0.18
781.737	0.05
781.911	0.15
782.086	-0.28
782.261	-0.12
782.435	0.19
782.61	-0.23
782.784	-0.22
782.959	0.26
783.134	-0.13
783.308	-0.21
783.483	-0.26
783.657	0.33
783.832	-0.06
784.006	-0.5
784.181	-0
784.355	0.19
784.53	-0.29
784.704	-0.33
784.878	-0
785.053	-0.02
785.227	0.03
785.402	0.14
785.576	-0.51
785.75	-0.1
785.925	-0.27
786.099	-0.14
786.273	-0.06
786.448	0.05
786.622	-0.01
786.796	-0.05
786.97	-0.15
787.145	0.24
787.319	-0.32
787.493	-0.26
787.667	-0.45
787.841	0.06
788.015	0.24
788.19	-0.13
788.364	-0.08
788.538	0.29
788.712	0.05
788.886	-0.15
789.06	-0.03
789.234	0.1
789.408	-0.42
789.582	-0.21
789.756	0.04
789.93	-0.14
790.104	-0.14
790.278	-0.1
790.452	-0.29
790.626	0.08
790.8	-0.12
790.973	0
791.147	-0.07
791.321	0.24
791.495	0.01
791.669	-0.01
791.843	0.11
792.016	-0.2
792.19	0.31
792.364	-0.31
792.538	0.43
792.711	0.29
792.885	-0.14
793.059	-0.43
793.233	-0.68
793.406	0.07
793.58	0.04
793.754	-0.09
793.927	-0.21
794.101	0.17
794.274	-0.05
794.448	0.18
794.622	-0.42
794.795	0.22
794.969	-0.31
795.142	0.2
795.316	-0.07
795.489	-0.32
795.663	0.27
795.836	-0.01
796.009	-0.46
796.183	0.24
796.356	0.18
796.53	-0.04
796.703	0.06
796.876	0.48
797.05	-0.31
797.223	-0.06
797.396	-0.05
797.57	-0.21
797.743	0.33
797.916	0.04
798.09	-0.15
798.263	0.16
798.436	-0.25
798.609	-0.05
798.782	-0.05
798.956	0.2
799.129	-0.15
799.302	-0.21
799.475	-0.34
799.648	-0.31
799.821	-0.16
799.994	-0.18
800.167	-0.6
800.34	-0.15
800.514	-0.31
800.687	-0.21
800.86	-0.47
801.033	-0.37
801.206	-0.14
801.379	-0.23
801.551	0.06
801.724	0.01
801.897	0.17
802.07	-0.16
802.243	-0.48
802.416	-0.19
802.589	-0.42
802.762	0.06
802.935	-0.13
803.107	0.17
803.28	0.22
803.453	0.18
803.626	-0.44
803.798	-0.1
803.971	-0.36
804.144	0.17
804.317	0.14
804.489	0.17
804.662	0.06
804.835	-0.35
805.007	-0.43
805.18	0.3
805.353	-0.09
805.525	-0.37
805.698	-0.27
805.87	0.2
806.043	0.11
806.215	-0.36
806.388	-0.22
806.56	0.08
806.733	0.35
806.905	-0.19
807.078	-0.48
807.25	-0.39
807.423	-0.01
807.595	-0.22
807.768	-0.23
807.94	-0.08
808.112	-0.05
808.285	-0.02
808.457	-0.39
808.629	0.01
808.802	-0.34
808.974	-0.25
809.146	-0.11
809.318	-0.58
809.491	0.17
809.663	0.41
809.835	-0.41
810.007	-0.14
810.18	-0.32
810.352	-0.42
810.524	-0.17
810.696	0.32
810.868	0.5
811.04	-0.14
811.212	-0.15
811.384	0.03
811.556	-0.03
811.728	-0.12
811.901	0.72
812.073	-0.16
812.245	0.2
812.417	0.05
812.589	-0.74
812.76	-0.21
812.932	0.1
813.104	0.26
813.276	-0.38
813.448	0.33
813.62	-0.22
813.792	-0.24
813.964	-0.24
814.136	0.14
814.307	-0.2
814.479	-0.21
814.651	-0.57
814.823	0.48
814.995	-0.36
815.166	0.03
815.338	-0.53
815.51	-0.4
815.681	0.57
815.853	-0.13
816.025	-0.51
816.196	0.24
816.368	0.21
816.54	-0.76
816.711	-0.51
816.883	0.41
817.054	0.64
817.226	-0.44
817.398	-0.21
817.569	-0.32
817.741	-0.27
817.912	-0.11
818.084	-0.2
818.255	0.57
818.426	-0.6
818.598	-0.27
818.769	-0.36
818.941	0.43
819.112	0.32
819.283	0.1
819.455	-0.36
819.626	-0.21
819.798	0.37
819.969	0.23
820.14	-0.35
820.311	-0.14
820.483	-0.28
820.654	-0.35
820.825	0.33
820.996	-0.39
821.168	-0.63
821.339	-0.39
821.51	-0.65
821.681	-0.18
821.852	-0.28
822.023	-0.38
822.195	-0.84
822.366	0.64
822.537	-0.38
822.708	-0.36
822.879	-0.26
823.05	0.42
823.221	-0.53
823.392	0.05
823.563	0.22
823.734	-0.7
823.905	-0.02
824.076	-0.6
824.247	-0.54
824.418	-0.48
824.589	-0.06
824.759	-0.46
824.93	-0.38
825.101	-0.48
825.272	0.19
825.443	0.49
825.614	0.25
825.784	-1.08
825.955	0.83
826.126	0.32
826.297	0.12
826.467	0.4
826.638	0.93
826.809	-0.04
826.98	-0.25
827.15	-0.16
827.321	-0.15
827.492	0.72
827.662	0.22
827.833	1.24
828.003	-0.18
828.174	-0.88
828.345	-0.68
828.515	0.17
828.686	-0.07
828.856	-0.42
829.027	-0.16
829.197	-0.86
829.368	0.28
829.538	-0.54
829.709	-0.51
829.879	-0.57
830.049	-0.01
830.22	-0.54
830.39	-0.5
830.56	0.43
830.731	-0.28
830.901	-0.78
831.072	0.02
831.242	-0.42
831.412	-0.37
831.582	-0.56
831.753	-0.92
831.923	0.09
832.093	-0.3
832.263	-0.18
832.434	-0.92
832.604	-0.74
832.774	0.18
832.944	-0.43
833.114	-0.36
833.284	-0.4
833.454	-0.54
833.624	-0.2
833.795	-0.68
833.965	0.61
834.135	0.58
834.305	-1.36
834.475	-1.23
834.645	-0.39
834.815	-0.12
834.985	-0.41
835.155	-0.59
835.325	0.58
835.494	0.36
835.664	-0.86
835.834	-1.29
836.004	-0.14
836.174	-0.83
836.344	-0.55
836.514	-1.48
836.684	-0.35
836.853	-0.2
837.023	-0.12
837.193	-0.09
837.363	0.56
837.532	0.21
837.702	-0.27
837.872	-0.86
838.041	0.14
838.211	1.09
838.381	-1.12
838.55	-0.22
838.72	1.73
838.89	1.39
839.059	-0.91
839.229	-0.63
839.398	1.83
839.568	0.73
839.738	-0.27
839.907	0.81
840.077	-0.18
840.246	-0.94
840.416	-0.99
840.585	-0.54
840.755	1.09
840.924	0.47
841.093	-0.68
841.263	-0.38
841.432	0.18
841.602	-1.01
841.771	-1.03
841.94	-0.41
842.11	1.48
842.279	0.76
842.448	-2.04
842.617	-0.82
842.787	1.3
842.956	-1.23
843.125	-0.28
843.294	-0.31
843.464	0.54
843.633	-0.52
843.802	-1.39
843.971	-0.4
844.14	0.82
844.309	0.67
844.479	-2.41
844.648	-0.89
844.817	-0.13
844.986	-0.24
845.155	-1.08
845.324	-0.93
845.493	0.13
845.662	-0.78
845.831	-0.35
846	-0.39
846.169	-1.11
846.338	0.69
846.507	-0.82
846.676	-0.4
846.844	-1.09
847.013	0.46
847.182	-0.27
847.351	-1.19
847.52	-0.51
847.689	-0.09
847.858	-0.01
848.026	-0.78
848.195	-0.47
848.364	-0.16
848.533	-0.2
848.701	-1.07
848.87	0.27
849.039	0.91
849.207	0.84
849.376	0.79
849.545	0.82
849.713	-1.71
849.882	-0.54
850.051	-0.1
850.219	-0.22
850.388	0.74
850.556	-1
850.725	-0.54
850.893	-0.68
851.062	-0.86
851.23	-0.24
851.399	-0.72
851.567	-0.8
851.736	-0.84
851.904	-1.83
852.073	-0.34
852.241	0.67
852.41	-0.79
852.578	-0.17
852.746	-1.94
852.915	0.16
853.083	-0.35
853.251	-0.53
853.42	-0.93
853.588	-0.33
853.756	0.38
853.924	0.02
854.093	-0.11
854.261	-0.55
854.429	-1.75
854.597	-0.13
854.765	-1.3
854.934	0.31
855.102	0.66
855.27	-0.5
855.438	-0.23
855.606	0.29
855.774	0.83
855.942	-1.43
856.11	-2.37
856.278	-1.11
856.446	0.43
856.614	0.21
856.782	-1.52
856.95	1.17
857.118	0.42
857.286	-0.13
857.454	-1.7
857.622	1.27
857.79	-0.97
857.958	-1.81
858.126	-0.2
858.294	-3.31
858.462	-0.25
858.629	-1.43
858.797	-1.67
858.965	-1
859.133	0.66
859.301	-0.69
859.468	-0.56
859.636	-1.65
859.804	2.07
859.971	0.51
860.139	-0.74
860.307	1.57
860.474	-0.85
860.642	-2.32
860.81	-1.62
860.977	-0.64
861.145	0.7
861.313	-1.11
861.48	0.47
861.648	0.35
861.815	0.55
861.983	-1.73
862.15	-0.62
862.318	-0.14
862.485	0.9
862.653	-2.52
862.82	-0.54
862.988	0.72
863.155	0.94
863.322	-1.89
863.49	-0.79
863.657	-1.44
863.824	0.53
863.992	0.2
864.159	0.65
864.326	0.68
864.494	-2.3
864.661	2.73
864.828	-1.88
864.996	1.28
865.163	0.2
865.33	-1.85
865.497	-3.2
865.664	-0.84
865.832	-3.5
865.999	-2.03
866.166	-2.85
866.333	-0.76
866.5	-2.41
866.667	0.58
866.834	-0.08
867.001	0.47
867.168	-2.88
867.335	-0.07
867.502	-2.31
867.669	-0.23
867.836	1.72
868.003	-1.27
868.17	-0.44
868.337	-1.86
868.504	1.78
868.671	-1.8
868.838	-1.4
869.005	0.35
869.172	0.04
869.339	-1.5
869.505	-0.28
869.672	-1.01
869.839	0.46
870.006	-0.47
870.173	-2.66
870.339	-0.59
870.506	3.16
870.673	-0.42
870.84	2.14
871.006	-0.31
871.173	-0.7
871.34	-0.97
871.506	-3.3
871.673	-0.04
871.839	-2.75
872.006	-0.32
872.173	-1.69
872.339	-1.58
872.506	0.6
872.672	-1.57
872.839	-3.16
873.005	0.75
873.172	0.96
873.338	0.86
873.505	0.04
873.671	-0.79
873.838	0.85
874.004	-3.12
874.171	-0.76
874.337	1.39
874.503	2.69
874.67	-1.25
874.836	0.35
875.002	0.3
875.169	0.72
875.335	-0.45
875.501	-1.48
875.668	0.2
875.834	-1.04
876	-3.02
876.166	1.24
876.332	0.31
876.499	3.42
876.665	-0.68
876.831	-0.49
876.997	2.93
877.163	1.59
877.329	-2.21
877.495	0.19
877.662	-0.6
877.828	0.79
877.994	-1.47
878.16	-4.56
878.326	-1.53
878.492	0.38
878.658	-1.07
878.824	0.54
878.99	0.32
879.156	-1.95
879.322	2.41
879.487	-1.45
879.653	2.02
879.819	-0.61
879.985	-1.98
880.151	0.27
880.317	0.87
880.483	-0.54
880.648	-0.44
880.814	-2.96
880.98	0.25
881.146	-3.88
881.312	-1.19
881.477	0.63
881.643	-0.46
881.809	0.25
881.974	0.29
882.14	-1.74
882.306	0.27
882.471	1.38
882.637	-2.92
882.803	-1.72
882.968	2.53
883.134	1.76
883.299	-0.33
883.465	0.25
883.63	1.39
883.796	1.48
883.961	2.27
884.127	0.32
884.292	-5.28
884.458	-4.46
884.623	-4.46
