Data from Apollo_Calib_20240827__AbsoluteIrradiance__544__08-13-02-722.txt Node

Date: Wed Aug 28 08:13:02 BST 2024
User: biology
Spectrometer: FLMT08252
Trigger mode: 0
Integration Time (sec): 5.000000E-1
Scans to average: 5
Electric dark correction enabled: true
Nonlinearity correction enabled: false
Boxcar width: 0
XAxis mode: Wavelengths
Number of Pixels in Spectrum: 3648
>>>>>Begin Spectral Data<<<<<
179.588	-0
179.809	-0
180.03	-0
180.251	-0
180.473	-0
180.694	-0
180.915	0
181.136	-0
181.357	0
181.578	0
181.799	-0
182.02	-0
182.241	0
182.462	-0
182.683	0
182.904	-0
183.125	0
183.346	0
183.567	0
183.788	-0
184.009	-0
184.23	-0
184.451	0
184.672	-0
184.892	-0
185.113	0
185.334	-0
185.555	-0
185.776	-0
185.996	0
186.217	0
186.438	-0
186.659	-0
186.879	0
187.1	-0
187.321	-0
187.541	-0
187.762	-0
187.983	-0
188.203	-0
188.424	-0
188.644	-0
188.865	0
189.086	-0
189.306	0
189.527	-0
189.747	-0
189.968	-0
190.188	0
190.409	0
190.629	0
190.849	-0
191.07	-0
191.29	0
191.511	0
191.731	-0
191.951	-0
192.172	-0
192.392	-0
192.612	-0
192.833	-0
193.053	-0
193.273	0
193.493	-0
193.714	-0
193.934	0
194.154	0
194.374	0
194.594	-0
194.815	-0
195.035	0
195.255	-0
195.475	-0
195.695	0
195.915	0
196.135	-0
196.355	0
196.575	0
196.795	-0
197.015	-0
197.235	-0
197.455	-0
197.675	-0
197.895	-0
198.115	-0
198.335	-0
198.555	-0
198.775	0
198.995	-0
199.214	0
199.434	0
199.654	-0
199.874	-0
200.094	0.47
200.313	-0.92
200.533	-0.45
200.753	-0.87
200.973	0.54
201.192	0.27
201.412	-1.28
201.632	-0.63
201.851	0.24
202.071	-0.48
202.291	-0.56
202.51	-0.59
202.73	-0.1
202.95	-0.43
203.169	-0.74
203.389	-0.23
203.608	-0.09
203.828	-1.03
204.047	-0.85
204.267	0.06
204.486	-0.25
204.706	0.05
204.925	-0.5
205.145	0.01
205.364	0.07
205.583	0.44
205.803	-0.41
206.022	-0.29
206.242	-0.07
206.461	-0.22
206.68	-0.64
206.9	-0.04
207.119	0.36
207.338	0.59
207.557	-0.47
207.777	-0.21
207.996	-0.35
208.215	0.35
208.434	-0.35
208.654	-0.59
208.873	-0.09
209.092	0.34
209.311	-0.41
209.53	-0.05
209.749	-0.14
209.968	-0.27
210.187	-0.2
210.407	-0.58
210.626	-0.18
210.845	0.15
211.064	-0.21
211.283	-0.38
211.502	0.36
211.721	-0.02
211.94	-0.41
212.159	0.03
212.377	0.29
212.596	0.36
212.815	-0.14
213.034	-0.02
213.253	0.02
213.472	0.06
213.691	-0.18
213.91	-0.35
214.128	-0.22
214.347	0.22
214.566	-0.42
214.785	-0.49
215.003	0.07
215.222	0.01
215.441	-0.13
215.66	-0.39
215.878	-0.05
216.097	0.17
216.316	-0.16
216.534	-0.15
216.753	-0.14
216.972	-0.04
217.19	-0.12
217.409	-0.35
217.627	-0.33
217.846	-0.09
218.064	-0.16
218.283	-0.31
218.501	0.26
218.72	0.14
218.938	-0.32
219.157	-0.15
219.375	0.03
219.594	0.18
219.812	-0.3
220.031	-0.28
220.249	0.15
220.467	0.11
220.686	-0.14
220.904	-0.37
221.122	-0.1
221.341	0.14
221.559	-0.11
221.777	-0.4
221.995	-0.15
222.214	-0.03
222.432	-0.16
222.65	0.04
222.868	0.16
223.086	0.1
223.305	0.16
223.523	-0.03
223.741	0.32
223.959	-0.23
224.177	-0.31
224.395	-0.16
224.613	0.04
224.831	0.01
225.049	-0.25
225.267	-0.08
225.485	-0.07
225.703	-0.25
225.921	-0.18
226.139	-0.03
226.357	0.14
226.575	-0.13
226.793	-0.16
227.011	0.29
227.229	-0.09
227.447	0.1
227.665	-0.14
227.883	-0.13
228.1	-0.07
228.318	-0.08
228.536	-0.31
228.754	-0.21
228.972	-0.01
229.189	0.08
229.407	-0.01
229.625	-0.1
229.843	0.18
230.06	0.05
230.278	-0.15
230.496	0.01
230.713	-0.05
230.931	0.13
231.149	-0.1
231.366	-0.21
231.584	-0.18
231.801	0.19
232.019	-0.05
232.236	-0.16
232.454	-0.3
232.671	-0.11
232.889	-0.07
233.106	-0.28
233.324	-0.03
233.541	-0.11
233.759	-0.04
233.976	-0.17
234.194	-0.03
234.411	-0.16
234.628	-0.17
234.846	-0.12
235.063	-0.1
235.28	-0.18
235.498	-0
235.715	-0.07
235.932	0.05
236.149	-0.01
236.367	-0.13
236.584	-0.03
236.801	-0.1
237.018	0.01
237.236	-0.13
237.453	-0.23
237.67	0.04
237.887	0
238.104	0.03
238.321	-0.11
238.538	-0.04
238.755	0.06
238.973	-0.22
239.19	-0.1
239.407	0.03
239.624	0.03
239.841	-0.12
240.058	-0.18
240.275	0.01
240.492	-0.11
240.709	-0.05
240.925	-0.09
241.142	-0.04
241.359	-0.08
241.576	-0.05
241.793	-0.12
242.01	-0.08
242.227	0.01
242.444	0.07
242.66	0.04
242.877	0.02
243.094	-0.09
243.311	-0.07
243.527	-0.08
243.744	0.02
243.961	-0.01
244.178	-0.11
244.394	-0.08
244.611	0.07
244.828	0.09
245.044	-0.17
245.261	-0.08
245.477	-0.05
245.694	0.06
245.911	-0.05
246.127	-0.04
246.344	0.11
246.56	0.04
246.777	-0.06
246.993	-0.1
247.21	0
247.426	0.03
247.643	-0.1
247.859	-0.13
248.076	-0.07
248.292	0.13
248.508	-0.06
248.725	-0.05
248.941	-0.01
249.157	0.04
249.374	-0.07
249.59	-0.07
249.806	-0.03
250.023	-0.04
250.239	-0.1
250.455	-0.17
250.671	0.01
250.888	-0.01
251.104	0
251.32	-0.07
251.536	-0.11
251.752	-0.1
251.969	-0.02
252.185	-0.01
252.401	0.14
252.617	-0.07
252.833	-0.04
253.049	0
253.265	-0
253.481	0.02
253.697	-0.05
253.913	-0.19
254.129	-0.08
254.345	-0.08
254.561	0.04
254.777	-0.08
254.993	0.02
255.209	-0.05
255.425	-0.07
255.641	-0.05
255.857	0.03
256.073	-0.02
256.288	-0.11
256.504	0
256.72	-0.01
256.936	0.1
257.152	-0.11
257.367	-0.17
257.583	0.02
257.799	0
258.015	-0.13
258.23	-0.07
258.446	0.11
258.662	-0.05
258.877	-0.04
259.093	-0.11
259.309	-0.02
259.524	0.06
259.74	-0.02
259.955	-0.11
260.171	0.03
260.387	-0.03
260.602	-0.01
260.818	0.01
261.033	-0.08
261.249	-0.06
261.464	-0.03
261.68	-0.13
261.895	0.01
262.11	0.06
262.326	-0.08
262.541	-0.14
262.757	0.01
262.972	-0.07
263.187	-0.01
263.403	-0.04
263.618	-0.03
263.833	-0.04
264.049	-0.12
264.264	-0.05
264.479	-0.01
264.694	0.11
264.91	-0.07
265.125	-0.04
265.34	-0.01
265.555	0.08
265.77	-0.08
265.986	-0.07
266.201	-0.01
266.416	0.08
266.631	-0.03
266.846	0
267.061	0.07
267.276	-0.03
267.491	-0.14
267.706	0.04
267.921	0.03
268.136	-0.05
268.351	-0.02
268.566	-0.11
268.781	0.04
268.996	0.05
269.211	-0.02
269.426	-0.06
269.641	-0.04
269.856	-0.03
270.071	-0.11
270.285	-0.09
270.5	0.03
270.715	0.02
270.93	-0.01
271.145	0.03
271.359	-0.01
271.574	-0.1
271.789	-0.02
272.004	-0.11
272.218	-0.02
272.433	0.07
272.648	-0.03
272.862	0.01
273.077	-0.03
273.292	-0.04
273.506	-0.09
273.721	-0.03
273.936	0.04
274.15	0.08
274.365	-0.05
274.579	-0.02
274.794	0.03
275.008	0.04
275.223	-0.11
275.437	-0.01
275.652	0.02
275.866	0.06
276.081	-0.07
276.295	-0
276.509	-0
276.724	-0.04
276.938	0.01
277.153	0
277.367	0.06
277.581	-0.04
277.796	-0.09
278.01	-0.04
278.224	0.07
278.438	0.05
278.653	-0.08
278.867	-0.1
279.081	-0.04
279.295	-0.05
279.51	0.03
279.724	-0.07
279.938	-0
280.152	-0.03
280.366	-0.06
280.58	-0.01
280.794	0.06
281.008	-0.01
281.222	0.04
281.437	0.05
281.651	0.05
281.865	0.05
282.079	0.01
282.293	-0.15
282.507	-0.08
282.721	-0.05
282.935	-0.01
283.148	-0.1
283.362	-0.08
283.576	-0.08
283.79	-0.01
284.004	-0.06
284.218	0.03
284.432	-0.05
284.646	-0.07
284.859	-0.03
285.073	-0.02
285.287	-0.04
285.501	-0.04
285.714	-0.04
285.928	-0.03
286.142	-0.04
286.356	-0.03
286.569	-0.04
286.783	0.04
286.997	0.02
287.21	0.02
287.424	0
287.637	-0.05
287.851	-0.04
288.065	-0.01
288.278	-0.02
288.492	-0
288.705	-0
288.919	0.01
289.132	-0.07
289.346	0.04
289.559	-0.07
289.773	-0.06
289.986	0.01
290.2	-0.03
290.413	0.01
290.626	-0.05
290.84	-0.03
291.053	-0.01
291.267	0.03
291.48	-0.01
291.693	-0.03
291.906	-0.05
292.12	-0.02
292.333	-0.04
292.546	-0.01
292.76	0.04
292.973	-0.03
293.186	0.01
293.399	0.02
293.612	0.03
293.826	-0.01
294.039	-0.01
294.252	0.05
294.465	-0.03
294.678	-0.02
294.891	0.01
295.104	-0.04
295.317	-0.02
295.53	-0.02
295.743	0.03
295.956	-0.03
296.169	0.01
296.382	0.03
296.595	-0
296.808	-0.06
297.021	0.04
297.234	0.03
297.447	0.01
297.66	0.03
297.873	0
298.086	-0.02
298.299	-0.02
298.511	-0.07
298.724	-0.01
298.937	-0.07
299.15	-0.04
299.363	-0.02
299.575	0.03
299.788	-0.02
300.001	-0.02
300.213	-0.08
300.426	-0.06
300.639	-0.03
300.852	-0.01
301.064	0.05
301.277	0.04
301.489	0.04
301.702	0.01
301.915	-0.05
302.127	-0.05
302.34	-0.02
302.552	0.02
302.765	-0.04
302.977	0.01
303.19	-0.01
303.402	-0.02
303.615	0.03
303.827	-0.03
304.04	-0.04
304.252	-0
304.464	-0.05
304.677	0.04
304.889	0.08
305.102	-0.06
305.314	-0.03
305.526	0
305.739	0.04
305.951	-0.08
306.163	-0.03
306.375	0.05
306.588	-0.07
306.8	-0.02
307.012	-0.09
307.224	-0.01
307.436	0.05
307.649	-0.08
307.861	0.03
308.073	-0
308.285	0.01
308.497	-0.06
308.709	-0.02
308.921	0
309.133	0.03
309.346	-0.02
309.558	-0
309.77	0.01
309.982	0
310.194	0.03
310.406	-0.01
310.617	0.05
310.829	-0.04
311.041	-0.01
311.253	-0.03
311.465	-0.04
311.677	-0
311.889	0.01
312.101	-0.02
312.313	0.04
312.524	0.08
312.736	-0.04
312.948	-0.02
313.16	0.06
313.372	0.03
313.583	-0
313.795	-0.04
314.007	-0.07
314.218	0.03
314.43	-0.06
314.642	-0.06
314.853	-0.04
315.065	0
315.277	-0.04
315.488	0
315.7	0.01
315.912	0.04
316.123	0
316.335	-0.03
316.546	0.04
316.758	0.02
316.969	-0.02
317.181	-0.02
317.392	0.01
317.604	0.01
317.815	-0.06
318.026	-0.03
318.238	-0.05
318.449	0.01
318.661	-0.1
318.872	-0.04
319.083	-0.02
319.295	-0.01
319.506	-0.03
319.717	-0.02
319.929	0.05
320.14	-0
320.351	-0.01
320.562	-0.02
320.774	-0.05
320.985	-0.03
321.196	-0.03
321.407	-0.04
321.618	0
321.829	0
322.041	0.01
322.252	-0.01
322.463	-0.04
322.674	0
322.885	-0.05
323.096	-0.06
323.307	-0.04
323.518	-0.01
323.729	-0.04
323.94	-0.03
324.151	-0.04
324.362	0.02
324.573	-0.01
324.784	-0.04
324.995	-0
325.206	-0.02
325.417	-0.01
325.628	-0.03
325.838	-0.01
326.049	0.01
326.26	0.04
326.471	-0.03
326.682	0.03
326.892	-0.01
327.103	-0.05
327.314	-0.05
327.525	0.06
327.735	-0.02
327.946	-0.04
328.157	-0.09
328.368	-0.02
328.578	-0.02
328.789	0.02
328.999	-0
329.21	-0.03
329.421	0.07
329.631	-0.05
329.842	-0.04
330.052	0.05
330.263	0.03
330.473	0.03
330.684	-0.06
330.894	-0.04
331.105	-0.04
331.315	-0.04
331.526	-0.06
331.736	0.07
331.947	-0.01
332.157	0.03
332.367	-0.05
332.578	0.04
332.788	0.03
332.999	0.02
333.209	-0.02
333.419	-0.07
333.629	-0.04
333.84	0.01
334.05	-0
334.26	0.03
334.47	-0.03
334.681	0.07
334.891	-0.01
335.101	0.05
335.311	0.05
335.521	0.02
335.732	-0.05
335.942	0.01
336.152	0
336.362	0.01
336.572	0.01
336.782	0.05
336.992	-0.04
337.202	-0.01
337.412	-0.07
337.622	0.04
337.832	-0.04
338.042	-0.05
338.252	-0.09
338.462	-0.04
338.672	-0.02
338.882	0.02
339.092	-0.03
339.302	0.05
339.511	0.02
339.721	-0.02
339.931	-0
340.141	0.03
340.351	0.01
340.561	0.01
340.77	-0.04
340.98	-0.02
341.19	0.01
341.4	-0.04
341.609	-0.06
341.819	0.01
342.029	-0.02
342.238	-0.01
342.448	-0.05
342.658	0.01
342.867	0
343.077	0.02
343.286	-0.02
343.496	-0.02
343.706	0.02
343.915	-0.09
344.125	-0.03
344.334	0.02
344.544	-0.07
344.753	-0.04
344.963	-0.03
345.172	-0.05
345.381	-0.04
345.591	-0.04
345.8	-0.01
346.01	-0
346.219	0.05
346.428	-0.14
346.638	-0.01
346.847	0.02
347.056	0.05
347.266	-0.06
347.475	-0.03
347.684	0.01
347.893	-0.01
348.103	-0.02
348.312	-0.05
348.521	-0.01
348.73	-0.02
348.94	0.02
349.149	0.01
349.358	-0
349.567	-0.01
349.776	-0.08
349.985	-0.03
350.194	0.05
350.403	0.03
350.612	-0.03
350.821	-0.02
351.03	-0.04
351.239	-0.07
351.448	-0.02
351.657	-0.05
351.866	0.06
352.075	-0
352.284	0.01
352.493	-0.07
352.702	0.05
352.911	-0
353.12	0.02
353.329	-0.09
353.538	-0
353.746	-0
353.955	-0.04
354.164	0
354.373	0.01
354.582	0.02
354.79	-0.03
354.999	-0.02
355.208	-0.05
355.416	0.03
355.625	-0.06
355.834	-0.06
356.042	-0.02
356.251	-0.01
356.46	-0.05
356.668	-0.01
356.877	0.06
357.085	0.01
357.294	-0.1
357.503	0.01
357.711	-0.03
357.92	0.1
358.128	-0.02
358.337	-0.04
358.545	-0
358.754	-0.03
358.962	0.03
359.17	-0.02
359.379	-0.01
359.587	0
359.796	-0.03
360.004	0.01
360.212	0.01
360.421	0.05
360.629	-0.03
360.837	-0
361.046	-0
361.254	0.08
361.462	0.01
361.67	-0.03
361.879	0.01
362.087	0.05
362.295	-0.01
362.503	-0.04
362.711	-0.06
362.92	-0.04
363.128	-0.04
363.336	-0.04
363.544	-0.07
363.752	-0.09
363.96	-0.03
364.168	-0.07
364.376	0.01
364.584	0.01
364.792	0.01
365	0.01
365.208	-0.08
365.416	0.02
365.624	0.01
365.832	-0.05
366.04	0.08
366.248	0.04
366.456	0.01
366.664	-0.01
366.872	-0.01
367.079	-0
367.287	-0.03
367.495	0
367.703	-0.02
367.911	-0.02
368.118	-0.02
368.326	0.01
368.534	-0.06
368.742	0.03
368.949	-0.08
369.157	-0.08
369.365	-0
369.572	-0.06
369.78	-0.04
369.988	0.05
370.195	0.01
370.403	0.02
370.61	-0.01
370.818	-0.04
371.026	0.08
371.233	-0.04
371.441	0
371.648	-0.02
371.856	-0
372.063	-0.01
372.271	-0.03
372.478	-0.04
372.685	-0.04
372.893	0.03
373.1	-0.02
373.308	-0.03
373.515	0.03
373.722	-0
373.93	-0.04
374.137	0.01
374.344	0.1
374.552	0.01
374.759	0.02
374.966	-0.01
375.173	-0.05
375.381	0.06
375.588	-0.02
375.795	-0.06
376.002	-0.06
376.209	-0.03
376.417	-0.05
376.624	-0.02
376.831	0.01
377.038	-0.02
377.245	-0.07
377.452	-0.02
377.659	-0.03
377.866	-0.03
378.073	0.02
378.28	-0.05
378.487	-0.04
378.694	-0.01
378.901	0.01
379.108	-0.04
379.315	0.02
379.522	0.05
379.729	-0.03
379.936	-0.04
380.143	-0.02
380.35	-0.01
380.557	-0.02
380.763	0
380.97	-0
381.177	-0.03
381.384	0.03
381.591	-0.05
381.797	-0.02
382.004	-0
382.211	0.03
382.418	-0.05
382.624	0.05
382.831	-0
383.038	-0.04
383.244	0
383.451	-0.01
383.658	-0.04
383.864	-0.03
384.071	-0.04
384.277	0.02
384.484	-0.01
384.69	0.04
384.897	0.01
385.103	-0.02
385.31	-0.04
385.516	-0.04
385.723	-0.03
385.929	-0.04
386.136	-0.05
386.342	0.03
386.549	-0.06
386.755	0.02
386.961	0
387.168	-0.05
387.374	-0.01
387.58	0.07
387.787	-0.01
387.993	0.04
388.199	-0
388.406	-0.01
388.612	-0.01
388.818	0
389.024	-0.08
389.231	0.01
389.437	0.06
389.643	0.02
389.849	-0.03
390.055	-0.04
390.261	0.03
390.467	-0.01
390.674	-0.03
390.88	-0.03
391.086	0.07
391.292	-0.05
391.498	-0.03
391.704	-0.03
391.91	-0.04
392.116	-0.03
392.322	-0.08
392.528	0.04
392.734	-0.06
392.94	-0.02
393.146	-0.03
393.352	-0.01
393.557	-0.05
393.763	-0.03
393.969	-0.01
394.175	-0
394.381	-0.01
394.587	-0.03
394.792	0.01
394.998	-0
395.204	0.02
395.41	-0.06
395.615	-0.03
395.821	-0
396.027	0.02
396.233	-0.03
396.438	0
396.644	0.05
396.85	-0.03
397.055	-0.04
397.261	-0.05
397.466	0.03
397.672	-0.02
397.878	0
398.083	0.02
398.289	-0.01
398.494	0.01
398.7	0.01
398.905	-0.08
399.111	0.03
399.316	-0.1
399.522	-0.02
399.727	-0.04
399.932	-0.05
400.138	-0.03
400.343	0.01
400.549	-0
400.754	-0.04
400.959	-0.02
401.165	-0.01
401.37	0.02
401.575	0.07
401.78	0.01
401.986	-0.07
402.191	-0.02
402.396	-0.04
402.601	0.02
402.807	-0
403.012	-0.04
403.217	0.04
403.422	-0.02
403.627	0
403.832	-0.03
404.037	0.01
404.243	0.02
404.448	-0.02
404.653	-0.04
404.858	-0.05
405.063	0.02
405.268	-0.05
405.473	-0.06
405.678	-0.03
405.883	0.09
406.088	0.01
406.293	-0.04
406.498	-0.03
406.703	0.02
406.907	-0.03
407.112	-0.07
407.317	-0
407.522	-0
407.727	-0.09
407.932	-0.02
408.136	0.05
408.341	0.01
408.546	-0.03
408.751	0
408.956	-0.04
409.16	0.01
409.365	-0.04
409.57	-0.01
409.774	-0.03
409.979	0.04
410.184	-0.03
410.388	-0.08
410.593	0.05
410.798	-0.02
411.002	-0.06
411.207	-0.02
411.411	0.02
411.616	-0.05
411.82	-0
412.025	0
412.229	-0.05
412.434	0.05
412.638	0.02
412.843	-0.06
413.047	0.01
413.252	-0.02
413.456	-0.04
413.66	0.05
413.865	-0.03
414.069	0.03
414.273	-0.04
414.478	-0.04
414.682	-0.05
414.886	-0.04
415.091	-0.07
415.295	-0.1
415.499	0.02
415.703	-0.05
415.908	0
416.112	-0.07
416.316	-0.01
416.52	-0.09
416.724	-0.04
416.929	-0.05
417.133	0.09
417.337	-0.03
417.541	-0.05
417.745	-0
417.949	-0.02
418.153	-0.04
418.357	-0.08
418.561	0.06
418.765	-0
418.969	0.07
419.173	0.03
419.377	-0.05
419.581	0.01
419.785	-0.02
419.989	-0.08
420.193	0
420.397	-0.05
420.601	0.02
420.804	0.03
421.008	0.01
421.212	-0
421.416	0.05
421.62	-0.03
421.823	0.01
422.027	0.02
422.231	-0.02
422.435	-0.03
422.638	-0.01
422.842	0.04
423.046	-0.06
423.249	-0.02
423.453	-0.01
423.657	-0.03
423.86	-0.06
424.064	-0.02
424.268	0.04
424.471	-0.01
424.675	0.08
424.878	0.04
425.082	-0.06
425.285	0
425.489	-0.07
425.692	-0.02
425.896	-0.06
426.099	0.01
426.303	-0.07
426.506	-0.09
426.71	0
426.913	-0.03
427.116	0.04
427.32	-0.01
427.523	-0
427.726	0.04
427.93	-0.04
428.133	-0
428.336	-0.1
428.54	-0.05
428.743	-0.05
428.946	0.03
429.149	-0.08
429.353	-0.05
429.556	-0
429.759	0
429.962	-0.05
430.165	-0.04
430.368	-0.04
430.571	-0.02
430.775	0.03
430.978	-0.02
431.181	0
431.384	-0
431.587	-0.01
431.79	-0.03
431.993	0.01
432.196	-0.05
432.399	-0.01
432.602	0.06
432.805	-0.03
433.008	-0.05
433.211	-0.1
433.414	-0.02
433.616	-0.01
433.819	-0.02
434.022	-0.11
434.225	0.01
434.428	-0.01
434.631	0.11
434.833	-0.01
435.036	-0.08
435.239	0
435.442	-0.03
435.645	-0.08
435.847	-0.06
436.05	0.03
436.253	-0.03
436.455	-0.02
436.658	-0.04
436.861	0.06
437.063	-0.06
437.266	-0.05
437.468	0.06
437.671	0.06
437.874	-0.02
438.076	-0.07
438.279	-0.11
438.481	-0.06
438.684	-0.07
438.886	0.02
439.089	-0.08
439.291	-0.04
439.494	-0.02
439.696	-0.05
439.899	-0.01
440.101	-0.04
440.303	-0.09
440.506	0.02
440.708	-0.01
440.91	-0.03
441.113	-0.05
441.315	0.02
441.517	-0.09
441.72	-0.03
441.922	-0.03
442.124	-0.05
442.326	-0.01
442.529	0.04
442.731	-0.05
442.933	0.03
443.135	-0.04
443.337	-0.04
443.539	-0.02
443.742	-0.01
443.944	0.01
444.146	-0.06
444.348	-0.05
444.55	-0.03
444.752	-0.02
444.954	-0.06
445.156	0.01
445.358	-0.05
445.56	0.05
445.762	-0.02
445.964	-0.02
446.166	-0
446.368	-0.03
446.57	0.01
446.772	-0.04
446.974	-0.05
447.175	0.01
447.377	-0.04
447.579	-0.02
447.781	-0.12
447.983	0.08
448.184	-0
448.386	-0.01
448.588	-0.09
448.79	-0.04
448.991	-0.03
449.193	0
449.395	-0.07
449.597	-0.04
449.798	-0.04
450	-0.04
450.202	-0.01
450.403	-0.02
450.605	-0.03
450.806	-0.01
451.008	-0.02
451.21	-0.04
451.411	0
451.613	-0.02
451.814	-0.05
452.016	-0.02
452.217	-0.01
452.419	-0.01
452.62	-0.01
452.821	-0
453.023	0.03
453.224	0.03
453.426	-0.02
453.627	0.02
453.828	0.04
454.03	0.01
454.231	-0.01
454.432	-0.08
454.634	0.01
454.835	-0.04
455.036	-0.1
455.238	0.02
455.439	0.1
455.64	-0.08
455.841	-0.09
456.042	0.07
456.244	-0.01
456.445	-0.05
456.646	-0.09
456.847	-0.04
457.048	0.02
457.249	0.06
457.45	0.13
457.651	-0.12
457.852	0.03
458.054	-0.05
458.255	-0.04
458.456	0
458.657	-0.01
458.858	-0.02
459.058	0
459.259	-0.02
459.46	-0.05
459.661	-0.03
459.862	0.08
460.063	-0.05
460.264	0.02
460.465	-0.08
460.666	0.07
460.866	-0.02
461.067	-0.05
461.268	-0.09
461.469	-0.03
461.67	0.01
461.87	-0.05
462.071	-0.09
462.272	-0.04
462.473	-0
462.673	0.02
462.874	-0.1
463.075	0.01
463.275	-0.06
463.476	0.02
463.676	0.01
463.877	-0.02
464.078	-0.03
464.278	0.04
464.479	-0.02
464.679	-0.01
464.88	-0.01
465.08	0.03
465.281	-0.02
465.481	-0.07
465.682	-0.03
465.882	0.04
466.083	0.02
466.283	-0.03
466.483	-0.02
466.684	-0.03
466.884	-0.06
467.085	-0.01
467.285	0.01
467.485	-0.05
467.686	-0.01
467.886	-0.02
468.086	-0.02
468.286	-0.02
468.487	0
468.687	-0.07
468.887	-0.04
469.087	0.03
469.287	-0.02
469.488	-0.05
469.688	0.02
469.888	0.03
470.088	0.05
470.288	0.03
470.488	0.03
470.688	-0.06
470.888	-0.02
471.088	-0.05
471.288	-0.02
471.488	0.01
471.688	-0.01
471.888	-0.04
472.088	0.03
472.288	0.01
472.488	-0.03
472.688	-0.09
472.888	-0.06
473.088	-0.01
473.288	-0.04
473.488	-0.02
473.688	0.08
473.887	0.01
474.087	-0.01
474.287	0
474.487	-0.06
474.687	-0.01
474.886	-0.03
475.086	-0.03
475.286	0
475.486	0.01
475.685	-0.02
475.885	0.03
476.085	-0.06
476.284	-0.01
476.484	-0.04
476.684	-0.01
476.883	0.04
477.083	-0.04
477.282	-0.05
477.482	0.05
477.681	0.08
477.881	-0.02
478.08	-0
478.28	-0.01
478.479	0
478.679	0.06
478.878	-0.05
479.078	-0.02
479.277	-0.01
479.477	-0
479.676	0.05
479.875	-0
480.075	-0.06
480.274	0
480.473	-0.02
480.673	-0.05
480.872	0.01
481.071	0
481.271	0.01
481.47	-0.03
481.669	-0
481.868	-0.03
482.067	-0.06
482.267	-0.03
482.466	-0.06
482.665	-0.05
482.864	-0.06
483.063	-0.05
483.262	0.02
483.461	0.07
483.661	0.02
483.86	0.03
484.059	-0.01
484.258	-0.03
484.457	-0.04
484.656	-0
484.855	0.01
485.054	-0.06
485.253	-0.05
485.452	-0.06
485.651	-0
485.849	-0.01
486.048	-0.05
486.247	-0.03
486.446	0.03
486.645	-0.02
486.844	-0.05
487.043	-0.03
487.241	-0
487.44	-0.02
487.639	-0.02
487.838	-0.01
488.037	-0.01
488.235	0.02
488.434	0
488.633	-0.05
488.831	0
489.03	0.04
489.229	0.02
489.427	-0.01
489.626	0.04
489.825	0.03
490.023	0.02
490.222	-0.02
490.42	0.01
490.619	0.02
490.817	-0.01
491.016	-0.05
491.214	0.02
491.413	0
491.611	-0.02
491.81	-0.01
492.008	0.02
492.207	0
492.405	0
492.604	-0.05
492.802	-0.02
493	-0
493.199	-0.04
493.397	-0.01
493.595	-0.01
493.794	-0.03
493.992	0.03
494.19	0
494.388	0.01
494.587	-0.03
494.785	-0.01
494.983	-0.04
495.181	-0
495.379	-0
495.578	-0.02
495.776	0
495.974	0.01
496.172	-0.02
496.37	-0.02
496.568	-0.02
496.766	-0.02
496.964	0.02
497.162	-0
497.36	-0.03
497.558	-0
497.756	0.02
497.954	-0.01
498.152	-0.04
498.35	-0.03
498.548	-0.01
498.746	-0.01
498.944	-0.05
499.142	-0.01
499.34	-0.03
499.538	0.01
499.736	-0.03
499.933	0.01
500.131	0.01
500.329	-0.01
500.527	0.01
500.725	0
500.922	-0
501.12	0.01
501.318	-0.01
501.516	-0.02
501.713	-0
501.911	-0.02
502.109	-0.02
502.306	0
502.504	-0.01
502.701	-0.03
502.899	-0.02
503.097	0.03
503.294	-0
503.492	-0.02
503.689	-0.01
503.887	0.02
504.084	0.02
504.282	0.01
504.479	-0.04
504.677	-0
504.874	-0.01
505.072	-0.01
505.269	-0.01
505.466	-0.01
505.664	-0
505.861	-0.04
506.059	-0.06
506.256	0.01
506.453	-0
506.651	0.02
506.848	0.01
507.045	0.01
507.242	-0.01
507.44	-0.02
507.637	-0.02
507.834	-0
508.031	0.02
508.229	-0.03
508.426	-0.01
508.623	-0.02
508.82	-0.01
509.017	-0.03
509.214	-0.03
509.411	-0.01
509.608	-0.05
509.805	-0.02
510.003	-0.02
510.2	-0.03
510.397	0.01
510.594	-0.02
510.791	-0.04
510.988	-0
511.184	0.02
511.381	-0.01
511.578	-0.03
511.775	0
511.972	-0.05
512.169	-0.03
512.366	-0.01
512.563	0
512.76	-0.03
512.956	0
513.153	-0.01
513.35	0.02
513.547	-0.03
513.744	-0.02
513.94	-0.04
514.137	0.01
514.334	-0
514.53	-0.01
514.727	-0.03
514.924	0.06
515.12	-0.03
515.317	-0.04
515.514	0
515.71	-0.03
515.907	-0.01
516.103	0
516.3	0.02
516.497	0.01
516.693	0.01
516.89	-0.01
517.086	-0.04
517.283	0.04
517.479	0
517.676	-0.01
517.872	-0.02
518.068	-0.02
518.265	-0.02
518.461	-0.02
518.658	-0.02
518.854	-0.01
519.05	-0.02
519.247	-0.02
519.443	0.01
519.639	-0.01
519.836	-0.01
520.032	-0.03
520.228	-0
520.424	0.05
520.621	-0.01
520.817	-0.01
521.013	0.01
521.209	-0
521.405	0.05
521.601	-0.01
521.798	-0.02
521.994	0.02
522.19	-0.03
522.386	-0.03
522.582	-0.01
522.778	-0.01
522.974	-0.02
523.17	0
523.366	-0.04
523.562	0.03
523.758	-0.02
523.954	-0.04
524.15	-0.02
524.346	-0.01
524.542	-0.03
524.738	-0.03
524.934	-0.03
525.129	-0.08
525.325	0.01
525.521	-0.04
525.717	0.02
525.913	-0.02
526.109	-0.01
526.304	-0
526.5	-0
526.696	0.01
526.892	-0.01
527.087	-0.01
527.283	-0.02
527.479	0.01
527.674	-0.03
527.87	-0.03
528.066	-0.02
528.261	0.01
528.457	-0
528.653	-0.01
528.848	0
529.044	-0.01
529.239	-0
529.435	0.02
529.63	0.01
529.826	0.03
530.021	0.01
530.217	0.01
530.412	-0.01
530.608	-0.03
530.803	-0.01
530.999	-0.02
531.194	-0.05
531.389	-0.01
531.585	-0.06
531.78	-0.01
531.975	-0.01
532.171	0.01
532.366	-0.02
532.561	-0.01
532.757	-0.04
532.952	-0.03
533.147	-0.01
533.342	-0.02
533.538	-0.03
533.733	-0.01
533.928	-0.02
534.123	0.01
534.318	-0.04
534.513	-0.01
534.709	-0.02
534.904	-0.04
535.099	-0.02
535.294	-0
535.489	0.02
535.684	-0.01
535.879	-0.04
536.074	-0.01
536.269	-0.05
536.464	-0.01
536.659	-0.03
536.854	-0.01
537.049	0.01
537.244	-0.03
537.439	-0.01
537.634	0.02
537.828	0
538.023	-0.03
538.218	-0.03
538.413	-0.02
538.608	-0.02
538.803	0.01
538.997	-0.04
539.192	0.03
539.387	-0
539.582	-0.01
539.776	-0
539.971	-0.03
540.166	-0.01
540.36	-0.03
540.555	0
540.75	-0.02
540.944	0.01
541.139	-0.06
541.334	-0.01
541.528	0.01
541.723	-0
541.917	-0.01
542.112	-0.04
542.306	-0
542.501	-0.01
542.695	-0.01
542.89	-0
543.084	-0.01
543.279	-0.02
543.473	-0.02
543.668	0
543.862	-0
544.056	0.01
544.251	-0.01
544.445	-0
544.64	-0.04
544.834	-0.03
545.028	-0.02
545.222	0.01
545.417	0.01
545.611	-0.01
545.805	-0.01
546	-0.01
546.194	-0.01
546.388	-0.03
546.582	0.01
546.776	-0.01
546.97	-0.02
547.165	-0.01
547.359	0
547.553	-0.02
547.747	-0
547.941	-0.01
548.135	-0.03
548.329	-0.01
548.523	0.02
548.717	-0.01
548.911	-0.02
549.105	-0.03
549.299	-0.03
549.493	0.01
549.687	0.01
549.881	0.02
550.075	-0
550.269	-0.05
550.463	-0.01
550.657	-0.03
550.85	-0.02
551.044	-0.03
551.238	0.01
551.432	-0.02
551.626	-0.04
551.82	-0.01
552.013	-0.02
552.207	-0.02
552.401	-0
552.594	-0.03
552.788	-0.01
552.982	-0.01
553.176	-0.04
553.369	0.01
553.563	-0.01
553.756	-0.03
553.95	-0.06
554.144	-0.01
554.337	0.03
554.531	-0
554.724	0.01
554.918	-0.05
555.111	-0
555.305	-0.01
555.498	0.05
555.692	0.01
555.885	-0
556.079	-0
556.272	-0
556.466	0.01
556.659	-0
556.852	-0.01
557.046	-0.02
557.239	0.03
557.432	-0.04
557.626	-0.02
557.819	-0.01
558.012	0.01
558.206	0
558.399	-0.02
558.592	-0.01
558.785	-0.01
558.979	0.01
559.172	-0.01
559.365	0.01
559.558	-0
559.751	-0.01
559.944	0.01
560.138	-0.03
560.331	-0.01
560.524	-0.02
560.717	-0.02
560.91	-0.01
561.103	0.02
561.296	-0.02
561.489	0
561.682	-0.03
561.875	0.02
562.068	0.02
562.261	-0.01
562.454	0.03
562.647	0.02
562.84	0.01
563.032	-0.02
563.225	0.01
563.418	-0.01
563.611	-0.02
563.804	0
563.997	-0.05
564.19	-0.04
564.382	-0.08
564.575	-0.02
564.768	-0.03
564.961	-0.01
565.153	-0.01
565.346	0.02
565.539	0.01
565.731	-0
565.924	0.01
566.117	-0.01
566.309	0
566.502	-0.01
566.695	-0.03
566.887	-0.01
567.08	-0.05
567.272	-0.02
567.465	-0.01
567.657	-0
567.85	0
568.042	0.01
568.235	0.03
568.427	0
568.62	-0.04
568.812	0.02
569.005	-0
569.197	-0.06
569.389	-0
569.582	-0
569.774	0.01
569.966	-0.04
570.159	-0.03
570.351	0.01
570.543	-0.04
570.736	-0
570.928	-0.04
571.12	-0.02
571.312	-0
571.505	-0.03
571.697	0.01
571.889	-0.03
572.081	-0.03
572.273	-0.04
572.465	0.03
572.658	-0.02
572.85	0
573.042	-0.01
573.234	-0
573.426	0.01
573.618	-0.04
573.81	-0
574.002	0.01
574.194	0.02
574.386	-0.05
574.578	-0.08
574.77	-0.02
574.962	-0.02
575.154	-0.05
575.346	-0.01
575.538	-0.01
575.729	-0.03
575.921	-0.01
576.113	0
576.305	0.01
576.497	-0.02
576.689	-0.02
576.88	-0
577.072	0.04
577.264	0
577.456	-0.02
577.647	-0.07
577.839	-0.02
578.031	0.04
578.223	-0.03
578.414	-0.07
578.606	0.02
578.798	-0.02
578.989	-0.03
579.181	-0.01
579.372	-0.03
579.564	-0.03
579.755	0.01
579.947	-0
580.139	0.02
580.33	-0.07
580.522	-0.03
580.713	-0.07
580.905	-0.02
581.096	0.02
581.287	-0.02
581.479	-0.02
581.67	0.02
581.862	-0.02
582.053	-0.02
582.244	-0.04
582.436	-0.03
582.627	-0.01
582.818	-0.03
583.01	-0.04
583.201	0.03
583.392	0.02
583.583	-0
583.775	-0.03
583.966	-0.01
584.157	-0.03
584.348	-0.02
584.54	-0.04
584.731	0.01
584.922	-0.01
585.113	-0.04
585.304	0.01
585.495	0.02
585.686	-0.02
585.877	0.01
586.068	0.01
586.259	-0.01
586.45	-0.02
586.641	-0.02
586.832	-0.05
587.023	-0.01
587.214	-0.02
587.405	-0.01
587.596	-0.04
587.787	0.02
587.978	0.01
588.169	-0.04
588.36	-0.02
588.551	-0.02
588.742	-0.03
588.932	-0.01
589.123	-0.01
589.314	0.02
589.505	0.02
589.696	-0
589.886	-0.05
590.077	-0.04
590.268	0.01
590.458	-0.01
590.649	-0.06
590.84	0.02
591.03	-0.02
591.221	-0.03
591.412	-0.06
591.602	0
591.793	-0.01
591.984	-0.05
592.174	-0.03
592.365	0.06
592.555	-0.03
592.746	0.01
592.936	0.01
593.127	-0.01
593.317	0.02
593.508	-0.03
593.698	-0.01
593.889	0
594.079	-0.02
594.269	-0.04
594.46	0.01
594.65	0.02
594.84	-0.03
595.031	-0.04
595.221	-0.05
595.411	-0.05
595.602	0.02
595.792	-0.04
595.982	-0.02
596.172	0.05
596.363	-0.04
596.553	-0.01
596.743	-0.02
596.933	-0.04
597.123	-0.01
597.314	-0.02
597.504	-0.02
597.694	0.02
597.884	-0.01
598.074	-0.04
598.264	-0.04
598.454	0.01
598.644	-0.02
598.834	-0.02
599.024	-0.06
599.214	-0.03
599.404	0.03
599.594	-0.01
599.784	-0.04
599.974	0.01
600.164	-0.02
600.354	-0.05
600.544	-0.06
600.734	-0.02
600.924	0.04
601.114	-0.02
601.303	0
601.493	-0.03
601.683	-0.01
601.873	0.02
602.063	-0.06
602.252	0
602.442	-0.06
602.632	-0.04
602.821	-0.03
603.011	0.01
603.201	-0.01
603.39	-0.06
603.58	-0.04
603.77	-0.01
603.959	0.04
604.149	-0.01
604.339	-0.01
604.528	-0.02
604.718	-0.01
604.907	-0.04
605.097	-0.02
605.286	-0.06
605.476	0.03
605.665	0.01
605.855	-0.01
606.044	0.01
606.234	0.01
606.423	-0.01
606.612	-0.02
606.802	-0.01
606.991	0.02
607.181	-0
607.37	-0.06
607.559	-0.01
607.749	-0.06
607.938	-0.01
608.127	-0.01
608.316	-0.05
608.506	-0.03
608.695	-0.01
608.884	-0.02
609.073	-0.01
609.263	0.01
609.452	0
609.641	-0.02
609.83	-0.06
610.019	-0.01
610.208	-0.03
610.397	0.02
610.586	0.01
610.775	-0.02
610.965	-0.02
611.154	-0.01
611.343	-0.01
611.532	0.02
611.721	-0.03
611.91	-0.02
612.099	0.03
612.287	-0.03
612.476	-0.02
612.665	0.01
612.854	-0.02
613.043	0.04
613.232	-0.03
613.421	-0.06
613.61	0.01
613.798	-0.02
613.987	0
614.176	-0.03
614.365	-0.02
614.554	-0
614.742	0.01
614.931	-0.05
615.12	0.02
615.309	-0.03
615.497	0.02
615.686	-0.03
615.875	-0
616.063	-0
616.252	-0.04
616.44	-0.03
616.629	-0.02
616.818	0.02
617.006	-0
617.195	-0.01
617.383	-0
617.572	0.01
617.76	0.01
617.949	-0.03
618.137	0.01
618.326	0.04
618.514	-0.05
618.703	-0.02
618.891	0.05
619.079	-0.05
619.268	0.01
619.456	-0.03
619.644	0.06
619.833	0.03
620.021	-0.03
620.209	-0.07
620.398	0.02
620.586	-0.02
620.774	0.02
620.962	-0.02
621.151	0.05
621.339	0.04
621.527	-0.07
621.715	-0.03
621.903	-0.04
622.092	-0.05
622.28	0.03
622.468	0.04
622.656	-0.01
622.844	-0.02
623.032	-0.02
623.22	-0.04
623.408	0.02
623.596	0
623.784	0.02
623.972	-0.03
624.16	-0.03
624.348	0.06
624.536	-0
624.724	-0.03
624.912	0.05
625.1	0.02
625.288	-0.03
625.476	-0.02
625.664	0.05
625.851	-0.04
626.039	-0.02
626.227	0.02
626.415	-0.02
626.603	-0.01
626.79	0.02
626.978	0
627.166	0.04
627.354	0.03
627.541	-0
627.729	-0.03
627.917	0.03
628.104	0.02
628.292	0.01
628.48	0.03
628.667	0
628.855	0.03
629.042	0.08
629.23	-0.01
629.418	0.01
629.605	-0
629.793	-0.02
629.98	0.01
630.168	0.01
630.355	-0
630.543	0.03
630.73	0.02
630.917	0.05
631.105	0.1
631.292	-0.02
631.48	0.03
631.667	0.09
631.854	0.02
632.042	0.02
632.229	-0
632.416	0.02
632.604	0.03
632.791	-0.02
632.978	0.07
633.165	0.03
633.353	0.07
633.54	0.07
633.727	-0.03
633.914	0.01
634.101	-0.04
634.289	0.09
634.476	0.01
634.663	-0.02
634.85	0.05
635.037	-0.03
635.224	-0.03
635.411	0.06
635.598	0.06
635.785	0.02
635.972	0.04
636.159	0.04
636.346	0.02
636.533	0.03
636.72	0.04
636.907	0.01
637.094	0.06
637.281	0.04
637.468	0.07
637.655	0.03
637.842	0.04
638.029	-0
638.215	0.09
638.402	0
638.589	-0.02
638.776	0.06
638.963	0.03
639.149	0.07
639.336	0.14
639.523	0.05
639.709	0.01
639.896	0.08
640.083	0.11
640.27	0.05
640.456	0.05
640.643	0.09
640.829	0.03
641.016	0.06
641.203	0.02
641.389	0.08
641.576	0.11
641.762	0.07
641.949	0.04
642.135	0.09
642.322	0.07
642.508	0.03
642.695	0.08
642.881	0.06
643.068	0.06
643.254	0.05
643.441	0.12
643.627	0.05
643.813	0.06
644	0.13
644.186	0.08
644.372	0.06
644.559	0.13
644.745	0.11
644.931	0.06
645.118	0.1
645.304	0.12
645.49	0.09
645.676	0.09
645.862	0.14
646.049	0.14
646.235	0.09
646.421	0.17
646.607	0.18
646.793	0.1
646.979	0.07
647.165	0.16
647.352	0.15
647.538	0.17
647.724	0.15
647.91	0.13
648.096	0.16
648.282	0.16
648.468	0.12
648.654	0.16
648.84	0.16
649.026	0.16
649.212	0.16
649.397	0.13
649.583	0.12
649.769	0.17
649.955	0.2
650.141	0.17
650.327	0.23
650.513	0.15
650.698	0.2
650.884	0.11
651.07	0.19
651.256	0.22
651.442	0.21
651.627	0.18
651.813	0.24
651.999	0.19
652.184	0.2
652.37	0.22
652.556	0.21
652.741	0.25
652.927	0.14
653.113	0.24
653.298	0.2
653.484	0.22
653.669	0.2
653.855	0.23
654.04	0.28
654.226	0.26
654.412	0.24
654.597	0.23
654.782	0.27
654.968	0.27
655.153	0.27
655.339	0.26
655.524	0.25
655.71	0.27
655.895	0.27
656.08	0.25
656.266	0.34
656.451	0.27
656.636	0.25
656.822	0.27
657.007	0.29
657.192	0.28
657.378	0.26
657.563	0.28
657.748	0.32
657.933	0.3
658.118	0.29
658.304	0.25
658.489	0.32
658.674	0.32
658.859	0.26
659.044	0.3
659.229	0.31
659.414	0.27
659.599	0.29
659.785	0.26
659.97	0.24
660.155	0.27
660.34	0.26
660.525	0.26
660.71	0.24
660.895	0.28
661.08	0.2
661.264	0.22
661.449	0.25
661.634	0.26
661.819	0.23
662.004	0.2
662.189	0.12
662.374	0.15
662.559	0.11
662.743	0.1
662.928	0.16
663.113	0.15
663.298	0.11
663.483	0.11
663.667	0.16
663.852	0.06
664.037	0.17
664.221	0.08
664.406	0.14
664.591	0.13
664.775	0.09
664.96	0.09
665.145	0.1
665.329	0.11
665.514	0.06
665.698	0.09
665.883	-0.02
666.068	0.13
666.252	0.09
666.437	0.02
666.621	0.04
666.806	0.09
666.99	0.06
667.174	0.03
667.359	0.08
667.543	0.05
667.728	0.03
667.912	0.01
668.096	0.08
668.281	0.02
668.465	0.04
668.649	0.05
668.834	-0.01
669.018	-0.01
669.202	0.04
669.387	-0.02
669.571	0.08
669.755	0.01
669.939	0.04
670.124	0.02
670.308	0.1
670.492	0.06
670.676	0.03
670.86	0.01
671.044	-0.06
671.228	0.06
671.413	-0.05
671.597	-0.04
671.781	-0.02
671.965	0.01
672.149	0.01
672.333	-0.03
672.517	-0.01
672.701	0.06
672.885	-0
673.069	-0.06
673.253	0.03
673.437	-0.02
673.621	-0.01
673.804	0.01
673.988	0.03
674.172	0.04
674.356	-0.06
674.54	-0.04
674.724	0.04
674.908	0
675.091	0.03
675.275	-0.02
675.459	0.04
675.643	0.06
675.826	0
676.01	-0.02
676.194	0.02
676.377	0.02
676.561	-0
676.745	-0.05
676.928	-0.01
677.112	0.05
677.296	-0.05
677.479	-0.06
677.663	-0.03
677.846	0.02
678.03	0.01
678.213	-0.05
678.397	-0
678.58	-0.01
678.764	-0.02
678.947	-0.06
679.131	-0.06
679.314	0.05
679.498	-0.01
679.681	-0.03
679.865	0.1
680.048	-0.02
680.231	-0.01
680.415	-0.03
680.598	-0.02
680.781	-0.04
680.965	-0.02
681.148	-0.04
681.331	-0.04
681.514	-0.02
681.698	-0.03
681.881	0.02
682.064	-0.02
682.247	0
682.43	-0.09
682.614	0.01
682.797	0.05
682.98	0.01
683.163	-0.09
683.346	0.02
683.529	-0.04
683.712	-0.01
683.895	-0.02
684.078	-0.05
684.261	-0.07
684.444	-0
684.627	0
684.81	-0
684.993	-0.03
685.176	0.03
685.359	-0.02
685.542	-0.01
685.725	0.02
685.908	0.04
686.091	-0.04
686.274	0.01
686.457	0.03
686.639	-0.03
686.822	0
687.005	0.01
687.188	-0.01
687.371	0.01
687.553	0
687.736	0.02
687.919	0.07
688.102	0.04
688.284	-0.03
688.467	-0.01
688.65	-0.01
688.832	-0.09
689.015	-0.01
689.197	-0.05
689.38	0.07
689.563	0.03
689.745	-0.03
689.928	-0.07
690.11	0
690.293	0.01
690.475	-0.11
690.658	-0.01
690.84	-0
691.023	-0.03
691.205	-0.06
691.388	-0.02
691.57	0.04
691.752	0.01
691.935	-0.06
692.117	-0.04
692.3	-0.04
692.482	-0.02
692.664	-0.03
692.847	0.02
693.029	0.04
693.211	0.03
693.393	-0.02
693.576	-0.05
693.758	-0.03
693.94	0
694.122	0.01
694.304	-0.05
694.487	-0.05
694.669	0.03
694.851	-0.06
695.033	-0
695.215	-0.06
695.397	-0.05
695.579	-0.04
695.761	-0.02
695.943	-0.05
696.125	-0.01
696.308	0.02
696.49	-0.11
696.671	0.06
696.853	0.03
697.035	0.11
697.217	-0.05
697.399	0.03
697.581	-0.08
697.763	-0.03
697.945	-0.08
698.127	0
698.309	-0
698.491	-0.02
698.672	0
698.854	0.04
699.036	0.05
699.218	-0.06
699.399	-0
699.581	0.03
699.763	-0.03
699.945	-0.02
700.126	-0.08
700.308	-0.02
700.49	-0.07
700.671	-0.11
700.853	-0.08
701.035	-0.04
701.216	0.01
701.398	-0.06
701.579	-0.01
701.761	0.07
701.943	-0.04
702.124	-0.05
702.306	-0.06
702.487	0.06
702.669	-0.04
702.85	-0.1
703.031	-0.07
703.213	0.08
703.394	0.08
703.576	-0.01
703.757	0.03
703.938	0.02
704.12	0.12
704.301	-0.03
704.483	-0.04
704.664	0.01
704.845	0.04
705.026	0.01
705.208	-0.06
705.389	0.02
705.57	-0.04
705.751	0.02
705.933	-0.01
706.114	0.08
706.295	0.01
706.476	-0.05
706.657	0.03
706.838	-0.03
707.02	-0.02
707.201	-0.05
707.382	-0.09
707.563	-0.04
707.744	-0.05
707.925	-0.12
708.106	-0.09
708.287	-0
708.468	0.08
708.649	-0.02
708.83	0.01
709.011	-0.05
709.192	-0.02
709.373	-0.07
709.554	-0.01
709.734	0.01
709.915	0.06
710.096	-0.07
710.277	-0.18
710.458	-0.1
710.639	0.04
710.819	-0.1
711	-0.02
711.181	0.05
711.362	0.08
711.542	-0.03
711.723	-0.03
711.904	0.03
712.085	-0.01
712.265	0.02
712.446	-0.08
712.627	-0.05
712.807	-0.06
712.988	-0.03
713.168	-0.16
713.349	-0.01
713.53	-0.08
713.71	-0.12
713.891	-0.09
714.071	0.06
714.252	-0.06
714.432	-0.11
714.613	-0.12
714.793	-0.05
714.974	0
715.154	0.03
715.334	0.03
715.515	0.04
715.695	-0.07
715.876	-0.06
716.056	0.02
716.236	-0.06
716.417	-0.04
716.597	-0.08
716.777	0.06
716.957	-0.08
717.138	-0.03
717.318	-0.06
717.498	-0.11
717.678	0.01
717.859	0.01
718.039	-0.08
718.219	0.04
718.399	-0
718.579	-0.04
718.759	-0.07
718.939	-0.03
719.12	-0.05
719.3	-0.07
719.48	-0.14
719.66	-0.14
719.84	0.04
720.02	-0.06
720.2	-0.07
720.38	0.02
720.56	0.02
720.74	-0.08
720.92	0.04
721.1	0.11
721.279	-0.01
721.459	-0.08
721.639	-0.09
721.819	-0.06
721.999	0.02
722.179	0
722.359	-0.1
722.538	-0.01
722.718	-0.03
722.898	-0.07
723.078	-0.01
723.257	-0.02
723.437	0.05
723.617	-0.04
723.797	-0.02
723.976	0.01
724.156	-0.07
724.336	-0.01
724.515	0.11
724.695	-0.15
724.874	-0.01
725.054	0.12
725.234	-0.07
725.413	0.07
725.593	-0.02
725.772	-0.07
725.952	-0.05
726.131	-0
726.311	-0.03
726.49	-0.01
726.67	-0.1
726.849	-0.02
727.028	0.06
727.208	-0.05
727.387	-0.06
727.567	-0.1
727.746	-0.01
727.925	-0.18
728.105	-0.08
728.284	-0.06
728.463	-0.08
728.643	-0.02
728.822	-0.1
729.001	0
729.18	-0.03
729.359	0.06
729.539	-0.08
729.718	0.03
729.897	0.04
730.076	-0.08
730.255	-0.11
730.434	-0.03
730.614	-0.01
730.793	0.01
730.972	-0.1
731.151	-0.03
731.33	0.01
731.509	0.01
731.688	-0.06
731.867	-0.04
732.046	-0.17
732.225	0.15
732.404	-0.05
732.583	-0.14
732.762	0.03
732.941	0.04
733.12	-0.04
733.298	-0.03
733.477	0.03
733.656	-0.08
733.835	-0.21
734.014	0.14
734.193	0.02
734.371	0.04
734.55	-0.01
734.729	-0.2
734.908	0.06
735.086	0.04
735.265	0
735.444	-0.28
735.623	-0.1
735.801	-0.12
735.98	-0.09
736.159	-0.05
736.337	0.04
736.516	-0.06
736.694	-0.01
736.873	-0.05
737.052	0.04
737.23	-0.06
737.409	-0.07
737.587	0.02
737.766	-0.19
737.944	-0.19
738.123	0.03
738.301	0.06
738.479	-0.09
738.658	-0.04
738.836	-0.19
739.015	0.04
739.193	0.1
739.371	-0.17
739.55	-0.05
739.728	-0.14
739.906	-0.02
740.085	0.08
740.263	-0.18
740.441	-0.19
740.62	0.05
740.798	-0.07
740.976	-0.1
741.154	-0.06
741.332	0.08
741.511	-0.09
741.689	-0.05
741.867	-0
742.045	-0.04
742.223	-0.05
742.401	-0
742.579	-0.02
742.757	-0.04
742.935	-0.21
743.114	-0.08
743.292	-0.07
743.47	0.04
743.648	-0.06
743.826	-0.14
744.004	0.05
744.181	0.01
744.359	-0.05
744.537	-0.04
744.715	0.02
744.893	-0.1
745.071	-0.15
745.249	-0.13
745.427	0.01
745.605	0.03
745.782	0.05
745.96	0.05
746.138	0.01
746.316	0.03
746.493	-0.02
746.671	-0.07
746.849	-0.07
747.027	-0
747.204	-0.16
747.382	0.01
747.56	-0.14
747.737	0.02
747.915	-0.06
748.093	-0
748.27	-0.06
748.448	-0.06
748.625	-0.13
748.803	-0.06
748.98	-0.04
749.158	-0.04
749.335	0.03
749.513	-0.07
749.69	-0.1
749.868	-0.06
750.045	-0.09
750.223	-0.11
750.4	-0.23
750.578	0.15
750.755	-0.04
750.932	-0.15
751.11	0.14
751.287	-0.17
751.464	0.01
751.642	-0.1
751.819	0.06
751.996	-0.05
752.173	-0.04
752.351	-0.04
752.528	0.05
752.705	0.01
752.882	-0.05
753.06	-0.11
753.237	-0.04
753.414	0.07
753.591	0.02
753.768	-0.03
753.945	-0.09
754.122	-0.11
754.299	-0.02
754.476	-0.1
754.654	-0.11
754.831	0.09
755.008	-0.06
755.185	0.01
755.362	-0.11
755.539	0.04
755.716	-0.27
755.892	-0.03
756.069	-0.13
756.246	-0.09
756.423	-0.08
756.6	0.04
756.777	-0.15
756.954	0.13
757.131	0.02
757.307	-0.1
757.484	-0.19
757.661	-0.07
757.838	0.02
758.015	-0.13
758.191	0.03
758.368	0.01
758.545	0.14
758.721	0.03
758.898	-0.05
759.075	-0.05
759.251	0.01
759.428	0
759.605	-0.12
759.781	-0.05
759.958	0.07
760.134	0.04
760.311	-0.05
760.488	-0.04
760.664	0.1
760.841	-0.05
761.017	-0.22
761.194	0.09
761.37	0.08
761.547	0
761.723	-0.08
761.899	0.07
762.076	-0.2
762.252	-0.24
762.429	-0.12
762.605	0.11
762.781	-0.06
762.958	0.1
763.134	-0.07
763.31	-0.12
763.486	0.11
763.663	-0.16
763.839	-0.04
764.015	-0.15
764.191	-0.06
764.368	-0.02
764.544	-0.07
764.72	-0.23
764.896	0.09
765.072	0.01
765.248	-0.07
765.425	-0.11
765.601	-0.12
765.777	-0.19
765.953	-0.23
766.129	-0.1
766.305	-0.15
766.481	0.02
766.657	-0.06
766.833	0.07
767.009	-0.35
767.185	-0.05
767.361	-0.08
767.537	-0.14
767.713	0.06
767.889	-0.08
768.065	-0.01
768.24	0.06
768.416	0.12
768.592	-0.06
768.768	0.05
768.944	-0.06
769.12	-0.14
769.295	-0.09
769.471	0.11
769.647	0.02
769.823	0.06
769.998	-0.05
770.174	-0.02
770.35	0.33
770.525	0.23
770.701	-0.04
770.877	0.06
771.052	-0.01
771.228	0.14
771.403	0
771.579	0.05
771.755	0.17
771.93	-0.17
772.106	-0.22
772.281	-0.14
772.457	0.08
772.632	0.02
772.808	-0.23
772.983	-0.17
773.159	-0.33
773.334	0.27
773.509	-0.02
773.685	-0.23
773.86	0.17
774.036	0.14
774.211	-0.04
774.386	-0.09
774.562	-0.04
774.737	-0.04
774.912	-0.07
775.087	-0.01
775.263	0.09
775.438	0.05
775.613	-0.16
775.788	-0.12
775.964	-0.08
776.139	0.22
776.314	0.02
776.489	-0.09
776.664	0.05
776.839	-0.12
777.014	-0.02
777.19	0
777.365	0.18
777.54	0.2
777.715	-0.23
777.89	-0.1
778.065	-0.28
778.24	-0.12
778.415	0.02
778.59	-0.22
778.765	-0.16
778.94	-0.11
779.115	-0.25
779.289	-0.17
779.464	-0.09
779.639	-0.18
779.814	-0.21
779.989	-0.14
780.164	0.05
780.339	-0.16
780.513	-0.08
780.688	-0.15
780.863	-0.14
781.038	0.11
781.212	-0.2
781.387	0.01
781.562	0.18
781.737	-0.16
781.911	0.05
782.086	0.01
782.261	-0.08
782.435	0.19
782.61	-0.21
782.784	-0.12
782.959	0.05
783.134	-0.26
783.308	-0.35
783.483	-0.05
783.657	0.12
783.832	-0.03
784.006	-0.22
784.181	0.03
784.355	0.08
784.53	-0.46
784.704	-0.23
784.878	0.27
785.053	0.04
785.227	0.08
785.402	0.4
785.576	-0.43
785.75	0.02
785.925	-0.06
786.099	-0.21
786.273	-0.22
786.448	0.04
786.622	0.12
786.796	-0.37
786.97	-0.1
787.145	0.35
787.319	-0.52
787.493	-0.19
787.667	-0.26
787.841	-0.17
788.015	0.18
788.19	-0.05
788.364	0.18
788.538	-0.02
788.712	0.2
788.886	-0.07
789.06	0.25
789.234	0.15
789.408	-0.35
789.582	-0.26
789.756	-0.13
789.93	-0.32
790.104	-0.09
790.278	-0.27
790.452	-0.24
790.626	0.02
790.8	0.01
790.973	0.07
791.147	0.25
791.321	0.02
791.495	0.16
791.669	-0.01
791.843	-0.03
792.016	-0.15
792.19	0.28
792.364	-0.29
792.538	0.22
792.711	0.1
792.885	-0.05
793.059	-0.29
793.233	-0.49
793.406	0.23
793.58	0.06
793.754	0.24
793.927	-0.16
794.101	0.22
794.274	-0.17
794.448	0.14
794.622	-0.15
794.795	0.21
794.969	-0.08
795.142	0.29
795.316	-0.12
795.489	-0.14
795.663	0.37
795.836	-0.11
796.009	-0.21
796.183	0.33
796.356	0.08
796.53	-0.12
796.703	-0.22
796.876	0.54
797.05	-0.2
797.223	-0.31
797.396	0.03
797.57	-0.14
797.743	0.44
797.916	0.08
798.09	0.04
798.263	0.09
798.436	0.09
798.609	-0.28
798.782	-0.22
798.956	-0.07
799.129	0.05
799.302	-0.05
799.475	-0.33
799.648	-0.07
799.821	-0.02
799.994	0.06
800.167	-0.54
800.34	0.05
800.514	0.19
800.687	-0.4
800.86	-0.14
801.033	-0.22
801.206	0.25
801.379	-0.39
801.551	0.14
801.724	0.16
801.897	0.05
802.07	-0.37
802.243	-0.71
802.416	-0.3
802.589	-0.29
802.762	-0.14
802.935	-0.12
803.107	-0.35
803.28	0.09
803.453	0.1
803.626	-0.51
803.798	-0.22
803.971	-0.18
804.144	-0.1
804.317	0.14
804.489	0.21
804.662	-0.51
804.835	0.1
805.007	-0.53
805.18	0.39
805.353	0.01
805.525	-0.2
805.698	0.05
805.87	-0
806.043	0.01
806.215	-0.15
806.388	-0.28
806.56	-0.01
806.733	0.2
806.905	0.01
807.078	-0.61
807.25	-0.35
807.423	0.34
807.595	-0.1
807.768	-0.02
807.94	0.02
808.112	0.24
808.285	-0.24
808.457	-0.36
808.629	0.13
808.802	-0.13
808.974	-0.18
809.146	-0.35
809.318	-0.21
809.491	0.35
809.663	0.14
809.835	0.02
810.007	0.16
810.18	0.07
810.352	-0.47
810.524	-0.23
810.696	-0.01
810.868	0.18
811.04	-0.13
811.212	-0.31
811.384	0.19
811.556	-0.01
811.728	-0.14
811.901	0.52
812.073	-0.09
812.245	0.11
812.417	-0.08
812.589	-0.59
812.76	0.27
812.932	-0.18
813.104	-0.11
813.276	-0.08
813.448	0.39
813.62	-0.1
813.792	0.05
813.964	-0.16
814.136	0.15
814.307	-0.38
814.479	-0.49
814.651	-0.13
814.823	0.3
814.995	-0.03
815.166	-0.13
815.338	-0.2
815.51	-0.49
815.681	0.57
815.853	-0.47
816.025	0.06
816.196	0.53
816.368	0.1
816.54	-0.33
816.711	-0.35
816.883	0.08
817.054	1.18
817.226	-0.58
817.398	0.07
817.569	-0.02
817.741	-0.11
817.912	0.17
818.084	-0.11
818.255	0.19
818.426	-0.45
818.598	-0.22
818.769	-0.55
818.941	-0.03
819.112	0.61
819.283	0.23
819.455	-0.29
819.626	-0.15
819.798	-0.22
819.969	-0.2
820.14	-0.31
820.311	-0.34
820.483	-0.14
820.654	0.14
820.825	-0.19
820.996	-0.14
821.168	-0.54
821.339	0.18
821.51	-0.39
821.681	-0.06
821.852	-0.11
822.023	-0.59
822.195	-0.19
822.366	0.27
822.537	0.13
822.708	0.1
822.879	-0.47
823.05	0.28
823.221	0.06
823.392	-0.14
823.563	-0.29
823.734	0.04
823.905	-0.18
824.076	0.09
824.247	-0.59
824.418	-0.47
824.589	0.42
824.759	-0.19
824.93	-0.1
825.101	-0.63
825.272	0.63
825.443	0.49
825.614	0.16
825.784	-1.12
825.955	0.55
826.126	0.09
826.297	-0.22
826.467	1.31
826.638	0.7
826.809	-0.86
826.98	0.02
827.15	0.56
827.321	-0.6
827.492	0.94
827.662	-0.13
827.833	0.79
828.003	0.31
828.174	-1.38
828.345	-0.57
828.515	0.14
828.686	0.15
828.856	-0.23
829.027	-0.01
829.197	-0.09
829.368	0.25
829.538	-0.58
829.709	-0.14
829.879	-0.16
830.049	0.39
830.22	-0.67
830.39	0.17
830.56	0.72
830.731	-1.04
830.901	-0.5
831.072	0.19
831.242	-0.32
831.412	0.13
831.582	-0.24
831.753	-0.17
831.923	0.25
832.093	-0.31
832.263	-0.39
832.434	-0.34
832.604	-0.41
832.774	0.21
832.944	-0
833.114	-0.66
833.284	0
833.454	-0.85
833.624	-0.08
833.795	-0.16
833.965	0.04
834.135	0.16
834.305	-0.93
834.475	-0.54
834.645	0.12
834.815	-0.52
834.985	-1.11
835.155	-0.67
835.325	-0.15
835.494	0.11
835.664	-0.17
835.834	-0.96
836.004	0.06
836.174	-0.06
836.344	-0.17
836.514	-0.43
836.684	0.37
836.853	0.07
837.023	-0.96
837.193	-0.92
837.363	0.6
837.532	1.07
837.702	-0.02
837.872	-0.27
838.041	0.7
838.211	0.75
838.381	-0.76
838.55	0.07
838.72	0.82
838.89	1.18
839.059	-0.63
839.229	-0.89
839.398	0.9
839.568	-0.1
839.738	0.5
839.907	0.19
840.077	0.3
840.246	-0.47
840.416	-0.83
840.585	-0.96
840.755	0.86
840.924	0.84
841.093	-0.95
841.263	-0.01
841.432	0.17
841.602	-0.62
841.771	-0.76
841.94	-0.26
842.11	1.94
842.279	1.22
842.448	-0.39
842.617	-1.13
842.787	0.17
842.956	-0.53
843.125	-0
843.294	0.68
843.464	0.93
843.633	0.01
843.802	-0.82
843.971	0.44
844.14	0.37
844.309	0.04
844.479	-0.9
844.648	-1.42
844.817	-0.19
844.986	-0.67
845.155	-0.67
845.324	0.01
845.493	-0.7
845.662	-0.41
845.831	0.04
846	0.14
846.169	-1
846.338	0.55
846.507	0.38
846.676	0.82
846.844	-0.83
847.013	0.78
847.182	0.24
847.351	0.01
847.52	-0.73
847.689	0.51
847.858	-0.09
848.026	-0.02
848.195	-0.7
848.364	-1.12
848.533	0.1
848.701	0.34
848.87	-0.37
849.039	0.92
849.207	0.63
849.376	0.51
849.545	0.43
849.713	-0.33
849.882	-1.12
850.051	-1.29
850.219	0.56
850.388	1.06
850.556	-1.36
850.725	-1.13
850.893	0.23
851.062	-0.27
851.23	0.46
851.399	-0.8
851.567	-0.66
851.736	-1.1
851.904	-0.95
852.073	0.37
852.241	1.39
852.41	0.29
852.578	-1.3
852.746	-1.33
852.915	-0.65
853.083	-0.28
853.251	-1.87
853.42	-0.87
853.588	-0.5
853.756	0.09
853.924	-0.62
854.093	-0.38
854.261	-0.68
854.429	-1.54
854.597	0.3
854.765	-0.42
854.934	-0.48
855.102	0.79
855.27	-0.04
855.438	-0.22
855.606	-0.24
855.774	0.5
855.942	-1.38
856.11	-1.91
856.278	1.19
856.446	1.62
856.614	-0
856.782	0.53
856.95	0.23
857.118	1.09
857.286	-0.69
857.454	0.19
857.622	1
857.79	0.09
857.958	-1.51
858.126	-0.97
858.294	-2.88
858.462	-0.28
858.629	-0.52
858.797	-1.38
858.965	-1.07
859.133	0.47
859.301	-0.96
859.468	0.22
859.636	-0.56
859.804	1.17
859.971	-0.06
860.139	-0.49
860.307	0.85
860.474	-1.75
860.642	-0.54
860.81	-1.1
860.977	-1.02
861.145	0.19
861.313	-0.87
861.48	-0.32
861.648	0.62
861.815	0.25
861.983	-2.19
862.15	-0.4
862.318	0.12
862.485	0.64
862.653	-1.46
862.82	-0.76
862.988	1.07
863.155	0.83
863.322	-1.59
863.49	-1.74
863.657	-0.58
863.824	1.37
863.992	1.8
864.159	-0.27
864.326	1.49
864.494	-1.95
864.661	2.98
864.828	-1.98
864.996	0.71
865.163	0.21
865.33	-1.62
865.497	-2.95
865.664	-1.31
865.832	-2.22
865.999	0.81
866.166	-1.84
866.333	-0.93
866.5	-1.28
866.667	-0.11
866.834	-0.71
867.001	0.85
867.168	-2.01
867.335	-1.07
867.502	-0.83
867.669	-0.67
867.836	2.23
868.003	-0.39
868.17	0.2
868.337	-0.71
868.504	1.74
868.671	-0.73
868.838	-1.7
869.005	-0.53
869.172	1.13
869.339	-0.01
869.505	-0.68
869.672	-0.13
869.839	1.33
870.006	0.61
870.173	-2.67
870.339	-0.15
870.506	2.19
870.673	-1.4
870.84	1.1
871.006	0.11
871.173	0.39
871.34	-0.17
871.506	0.2
871.673	0.35
871.839	-2.93
872.006	0.22
872.173	-1.26
872.339	-0.37
872.506	-0.04
872.672	-0.44
872.839	-1.59
873.005	-1.65
873.172	2.31
873.338	-0.36
873.505	0.31
873.671	-0.01
873.838	1.23
874.004	-1.33
874.171	-1.2
874.337	-0.3
874.503	0.15
874.67	-0.97
874.836	-0.75
875.002	2.24
875.169	0.24
875.335	-1.42
875.501	-0.83
875.668	-3.51
875.834	-0.71
876	-1.41
876.166	1.46
876.332	0.07
876.499	3.33
876.665	-0.24
876.831	-0.17
876.997	0.54
877.163	1.83
877.329	-2.29
877.495	-0.41
877.662	-1.01
877.828	-0.37
877.994	0.14
878.16	-2.69
878.326	-2.19
878.492	-1.23
878.658	-0.65
878.824	1.07
878.99	-1.2
879.156	-1.03
879.322	2.29
879.487	-1.56
879.653	-0.19
879.819	1.32
879.985	-1.38
880.151	-1.27
880.317	1.55
880.483	2.18
880.648	1.06
880.814	-1.18
880.98	-0.01
881.146	-2.93
881.312	-0.51
881.477	-1.98
881.643	0.03
881.809	0.67
881.974	2.06
882.14	-3.57
882.306	-1.32
882.471	2.1
882.637	-3.46
882.803	0.33
882.968	2.22
883.134	2.52
883.299	-0.4
883.465	0.22
883.63	0.91
883.796	0.14
883.961	1.27
884.127	0.64
884.292	-4.7
884.458	-3.14
884.623	-3.14
