Data from Apollo_Calib_20240827__AbsoluteIrradiance__562__08-31-01-082.txt Node

Date: Wed Aug 28 08:31:01 BST 2024
User: biology
Spectrometer: FLMT08252
Trigger mode: 0
Integration Time (sec): 5.000000E-1
Scans to average: 5
Electric dark correction enabled: true
Nonlinearity correction enabled: false
Boxcar width: 0
XAxis mode: Wavelengths
Number of Pixels in Spectrum: 3648
>>>>>Begin Spectral Data<<<<<
179.588	-0
179.809	-0
180.03	-0
180.251	-0
180.473	-0
180.694	0
180.915	0
181.136	-0
181.357	-0
181.578	0
181.799	-0
182.02	-0
182.241	0
182.462	-0
182.683	0
182.904	-0
183.125	0
183.346	0
183.567	0
183.788	-0
184.009	-0
184.23	0
184.451	0
184.672	-0
184.892	-0
185.113	0
185.334	0
185.555	-0
185.776	-0
185.996	0
186.217	0
186.438	0
186.659	-0
186.879	0
187.1	-0
187.321	0
187.541	-0
187.762	0
187.983	-0
188.203	-0
188.424	0
188.644	0
188.865	0
189.086	-0
189.306	-0
189.527	-0
189.747	-0
189.968	-0
190.188	0
190.409	0
190.629	0
190.849	-0
191.07	-0
191.29	0
191.511	0
191.731	-0
191.951	-0
192.172	0
192.392	0
192.612	0
192.833	0
193.053	0
193.273	0
193.493	-0
193.714	0
193.934	0
194.154	0
194.374	-0
194.594	0
194.815	-0
195.035	0
195.255	0
195.475	-0
195.695	0
195.915	0
196.135	-0
196.355	0
196.575	0
196.795	0
197.015	-0
197.235	0
197.455	-0
197.675	0
197.895	-0
198.115	-0
198.335	0
198.555	0
198.775	0
198.995	-0
199.214	0
199.434	0
199.654	-0
199.874	0
200.094	0.78
200.313	-0.07
200.533	-0.25
200.753	-0.26
200.973	1.07
201.192	0.33
201.412	-0.52
201.632	-0.1
201.851	0.97
202.071	-0.25
202.291	-0.01
202.51	-0.61
202.73	0.4
202.95	-0.04
203.169	-0.55
203.389	0.01
203.608	0.22
203.828	-0.51
204.047	-0.17
204.267	0.45
204.486	0.13
204.706	-0.32
204.925	0.11
205.145	-0.16
205.364	-0.04
205.583	0.5
205.803	-0.22
206.022	-0.42
206.242	0.14
206.461	-0.1
206.68	-0.29
206.9	0.45
207.119	0.58
207.338	0.46
207.557	0.11
207.777	-0.23
207.996	-0.29
208.215	0.44
208.434	-0.09
208.654	-0.39
208.873	-0.01
209.092	0.51
209.311	-0.04
209.53	-0.04
209.749	-0.24
209.968	-0.39
210.187	-0.27
210.407	-0.19
210.626	-0.18
210.845	0.28
211.064	-0.08
211.283	-0.27
211.502	0.3
211.721	-0.16
211.94	-0.06
212.159	0.21
212.377	0.4
212.596	0.42
212.815	0.05
213.034	0.38
213.253	0.42
213.472	0.04
213.691	-0.06
213.91	-0.06
214.128	-0.18
214.347	0.37
214.566	-0.18
214.785	-0.31
215.003	0.23
215.222	0.23
215.441	-0.04
215.66	-0.19
215.878	0.01
216.097	0.27
216.316	-0.15
216.534	-0
216.753	0.02
216.972	-0.01
217.19	-0.07
217.409	-0.07
217.627	0.01
217.846	0.01
218.064	0.15
218.283	-0.21
218.501	0.44
218.72	0.28
218.938	-0.12
219.157	-0.03
219.375	0.29
219.594	0.28
219.812	-0.12
220.031	-0.21
220.249	0.25
220.467	0.21
220.686	0.02
220.904	-0.13
221.122	-0.05
221.341	0.29
221.559	0.12
221.777	-0.06
221.995	0.06
222.214	0.04
222.432	-0.17
222.65	0.21
222.868	0.08
223.086	-0.01
223.305	0.2
223.523	0.12
223.741	0.38
223.959	-0.11
224.177	-0.14
224.395	0.05
224.613	0.22
224.831	0.03
225.049	0
225.267	-0.07
225.485	0.05
225.703	-0.05
225.921	0.07
226.139	-0.08
226.357	0.14
226.575	0.02
226.793	-0.04
227.011	0.41
227.229	0.12
227.447	0.17
227.665	-0.02
227.883	-0.15
228.1	0.09
228.318	0.08
228.536	-0.11
228.754	-0.02
228.972	0.11
229.189	0.06
229.407	-0.05
229.625	-0.15
229.843	0.2
230.06	0.1
230.278	-0.13
230.496	0
230.713	-0.02
230.931	0.31
231.149	-0.17
231.366	-0.22
231.584	0.01
231.801	0.39
232.019	0.03
232.236	-0.15
232.454	-0.11
232.671	0.12
232.889	0.08
233.106	-0.07
233.324	0.12
233.541	-0.09
233.759	0.06
233.976	-0.05
234.194	0.01
234.411	0.12
234.628	-0.08
234.846	0.01
235.063	0.01
235.28	0.02
235.498	-0.04
235.715	-0.03
235.932	0.11
236.149	-0.01
236.367	-0.06
236.584	0.05
236.801	-0.02
237.018	0.11
237.236	0.05
237.453	-0.09
237.67	0.14
237.887	-0.02
238.104	-0
238.321	-0.09
238.538	-0.09
238.755	0.17
238.973	-0.05
239.19	0.01
239.407	0.07
239.624	0.04
239.841	-0.13
240.058	-0.01
240.275	-0.03
240.492	-0.07
240.709	0.05
240.925	-0.1
241.142	-0.01
241.359	-0.2
241.576	-0.03
241.793	-0.09
242.01	0.09
242.227	0.03
242.444	0.09
242.66	0.02
242.877	0.05
243.094	-0.07
243.311	-0.02
243.527	0.07
243.744	0.03
243.961	0.04
244.178	-0
244.394	0.02
244.611	0.15
244.828	0.17
245.044	0.04
245.261	0.02
245.477	-0
245.694	0.17
245.911	-0.09
246.127	0.05
246.344	0.11
246.56	0.05
246.777	-0.08
246.993	0.07
247.21	0.15
247.426	0.03
247.643	-0.05
247.859	-0.06
248.076	-0.03
248.292	0.18
248.508	-0.04
248.725	0.1
248.941	-0.02
249.157	0.2
249.374	-0.04
249.59	0.08
249.806	0.05
250.023	0.13
250.239	0.01
250.455	-0.03
250.671	0.05
250.888	0
251.104	0.09
251.32	-0.04
251.536	0.01
251.752	0
251.969	0.03
252.185	0.02
252.401	0.22
252.617	0.05
252.833	-0.05
253.049	0.03
253.265	-0.02
253.481	0.01
253.697	-0.01
253.913	-0.11
254.129	0.02
254.345	-0.03
254.561	-0.02
254.777	-0
254.993	-0.01
255.209	0.04
255.425	-0.01
255.641	-0.05
255.857	0.17
256.073	0
256.288	-0.04
256.504	-0.08
256.72	0.12
256.936	0.11
257.152	-0.03
257.367	-0.06
257.583	0.06
257.799	0.1
258.015	-0.13
258.23	0.02
258.446	0.08
258.662	0.02
258.877	-0.06
259.093	-0.06
259.309	0.05
259.524	-0.05
259.74	0.02
259.955	-0.02
260.171	0.07
260.387	-0.06
260.602	0.06
260.818	0.05
261.033	-0.04
261.249	-0.03
261.464	0
261.68	-0.09
261.895	-0.05
262.11	0.06
262.326	-0.04
262.541	-0.04
262.757	0.08
262.972	0.03
263.187	0.09
263.403	-0
263.618	0.08
263.833	0.01
264.049	-0.03
264.264	0.02
264.479	0.03
264.694	0.1
264.91	-0.04
265.125	-0.02
265.34	0.05
265.555	0.13
265.77	-0.01
265.986	-0.02
266.201	0.08
266.416	0.14
266.631	0.09
266.846	-0.02
267.061	0.07
267.276	0.01
267.491	-0.11
267.706	0.11
267.921	0.07
268.136	-0.04
268.351	0.04
268.566	-0.04
268.781	0.13
268.996	0.04
269.211	-0.02
269.426	-0.11
269.641	-0.02
269.856	0.06
270.071	-0.04
270.285	-0.09
270.5	0.08
270.715	0.15
270.93	-0.03
271.145	0
271.359	0.03
271.574	0
271.789	0.04
272.004	-0.02
272.218	0.03
272.433	0.05
272.648	-0.03
272.862	0.02
273.077	0.01
273.292	0.05
273.506	-0.05
273.721	0.02
273.936	0.08
274.15	0
274.365	0.04
274.579	0.06
274.794	0.05
275.008	0.1
275.223	-0.02
275.437	-0.04
275.652	0.07
275.866	-0.02
276.081	0.03
276.295	0.06
276.509	0.08
276.724	0.01
276.938	0.05
277.153	0.01
277.367	0.05
277.581	-0.06
277.796	0.01
278.01	-0.02
278.224	0.05
278.438	0.12
278.653	-0.1
278.867	-0.02
279.081	-0.16
279.295	-0.02
279.51	0.01
279.724	-0.08
279.938	0.05
280.152	0.02
280.366	-0.05
280.58	0.04
280.794	0.07
281.008	0.05
281.222	0.05
281.437	0.15
281.651	0.01
281.865	0.15
282.079	-0.02
282.293	-0.04
282.507	-0.03
282.721	0.01
282.935	0.04
283.148	-0.03
283.362	0.01
283.576	-0.07
283.79	0.03
284.004	0.05
284.218	0.12
284.432	0.01
284.646	-0.04
284.859	-0.02
285.073	-0.03
285.287	0.04
285.501	0.01
285.714	-0.01
285.928	0.06
286.142	0.03
286.356	-0.02
286.569	-0
286.783	0.04
286.997	-0.01
287.21	0.02
287.424	-0.01
287.637	0.02
287.851	-0
288.065	0.05
288.278	-0.02
288.492	-0.01
288.705	0.03
288.919	0.04
289.132	-0.05
289.346	0.05
289.559	-0.07
289.773	-0.05
289.986	-0.04
290.2	0.04
290.413	0.04
290.626	-0.03
290.84	-0.02
291.053	0.01
291.267	0.06
291.48	0.01
291.693	0.05
291.906	-0.05
292.12	0.03
292.333	-0.07
292.546	-0.01
292.76	0.1
292.973	-0
293.186	0.04
293.399	0.02
293.612	0.08
293.826	-0.01
294.039	-0.02
294.252	-0.03
294.465	0.06
294.678	0.03
294.891	0.01
295.104	-0.02
295.317	0
295.53	-0.01
295.743	0.01
295.956	0.01
296.169	0.08
296.382	0.02
296.595	0.03
296.808	-0.03
297.021	0.11
297.234	0.03
297.447	0.03
297.66	0.01
297.873	0.06
298.086	0.03
298.299	-0.04
298.511	-0.06
298.724	-0.01
298.937	-0.03
299.15	-0.01
299.363	0.02
299.575	0.06
299.788	-0
300.001	-0.02
300.213	0
300.426	-0
300.639	-0.01
300.852	-0.01
301.064	0.08
301.277	0.07
301.489	0.07
301.702	0.03
301.915	0.02
302.127	0.01
302.34	0.08
302.552	0.01
302.765	-0.01
302.977	0.04
303.19	-0.05
303.402	-0.01
303.615	0.04
303.827	0.01
304.04	0.01
304.252	0.02
304.464	0.01
304.677	0.14
304.889	0.05
305.102	-0.01
305.314	0.01
305.526	0.05
305.739	0.02
305.951	0
306.163	-0.02
306.375	0.07
306.588	0.01
306.8	0.03
307.012	-0.07
307.224	-0.01
307.436	0.07
307.649	-0.08
307.861	0.03
308.073	0.06
308.285	0.03
308.497	-0.01
308.709	-0.01
308.921	0.03
309.133	0.06
309.346	-0.05
309.558	0.05
309.77	0.05
309.982	0.04
310.194	0.05
310.406	-0.04
310.617	0.1
310.829	0.06
311.041	0.05
311.253	-0.01
311.465	-0
311.677	0.05
311.889	0
312.101	0.02
312.313	0.04
312.524	0.07
312.736	-0.07
312.948	0.02
313.16	0.1
313.372	0.04
313.583	0.06
313.795	0
314.007	-0.01
314.218	0.05
314.43	0
314.642	-0.03
314.853	0.01
315.065	0.06
315.277	0.05
315.488	0.03
315.7	0.07
315.912	0.05
316.123	0
316.335	0.01
316.546	0.12
316.758	0.06
316.969	-0.02
317.181	0.01
317.392	0.03
317.604	0.02
317.815	-0.02
318.026	-0.01
318.238	-0.03
318.449	-0.01
318.661	-0.05
318.872	-0.01
319.083	-0.02
319.295	0.06
319.506	-0.04
319.717	0.05
319.929	0.01
320.14	-0.01
320.351	0.04
320.562	0.01
320.774	0.02
320.985	0.02
321.196	-0.01
321.407	-0.03
321.618	0.04
321.829	0.04
322.041	0.01
322.252	0
322.463	0.07
322.674	0.02
322.885	-0
323.096	-0.03
323.307	0.01
323.518	-0
323.729	-0.04
323.94	-0.01
324.151	-0
324.362	0
324.573	0.02
324.784	-0.03
324.995	0.07
325.206	0.01
325.417	0
325.628	-0
325.838	0
326.049	0.04
326.26	0.01
326.471	-0.02
326.682	0.04
326.892	0
327.103	-0.07
327.314	-0.03
327.525	0.07
327.735	-0.02
327.946	0.02
328.157	0.01
328.368	0.07
328.578	-0.04
328.789	0.05
328.999	0.04
329.21	0.05
329.421	0.03
329.631	-0.01
329.842	-0.04
330.052	0.06
330.263	0.05
330.473	0.04
330.684	-0.02
330.894	0.02
331.105	0.02
331.315	0.02
331.526	-0.06
331.736	0.05
331.947	0.06
332.157	0.07
332.367	-0.05
332.578	0.06
332.788	0.09
332.999	0.06
333.209	0.01
333.419	-0
333.629	0.04
333.84	0.02
334.05	-0
334.26	0.03
334.47	0.04
334.681	0.08
334.891	-0.01
335.101	0.05
335.311	0.11
335.521	0.02
335.732	-0.03
335.942	0.07
336.152	0.02
336.362	0.04
336.572	0.03
336.782	0.03
336.992	0.01
337.202	-0
337.412	-0.03
337.622	0.01
337.832	0.02
338.042	0.03
338.252	-0.01
338.462	-0.02
338.672	0.03
338.882	-0.02
339.092	-0.07
339.302	0.07
339.511	0.03
339.721	-0.02
339.931	0.01
340.141	0.03
340.351	0.05
340.561	0.01
340.77	0.01
340.98	0.01
341.19	0
341.4	-0.02
341.609	-0.02
341.819	0.01
342.029	-0.03
342.238	0.04
342.448	-0
342.658	0.06
342.867	0.01
343.077	0.01
343.286	0.02
343.496	0.01
343.706	0.09
343.915	0.01
344.125	0.03
344.334	0.05
344.544	-0.06
344.753	-0.01
344.963	0
345.172	-0.02
345.381	-0.04
345.591	-0.02
345.8	0.04
346.01	0.04
346.219	0.06
346.428	-0.14
346.638	-0.02
346.847	-0.01
347.056	0.06
347.266	-0.01
347.475	0.01
347.684	0.06
347.893	0.02
348.103	0.05
348.312	-0
348.521	-0
348.73	0.02
348.94	0.02
349.149	-0.01
349.358	0.02
349.567	0.02
349.776	0
349.985	-0.01
350.194	0.03
350.403	0.02
350.612	-0.07
350.821	0.01
351.03	0.02
351.239	-0.05
351.448	-0.02
351.657	-0.02
351.866	0.06
352.075	0.02
352.284	0.03
352.493	0.01
352.702	0.04
352.911	0.02
353.12	0.03
353.329	-0.02
353.538	0.02
353.746	0.06
353.955	-0.01
354.164	-0
354.373	-0.01
354.582	0.05
354.79	0.03
354.999	0.03
355.208	-0
355.416	0.08
355.625	-0.03
355.834	0.02
356.042	0.03
356.251	0
356.46	-0.02
356.668	0.05
356.877	0.1
357.085	0.04
357.294	-0.08
357.503	0.02
357.711	0.02
357.92	0.13
358.128	0
358.337	0.01
358.545	0.03
358.754	0.02
358.962	0.04
359.17	-0
359.379	0
359.587	0.04
359.796	-0.02
360.004	0.03
360.212	0.03
360.421	0.05
360.629	0
360.837	-0.01
361.046	0
361.254	0.14
361.462	0.01
361.67	-0.03
361.879	0
362.087	0.05
362.295	0.03
362.503	-0.03
362.711	-0.01
362.92	-0.03
363.128	0
363.336	-0.05
363.544	-0.03
363.752	-0.01
363.96	-0.01
364.168	-0.02
364.376	0.04
364.584	-0
364.792	0
365	0.02
365.208	0.01
365.416	0
365.624	0.03
365.832	0.01
366.04	0.04
366.248	0.04
366.456	0.02
366.664	0.03
366.872	0.01
367.079	-0
367.287	-0.02
367.495	0
367.703	0.03
367.911	0
368.118	-0.01
368.326	-0.03
368.534	-0.02
368.742	0.06
368.949	-0.05
369.157	-0
369.365	0.08
369.572	-0
369.78	-0.02
369.988	0.05
370.195	-0
370.403	0.01
370.61	0.01
370.818	0.05
371.026	0.08
371.233	-0.02
371.441	0.03
371.648	-0.02
371.856	0.02
372.063	0.02
372.271	0
372.478	-0.01
372.685	-0.02
372.893	0.04
373.1	0.01
373.308	-0.03
373.515	0.07
373.722	0.03
373.93	0.01
374.137	0.05
374.344	0.09
374.552	0.03
374.759	0.03
374.966	0.02
375.173	-0.01
375.381	0.04
375.588	-0.01
375.795	-0.01
376.002	0.01
376.209	-0.03
376.417	0
376.624	0
376.831	0.05
377.038	0
377.245	-0.05
377.452	-0.01
377.659	0.02
377.866	-0.02
378.073	-0
378.28	0.03
378.487	0.05
378.694	0.04
378.901	0
379.108	0.02
379.315	0.04
379.522	0.09
379.729	0.04
379.936	0.01
380.143	0.01
380.35	0.01
380.557	-0.02
380.763	0.02
380.97	0.02
381.177	0.04
381.384	0.01
381.591	0.01
381.797	0.02
382.004	0.04
382.211	0.04
382.418	-0.03
382.624	0.03
382.831	0.07
383.038	0.01
383.244	0.01
383.451	-0.02
383.658	0.03
383.864	-0.04
384.071	-0.01
384.277	0.07
384.484	-0.02
384.69	-0
384.897	-0.02
385.103	-0.03
385.31	-0.01
385.516	-0.02
385.723	-0.02
385.929	0
386.136	-0.01
386.342	-0
386.549	-0.02
386.755	0.07
386.961	0.06
387.168	0
387.374	0.03
387.58	0.03
387.787	-0.01
387.993	0.04
388.199	-0
388.406	0
388.612	-0
388.818	-0.02
389.024	0.02
389.231	0.03
389.437	0.05
389.643	0.02
389.849	0.02
390.055	0.02
390.261	0.02
390.467	-0.01
390.674	-0.05
390.88	0
391.086	0.02
391.292	-0.02
391.498	0.06
391.704	-0
391.91	0.01
392.116	-0.01
392.322	-0.05
392.528	0.03
392.734	0.02
392.94	0
393.146	0.02
393.352	0.01
393.557	-0.02
393.763	-0.04
393.969	0.03
394.175	-0.03
394.381	0.01
394.587	-0.05
394.792	-0.03
394.998	0.06
395.204	0.03
395.41	0
395.615	0.02
395.821	-0.06
396.027	0.01
396.233	0.01
396.438	0.02
396.644	0.06
396.85	0.02
397.055	-0.01
397.261	0.02
397.466	0.11
397.672	-0.01
397.878	0.06
398.083	-0.03
398.289	-0.04
398.494	0.02
398.7	-0
398.905	-0.05
399.111	-0
399.316	-0.05
399.522	-0
399.727	0.03
399.932	0.02
400.138	-0.01
400.343	0.04
400.549	0.04
400.754	-0
400.959	-0.01
401.165	-0.01
401.37	0.03
401.575	0.08
401.78	-0.01
401.986	-0.05
402.191	0.02
402.396	0.01
402.601	0.04
402.807	0.04
403.012	0.01
403.217	0.07
403.422	0.01
403.627	-0.01
403.832	-0.02
404.037	0.05
404.243	0.03
404.448	-0.03
404.653	0.03
404.858	0.04
405.063	0.05
405.268	-0.04
405.473	-0.04
405.678	-0.01
405.883	0.06
406.088	0.03
406.293	-0.05
406.498	-0.01
406.703	0.05
406.907	0.01
407.112	-0.06
407.317	0.02
407.522	0.04
407.727	-0.02
407.932	0.02
408.136	0.01
408.341	0.04
408.546	0.02
408.751	0.04
408.956	-0.04
409.16	0.04
409.365	0.05
409.57	0.03
409.774	-0.01
409.979	0.03
410.184	0.02
410.388	-0.01
410.593	0.06
410.798	-0.01
411.002	-0.02
411.207	0.03
411.411	0.04
411.616	-0.06
411.82	-0.02
412.025	0.06
412.229	-0.03
412.434	0.06
412.638	0.02
412.843	-0.01
413.047	0.03
413.252	-0.04
413.456	-0
413.66	0.01
413.865	-0.04
414.069	0.05
414.273	-0.03
414.478	-0.02
414.682	0
414.886	-0.03
415.091	-0.04
415.295	-0.05
415.499	0.03
415.703	-0.01
415.908	0.02
416.112	-0.07
416.316	0.01
416.52	-0.02
416.724	-0.06
416.929	-0.03
417.133	0.1
417.337	-0.03
417.541	-0
417.745	0.02
417.949	0.03
418.153	0.01
418.357	-0.07
418.561	0.08
418.765	-0
418.969	0.09
419.173	0.06
419.377	-0.03
419.581	0.12
419.785	-0.03
419.989	-0.05
420.193	0.01
420.397	-0
420.601	0.02
420.804	0.05
421.008	-0.01
421.212	0.05
421.416	0.03
421.62	-0.03
421.823	0.01
422.027	0.07
422.231	0.01
422.435	-0.03
422.638	0.06
422.842	-0.03
423.046	0.01
423.249	-0
423.453	0.05
423.657	-0
423.86	0.02
424.064	0.02
424.268	0.06
424.471	-0.01
424.675	0.05
424.878	0.07
425.082	-0.01
425.285	0.03
425.489	0.01
425.692	0.02
425.896	-0.06
426.099	0.02
426.303	0.01
426.506	-0.03
426.71	0.03
426.913	0.05
427.116	0.05
427.32	-0
427.523	0
427.726	0.15
427.93	-0.08
428.133	-0.04
428.336	-0
428.54	-0.08
428.743	0.02
428.946	0.01
429.149	-0.02
429.353	0.05
429.556	0.01
429.759	0.02
429.962	-0.01
430.165	0.03
430.368	0
430.571	-0.03
430.775	0.01
430.978	-0.01
431.181	0.03
431.384	0
431.587	-0.02
431.79	0
431.993	0.03
432.196	0.01
432.399	-0
432.602	0.12
432.805	-0.02
433.008	0.03
433.211	-0.06
433.414	0.01
433.616	0.04
433.819	0
434.022	-0.1
434.225	0.1
434.428	0.03
434.631	0.11
434.833	0.04
435.036	0.03
435.239	0.04
435.442	0.02
435.645	-0.04
435.847	0.02
436.05	0.01
436.253	0.01
436.455	-0.08
436.658	0.01
436.861	0.08
437.063	-0
437.266	-0.05
437.468	0
437.671	0.12
437.874	0.02
438.076	-0.04
438.279	-0.05
438.481	-0
438.684	-0.01
438.886	0.05
439.089	-0.05
439.291	-0.03
439.494	0.03
439.696	0.01
439.899	0.01
440.101	-0.01
440.303	-0.07
440.506	0.05
440.708	-0.01
440.91	0.02
441.113	-0.05
441.315	0.04
441.517	-0.08
441.72	0.03
441.922	-0.02
442.124	-0.03
442.326	0.02
442.529	0.07
442.731	-0.02
442.933	0.08
443.135	0.02
443.337	-0.03
443.539	-0.03
443.742	-0.01
443.944	-0.01
444.146	-0.03
444.348	-0.01
444.55	-0.03
444.752	-0.03
444.954	-0
445.156	-0.03
445.358	-0.03
445.56	0.08
445.762	-0.03
445.964	0.07
446.166	0.01
446.368	-0.04
446.57	0.05
446.772	0.01
446.974	-0.01
447.175	0.02
447.377	-0.01
447.579	-0.03
447.781	-0.07
447.983	0.07
448.184	-0
448.386	0.04
448.588	-0.05
448.79	0.01
448.991	0.01
449.193	-0.01
449.395	0.04
449.597	0.06
449.798	0.04
450	0.01
450.202	0.01
450.403	0.01
450.605	0.01
450.806	-0.01
451.008	-0.09
451.21	0.03
451.411	0
451.613	-0.05
451.814	-0.03
452.016	0.02
452.217	0.02
452.419	0.05
452.62	-0
452.821	0.05
453.023	0.02
453.224	0.06
453.426	-0
453.627	0.02
453.828	0.04
454.03	-0.01
454.231	0
454.432	-0.03
454.634	0.08
454.835	-0.02
455.036	-0.04
455.238	0.06
455.439	0.06
455.64	-0.04
455.841	0.01
456.042	0.14
456.244	0.02
456.445	-0.02
456.646	-0.07
456.847	-0.01
457.048	0.03
457.249	0.08
457.45	0.22
457.651	-0.03
457.852	0
458.054	0
458.255	-0.01
458.456	0.03
458.657	0.05
458.858	-0.01
459.058	0.01
459.259	0.06
459.46	0.04
459.661	-0.02
459.862	0.11
460.063	-0.04
460.264	0.09
460.465	-0.05
460.666	0.07
460.866	0.05
461.067	0.01
461.268	-0.04
461.469	-0.02
461.67	0.02
461.87	-0.02
462.071	-0.02
462.272	-0.04
462.473	-0.01
462.673	0.01
462.874	-0.03
463.075	0.02
463.275	-0.02
463.476	-0.02
463.676	0.03
463.877	0.02
464.078	0.01
464.278	0.07
464.479	0.02
464.679	0.03
464.88	0.01
465.08	0.06
465.281	-0.04
465.481	0.03
465.682	-0.02
465.882	0
466.083	-0.01
466.283	0.02
466.483	-0.01
466.684	-0.06
466.884	-0.06
467.085	0.01
467.285	0.05
467.485	-0.05
467.686	-0.01
467.886	-0.05
468.086	0.04
468.286	-0.01
468.487	0.03
468.687	-0
468.887	-0
469.087	0.03
469.287	-0.01
469.488	-0.04
469.688	-0.01
469.888	0.02
470.088	0.02
470.288	0.06
470.488	0.03
470.688	-0.04
470.888	-0
471.088	-0.03
471.288	0.04
471.488	0.04
471.688	0.07
471.888	0
472.088	0.04
472.288	0.01
472.488	-0.02
472.688	-0
472.888	0.02
473.088	-0.02
473.288	0.01
473.488	0.02
473.688	0.1
473.887	-0.01
474.087	-0.01
474.287	0.04
474.487	-0.01
474.687	0.05
474.886	-0
475.086	0.01
475.286	-0.02
475.486	-0
475.685	-0.04
475.885	0.01
476.085	-0
476.284	0.01
476.484	-0.04
476.684	0.02
476.883	0.07
477.083	-0.01
477.282	-0.02
477.482	0.07
477.681	0.07
477.881	0.01
478.08	-0.02
478.28	-0.04
478.479	0.06
478.679	0.07
478.878	0
479.078	-0.03
479.277	-0.01
479.477	0.02
479.676	0.03
479.875	0.03
480.075	-0.06
480.274	0.04
480.473	-0.02
480.673	-0.03
480.872	0.05
481.071	0.01
481.271	-0.01
481.47	-0
481.669	-0
481.868	-0.03
482.067	-0.03
482.267	-0.01
482.466	-0.01
482.665	0
482.864	-0.02
483.063	-0
483.262	0.05
483.461	0.02
483.661	0.04
483.86	-0
484.059	0.02
484.258	0.03
484.457	0
484.656	0.02
484.855	0.05
485.054	-0.05
485.253	-0.02
485.452	-0
485.651	0.01
485.849	-0
486.048	-0.02
486.247	-0.02
486.446	0
486.645	-0.01
486.844	-0.03
487.043	0.01
487.241	0
487.44	-0.02
487.639	-0.01
487.838	0.03
488.037	0.01
488.235	0.04
488.434	0.01
488.633	-0.03
488.831	0.01
489.03	0.04
489.229	0.02
489.427	0.01
489.626	0.03
489.825	0.05
490.023	0
490.222	-0.01
490.42	0.02
490.619	0.04
490.817	0.02
491.016	-0.03
491.214	0.03
491.413	0
491.611	-0.03
491.81	-0.01
492.008	0.02
492.207	0.02
492.405	0.01
492.604	-0.03
492.802	-0
493	-0.02
493.199	0.01
493.397	0.02
493.595	-0.02
493.794	-0.01
493.992	0.05
494.19	-0.02
494.388	0.02
494.587	0.01
494.785	-0
494.983	-0.03
495.181	0.01
495.379	0.02
495.578	-0.02
495.776	0.01
495.974	0.03
496.172	-0
496.37	-0.01
496.568	0
496.766	-0.02
496.964	0.05
497.162	0.01
497.36	-0.03
497.558	0.01
497.756	0.01
497.954	0.02
498.152	-0.01
498.35	-0.01
498.548	-0.01
498.746	0.01
498.944	-0.01
499.142	-0.01
499.34	-0.05
499.538	0.01
499.736	-0.03
499.933	0.03
500.131	0.02
500.329	-0.01
500.527	0.02
500.725	0.04
500.922	0.02
501.12	0.01
501.318	0.01
501.516	-0.02
501.713	0.01
501.911	-0.01
502.109	-0.04
502.306	0.03
502.504	0.01
502.701	-0.02
502.899	-0
503.097	0.03
503.294	-0.01
503.492	0.01
503.689	0.01
503.887	0.02
504.084	0.04
504.282	0
504.479	-0.02
504.677	-0
504.874	-0.02
505.072	0.01
505.269	0.02
505.466	-0
505.664	0.01
505.861	-0.01
506.059	-0.04
506.256	0.01
506.453	-0.02
506.651	0.05
506.848	0.04
507.045	0.01
507.242	0.02
507.44	-0.02
507.637	-0.01
507.834	-0.02
508.031	0.01
508.229	-0.01
508.426	-0
508.623	0.04
508.82	-0.03
509.017	-0.03
509.214	-0.01
509.411	-0.01
509.608	-0.02
509.805	-0.01
510.003	-0.01
510.2	0
510.397	0.03
510.594	-0.03
510.791	-0.02
510.988	-0.01
511.184	0.02
511.381	0.01
511.578	-0.03
511.775	0.03
511.972	-0.02
512.169	0.01
512.366	-0
512.563	0.03
512.76	-0.01
512.956	-0
513.153	-0.01
513.35	0.01
513.547	-0
513.744	0.01
513.94	-0.01
514.137	0
514.334	-0.02
514.53	0.01
514.727	0.01
514.924	0.05
515.12	-0.01
515.317	-0.04
515.514	-0.04
515.71	-0.01
515.907	0
516.103	0.01
516.3	0.01
516.497	0.02
516.693	0.02
516.89	0.01
517.086	-0.01
517.283	0.01
517.479	-0.01
517.676	-0.01
517.872	-0
518.068	-0.01
518.265	-0.01
518.461	-0.02
518.658	-0.01
518.854	0.02
519.05	-0.01
519.247	-0.02
519.443	0.01
519.639	0
519.836	0
520.032	-0
520.228	0.01
520.424	0.04
520.621	-0
520.817	-0.02
521.013	0
521.209	0.03
521.405	0.04
521.601	-0
521.798	0.01
521.994	0.03
522.19	-0.01
522.386	-0.04
522.582	0.01
522.778	-0
522.974	0
523.17	0.03
523.366	-0
523.562	0.01
523.758	-0
523.954	0
524.15	-0.01
524.346	0.05
524.542	-0.01
524.738	-0.01
524.934	0
525.129	0.02
525.325	0.02
525.521	-0.01
525.717	0.03
525.913	0.01
526.109	0
526.304	0.01
526.5	0.02
526.696	0.02
526.892	-0
527.087	0.01
527.283	-0.04
527.479	-0
527.674	-0.01
527.87	-0
528.066	-0
528.261	0.02
528.457	0.02
528.653	-0.01
528.848	-0.01
529.044	0.01
529.239	-0
529.435	0.01
529.63	0.01
529.826	0.06
530.021	0
530.217	0.05
530.412	-0.01
530.608	-0
530.803	0.01
530.999	-0.02
531.194	-0.04
531.389	-0.01
531.585	-0.03
531.78	0.01
531.975	0
532.171	0.01
532.366	-0.02
532.561	0
532.757	-0.01
532.952	0.02
533.147	0.01
533.342	-0
533.538	0
533.733	0.04
533.928	0.01
534.123	0.01
534.318	-0.02
534.513	0.01
534.709	-0.01
534.904	-0.02
535.099	0.01
535.294	-0
535.489	0
535.684	-0.01
535.879	-0.01
536.074	0
536.269	-0
536.464	0.02
536.659	-0.01
536.854	-0
537.049	0.02
537.244	0.01
537.439	0
537.634	0.03
537.828	0.01
538.023	-0.01
538.218	-0.03
538.413	0
538.608	-0.02
538.803	0.02
538.997	-0.02
539.192	0.02
539.387	0.01
539.582	-0.01
539.776	0
539.971	-0.02
540.166	0.01
540.36	-0.01
540.555	0
540.75	-0.01
540.944	-0.01
541.139	-0.01
541.334	-0.01
541.528	0.02
541.723	0.02
541.917	-0
542.112	-0.02
542.306	-0
542.501	-0.01
542.695	0.01
542.89	0.01
543.084	0.02
543.279	-0.01
543.473	0.01
543.668	0.01
543.862	-0.01
544.056	0.02
544.251	-0.01
544.445	0
544.64	-0.01
544.834	-0.01
545.028	0.02
545.222	0.02
545.417	0.04
545.611	0.01
545.805	-0
546	-0.01
546.194	0.03
546.388	-0
546.582	0.02
546.776	0
546.97	0
547.165	0.01
547.359	0
547.553	-0.02
547.747	0.02
547.941	0.01
548.135	-0
548.329	0.02
548.523	0.02
548.717	-0
548.911	-0.01
549.105	0.03
549.299	0.02
549.493	0.02
549.687	0.02
549.881	0.02
550.075	-0
550.269	-0.01
550.463	0.01
550.657	-0
550.85	0.01
551.044	-0.02
551.238	0.01
551.432	0.01
551.626	-0.01
551.82	0.01
552.013	0.01
552.207	-0.01
552.401	0
552.594	0
552.788	0
552.982	0
553.176	-0.01
553.369	0.03
553.563	0.01
553.756	-0.02
553.95	-0.01
554.144	0
554.337	0.03
554.531	-0
554.724	0.02
554.918	-0.01
555.111	0.03
555.305	-0.01
555.498	0.06
555.692	0.03
555.885	-0.01
556.079	0.01
556.272	-0.02
556.466	0.01
556.659	0.02
556.852	-0.01
557.046	-0.01
557.239	0.02
557.432	-0.01
557.626	-0
557.819	0.01
558.012	0.02
558.206	0.01
558.399	0.02
558.592	0.01
558.785	0.01
558.979	0.03
559.172	-0.01
559.365	0.03
559.558	0.02
559.751	-0
559.944	0.01
560.138	0.01
560.331	-0
560.524	-0.01
560.717	0.02
560.91	0.01
561.103	0.04
561.296	0.02
561.489	0.01
561.682	0.02
561.875	0.05
562.068	0.02
562.261	0.03
562.454	0.03
562.647	0.03
562.84	0.02
563.032	-0.01
563.225	0.04
563.418	0
563.611	-0.01
563.804	0.01
563.997	-0.02
564.19	-0.02
564.382	-0.05
564.575	-0.02
564.768	0.02
564.961	0.03
565.153	-0.03
565.346	0.05
565.539	0.04
565.731	0.01
565.924	0.03
566.117	0.04
566.309	-0
566.502	0.01
566.695	-0
566.887	0.04
567.08	-0.03
567.272	0.01
567.465	0.01
567.657	0.01
567.85	0.04
568.042	0.03
568.235	0.03
568.427	0.03
568.62	0.01
568.812	0
569.005	0
569.197	-0.03
569.389	-0
569.582	0.03
569.774	0.02
569.966	-0.02
570.159	-0.01
570.351	0.03
570.543	-0.02
570.736	0.01
570.928	-0.02
571.12	0.02
571.312	0.02
571.505	-0.04
571.697	0.04
571.889	-0.02
572.081	-0
572.273	-0.01
572.465	0.03
572.658	-0.01
572.85	0.02
573.042	0.01
573.234	0
573.426	0.03
573.618	-0.02
573.81	0.04
574.002	0.03
574.194	0.05
574.386	-0.04
574.578	-0.05
574.77	-0.01
574.962	0
575.154	-0.04
575.346	0.01
575.538	0.03
575.729	-0.01
575.921	-0.01
576.113	0.01
576.305	0.03
576.497	-0.02
576.689	-0
576.88	-0.01
577.072	0.04
577.264	-0.01
577.456	0.02
577.647	-0.06
577.839	0.01
578.031	0.03
578.223	-0.05
578.414	-0.01
578.606	0.06
578.798	0.01
578.989	-0
579.181	0.01
579.372	-0.01
579.564	0.01
579.755	0.04
579.947	0.03
580.139	0.02
580.33	-0.02
580.522	-0.01
580.713	-0.05
580.905	0
581.096	0.02
581.287	-0
581.479	0
581.67	0.01
581.862	0.01
582.053	-0.01
582.244	-0.04
582.436	-0.01
582.627	0.01
582.818	-0.01
583.01	-0.01
583.201	0.05
583.392	0.02
583.583	-0.01
583.775	-0.02
583.966	-0
584.157	-0.01
584.348	0.01
584.54	-0.02
584.731	0.04
584.922	0.01
585.113	-0.01
585.304	0.02
585.495	0.05
585.686	0.01
585.877	0.03
586.068	0.02
586.259	0.02
586.45	0.03
586.641	-0.01
586.832	-0.02
587.023	0.03
587.214	0.02
587.405	0.01
587.596	-0.05
587.787	0.05
587.978	0.03
588.169	-0.01
588.36	-0.01
588.551	0.01
588.742	-0.02
588.932	0.02
589.123	0.01
589.314	0.04
589.505	0.04
589.696	0.03
589.886	0.02
590.077	-0.02
590.268	0.05
590.458	-0.01
590.649	-0.01
590.84	0.05
591.03	-0.01
591.221	-0.02
591.412	-0.02
591.602	0.04
591.793	0.04
591.984	0.01
592.174	0.03
592.365	0.07
592.555	-0
592.746	0.03
592.936	0.01
593.127	0.02
593.317	0.02
593.508	0.01
593.698	0.02
593.889	0.03
594.079	0.04
594.269	0
594.46	0.02
594.65	0.05
594.84	0.02
595.031	-0.01
595.221	0.01
595.411	0
595.602	0.04
595.792	0.02
595.982	0.04
596.172	0.09
596.363	0.03
596.553	0.02
596.743	0.03
596.933	0.03
597.123	0.04
597.314	0.01
597.504	0.01
597.694	0.05
597.884	0.04
598.074	0.02
598.264	0.03
598.454	0.05
598.644	0.03
598.834	0.03
599.024	-0.02
599.214	0.02
599.404	0.08
599.594	0.01
599.784	-0.02
599.974	0.08
600.164	0.07
600.354	-0
600.544	0
600.734	0.05
600.924	0.09
601.114	0.02
601.303	0.03
601.493	0.05
601.683	0.05
601.873	0.08
602.063	0.01
602.252	0.07
602.442	-0.01
602.632	0.05
602.821	0.03
603.011	0.08
603.201	0.01
603.39	0.03
603.58	0.04
603.77	0.07
603.959	0.09
604.149	0.07
604.339	0.05
604.528	0.11
604.718	0.1
604.907	0.07
605.097	0.04
605.286	0.02
605.476	0.06
605.665	0.11
605.855	0.04
606.044	0.1
606.234	0.08
606.423	0.06
606.612	0.04
606.802	0.05
606.991	0.06
607.181	0.07
607.37	0.05
607.559	0.08
607.749	0.04
607.938	0.1
608.127	0.09
608.316	0.09
608.506	0.11
608.695	0.08
608.884	0.07
609.073	0.07
609.263	0.11
609.452	0.14
609.641	0.1
609.83	0.05
610.019	0.09
610.208	0.09
610.397	0.12
610.586	0.11
610.775	0.1
610.965	0.08
611.154	0.12
611.343	0.11
611.532	0.1
611.721	0.07
611.91	0.1
612.099	0.14
612.287	0.11
612.476	0.14
612.665	0.14
612.854	0.12
613.043	0.16
613.232	0.15
613.421	0.08
613.61	0.17
613.798	0.12
613.987	0.17
614.176	0.17
614.365	0.19
614.554	0.15
614.742	0.19
614.931	0.14
615.12	0.2
615.309	0.17
615.497	0.24
615.686	0.16
615.875	0.19
616.063	0.19
616.252	0.16
616.44	0.19
616.629	0.21
616.818	0.22
617.006	0.21
617.195	0.21
617.383	0.24
617.572	0.22
617.76	0.23
617.949	0.19
618.137	0.26
618.326	0.3
618.514	0.18
618.703	0.21
618.891	0.31
619.079	0.19
619.268	0.29
619.456	0.24
619.644	0.32
619.833	0.29
620.021	0.27
620.209	0.28
620.398	0.32
620.586	0.29
620.774	0.34
620.962	0.32
621.151	0.38
621.339	0.35
621.527	0.3
621.715	0.29
621.903	0.3
622.092	0.28
622.28	0.41
622.468	0.33
622.656	0.38
622.844	0.39
623.032	0.37
623.22	0.37
623.408	0.42
623.596	0.4
623.784	0.44
623.972	0.42
624.16	0.42
624.348	0.47
624.536	0.44
624.724	0.47
624.912	0.52
625.1	0.52
625.288	0.47
625.476	0.48
625.664	0.57
625.851	0.5
626.039	0.52
626.227	0.58
626.415	0.6
626.603	0.49
626.79	0.6
626.978	0.55
627.166	0.63
627.354	0.58
627.541	0.66
627.729	0.58
627.917	0.65
628.104	0.68
628.292	0.65
628.48	0.7
628.667	0.72
628.855	0.76
629.042	0.74
629.23	0.69
629.418	0.77
629.605	0.78
629.793	0.8
629.98	0.8
630.168	0.79
630.355	0.85
630.543	0.87
630.73	0.79
630.917	0.91
631.105	0.97
631.292	0.89
631.48	0.91
631.667	1
631.854	0.98
632.042	0.97
632.229	0.95
632.416	1.03
632.604	1.04
632.791	1.01
632.978	1.08
633.165	1.07
633.353	1.12
633.54	1.19
633.727	1.11
633.914	1.16
634.101	1.11
634.289	1.28
634.476	1.19
634.663	1.23
634.85	1.29
635.037	1.23
635.224	1.25
635.411	1.36
635.598	1.36
635.785	1.34
635.972	1.37
636.159	1.43
636.346	1.46
636.533	1.46
636.72	1.51
636.907	1.53
637.094	1.54
637.281	1.54
637.468	1.59
637.655	1.61
637.842	1.62
638.029	1.67
638.215	1.71
638.402	1.73
638.589	1.72
638.776	1.79
638.963	1.77
639.149	1.94
639.336	1.96
639.523	1.95
639.709	1.91
639.896	2
640.083	2.09
640.27	2.12
640.456	2.12
640.643	2.22
640.829	2.14
641.016	2.2
641.203	2.24
641.389	2.35
641.576	2.31
641.762	2.33
641.949	2.36
642.135	2.49
642.322	2.53
642.508	2.47
642.695	2.63
642.881	2.65
643.068	2.65
643.254	2.73
643.441	2.8
643.627	2.83
643.813	2.85
644	2.92
644.186	2.91
644.372	3.09
644.559	3.1
644.745	3.09
644.931	3.16
645.118	3.32
645.304	3.31
645.49	3.4
645.676	3.42
645.862	3.52
646.049	3.61
646.235	3.61
646.421	3.84
646.607	3.87
646.793	3.82
646.979	3.84
647.165	4.08
647.352	4.09
647.538	4.06
647.724	4.25
647.91	4.22
648.096	4.4
648.282	4.5
648.468	4.48
648.654	4.65
648.84	4.66
649.026	4.79
649.212	4.83
649.397	4.91
649.583	5.06
649.769	5.12
649.955	5.22
650.141	5.37
650.327	5.35
650.513	5.45
650.698	5.57
650.884	5.54
651.07	5.81
651.256	5.77
651.442	5.96
651.627	5.85
651.813	6.16
651.999	6.13
652.184	6.26
652.37	6.36
652.556	6.46
652.741	6.58
652.927	6.44
653.113	6.71
653.298	6.79
653.484	6.91
653.669	7.01
653.855	7.12
654.04	7.23
654.226	7.27
654.412	7.37
654.597	7.39
654.782	7.62
654.968	7.65
655.153	7.73
655.339	7.82
655.524	7.92
655.71	7.98
655.895	8.16
656.08	8.15
656.266	8.39
656.451	8.36
656.636	8.35
656.822	8.5
657.007	8.47
657.192	8.49
657.378	8.61
657.563	8.48
657.748	8.64
657.933	8.75
658.118	8.58
658.304	8.76
658.489	8.74
658.674	8.68
658.859	8.51
659.044	8.62
659.229	8.49
659.414	8.43
659.599	8.37
659.785	8.14
659.97	8.08
660.155	7.94
660.34	7.98
660.525	7.72
660.71	7.54
660.895	7.41
661.08	7.19
661.264	6.98
661.449	6.96
661.634	6.66
661.819	6.62
662.004	6.24
662.189	6.16
662.374	5.89
662.559	5.73
662.743	5.46
662.928	5.37
663.113	5.1
663.298	4.91
663.483	4.78
663.667	4.61
663.852	4.45
664.037	4.35
664.221	4.2
664.406	4.06
664.591	3.91
664.775	3.66
664.96	3.57
665.145	3.38
665.329	3.32
665.514	3.2
665.698	2.93
665.883	2.84
666.068	2.89
666.252	2.73
666.437	2.59
666.621	2.46
666.806	2.39
666.99	2.34
667.174	2.24
667.359	2.18
667.543	2.06
667.728	1.96
667.912	1.88
668.096	1.82
668.281	1.74
668.465	1.69
668.649	1.66
668.834	1.58
669.018	1.51
669.202	1.51
669.387	1.37
669.571	1.43
669.755	1.28
669.939	1.25
670.124	1.24
670.308	1.22
670.492	1.19
670.676	1.12
670.86	1.05
671.044	1
671.228	1.03
671.413	0.91
671.597	0.89
671.781	0.93
671.965	0.89
672.149	0.84
672.333	0.76
672.517	0.73
672.701	0.81
672.885	0.71
673.069	0.64
673.253	0.74
673.437	0.64
673.621	0.61
673.804	0.63
673.988	0.6
674.172	0.54
674.356	0.45
674.54	0.53
674.724	0.57
674.908	0.49
675.091	0.48
675.275	0.45
675.459	0.47
675.643	0.47
675.826	0.46
676.01	0.39
676.194	0.41
676.377	0.44
676.561	0.38
676.745	0.37
676.928	0.35
677.112	0.41
677.296	0.29
677.479	0.28
677.663	0.3
677.846	0.3
678.03	0.26
678.213	0.28
678.397	0.26
678.58	0.25
678.764	0.21
678.947	0.24
679.131	0.22
679.314	0.3
679.498	0.24
679.681	0.24
679.865	0.3
680.048	0.17
680.231	0.21
680.415	0.21
680.598	0.17
680.781	0.16
680.965	0.17
681.148	0.17
681.331	0.14
681.514	0.15
681.698	0.14
681.881	0.13
682.064	0.16
682.247	0.16
682.43	0.1
682.614	0.18
682.797	0.21
682.98	0.14
683.163	0.07
683.346	0.18
683.529	0.15
683.712	0.11
683.895	0.15
684.078	0.07
684.261	0.09
684.444	0.11
684.627	0.16
684.81	0.05
684.993	0.08
685.176	0.12
685.359	0.05
685.542	0.1
685.725	0.13
685.908	0.1
686.091	0.07
686.274	0.12
686.457	0.12
686.639	0.08
686.822	0.13
687.005	0.08
687.188	0.11
687.371	0.16
687.553	0.12
687.736	0.1
687.919	0.19
688.102	0.13
688.284	0.06
688.467	0.12
688.65	0.05
688.832	0.05
689.015	0.05
689.197	0.01
689.38	0.16
689.563	0.13
689.745	0.07
689.928	0.03
690.11	0.1
690.293	0.09
690.475	-0.01
690.658	0.12
690.84	0.06
691.023	0.02
691.205	0.01
691.388	0.07
691.57	0.1
691.752	0.05
691.935	-0.04
692.117	0.05
692.3	0.07
692.482	0.01
692.664	0.02
692.847	0.08
693.029	0.1
693.211	0.09
693.393	0.05
693.576	0.08
693.758	0.09
693.94	0.06
694.122	0.03
694.304	0.05
694.487	0.04
694.669	0.09
694.851	-0.02
695.033	0.1
695.215	-0.02
695.397	0.02
695.579	0.05
695.761	0.01
695.943	-0.01
696.125	0.11
696.308	0.1
696.49	-0.07
696.671	0.13
696.853	0
697.035	0.15
697.217	0.06
697.399	0.05
697.581	0.03
697.763	0.07
697.945	-0.04
698.127	0.04
698.309	0.05
698.491	0.06
698.672	0.09
698.854	0.13
699.036	0.1
699.218	-0.02
699.399	0.08
699.581	0
699.763	0.06
699.945	0.05
700.126	0.01
700.308	0.04
700.49	0.05
700.671	-0
700.853	-0.01
701.035	-0.01
701.216	0.04
701.398	0.04
701.579	0.01
701.761	0.02
701.943	-0
702.124	0.03
702.306	0.03
702.487	0.13
702.669	0.01
702.85	-0.01
703.031	-0.06
703.213	0.12
703.394	0.02
703.576	0.03
703.757	0.08
703.938	0.07
704.12	0.15
704.301	0.04
704.483	0.01
704.664	-0.02
704.845	0.16
705.026	0.07
705.208	0.04
705.389	0.03
705.57	0.04
705.751	0.04
705.933	0.03
706.114	0.05
706.295	0.04
706.476	0.01
706.657	0.08
706.838	0.04
707.02	0.13
707.201	0.03
707.382	-0.02
707.563	0.01
707.744	-0
707.925	-0.06
708.106	-0.01
708.287	0.06
708.468	0.17
708.649	0.04
708.83	0.14
709.011	0.03
709.192	0.08
709.373	-0
709.554	0.02
709.734	0.06
709.915	0.06
710.096	0.04
710.277	-0.07
710.458	-0
710.639	0.1
710.819	-0.07
711	0.01
711.181	0.08
711.362	0.09
711.542	-0.01
711.723	-0.07
711.904	0.11
712.085	0.02
712.265	0.02
712.446	0.03
712.627	-0.05
712.807	0.03
712.988	0.02
713.168	-0.04
713.349	0.05
713.53	-0.1
713.71	0.01
713.891	-0.05
714.071	-0.02
714.252	-0.09
714.432	-0.06
714.613	-0.1
714.793	0.07
714.974	0.11
715.154	0.06
715.334	0.1
715.515	0.06
715.695	-0.04
715.876	0.01
716.056	0.04
716.236	0
716.417	-0.03
716.597	0.01
716.777	0.12
716.957	0.01
717.138	0.09
717.318	0.02
717.498	0.01
717.678	0.05
717.859	0.09
718.039	-0.12
718.219	0.02
718.399	0.07
718.579	-0.04
718.759	-0
718.939	-0
719.12	0.04
719.3	-0.01
719.48	-0.12
719.66	-0.15
719.84	0.08
720.02	0.01
720.2	0.04
720.38	-0.05
720.56	0.11
720.74	-0.07
720.92	0
721.1	0.08
721.279	0.09
721.459	0.02
721.639	-0.07
721.819	0.08
721.999	0.05
722.179	-0.02
722.359	-0.04
722.538	0.08
722.718	-0.01
722.898	0.02
723.078	0.04
723.257	-0.02
723.437	-0.04
723.617	-0.03
723.797	0.02
723.976	0.03
724.156	0.02
724.336	0.08
724.515	0.1
724.695	-0.12
724.874	-0.05
725.054	0.08
725.234	-0.08
725.413	0.07
725.593	0.06
725.772	0.04
725.952	0.03
726.131	-0
726.311	0.01
726.49	0.02
726.67	-0.06
726.849	-0.07
727.028	0.03
727.208	0.03
727.387	0.03
727.567	-0.05
727.746	0.14
727.925	0.01
728.105	-0.06
728.284	0.01
728.463	-0.08
728.643	0.02
728.822	-0.11
729.001	-0.02
729.18	0.02
729.359	0.08
729.539	0.02
729.718	0.06
729.897	0.13
730.076	0.02
730.255	-0.09
730.434	0.06
730.614	0.12
730.793	0.13
730.972	-0.04
731.151	-0.03
731.33	0.08
731.509	0.06
731.688	0.02
731.867	0.07
732.046	-0.11
732.225	0.14
732.404	-0
732.583	-0.03
732.762	0.03
732.941	0.09
733.12	0.04
733.298	-0.04
733.477	0.2
733.656	0.04
733.835	-0.1
734.014	0.03
734.193	0.06
734.371	0.08
734.55	0.03
734.729	-0.02
734.908	-0
735.086	0.04
735.265	0.13
735.444	-0.13
735.623	-0.09
735.801	-0.07
735.98	0.01
736.159	0.05
736.337	0.04
736.516	0.1
736.694	0.03
736.873	-0.04
737.052	0.08
737.23	0.17
737.409	0.02
737.587	0.23
737.766	-0.13
737.944	-0.02
738.123	0.12
738.301	-0.02
738.479	-0.05
738.658	0.08
738.836	-0.13
739.015	0.08
739.193	0.11
739.371	-0.04
739.55	0.01
739.728	-0.03
739.906	0.08
740.085	0.09
740.263	-0.02
740.441	-0.1
740.62	0.17
740.798	0.12
740.976	-0.06
741.154	-0.03
741.332	0.05
741.511	-0.1
741.689	0.03
741.867	-0.01
742.045	0.03
742.223	0.04
742.401	-0.04
742.579	0.05
742.757	0.05
742.935	-0.08
743.114	-0.08
743.292	-0.01
743.47	0.01
743.648	0.09
743.826	-0.22
744.004	0.06
744.181	0.06
744.359	-0.07
744.537	0.04
744.715	0.08
744.893	-0.06
745.071	-0.03
745.249	0.01
745.427	0.05
745.605	0.11
745.782	0.05
745.96	0.04
746.138	0.04
746.316	0.1
746.493	0.01
746.671	0
746.849	-0.04
747.027	0.1
747.204	-0.05
747.382	0.02
747.56	-0.1
747.737	0.01
747.915	-0.03
748.093	0.04
748.27	-0.04
748.448	-0.11
748.625	-0.09
748.803	-0.02
748.98	-0.01
749.158	0.01
749.335	0.11
749.513	-0.1
749.69	0.12
749.868	-0.01
750.045	0.08
750.223	-0.09
750.4	-0.08
750.578	0.16
750.755	0.02
750.932	-0.15
751.11	0.12
751.287	-0.07
751.464	0.13
751.642	-0.14
751.819	0.04
751.996	0.11
752.173	-0.07
752.351	-0.1
752.528	0.06
752.705	-0.03
752.882	0.01
753.06	0.06
753.237	0.17
753.414	0.13
753.591	0.12
753.768	0.01
753.945	-0.04
754.122	0.05
754.299	-0.01
754.476	-0.11
754.654	0.04
754.831	0.05
755.008	-0.03
755.185	-0.05
755.362	-0.01
755.539	0.02
755.716	-0.13
755.892	-0.06
756.069	0.1
756.246	-0.06
756.423	-0.06
756.6	0.13
756.777	0.07
756.954	0.13
757.131	0.02
757.307	-0.12
757.484	-0.02
757.661	0.06
757.838	0.06
758.015	-0.11
758.191	0.1
758.368	-0.01
758.545	0.14
758.721	-0.06
758.898	-0.03
759.075	-0
759.251	0.03
759.428	0.09
759.605	-0.14
759.781	-0.02
759.958	0.09
760.134	0.04
760.311	-0.06
760.488	0.17
760.664	0.07
760.841	-0.05
761.017	-0.05
761.194	0.15
761.37	0.09
761.547	-0
761.723	0.06
761.899	0.09
762.076	-0.11
762.252	-0.07
762.429	-0.04
762.605	0.18
762.781	-0.03
762.958	0.16
763.134	-0.07
763.31	-0.12
763.486	0.11
763.663	-0.14
763.839	0.09
764.015	-0.15
764.191	-0.13
764.368	-0.02
764.544	-0.15
764.72	0.02
764.896	0.06
765.072	-0.02
765.248	0.01
765.425	-0
765.601	0.04
765.777	0.05
765.953	-0.22
766.129	-0.08
766.305	-0.08
766.481	0.14
766.657	-0.1
766.833	0.23
767.009	0.02
767.185	0.02
767.361	0.01
767.537	-0.21
767.713	0.16
767.889	0.06
768.065	0.1
768.24	0.14
768.416	0.16
768.592	-0.06
768.768	-0.05
768.944	0.09
769.12	-0.02
769.295	-0.02
769.471	0.1
769.647	-0.13
769.823	0.21
769.998	-0.05
770.174	-0.13
770.35	0.24
770.525	0.4
770.701	-0
770.877	0.05
771.052	-0.07
771.228	0.18
771.403	0.02
771.579	0.09
771.755	0.24
771.93	0.02
772.106	-0.16
772.281	-0.29
772.457	0.04
772.632	-0.05
772.808	-0.07
772.983	-0.08
773.159	-0.22
773.334	0.15
773.509	0.02
773.685	0.01
773.86	0.29
774.036	0.25
774.211	-0.02
774.386	-0.05
774.562	-0.16
774.737	0.18
774.912	-0.1
775.087	0.11
775.263	0.06
775.438	0.07
775.613	0.01
775.788	-0.13
775.964	0.01
776.139	0.39
776.314	-0.21
776.489	-0.08
776.664	0.18
776.839	-0.08
777.014	0.17
777.19	0.12
777.365	0.15
777.54	0.34
777.715	-0.04
777.89	-0.06
778.065	-0.16
778.24	-0.06
778.415	0.1
778.59	-0.1
778.765	-0.08
778.94	-0.17
779.115	-0.01
779.289	-0.06
779.464	0.06
779.639	0.12
779.814	-0.16
779.989	-0.12
780.164	0.2
780.339	0.03
780.513	0.03
780.688	-0.15
780.863	-0.06
781.038	0.22
781.212	-0.11
781.387	-0.13
781.562	0.14
781.737	-0.12
781.911	0.22
782.086	-0.11
782.261	0.06
782.435	0.01
782.61	-0.05
782.784	-0.14
782.959	0.09
783.134	0.03
783.308	-0.08
783.483	-0.01
783.657	0.34
783.832	0.02
784.006	-0.22
784.181	0.06
784.355	0.28
784.53	-0.37
784.704	-0.07
784.878	0.37
785.053	0.19
785.227	0.05
785.402	0.23
785.576	-0.23
785.75	-0.02
785.925	0.04
786.099	-0.19
786.273	0.27
786.448	0.2
786.622	0.22
786.796	-0.15
786.97	-0.16
787.145	0.4
787.319	-0.44
787.493	-0.21
787.667	-0.16
787.841	0.07
788.015	0.27
788.19	-0.05
788.364	-0.02
788.538	0.37
788.712	0.04
788.886	-0.05
789.06	0.14
789.234	0.16
789.408	-0.27
789.582	-0.01
789.756	0.07
789.93	-0.17
790.104	-0.03
790.278	-0.17
790.452	0.11
790.626	0.27
790.8	-0.31
790.973	0.25
791.147	0.23
791.321	0.17
791.495	0.11
791.669	0.01
791.843	0.21
792.016	0.17
792.19	0.29
792.364	-0.18
792.538	0.53
792.711	0.42
792.885	-0.04
793.059	-0.04
793.233	-0.47
793.406	0.25
793.58	0.16
793.754	0.2
793.927	-0.03
794.101	0.31
794.274	-0.01
794.448	0.12
794.622	-0.12
794.795	0.23
794.969	-0.05
795.142	0.38
795.316	-0.02
795.489	-0.02
795.663	0.18
795.836	-0.16
796.009	-0.12
796.183	0.25
796.356	0.19
796.53	0.27
796.703	0.09
796.876	0.54
797.05	-0.11
797.223	0.06
797.396	0.17
797.57	0.11
797.743	0.18
797.916	0.19
798.09	0.07
798.263	0.19
798.436	0.12
798.609	-0.19
798.782	-0.1
798.956	-0.13
799.129	-0
799.302	-0.17
799.475	-0.34
799.648	-0.17
799.821	0.1
799.994	0.27
800.167	-0.39
800.34	-0.05
800.514	0.06
800.687	-0.06
800.86	-0.02
801.033	0.09
801.206	-0.11
801.379	-0.37
801.551	0.25
801.724	0.15
801.897	0.26
802.07	0.38
802.243	-0.31
802.416	-0.14
802.589	-0.25
802.762	0.07
802.935	0.3
803.107	0.12
803.28	0.29
803.453	0.35
803.626	-0.05
803.798	-0.2
803.971	0.01
804.144	-0.16
804.317	0.06
804.489	0.13
804.662	-0.19
804.835	0.07
805.007	-0.15
805.18	0.58
805.353	0.1
805.525	-0.02
805.698	-0.3
805.87	0.37
806.043	0.3
806.215	-0.33
806.388	-0.18
806.56	0.09
806.733	0.11
806.905	-0.12
807.078	0.07
807.25	-0.25
807.423	0.1
807.595	0.09
807.768	0.18
807.94	0.44
808.112	-0.12
808.285	0.02
808.457	0
808.629	0.05
808.802	0.44
808.974	-0.12
809.146	0.13
809.318	-0.37
809.491	-0.11
809.663	0.22
809.835	-0.15
810.007	0.15
810.18	0.13
810.352	-0.41
810.524	-0.25
810.696	0.16
810.868	0.12
811.04	0.15
811.212	-0.07
811.384	0.38
811.556	0.05
811.728	-0.25
811.901	0.63
812.073	-0.06
812.245	0.21
812.417	0.19
812.589	-0.57
812.76	0.1
812.932	-0.09
813.104	0.87
813.276	0.33
813.448	0.2
813.62	0.22
813.792	0.15
813.964	0.19
814.136	-0.15
814.307	-0.02
814.479	-0.24
814.651	-0.08
814.823	0.41
814.995	0.01
815.166	0.24
815.338	-0.18
815.51	-0.59
815.681	0.36
815.853	0.34
816.025	-0.03
816.196	0.48
816.368	0
816.54	-0.35
816.711	-0.1
816.883	-0.05
817.054	1.08
817.226	-0.47
817.398	0.45
817.569	-0.18
817.741	-0.01
817.912	0.16
818.084	0.28
818.255	0.38
818.426	-0.1
818.598	0.02
818.769	-0.26
818.941	-0.03
819.112	0.54
819.283	0.37
819.455	-0.15
819.626	-0.25
819.798	0.23
819.969	0.01
820.14	-0.2
820.311	-0.23
820.483	-0.04
820.654	-0.09
820.825	-0.11
820.996	0.07
821.168	-0.25
821.339	-0.36
821.51	-0.53
821.681	-0.13
821.852	-0.16
822.023	-0.18
822.195	-0.48
822.366	0.37
822.537	0.06
822.708	-0.06
822.879	-0.41
823.05	0.62
823.221	-0.22
823.392	0.26
823.563	-0.09
823.734	-0.02
823.905	-0.31
824.076	-0.05
824.247	0.18
824.418	0.02
824.589	0.3
824.759	0.08
824.93	0.14
825.101	-0.27
825.272	0.64
825.443	0.65
825.614	0.37
825.784	-0.45
825.955	1.3
826.126	0.77
826.297	0.25
826.467	0.55
826.638	0.34
826.809	-0.84
826.98	-0.23
827.15	0.07
827.321	-0.28
827.492	0.43
827.662	-0.08
827.833	0.7
828.003	0.13
828.174	0.03
828.345	-0.94
828.515	0.48
828.686	0.09
828.856	-0.03
829.027	0.12
829.197	0.64
829.368	0.36
829.538	-0.46
829.709	0.23
829.879	0.05
830.049	0.22
830.22	-0.25
830.39	0.42
830.56	0.84
830.731	-0.24
830.901	-0.41
831.072	0.13
831.242	-0.32
831.412	0.38
831.582	-0.35
831.753	-0.37
831.923	0.66
832.093	-0.02
832.263	-0.42
832.434	-0.45
832.604	-0.09
832.774	0.06
832.944	-0.19
833.114	-0.74
833.284	0.27
833.454	-0.8
833.624	-0.19
833.795	-0.05
833.965	1.01
834.135	0.39
834.305	-0.56
834.475	-0.76
834.645	0.47
834.815	-0.59
834.985	-0.05
835.155	-0.46
835.325	0.83
835.494	0.18
835.664	0.63
835.834	-0.98
836.004	0.51
836.174	0.43
836.344	0.3
836.514	-0.81
836.684	0.11
836.853	0.19
837.023	0.15
837.193	-0.23
837.363	0.29
837.532	0.69
837.702	0.23
837.872	-0.5
838.041	0.84
838.211	0.77
838.381	-0.14
838.55	-0.14
838.72	1.71
838.89	1.01
839.059	-0.39
839.229	-0.34
839.398	1.45
839.568	-0.06
839.738	-0.46
839.907	0.7
840.077	0.04
840.246	-0.7
840.416	-0.68
840.585	-0.51
840.755	1.11
840.924	0.38
841.093	-0.75
841.263	-1.03
841.432	0.04
841.602	-0.63
841.771	-0.08
841.94	0.1
842.11	1.74
842.279	1.29
842.448	-1.06
842.617	-0.3
842.787	1.34
842.956	-0.6
843.125	0.24
843.294	0.06
843.464	0.11
843.633	1.19
843.802	-0.79
843.971	0.12
844.14	0.27
844.309	0.05
844.479	-0.32
844.648	-0.39
844.817	0.05
844.986	0.57
845.155	-0.04
845.324	0.36
845.493	-0.13
845.662	-0.75
845.831	0.46
846	0.22
846.169	-0.13
846.338	0.65
846.507	0.35
846.676	0.76
846.844	-0.64
847.013	1.33
847.182	0.17
847.351	-0.45
847.52	-0.52
847.689	0.85
847.858	0.19
848.026	-0.27
848.195	0.36
848.364	0.68
848.533	-0.07
848.701	-0.63
848.87	0.67
849.039	0.83
849.207	0.24
849.376	0.61
849.545	0.53
849.713	-0.68
849.882	-0.66
850.051	-0.72
850.219	-0.03
850.388	1.06
850.556	-0.66
850.725	-0.22
850.893	0.49
851.062	0.36
851.23	0.59
851.399	-0.01
851.567	-1.1
851.736	-0.08
851.904	-1.01
852.073	0.05
852.241	-0.07
852.41	0.82
852.578	-0.07
852.746	-0.92
852.915	0.59
853.083	-0.4
853.251	-0.82
853.42	0.06
853.588	0.42
853.756	0.59
853.924	0.76
854.093	0.5
854.261	-0.56
854.429	-0.97
854.597	0.09
854.765	-0.8
854.934	0.57
855.102	0.64
855.27	-1.56
855.438	1.4
855.606	0.6
855.774	0.86
855.942	-1.55
856.11	-1.3
856.278	-0.41
856.446	0.31
856.614	0.37
856.782	-0.55
856.95	1.44
857.118	0.46
857.286	-0.26
857.454	-0.74
857.622	0.48
857.79	0.27
857.958	-0.57
858.126	-0.37
858.294	-2.77
858.462	1.25
858.629	0.32
858.797	-0.68
858.965	0.1
859.133	0.65
859.301	-0.55
859.468	0.14
859.636	-0.27
859.804	0.91
859.971	1.51
860.139	-0.72
860.307	1.27
860.474	-0.34
860.642	-0.69
860.81	0.11
860.977	1.13
861.145	1.13
861.313	-0.14
861.48	-0.23
861.648	0.62
861.815	-1.06
861.983	-2.02
862.15	0.45
862.318	0.88
862.485	1.96
862.653	0.74
862.82	0.06
862.988	1.28
863.155	-0.43
863.322	-0.5
863.49	-1.81
863.657	-2.05
863.824	1.89
863.992	1.17
864.159	0.26
864.326	1.05
864.494	-1.08
864.661	1.82
864.828	-0.73
864.996	1.49
865.163	2.29
865.33	0.45
865.497	-1.92
865.664	-0.84
865.832	-1.15
865.999	-0.85
866.166	-1.2
866.333	-0.63
866.5	0.16
866.667	0.49
866.834	-0.55
867.001	1.86
867.168	-2.58
867.335	-0.79
867.502	-1.66
867.669	1.08
867.836	1.39
868.003	0.3
868.17	-0.66
868.337	-2.22
868.504	2.99
868.671	-1.43
868.838	-0.77
869.005	0.57
869.172	-0.35
869.339	1.15
869.505	1.57
869.672	-0.69
869.839	0.91
870.006	0.21
870.173	-0.13
870.339	0.51
870.506	2.5
870.673	-0.56
870.84	2.53
871.006	0.37
871.173	-0.9
871.34	0.14
871.506	-0.33
871.673	1.72
871.839	-1.35
872.006	0.66
872.173	-0.65
872.339	0.41
872.506	2.66
872.672	0.87
872.839	-2.25
873.005	0.11
873.172	1.23
873.338	1.46
873.505	2.22
873.671	0.72
873.838	1.28
874.004	-0.69
874.171	-0.72
874.337	-0.08
874.503	0.35
874.67	0.89
874.836	-0.52
875.002	2.64
875.169	0.25
875.335	-0.2
875.501	-0.36
875.668	0.7
875.834	-0.26
876	-0.4
876.166	1.94
876.332	0.58
876.499	4.31
876.665	-0.68
876.831	0.03
876.997	2.59
877.163	1.19
877.329	-1.11
877.495	0.56
877.662	-0.12
877.828	0.72
877.994	-0.91
878.16	-2.08
878.326	-1.32
878.492	0.53
878.658	-0.43
878.824	-0.75
878.99	1.07
879.156	0.44
879.322	3.39
879.487	-0.61
879.653	0.98
879.819	0.36
879.985	-0.16
880.151	-0.83
880.317	1.17
880.483	1.26
880.648	1.49
880.814	-2.64
880.98	0.42
881.146	-2.15
881.312	-1.25
881.477	0.87
881.643	1.89
881.809	1.67
881.974	1.35
882.14	-2.77
882.306	0.37
882.471	3.38
882.637	-0.2
882.803	2.13
882.968	0.98
883.134	2.93
883.299	0.25
883.465	0.42
883.63	1.24
883.796	0.85
883.961	1.69
884.127	1.68
884.292	-3.07
884.458	-2.8
884.623	-2.79
