Data from Apollo_Calib_20240827__AbsoluteIrradiance__183__02-12-02-246.txt Node

Date: Wed Aug 28 02:12:02 BST 2024
User: biology
Spectrometer: FLMT08252
Trigger mode: 0
Integration Time (sec): 5.000000E-1
Scans to average: 5
Electric dark correction enabled: true
Nonlinearity correction enabled: false
Boxcar width: 0
XAxis mode: Wavelengths
Number of Pixels in Spectrum: 3648
>>>>>Begin Spectral Data<<<<<
179.588	-0
179.809	-0
180.03	-0
180.251	-0
180.473	-0
180.694	0
180.915	0
181.136	0
181.357	0
181.578	-0
181.799	-0
182.02	-0
182.241	0
182.462	0
182.683	0
182.904	0
183.125	-0
183.346	0
183.567	0
183.788	-0
184.009	-0
184.23	0
184.451	0
184.672	-0
184.892	-0
185.113	0
185.334	0
185.555	-0
185.776	-0
185.996	0
186.217	0
186.438	0
186.659	-0
186.879	0
187.1	-0
187.321	0
187.541	-0
187.762	0
187.983	0
188.203	0
188.424	0
188.644	-0
188.865	0
189.086	0
189.306	-0
189.527	0
189.747	0
189.968	-0
190.188	0
190.409	0
190.629	0
190.849	-0
191.07	-0
191.29	0
191.511	0
191.731	-0
191.951	-0
192.172	0
192.392	-0
192.612	-0
192.833	0
193.053	0
193.273	0
193.493	0
193.714	-0
193.934	0
194.154	0
194.374	0
194.594	0
194.815	0
195.035	0
195.255	0
195.475	-0
195.695	0
195.915	0
196.135	0
196.355	0
196.575	0
196.795	0
197.015	-0
197.235	-0
197.455	-0
197.675	0
197.895	-0
198.115	0
198.335	0
198.555	-0
198.775	0
198.995	0
199.214	0
199.434	0
199.654	-0
199.874	0
200.094	1.07
200.313	-0.26
200.533	-0.15
200.753	-0.9
200.973	1.18
201.192	1
201.412	-1.05
201.632	-0.3
201.851	1.12
202.071	-0.36
202.291	0.09
202.51	-0.2
202.73	0.15
202.95	0.26
203.169	-0.84
203.389	-0.36
203.608	0.15
203.828	-0.22
204.047	-0.41
204.267	0.74
204.486	0.26
204.706	0.12
204.925	0.16
205.145	-0.25
205.364	0.35
205.583	0.91
205.803	-0.26
206.022	-0.35
206.242	-0.1
206.461	0.43
206.68	-0.02
206.9	0.09
207.119	0.75
207.338	0.89
207.557	-0.07
207.777	0
207.996	0.07
208.215	0.59
208.434	0.03
208.654	-0.39
208.873	0.24
209.092	0.72
209.311	-0.02
209.53	-0.06
209.749	-0.14
209.968	-0.22
210.187	-0.14
210.407	-0.25
210.626	0.07
210.845	0.18
211.064	0.02
211.283	-0.12
211.502	0.18
211.721	0.21
211.94	0.09
212.159	0.23
212.377	0.13
212.596	0.38
212.815	0.12
213.034	0.29
213.253	0.25
213.472	0.29
213.691	-0.07
213.91	-0.31
214.128	-0.22
214.347	0.34
214.566	-0.41
214.785	-0.42
215.003	0.41
215.222	0.23
215.441	0.04
215.66	-0.28
215.878	0.21
216.097	0.12
216.316	-0.05
216.534	-0.13
216.753	-0.07
216.972	0.11
217.19	0.06
217.409	-0.16
217.627	0.05
217.846	-0.17
218.064	0.06
218.283	-0.22
218.501	0.47
218.72	0.18
218.938	0.01
219.157	-0.14
219.375	0.26
219.594	0.11
219.812	-0.32
220.031	-0.12
220.249	0.38
220.467	0.16
220.686	-0.05
220.904	-0.34
221.122	-0.13
221.341	0.39
221.559	0.05
221.777	-0.09
221.995	-0.03
222.214	0.15
222.432	-0.07
222.65	0.14
222.868	0.06
223.086	0.08
223.305	0.14
223.523	-0.16
223.741	0.39
223.959	-0.01
224.177	-0.1
224.395	-0.07
224.613	0.18
224.831	0.23
225.049	-0.08
225.267	0.05
225.485	0.1
225.703	-0.07
225.921	0.03
226.139	-0.02
226.357	0.26
226.575	0.18
226.793	0.02
227.011	0.56
227.229	0.09
227.447	0.2
227.665	-0.07
227.883	-0.12
228.1	0.09
228.318	0.11
228.536	-0.31
228.754	-0.12
228.972	-0.01
229.189	0.11
229.407	-0.08
229.625	-0.06
229.843	0.25
230.06	0.14
230.278	-0.09
230.496	0.09
230.713	0.08
230.931	0.19
231.149	-0.02
231.366	-0.2
231.584	-0.03
231.801	0.41
232.019	-0.01
232.236	-0.22
232.454	-0.15
232.671	0.03
232.889	0.03
233.106	-0.14
233.324	0.1
233.541	-0.01
233.759	-0.05
233.976	-0.09
234.194	0.01
234.411	0.01
234.628	-0.02
234.846	0.04
235.063	0.03
235.28	0.05
235.498	0.05
235.715	-0.14
235.932	0.13
236.149	-0.01
236.367	-0.11
236.584	0.05
236.801	-0.01
237.018	0.09
237.236	0.05
237.453	-0.16
237.67	0.15
237.887	0.04
238.104	-0
238.321	-0.15
238.538	-0.01
238.755	0.16
238.973	-0.15
239.19	-0
239.407	0.06
239.624	0
239.841	-0.11
240.058	-0.05
240.275	0.13
240.492	0.07
240.709	0.11
240.925	-0.05
241.142	0.04
241.359	-0.12
241.576	-0.1
241.793	0.02
242.01	-0.06
242.227	0.13
242.444	0.19
242.66	0.15
242.877	0.02
243.094	-0.05
243.311	-0.04
243.527	-0.06
243.744	0.04
243.961	0.05
244.178	-0.09
244.394	0.07
244.611	0.19
244.828	0.24
245.044	-0.06
245.261	0.04
245.477	0.08
245.694	0.05
245.911	-0.03
246.127	0
246.344	0.25
246.56	0.15
246.777	0.03
246.993	0.16
247.21	0.08
247.426	0.12
247.643	-0.01
247.859	-0.03
248.076	-0
248.292	0.22
248.508	0.04
248.725	0.12
248.941	0.12
249.157	0.09
249.374	-0.07
249.59	0.02
249.806	-0.07
250.023	0.13
250.239	0
250.455	-0.06
250.671	0.02
250.888	0.02
251.104	0.03
251.32	0
251.536	0.01
251.752	0
251.969	-0.05
252.185	0.09
252.401	0.16
252.617	0.12
252.833	-0.08
253.049	0.03
253.265	-0
253.481	0.12
253.697	-0.01
253.913	-0.05
254.129	0.06
254.345	0.14
254.561	-0.08
254.777	0.06
254.993	0.08
255.209	0.06
255.425	0.01
255.641	-0.02
255.857	0.07
256.073	0.08
256.288	-0.05
256.504	-0.04
256.72	0.06
256.936	0.08
257.152	-0.03
257.367	-0.05
257.583	0.11
257.799	0.11
258.015	-0.01
258.23	0.01
258.446	0.16
258.662	0.03
258.877	-0.06
259.093	-0.03
259.309	0.01
259.524	0.07
259.74	-0.02
259.955	-0.1
260.171	0.08
260.387	0.03
260.602	0.19
260.818	0.09
261.033	-0.04
261.249	0
261.464	-0.02
261.68	-0.06
261.895	0.07
262.11	0.16
262.326	0.04
262.541	-0.07
262.757	0.05
262.972	0.02
263.187	0.06
263.403	-0.06
263.618	0.09
263.833	0.03
264.049	-0.08
264.264	0.02
264.479	0.07
264.694	0.15
264.91	-0.05
265.125	-0.02
265.34	0.08
265.555	0.15
265.77	0.06
265.986	-0.01
266.201	0.03
266.416	0.12
266.631	-0.01
266.846	0.03
267.061	0.08
267.276	0.09
267.491	-0.09
267.706	0.05
267.921	0.01
268.136	0.07
268.351	-0.02
268.566	-0.11
268.781	0.09
268.996	0.1
269.211	0.02
269.426	-0.09
269.641	0.01
269.856	0.11
270.071	-0.03
270.285	-0.04
270.5	0.07
270.715	0.12
270.93	0.05
271.145	0.08
271.359	0.07
271.574	-0
271.789	0.06
272.004	-0.06
272.218	0.01
272.433	0.08
272.648	-0.06
272.862	0.07
273.077	0.05
273.292	0.02
273.506	-0.02
273.721	-0.03
273.936	0.08
274.15	0.09
274.365	-0
274.579	0.07
274.794	0.08
275.008	0.06
275.223	-0.04
275.437	0
275.652	0.1
275.866	0.09
276.081	0.05
276.295	0.09
276.509	0.06
276.724	0.1
276.938	-0.02
277.153	0.02
277.367	0.09
277.581	-0.02
277.796	-0.01
278.01	-0.01
278.224	0.07
278.438	0.12
278.653	-0.05
278.867	0.02
279.081	-0.14
279.295	-0.05
279.51	-0.01
279.724	-0.03
279.938	0.08
280.152	0.06
280.366	0.03
280.58	-0.01
280.794	0.11
281.008	0.07
281.222	0.06
281.437	0.12
281.651	0.04
281.865	0.14
282.079	0.02
282.293	-0.07
282.507	-0
282.721	-0.01
282.935	0.02
283.148	-0.06
283.362	0.01
283.576	-0.08
283.79	0.02
284.004	-0.02
284.218	0.06
284.432	-0.03
284.646	0
284.859	-0.03
285.073	-0.06
285.287	0.04
285.501	0.05
285.714	0
285.928	-0
286.142	-0.01
286.356	0.02
286.569	-0.02
286.783	0.16
286.997	0.09
287.21	0.01
287.424	0.04
287.637	0.05
287.851	-0.03
288.065	0.07
288.278	-0.01
288.492	0.01
288.705	0.02
288.919	0.09
289.132	-0.05
289.346	0.12
289.559	-0.04
289.773	-0.05
289.986	0.03
290.2	-0.01
290.413	0.12
290.626	-0.01
290.84	0.03
291.053	0.02
291.267	0.07
291.48	0.06
291.693	0.09
291.906	-0.01
292.12	0.02
292.333	0.02
292.546	0.05
292.76	0.12
292.973	0.04
293.186	0.02
293.399	-0.02
293.612	0.07
293.826	-0
294.039	0.04
294.252	0.03
294.465	0.09
294.678	0.07
294.891	0.04
295.104	-0.02
295.317	0.01
295.53	0.04
295.743	0.03
295.956	0.04
296.169	0.12
296.382	0.05
296.595	0.01
296.808	-0.01
297.021	0.12
297.234	0.1
297.447	0.02
297.66	0.08
297.873	0.09
298.086	0.09
298.299	-0.04
298.511	-0.06
298.724	0.04
298.937	-0.04
299.15	-0.03
299.363	0.01
299.575	0.1
299.788	-0.01
300.001	0.04
300.213	-0.06
300.426	-0
300.639	0
300.852	-0.03
301.064	0.11
301.277	0.09
301.489	0.07
301.702	0.04
301.915	0.01
302.127	0.04
302.34	0.04
302.552	0.08
302.765	0.01
302.977	0.09
303.19	-0.02
303.402	0.02
303.615	-0.01
303.827	0.04
304.04	-0
304.252	0.05
304.464	0.02
304.677	0.15
304.889	0.05
305.102	0.01
305.314	-0.03
305.526	0.1
305.739	0.08
305.951	-0.04
306.163	0
306.375	0.08
306.588	-0.03
306.8	-0
307.012	-0.09
307.224	0.03
307.436	0.08
307.649	-0.05
307.861	0.05
308.073	0.05
308.285	0.01
308.497	-0.02
308.709	-0.01
308.921	0.04
309.133	0.08
309.346	-0.03
309.558	0.01
309.77	0.09
309.982	0.09
310.194	0.09
310.406	0.01
310.617	0.15
310.829	0.07
311.041	0.05
311.253	-0
311.465	0.04
311.677	0.03
311.889	0.02
312.101	0.01
312.313	0.05
312.524	0.1
312.736	-0.02
312.948	0.01
313.16	0.11
313.372	0.03
313.583	0.05
313.795	0.05
314.007	0.05
314.218	0.06
314.43	0.02
314.642	0.03
314.853	0.02
315.065	0.03
315.277	0.01
315.488	0.01
315.7	0.07
315.912	0.07
316.123	-0
316.335	0.06
316.546	0.15
316.758	0.02
316.969	0.01
317.181	0.04
317.392	-0
317.604	0.07
317.815	0.02
318.026	0
318.238	-0
318.449	0.07
318.661	-0.02
318.872	-0.01
319.083	-0.01
319.295	0.05
319.506	0.02
319.717	0.05
319.929	0.07
320.14	0.05
320.351	0.03
320.562	0.01
320.774	0.07
320.985	0.07
321.196	0.01
321.407	-0.02
321.618	0.04
321.829	0.05
322.041	0.07
322.252	0.03
322.463	0.07
322.674	0.09
322.885	-0
323.096	0.01
323.307	0.02
323.518	0.02
323.729	-0.02
323.94	0.02
324.151	0.04
324.362	0
324.573	0.05
324.784	0.02
324.995	0.08
325.206	0.03
325.417	-0.01
325.628	0.05
325.838	0.06
326.049	0.01
326.26	0.03
326.471	0.03
326.682	0.07
326.892	0.03
327.103	-0.01
327.314	-0.03
327.525	0.09
327.735	0.04
327.946	0.02
328.157	-0.01
328.368	0.08
328.578	0.03
328.789	0.06
328.999	0.01
329.21	0.02
329.421	0.03
329.631	-0.01
329.842	-0.01
330.052	0.05
330.263	0.04
330.473	0.08
330.684	0.03
330.894	0
331.105	0.06
331.315	0.03
331.526	-0.03
331.736	0.12
331.947	0.04
332.157	0.08
332.367	0.01
332.578	0.06
332.788	0.1
332.999	0.09
333.209	0.06
333.419	-0.01
333.629	0.05
333.84	0.05
334.05	-0.03
334.26	0.08
334.47	0.06
334.681	0.1
334.891	0.04
335.101	0.07
335.311	0.09
335.521	0.03
335.732	-0.03
335.942	0.09
336.152	0.08
336.362	0.1
336.572	0.07
336.782	0.09
336.992	-0.01
337.202	-0
337.412	-0.03
337.622	0.08
337.832	0.03
338.042	0.06
338.252	-0.01
338.462	0.05
338.672	0.05
338.882	0.01
339.092	0.04
339.302	0.09
339.511	0.02
339.721	0
339.931	0.01
340.141	0.07
340.351	0.1
340.561	0.06
340.77	0.06
340.98	0.06
341.19	0.08
341.4	0.02
341.609	0.01
341.819	0.03
342.029	-0.01
342.238	0.03
342.448	-0.01
342.658	0.07
342.867	0.07
343.077	0.06
343.286	0.06
343.496	0.07
343.706	0.11
343.915	-0.04
344.125	0.03
344.334	0.06
344.544	-0.03
344.753	0.02
344.963	0.04
345.172	-0.02
345.381	0.01
345.591	-0.01
345.8	-0.01
346.01	0.08
346.219	0.08
346.428	-0.12
346.638	0.06
346.847	0.01
347.056	0.08
347.266	0
347.475	0.06
347.684	0.06
347.893	0.02
348.103	0.03
348.312	0.02
348.521	0.02
348.73	0.05
348.94	0.03
349.149	0.02
349.358	0.04
349.567	0.01
349.776	-0
349.985	0.03
350.194	0.08
350.403	0.09
350.612	-0.06
350.821	0.02
351.03	0.07
351.239	-0.03
351.448	0
351.657	0.01
351.866	0.11
352.075	0.03
352.284	0.03
352.493	0
352.702	0.09
352.911	0.05
353.12	0.02
353.329	0.01
353.538	0.03
353.746	0.03
353.955	-0.02
354.164	0.06
354.373	0.04
354.582	0.06
354.79	0.04
354.999	0.06
355.208	0.03
355.416	0.11
355.625	-0.04
355.834	0.02
356.042	0.02
356.251	0.03
356.46	-0.03
356.668	0.04
356.877	0.1
357.085	0.11
357.294	-0.04
357.503	0.08
357.711	0.04
357.92	0.17
358.128	0.03
358.337	0.02
358.545	0.07
358.754	0.06
358.962	0.05
359.17	0.01
359.379	0.07
359.587	0.07
359.796	0.09
360.004	0.09
360.212	0.09
360.421	0.11
360.629	0.04
360.837	0.04
361.046	0.08
361.254	0.11
361.462	0.06
361.67	0.03
361.879	0.06
362.087	0.11
362.295	0.01
362.503	0
362.711	-0.01
362.92	0
363.128	0.02
363.336	0.02
363.544	-0.04
363.752	0.01
363.96	0.01
364.168	0.01
364.376	0.05
364.584	0.05
364.792	0.07
365	0.01
365.208	0.03
365.416	0.06
365.624	0.07
365.832	0.03
366.04	0.1
366.248	0.04
366.456	0.08
366.664	0.03
366.872	0.08
367.079	0.06
367.287	0.06
367.495	0.05
367.703	0.05
367.911	0.07
368.118	0.02
368.326	0.06
368.534	0
368.742	0.11
368.949	0
369.157	0.04
369.365	0.07
369.572	0.01
369.78	0.01
369.988	0.09
370.195	0.07
370.403	0.09
370.61	0.01
370.818	0.02
371.026	0.1
371.233	0.03
371.441	0.04
371.648	0.02
371.856	0.09
372.063	0.05
372.271	0.02
372.478	0.03
372.685	0.03
372.893	0.09
373.1	0.04
373.308	0.06
373.515	0.12
373.722	0.06
373.93	0.07
374.137	0.06
374.344	0.15
374.552	0.06
374.759	0.09
374.966	0.06
375.173	0.05
375.381	0.07
375.588	0.07
375.795	0.01
376.002	0.05
376.209	0.03
376.417	0.09
376.624	0.08
376.831	0.13
377.038	0.08
377.245	0.01
377.452	0.05
377.659	0.1
377.866	0.04
378.073	0.03
378.28	0.1
378.487	0.13
378.694	0.09
378.901	0.07
379.108	0.09
379.315	0.12
379.522	0.15
379.729	0.08
379.936	0.08
380.143	0.14
380.35	0.11
380.557	0.06
380.763	0.09
380.97	0.08
381.177	0.1
381.384	0.1
381.591	0.05
381.797	0.09
382.004	0.12
382.211	0.17
382.418	0.12
382.624	0.14
382.831	0.17
383.038	0.09
383.244	0.13
383.451	0.12
383.658	0.16
383.864	0.15
384.071	0.08
384.277	0.22
384.484	0.12
384.69	0.19
384.897	0.16
385.103	0.12
385.31	0.14
385.516	0.18
385.723	0.12
385.929	0.19
386.136	0.14
386.342	0.19
386.549	0.14
386.755	0.31
386.961	0.21
387.168	0.23
387.374	0.25
387.58	0.29
387.787	0.28
387.993	0.29
388.199	0.27
388.406	0.29
388.612	0.28
388.818	0.28
389.024	0.28
389.231	0.4
389.437	0.43
389.643	0.4
389.849	0.46
390.055	0.42
390.261	0.48
390.467	0.5
390.674	0.48
390.88	0.54
391.086	0.61
391.292	0.5
391.498	0.67
391.704	0.71
391.91	0.7
392.116	0.66
392.322	0.63
392.528	0.8
392.734	0.76
392.94	0.88
393.146	0.89
393.352	1
393.557	1
393.763	1
393.969	1.15
394.175	1.12
394.381	1.22
394.587	1.2
394.792	1.35
394.998	1.47
395.204	1.55
395.41	1.57
395.615	1.61
395.821	1.78
396.027	1.83
396.233	2.01
396.438	2.05
396.644	2.27
396.85	2.32
397.055	2.41
397.261	2.48
397.466	2.68
397.672	2.73
397.878	3.01
398.083	3.02
398.289	3.01
398.494	3.25
398.7	3.39
398.905	3.41
399.111	3.7
399.316	3.68
399.522	3.95
399.727	4.01
399.932	4.26
400.138	4.38
400.343	4.7
400.549	4.65
400.754	4.93
400.959	5.14
401.165	5.39
401.37	5.62
401.575	6.15
401.78	6.23
401.986	6.39
402.191	6.65
402.396	7.06
402.601	7.29
402.807	7.54
403.012	7.79
403.217	8.36
403.422	8.3
403.627	8.71
403.832	9.1
404.037	9.26
404.243	9.24
404.448	9.63
404.653	9.89
404.858	10.13
405.063	10.09
405.268	10.45
405.473	10.62
405.678	10.89
405.883	11.46
406.088	11.36
406.293	11.29
406.498	11.81
406.703	11.53
406.907	11.91
407.112	12.32
407.317	12.58
407.522	12.79
407.727	12.88
407.932	12.98
408.136	13.11
408.341	12.92
408.546	12.88
408.751	12.87
408.956	12.67
409.16	13
409.365	12.81
409.57	12.35
409.774	12.46
409.979	12.38
410.184	12.11
410.388	11.92
410.593	11.89
410.798	11.8
411.002	11.88
411.207	11.44
411.411	11.23
411.616	10.93
411.82	10.87
412.025	10.56
412.229	10.47
412.434	10.2
412.638	9.82
412.843	9.49
413.047	9.3
413.252	8.9
413.456	9.03
413.66	8.61
413.865	8.23
414.069	8.02
414.273	7.91
414.478	7.67
414.682	7.44
414.886	7.21
415.091	6.91
415.295	6.87
415.499	6.68
415.703	6.32
415.908	6.38
416.112	5.96
416.316	6.1
416.52	5.88
416.724	5.72
416.929	5.53
417.133	5.69
417.337	5.3
417.541	5.29
417.745	5.04
417.949	4.98
418.153	4.87
418.357	4.82
418.561	4.92
418.765	4.58
418.969	4.6
419.173	4.61
419.377	4.37
419.581	4.41
419.785	4.29
419.989	4.09
420.193	4.05
420.397	3.97
420.601	3.95
420.804	3.82
421.008	3.67
421.212	3.67
421.416	3.47
421.62	3.29
421.823	3.29
422.027	3.22
422.231	2.97
422.435	2.91
422.638	2.8
422.842	2.71
423.046	2.61
423.249	2.65
423.453	2.53
423.657	2.47
423.86	2.37
424.064	2.37
424.268	2.37
424.471	2.17
424.675	2.24
424.878	2.16
425.082	1.99
425.285	2.05
425.489	1.96
425.692	1.91
425.896	1.77
426.099	1.76
426.303	1.73
426.506	1.68
426.71	1.75
426.913	1.64
427.116	1.67
427.32	1.56
427.523	1.51
427.726	1.57
427.93	1.47
428.133	1.52
428.336	1.36
428.54	1.37
428.743	1.38
428.946	1.5
429.149	1.32
429.353	1.33
429.556	1.27
429.759	1.28
429.962	1.15
430.165	1.15
430.368	1.13
430.571	1.05
430.775	1.05
430.978	0.96
431.181	0.96
431.384	0.93
431.587	0.91
431.79	0.88
431.993	0.9
432.196	0.91
432.399	0.89
432.602	0.97
432.805	0.91
433.008	0.95
433.211	0.87
433.414	0.94
433.616	0.88
433.819	0.83
434.022	0.75
434.225	0.87
434.428	0.84
434.631	0.96
434.833	0.74
435.036	0.75
435.239	0.8
435.442	0.74
435.645	0.72
435.847	0.75
436.05	0.8
436.253	0.69
436.455	0.66
436.658	0.63
436.861	0.73
437.063	0.58
437.266	0.61
437.468	0.66
437.671	0.72
437.874	0.6
438.076	0.48
438.279	0.54
438.481	0.58
438.684	0.52
438.886	0.59
439.089	0.48
439.291	0.54
439.494	0.58
439.696	0.44
439.899	0.52
440.101	0.51
440.303	0.45
440.506	0.53
440.708	0.48
440.91	0.55
441.113	0.41
441.315	0.53
441.517	0.4
441.72	0.52
441.922	0.42
442.124	0.37
442.326	0.46
442.529	0.52
442.731	0.35
442.933	0.5
443.135	0.4
443.337	0.34
443.539	0.37
443.742	0.37
443.944	0.42
444.146	0.3
444.348	0.36
444.55	0.33
444.752	0.36
444.954	0.25
445.156	0.34
445.358	0.32
445.56	0.4
445.762	0.33
445.964	0.33
446.166	0.28
446.368	0.28
446.57	0.36
446.772	0.27
446.974	0.28
447.175	0.29
447.377	0.27
447.579	0.27
447.781	0.17
447.983	0.35
448.184	0.26
448.386	0.26
448.588	0.2
448.79	0.28
448.991	0.26
449.193	0.22
449.395	0.26
449.597	0.28
449.798	0.26
450	0.27
450.202	0.23
450.403	0.27
450.605	0.24
450.806	0.2
451.008	0.19
451.21	0.24
451.411	0.23
451.613	0.19
451.814	0.2
452.016	0.27
452.217	0.21
452.419	0.22
452.62	0.19
452.821	0.2
453.023	0.29
453.224	0.26
453.426	0.21
453.627	0.26
453.828	0.21
454.03	0.21
454.231	0.25
454.432	0.14
454.634	0.3
454.835	0.19
455.036	0.12
455.238	0.2
455.439	0.28
455.64	0.11
455.841	0.15
456.042	0.3
456.244	0.23
456.445	0.18
456.646	0.08
456.847	0.17
457.048	0.3
457.249	0.24
457.45	0.46
457.651	0.16
457.852	0.24
458.054	0.16
458.255	0.12
458.456	0.25
458.657	0.24
458.858	0.17
459.058	0.18
459.259	0.25
459.46	0.19
459.661	0.19
459.862	0.29
460.063	0.19
460.264	0.24
460.465	0.19
460.666	0.28
460.866	0.16
461.067	0.17
461.268	0.19
461.469	0.11
461.67	0.16
461.87	0.14
462.071	0.12
462.272	0.14
462.473	0.17
462.673	0.22
462.874	0.12
463.075	0.15
463.275	0.18
463.476	0.2
463.676	0.18
463.877	0.19
464.078	0.2
464.278	0.24
464.479	0.15
464.679	0.17
464.88	0.15
465.08	0.24
465.281	0.18
465.481	0.14
465.682	0.1
465.882	0.18
466.083	0.15
466.283	0.19
466.483	0.17
466.684	0.11
466.884	0.14
467.085	0.14
467.285	0.21
467.485	0.15
467.686	0.16
467.886	0.1
468.086	0.12
468.286	0.18
468.487	0.18
468.687	0.06
468.887	0.15
469.087	0.19
469.287	0.16
469.488	0.08
469.688	0.16
469.888	0.2
470.088	0.2
470.288	0.17
470.488	0.18
470.688	0.08
470.888	0.15
471.088	0.09
471.288	0.2
471.488	0.17
471.688	0.16
471.888	0.11
472.088	0.2
472.288	0.21
472.488	0.1
472.688	0.08
472.888	0.12
473.088	0.09
473.288	0.12
473.488	0.14
473.688	0.22
473.887	0.12
474.087	0.09
474.287	0.13
474.487	0.12
474.687	0.17
474.886	0.11
475.086	0.12
475.286	0.12
475.486	0.12
475.685	0.12
475.885	0.1
476.085	0.11
476.284	0.14
476.484	0.1
476.684	0.12
476.883	0.19
477.083	0.12
477.282	0.09
477.482	0.13
477.681	0.14
477.881	0.11
478.08	0.04
478.28	0.05
478.479	0.13
478.679	0.19
478.878	0.04
479.078	0.04
479.277	0.11
479.477	0.08
479.676	0.12
479.875	0.12
480.075	0.05
480.274	0.13
480.473	0.09
480.673	0.06
480.872	0.14
481.071	0.1
481.271	0.1
481.47	0.09
481.669	0.09
481.868	0.08
482.067	0.09
482.267	0.05
482.466	0.05
482.665	0.09
482.864	0.04
483.063	0.05
483.262	0.09
483.461	0.13
483.661	0.08
483.86	0.08
484.059	0.08
484.258	0.08
484.457	0.05
484.656	0.1
484.855	0.11
485.054	0.03
485.253	0.06
485.452	0.05
485.651	0.07
485.849	0.05
486.048	0.04
486.247	0.03
486.446	0.07
486.645	0.04
486.844	0.04
487.043	0.05
487.241	0.07
487.44	0.03
487.639	0.06
487.838	0.09
488.037	0.06
488.235	0.13
488.434	0.08
488.633	0.04
488.831	0.09
489.03	0.11
489.229	0.07
489.427	0.07
489.626	0.1
489.825	0.1
490.023	0.06
490.222	0.05
490.42	0.1
490.619	0.1
490.817	0.07
491.016	0.06
491.214	0.07
491.413	0.05
491.611	0.04
491.81	0.06
492.008	0.08
492.207	0.1
492.405	0.05
492.604	0.02
492.802	0.05
493	0.05
493.199	0.04
493.397	0.06
493.595	0.03
493.794	0.04
493.992	0.12
494.19	0.05
494.388	0.06
494.587	0.04
494.785	0.06
494.983	0.03
495.181	0.06
495.379	0.05
495.578	0.04
495.776	0.05
495.974	0.06
496.172	0.05
496.37	0.05
496.568	0.03
496.766	0.05
496.964	0.06
497.162	0.06
497.36	0.01
497.558	0.07
497.756	0.06
497.954	0.06
498.152	0.03
498.35	0.05
498.548	0.07
498.746	0.04
498.944	0.03
499.142	0.05
499.34	0.01
499.538	0.05
499.736	0.03
499.933	0.08
500.131	0.06
500.329	0.06
500.527	0.08
500.725	0.09
500.922	0.08
501.12	0.07
501.318	0.06
501.516	0.02
501.713	0.06
501.911	0.04
502.109	0.03
502.306	0.07
502.504	0.04
502.701	0.04
502.899	0.04
503.097	0.09
503.294	0.06
503.492	0.03
503.689	0.05
503.887	0.08
504.084	0.1
504.282	0.03
504.479	-0.01
504.677	0.07
504.874	0.03
505.072	0.03
505.269	0.04
505.466	0.07
505.664	0.04
505.861	0.01
506.059	0.05
506.256	0.07
506.453	0.05
506.651	0.09
506.848	0.07
507.045	0.08
507.242	0.06
507.44	0.04
507.637	0.05
507.834	0.04
508.031	0.06
508.229	0.02
508.426	0.07
508.623	0.06
508.82	0.03
509.017	0.03
509.214	0.01
509.411	0.05
509.608	0.01
509.805	0.02
510.003	0.02
510.2	0.02
510.397	0.09
510.594	0.02
510.791	0.01
510.988	0.04
511.184	0.07
511.381	0.04
511.578	0.02
511.775	0.07
511.972	0.02
512.169	0.03
512.366	0.02
512.563	0.06
512.76	0.01
512.956	0.08
513.153	0.02
513.35	0.05
513.547	0.03
513.744	0.01
513.94	0
514.137	0.04
514.334	0.03
514.53	0.03
514.727	0.04
514.924	0.07
515.12	0.03
515.317	0.01
515.514	0.01
515.71	-0.02
515.907	0.03
516.103	0.04
516.3	0.03
516.497	0.05
516.693	0.07
516.89	0.04
517.086	-0
517.283	0.05
517.479	0.05
517.676	0.02
517.872	0.03
518.068	0.02
518.265	0.02
518.461	0.01
518.658	0
518.854	0.04
519.05	0.03
519.247	-0.01
519.443	0.07
519.639	0.03
519.836	0.03
520.032	0.03
520.228	0.03
520.424	0.1
520.621	0.03
520.817	0.04
521.013	0.03
521.209	0.04
521.405	0.07
521.601	0.04
521.798	0.02
521.994	0.06
522.19	-0.02
522.386	0.02
522.582	0.02
522.778	0.05
522.974	0.02
523.17	0.02
523.366	0.04
523.562	0.06
523.758	0.01
523.954	0
524.15	0.03
524.346	0.06
524.542	0.02
524.738	0
524.934	0.03
525.129	0.01
525.325	0.04
525.521	0.01
525.717	0.04
525.913	0.02
526.109	0.04
526.304	0.03
526.5	0.04
526.696	0.08
526.892	0.03
527.087	0.03
527.283	-0
527.479	0.04
527.674	0.02
527.87	0.02
528.066	0.02
528.261	0.06
528.457	0.01
528.653	0.01
528.848	0.02
529.044	0.04
529.239	0.01
529.435	0.05
529.63	0.04
529.826	0.07
530.021	0.04
530.217	0.04
530.412	0.01
530.608	-0.01
530.803	0.01
530.999	0.02
531.194	-0.01
531.389	0.03
531.585	-0.04
531.78	0
531.975	0.01
532.171	0.05
532.366	0.02
532.561	0.01
532.757	-0
532.952	0.02
533.147	0.04
533.342	0.02
533.538	0
533.733	0.06
533.928	0.01
534.123	0.01
534.318	0
534.513	0.01
534.709	0.03
534.904	0
535.099	0.01
535.294	0.03
535.489	0.03
535.684	0.03
535.879	-0.01
536.074	0.06
536.269	-0.02
536.464	0.03
536.659	0.04
536.854	0.01
537.049	0.03
537.244	0.02
537.439	0
537.634	0.06
537.828	0.02
538.023	0.01
538.218	-0
538.413	0.03
538.608	-0.04
538.803	0.04
538.997	-0.01
539.192	0.05
539.387	0.05
539.582	0.03
539.776	0.02
539.971	0
540.166	0.02
540.36	-0.01
540.555	0.03
540.75	0.02
540.944	0.01
541.139	-0.01
541.334	0.01
541.528	0.02
541.723	0.04
541.917	0
542.112	-0.03
542.306	0.01
542.501	0.03
542.695	0.02
542.89	0.02
543.084	0
543.279	0.02
543.473	0.01
543.668	0.03
543.862	0.01
544.056	0.02
544.251	0.03
544.445	0.03
544.64	0.03
544.834	0.02
545.028	0.03
545.222	0.02
545.417	0.05
545.611	0.04
545.805	0.03
546	0.01
546.194	0.02
546.388	0.01
546.582	0.03
546.776	0.02
546.97	0.02
547.165	0.02
547.359	0.03
547.553	-0.01
547.747	0.04
547.941	0.02
548.135	0.01
548.329	0.04
548.523	0.03
548.717	0.03
548.911	-0
549.105	0.01
549.299	0.03
549.493	0.04
549.687	0.03
549.881	0.05
550.075	0.02
550.269	-0.01
550.463	0.03
550.657	-0.02
550.85	0.01
551.044	0.01
551.238	0.04
551.432	0.01
551.626	-0
551.82	0.01
552.013	-0.01
552.207	0.01
552.401	0.03
552.594	0.02
552.788	0
552.982	0.02
553.176	-0.02
553.369	0.02
553.563	0.04
553.756	-0.01
553.95	-0
554.144	-0.01
554.337	0.05
554.531	0.04
554.724	0.03
554.918	0
555.111	0.04
555.305	-0
555.498	0.07
555.692	0.02
555.885	0.01
556.079	0.03
556.272	0.01
556.466	0.04
556.659	0.01
556.852	0.02
557.046	-0.01
557.239	0.05
557.432	-0.02
557.626	-0.01
557.819	0.02
558.012	0.04
558.206	0.05
558.399	0.03
558.592	0.06
558.785	0.02
558.979	0.03
559.172	-0
559.365	0.04
559.558	0.03
559.751	-0.01
559.944	0.01
560.138	0.02
560.331	0.03
560.524	-0.02
560.717	0
560.91	0.02
561.103	0.02
561.296	0.02
561.489	0.04
561.682	-0
561.875	0.06
562.068	0.05
562.261	0.03
562.454	0.05
562.647	0.02
562.84	0.02
563.032	0.01
563.225	0.03
563.418	0
563.611	0
563.804	0.01
563.997	-0.03
564.19	-0.03
564.382	0.02
564.575	0
564.768	0
564.961	0
565.153	0.02
565.346	0.02
565.539	0.02
565.731	0.01
565.924	0.04
566.117	0.03
566.309	0.04
566.502	-0
566.695	0.02
566.887	0
567.08	-0.01
567.272	-0
567.465	-0.02
567.657	0.03
567.85	0.03
568.042	0.03
568.235	0.05
568.427	-0
568.62	0.03
568.812	0.03
569.005	0.01
569.197	-0.03
569.389	0.01
569.582	0.05
569.774	0.01
569.966	-0.01
570.159	-0.01
570.351	0.03
570.543	-0.01
570.736	0.01
570.928	-0.02
571.12	0.03
571.312	0.01
571.505	-0.02
571.697	0.04
571.889	-0.02
572.081	-0
572.273	-0.04
572.465	0.04
572.658	0.01
572.85	0.03
573.042	0.01
573.234	-0.02
573.426	0.05
573.618	-0.02
573.81	0.01
574.002	0.05
574.194	0.02
574.386	-0.02
574.578	-0.05
574.77	-0.03
574.962	0.03
575.154	-0.01
575.346	0.02
575.538	0.03
575.729	-0
575.921	0.01
576.113	-0
576.305	-0
576.497	0
576.689	0.01
576.88	-0.01
577.072	0.05
577.264	0.02
577.456	0.02
577.647	-0.05
577.839	0.03
578.031	0.07
578.223	-0.03
578.414	-0.05
578.606	0.03
578.798	0.01
578.989	-0.02
579.181	0
579.372	0.01
579.564	0.01
579.755	0.01
579.947	0.02
580.139	0.04
580.33	-0.03
580.522	-0.01
580.713	-0.06
580.905	0.01
581.096	0.04
581.287	0.01
581.479	0.02
581.67	0.04
581.862	0.01
582.053	0.01
582.244	-0.04
582.436	-0.01
582.627	0.02
582.818	-0
583.01	-0.03
583.201	0
583.392	0.03
583.583	0.02
583.775	-0.02
583.966	-0.01
584.157	-0
584.348	-0.02
584.54	-0.01
584.731	0.01
584.922	0.01
585.113	-0.01
585.304	0.03
585.495	0.04
585.686	0.02
585.877	0.01
586.068	0.04
586.259	0.01
586.45	0.03
586.641	-0.02
586.832	-0.04
587.023	-0.01
587.214	0.01
587.405	0.02
587.596	-0.01
587.787	0.04
587.978	0.03
588.169	-0.03
588.36	-0.01
588.551	0.02
588.742	0.01
588.932	0
589.123	0.01
589.314	0.02
589.505	0.01
589.696	0.04
589.886	-0
590.077	-0.02
590.268	0.02
590.458	-0.02
590.649	-0.04
590.84	0.03
591.03	-0.04
591.221	-0.04
591.412	-0.02
591.602	0.01
591.793	0.07
591.984	0
592.174	0.01
592.365	0.08
592.555	0
592.746	0.02
592.936	0.05
593.127	0.02
593.317	0.03
593.508	-0.01
593.698	-0
593.889	0
594.079	-0.02
594.269	-0.01
594.46	-0.02
594.65	0.01
594.84	0
595.031	-0.01
595.221	-0.03
595.411	-0.03
595.602	0.05
595.792	-0.01
595.982	-0.02
596.172	0.05
596.363	0.01
596.553	0.01
596.743	0.01
596.933	0
597.123	0.05
597.314	-0.02
597.504	-0.03
597.694	0.06
597.884	0.02
598.074	-0
598.264	-0.04
598.454	0.02
598.644	0
598.834	0.01
599.024	-0.07
599.214	-0.04
599.404	0.04
599.594	-0.02
599.784	-0.02
599.974	0.04
600.164	0.03
600.354	-0.06
600.544	-0.04
600.734	0.02
600.924	0.03
601.114	-0.02
601.303	-0
601.493	0.01
601.683	-0.01
601.873	0.02
602.063	-0.02
602.252	0.04
602.442	-0.07
602.632	-0.02
602.821	-0.02
603.011	0.01
603.201	-0.01
603.39	-0.02
603.58	-0.03
603.77	0.01
603.959	0.04
604.149	-0.02
604.339	-0.01
604.528	0.03
604.718	-0.01
604.907	-0.01
605.097	-0.02
605.286	-0.03
605.476	0.02
605.665	-0
605.855	0.01
606.044	0.03
606.234	0.05
606.423	-0.01
606.612	-0.03
606.802	-0.01
606.991	0.03
607.181	0.01
607.37	-0.05
607.559	0
607.749	-0.02
607.938	0.01
608.127	-0
608.316	-0.02
608.506	0.04
608.695	0.02
608.884	-0.04
609.073	-0.02
609.263	0.01
609.452	0.01
609.641	0.01
609.83	-0.03
610.019	0.01
610.208	-0.03
610.397	0.01
610.586	0.03
610.775	-0.02
610.965	0
611.154	-0.03
611.343	0.02
611.532	0.02
611.721	-0.02
611.91	-0.02
612.099	0.04
612.287	-0.01
612.476	-0.02
612.665	0.01
612.854	-0
613.043	0.04
613.232	0
613.421	-0.03
613.61	0
613.798	-0.04
613.987	0.02
614.176	0
614.365	0.03
614.554	0.03
614.742	0.03
614.931	-0.01
615.12	0.05
615.309	-0.03
615.497	0.03
615.686	0.01
615.875	-0.01
616.063	0.01
616.252	-0.04
616.44	-0.03
616.629	-0.02
616.818	0.03
617.006	0
617.195	-0.01
617.383	0.02
617.572	0.02
617.76	-0.01
617.949	-0.02
618.137	0.03
618.326	0.06
618.514	-0.03
618.703	-0.02
618.891	0.07
619.079	-0.04
619.268	0.01
619.456	-0.02
619.644	0.05
619.833	-0
620.021	-0.02
620.209	-0.04
620.398	0
620.586	-0.02
620.774	0.01
620.962	0
621.151	0.04
621.339	0.02
621.527	-0.03
621.715	-0.03
621.903	-0.04
622.092	-0.03
622.28	0.01
622.468	-0.05
622.656	-0.01
622.844	0.01
623.032	-0.01
623.22	-0.06
623.408	0.05
623.596	0.03
623.784	0.02
623.972	0
624.16	0
624.348	0.05
624.536	0
624.724	-0.02
624.912	0.08
625.1	0.06
625.288	-0.02
625.476	-0.01
625.664	0.07
625.851	-0.02
626.039	-0
626.227	-0.01
626.415	-0.03
626.603	-0.06
626.79	0.03
626.978	0.01
627.166	0.04
627.354	0.01
627.541	-0.02
627.729	-0.05
627.917	0.04
628.104	0.05
628.292	0.01
628.48	0.01
628.667	0.01
628.855	0.02
629.042	0.02
629.23	-0.01
629.418	0
629.605	-0.01
629.793	-0.02
629.98	-0.01
630.168	-0.02
630.355	-0
630.543	-0.01
630.73	-0.03
630.917	0.05
631.105	0.05
631.292	-0.03
631.48	-0.01
631.667	0.07
631.854	-0
632.042	-0.02
632.229	-0.07
632.416	0.03
632.604	-0.03
632.791	-0.04
632.978	0.03
633.165	0.01
633.353	0.04
633.54	0.02
633.727	-0.07
633.914	-0.02
634.101	-0.04
634.289	0.04
634.476	-0.04
634.663	-0.05
634.85	0.01
635.037	-0.04
635.224	-0.05
635.411	0.03
635.598	0.05
635.785	-0.01
635.972	-0.02
636.159	0.04
636.346	-0.02
636.533	0.02
636.72	-0.03
636.907	-0.02
637.094	-0.01
637.281	0
637.468	0.01
637.655	0.03
637.842	0.02
638.029	-0.03
638.215	0.02
638.402	0.03
638.589	-0.02
638.776	-0.02
638.963	-0.03
639.149	0.05
639.336	0.07
639.523	-0.03
639.709	-0.02
639.896	-0.01
640.083	0.08
640.27	-0.02
640.456	-0.03
640.643	0.01
640.829	-0.04
641.016	-0.02
641.203	-0.06
641.389	0
641.576	0.02
641.762	-0.02
641.949	0.01
642.135	0
642.322	-0.01
642.508	-0.04
642.695	-0.03
642.881	-0.02
643.068	-0.01
643.254	0.03
643.441	0.03
643.627	0
643.813	-0.03
644	0.02
644.186	-0.02
644.372	0.02
644.559	0.04
644.745	-0.01
644.931	-0.02
645.118	-0.04
645.304	-0.03
645.49	-0.03
645.676	-0.02
645.862	-0
646.049	0.02
646.235	0.01
646.421	0.06
646.607	0.07
646.793	-0.02
646.979	-0.03
647.165	0.01
647.352	0.02
647.538	0.07
647.724	0.01
647.91	0.01
648.096	0.03
648.282	0.05
648.468	0.02
648.654	0
648.84	-0.01
649.026	-0.01
649.212	-0.01
649.397	-0.03
649.583	-0.03
649.769	0.05
649.955	-0.01
650.141	0.01
650.327	0.01
650.513	-0.04
650.698	0.03
650.884	-0.06
651.07	0
651.256	-0.01
651.442	-0.01
651.627	0.01
651.813	-0.03
651.999	0.02
652.184	0.01
652.37	-0.01
652.556	-0.01
652.741	0.07
652.927	-0.06
653.113	-0.01
653.298	0
653.484	0.02
653.669	-0.06
653.855	0.02
654.04	0.05
654.226	0.01
654.412	-0
654.597	-0.04
654.782	-0.01
654.968	0.02
655.153	0.01
655.339	-0.04
655.524	-0.04
655.71	0.04
655.895	-0.02
656.08	-0.01
656.266	0.03
656.451	0.04
656.636	-0.03
656.822	-0
657.007	-0.04
657.192	-0.03
657.378	-0.03
657.563	-0.02
657.748	0.03
657.933	0.02
658.118	-0.01
658.304	-0.04
658.489	0.03
658.674	0.01
658.859	-0.03
659.044	0.01
659.229	0
659.414	-0.03
659.599	-0
659.785	-0.06
659.97	0.01
660.155	0.04
660.34	-0.01
660.525	0.02
660.71	-0.05
660.895	0.05
661.08	-0.03
661.264	-0.06
661.449	0.05
661.634	0.07
661.819	-0
662.004	0.03
662.189	-0.07
662.374	-0.01
662.559	-0.07
662.743	-0.03
662.928	0
663.113	-0.05
663.298	-0.02
663.483	-0.01
663.667	0.01
663.852	-0.06
664.037	0.07
664.221	-0.04
664.406	0.04
664.591	0.02
664.775	0.01
664.96	-0.03
665.145	0.02
665.329	0.03
665.514	0
665.698	-0.03
665.883	-0.07
666.068	0.07
666.252	-0.01
666.437	-0.07
666.621	-0.01
666.806	-0.02
666.99	0.02
667.174	-0.06
667.359	0.04
667.543	-0.02
667.728	-0.02
667.912	-0.08
668.096	0
668.281	-0.02
668.465	-0
668.649	-0.01
668.834	-0.02
669.018	-0.06
669.202	-0.01
669.387	-0.02
669.571	0.03
669.755	-0.05
669.939	-0.02
670.124	-0.02
670.308	0.05
670.492	0.06
670.676	-0.03
670.86	-0.02
671.044	-0.03
671.228	0
671.413	-0.05
671.597	-0.04
671.781	-0.01
671.965	0.02
672.149	0
672.333	0
672.517	-0.02
672.701	0.02
672.885	-0.05
673.069	-0.08
673.253	0.08
673.437	-0.02
673.621	-0.04
673.804	-0.01
673.988	0.02
674.172	-0.03
674.356	-0.06
674.54	-0.06
674.724	0.07
674.908	-0.01
675.091	0.03
675.275	-0.05
675.459	0.02
675.643	0.06
675.826	-0.01
676.01	-0.01
676.194	-0.06
676.377	0.01
676.561	0.01
676.745	-0.01
676.928	-0.02
677.112	0.04
677.296	-0.02
677.479	0
677.663	-0.03
677.846	0.01
678.03	0.01
678.213	-0.03
678.397	0.02
678.58	-0.03
678.764	-0.02
678.947	-0.06
679.131	0
679.314	0.07
679.498	-0.02
679.681	-0.01
679.865	0.04
680.048	-0.03
680.231	0.01
680.415	-0.02
680.598	0.01
680.781	-0.01
680.965	-0.02
681.148	0
681.331	-0.01
681.514	0.06
681.698	-0
681.881	0.01
682.064	0
682.247	-0.03
682.43	-0.08
682.614	-0
682.797	0.05
682.98	0.02
683.163	-0.03
683.346	0.01
683.529	-0.04
683.712	-0.04
683.895	0.02
684.078	-0.06
684.261	0.05
684.444	0.03
684.627	-0
684.81	-0.04
684.993	0.02
685.176	0.08
685.359	-0.06
685.542	-0.06
685.725	0.07
685.908	-0.04
686.091	-0.03
686.274	0.02
686.457	0.02
686.639	0
686.822	0.01
687.005	0.02
687.188	0.02
687.371	0.11
687.553	0.06
687.736	0
687.919	0.11
688.102	0.06
688.284	-0.01
688.467	0.01
688.65	0.02
688.832	-0.02
689.015	-0.02
689.197	-0.07
689.38	0.09
689.563	0.09
689.745	-0.08
689.928	-0.03
690.11	0.01
690.293	0.05
690.475	-0.08
690.658	0.02
690.84	-0.04
691.023	0
691.205	-0.02
691.388	-0.01
691.57	0.04
691.752	0.05
691.935	-0.08
692.117	-0.05
692.3	0.04
692.482	0.04
692.664	-0.01
692.847	0.01
693.029	0.1
693.211	0.08
693.393	-0
693.576	-0.02
693.758	0.01
693.94	0
694.122	-0.03
694.304	-0.05
694.487	0.01
694.669	0.09
694.851	-0.05
695.033	0.04
695.215	-0.06
695.397	-0.01
695.579	0.03
695.761	-0.03
695.943	-0.04
696.125	0.06
696.308	0.01
696.49	-0.09
696.671	0.07
696.853	0.01
697.035	0.12
697.217	0.03
697.399	0.03
697.581	0.01
697.763	-0.05
697.945	-0.06
698.127	-0.02
698.309	0.06
698.491	-0.03
698.672	0.04
698.854	0.04
699.036	0.07
699.218	-0.02
699.399	0.02
699.581	0.01
699.763	0.01
699.945	-0.11
700.126	-0.04
700.308	-0.01
700.49	-0.11
700.671	-0.1
700.853	-0.01
701.035	-0.02
701.216	0
701.398	-0.06
701.579	-0.02
701.761	0.05
701.943	0.02
702.124	-0.05
702.306	0.04
702.487	0.1
702.669	-0.05
702.85	-0.05
703.031	-0.04
703.213	0.09
703.394	0.05
703.576	-0.02
703.757	0.12
703.938	0.08
704.12	0.14
704.301	-0.04
704.483	-0.05
704.664	0
704.845	0.09
705.026	-0.03
705.208	-0.01
705.389	0.05
705.57	0.03
705.751	-0.04
705.933	-0.03
706.114	0.07
706.295	0.01
706.476	-0.05
706.657	0.04
706.838	0.03
707.02	0.04
707.201	-0.03
707.382	-0.04
707.563	0.03
707.744	-0.02
707.925	-0.06
708.106	-0.05
708.287	-0
708.468	0.08
708.649	0
708.83	0.03
709.011	-0.04
709.192	0.08
709.373	-0.06
709.554	-0.03
709.734	-0.03
709.915	-0.03
710.096	0.03
710.277	-0.13
710.458	-0.04
710.639	0.08
710.819	-0.09
711	-0.01
711.181	0.13
711.362	0.03
711.542	-0.02
711.723	-0.01
711.904	0.08
712.085	0.09
712.265	0
712.446	-0.05
712.627	-0.03
712.807	-0.04
712.988	0
713.168	-0.09
713.349	0.05
713.53	-0.12
713.71	-0.06
713.891	-0.12
714.071	-0
714.252	-0.03
714.432	-0.09
714.613	-0.07
714.793	-0
714.974	0.05
715.154	0.06
715.334	0.08
715.515	0.09
715.695	0.01
715.876	0.03
716.056	-0.04
716.236	-0.02
716.417	-0.05
716.597	-0.04
716.777	0.09
716.957	0.03
717.138	0.04
717.318	0
717.498	-0.08
717.678	0
717.859	0.05
718.039	-0.09
718.219	0.05
718.399	0.06
718.579	-0.07
718.759	-0.11
718.939	0.01
719.12	0.05
719.3	-0.04
719.48	-0.18
719.66	-0.13
719.84	0.15
720.02	-0.05
720.2	-0.09
720.38	-0.01
720.56	0.15
720.74	-0.03
720.92	-0.01
721.1	0.03
721.279	0.08
721.459	-0.06
721.639	-0.06
721.819	-0
721.999	-0.02
722.179	0.13
722.359	-0.09
722.538	0.07
722.718	0.06
722.898	-0.04
723.078	0.02
723.257	-0.09
723.437	-0.1
723.617	-0.05
723.797	-0.05
723.976	0.05
724.156	0.08
724.336	0.14
724.515	0.13
724.695	-0.09
724.874	-0.05
725.054	0.03
725.234	-0.01
725.413	0.03
725.593	0.01
725.772	0.05
725.952	-0.01
726.131	-0.06
726.311	-0.01
726.49	0.02
726.67	-0.1
726.849	-0.05
727.028	0.01
727.208	-0
727.387	0.03
727.567	-0.1
727.746	-0
727.925	-0.04
728.105	-0.08
728.284	-0
728.463	-0.06
728.643	0.06
728.822	-0.09
729.001	-0.03
729.18	0.01
729.359	0.05
729.539	-0.02
729.718	0.06
729.897	0.04
730.076	-0
730.255	-0.09
730.434	0.02
730.614	0
730.793	0.08
730.972	-0.05
731.151	-0.02
731.33	0.09
731.509	0.1
731.688	-0.03
731.867	-0.04
732.046	-0.16
732.225	0.15
732.404	-0.05
732.583	-0.18
732.762	-0.03
732.941	-0.01
733.12	-0.02
733.298	-0
733.477	0.08
733.656	-0.06
733.835	-0.11
734.014	0.04
734.193	-0.06
734.371	0
734.55	0.1
734.729	-0.08
734.908	-0
735.086	-0
735.265	-0.01
735.444	-0.13
735.623	-0.09
735.801	-0.09
735.98	0.05
736.159	0.02
736.337	0.07
736.516	0
736.694	0
736.873	0
737.052	0.1
737.23	0.14
737.409	-0.02
737.587	0.2
737.766	-0.1
737.944	-0.08
738.123	0.06
738.301	0.01
738.479	-0.12
738.658	0.07
738.836	-0.12
739.015	0.07
739.193	0.11
739.371	-0.14
739.55	-0.06
739.728	-0.1
739.906	0.05
740.085	0.08
740.263	0.05
740.441	-0.13
740.62	0.18
740.798	0.11
740.976	-0.11
741.154	-0.12
741.332	0.12
741.511	-0.02
741.689	-0.02
741.867	0.16
742.045	0.07
742.223	0.01
742.401	-0.08
742.579	-0.14
742.757	0.02
742.935	-0.05
743.114	0.01
743.292	-0.09
743.47	-0.04
743.648	-0.05
743.826	-0.18
744.004	0.03
744.181	0.03
744.359	-0.02
744.537	0.03
744.715	-0.09
744.893	-0.03
745.071	-0.03
745.249	-0.02
745.427	-0.04
745.605	0
745.782	0.02
745.96	0.02
746.138	0.01
746.316	0.08
746.493	-0.01
746.671	-0.01
746.849	-0.11
747.027	0.17
747.204	-0.06
747.382	0.05
747.56	-0.1
747.737	-0.15
747.915	-0.01
748.093	0
748.27	-0.1
748.448	0.04
748.625	-0.2
748.803	-0.05
748.98	-0.1
749.158	0.06
749.335	0.06
749.513	-0.01
749.69	-0.07
749.868	-0.01
750.045	-0.02
750.223	-0.04
750.4	-0.21
750.578	0.11
750.755	0.05
750.932	-0.11
751.11	0.18
751.287	-0.13
751.464	0.21
751.642	-0.08
751.819	-0.02
751.996	-0.01
752.173	-0.05
752.351	-0.09
752.528	0.02
752.705	0.02
752.882	-0.08
753.06	-0.02
753.237	0.08
753.414	0.09
753.591	0.16
753.768	-0
753.945	-0.03
754.122	-0.06
754.299	0.01
754.476	-0
754.654	0.09
754.831	0.1
755.008	0.07
755.185	-0.07
755.362	-0.16
755.539	0.01
755.716	-0.08
755.892	-0.01
756.069	-0.01
756.246	0.01
756.423	-0.05
756.6	0.08
756.777	-0.07
756.954	0.15
757.131	-0.05
757.307	0
757.484	-0.09
757.661	0.05
757.838	0.03
758.015	-0.17
758.191	0.02
758.368	0.06
758.545	0.21
758.721	0.14
758.898	-0.19
759.075	0.09
759.251	0.01
759.428	0.07
759.605	-0.15
759.781	-0.05
759.958	0.18
760.134	-0.08
760.311	0.01
760.488	0.13
760.664	0.12
760.841	-0
761.017	-0.17
761.194	0.08
761.37	-0.03
761.547	-0.08
761.723	-0.03
761.899	0.09
762.076	-0.15
762.252	-0.09
762.429	-0.08
762.605	0.1
762.781	0.06
762.958	0.09
763.134	0.01
763.31	-0.08
763.486	0.15
763.663	-0.22
763.839	-0.02
764.015	-0.16
764.191	-0.16
764.368	-0.02
764.544	-0.07
764.72	0.01
764.896	0.04
765.072	-0.02
765.248	0
765.425	0.01
765.601	0.07
765.777	-0.1
765.953	-0.29
766.129	-0.05
766.305	-0.11
766.481	0.09
766.657	0.03
766.833	0.11
767.009	-0.1
767.185	-0.08
767.361	-0.03
767.537	-0.04
767.713	0.15
767.889	-0.07
768.065	-0.01
768.24	0.06
768.416	0.28
768.592	-0.11
768.768	0.05
768.944	-0.02
769.12	-0.17
769.295	-0.11
769.471	-0.1
769.647	-0.1
769.823	0.18
769.998	-0.09
770.174	-0.2
770.35	0.3
770.525	0.22
770.701	0.07
770.877	-0.04
771.052	-0.05
771.228	0.05
771.403	0.13
771.579	-0.01
771.755	0.27
771.93	-0.17
772.106	-0.01
772.281	-0.28
772.457	0
772.632	0.03
772.808	-0.22
772.983	-0.02
773.159	-0.14
773.334	0.16
773.509	-0.14
773.685	-0.18
773.86	0.26
774.036	0.27
774.211	0.03
774.386	-0.14
774.562	-0.12
774.737	0.18
774.912	-0.11
775.087	0.14
775.263	0.06
775.438	0.15
775.613	-0.05
775.788	-0.06
775.964	0.12
776.139	0.35
776.314	-0.06
776.489	0.12
776.664	0.04
776.839	-0.01
777.014	0.14
777.19	0.23
777.365	0.19
777.54	0.24
777.715	0.03
777.89	-0.07
778.065	-0.09
778.24	0.09
778.415	0.18
778.59	-0.14
778.765	-0.07
778.94	0.14
779.115	-0.02
779.289	-0.07
779.464	-0.13
779.639	-0.01
779.814	-0.21
779.989	-0.21
780.164	0.1
780.339	0.09
780.513	-0.1
780.688	-0.2
780.863	-0.02
781.038	0.19
781.212	-0.07
781.387	-0.11
781.562	0.3
781.737	0.14
781.911	0.04
782.086	-0.18
782.261	0
782.435	0.32
782.61	-0.09
782.784	-0.1
782.959	0.27
783.134	-0.07
783.308	-0.35
783.483	-0.01
783.657	0.43
783.832	0.21
784.006	-0.41
784.181	0.04
784.355	0.18
784.53	0.01
784.704	-0.16
784.878	0.36
785.053	0.17
785.227	0.22
785.402	0.28
785.576	-0.12
785.75	-0.04
785.925	-0.2
786.099	0.06
786.273	-0
786.448	0.04
786.622	-0.03
786.796	0
786.97	-0.02
787.145	0.59
787.319	-0.18
787.493	-0.12
787.667	-0.31
787.841	-0.01
788.015	0.17
788.19	0.03
788.364	0.03
788.538	0.12
788.712	0.14
788.886	-0.1
789.06	0.2
789.234	0.31
789.408	-0.26
789.582	-0.23
789.756	-0.13
789.93	-0.24
790.104	-0.25
790.278	-0.04
790.452	-0.1
790.626	0.05
790.8	0
790.973	0.2
791.147	0.26
791.321	0.24
791.495	0.06
791.669	-0.01
791.843	-0.05
792.016	0.08
792.19	0.36
792.364	-0.28
792.538	0.53
792.711	0.23
792.885	-0.08
793.059	-0.37
793.233	-0.55
793.406	0.29
793.58	0.01
793.754	-0.15
793.927	-0.01
794.101	0
794.274	0.21
794.448	0.14
794.622	-0.23
794.795	0.37
794.969	-0.1
795.142	0.09
795.316	-0.01
795.489	-0.14
795.663	0.21
795.836	-0.17
796.009	-0.2
796.183	0.17
796.356	0.07
796.53	0.13
796.703	0.05
796.876	0.54
797.05	-0.37
797.223	-0.15
797.396	0.07
797.57	-0.17
797.743	0.32
797.916	0.05
798.09	-0.14
798.263	0.12
798.436	0.13
798.609	-0.05
798.782	-0.29
798.956	0.06
799.129	0.09
799.302	0.14
799.475	-0.01
799.648	0.15
799.821	-0.12
799.994	0.05
800.167	-0.47
800.34	-0.07
800.514	0.18
800.687	-0.12
800.86	-0.18
801.033	0.07
801.206	0.08
801.379	-0.13
801.551	0.21
801.724	0.06
801.897	0.37
802.07	-0.04
802.243	-0.74
802.416	-0.1
802.589	-0.02
802.762	-0.18
802.935	-0.1
803.107	0.16
803.28	0.12
803.453	0
803.626	-0.35
803.798	-0.04
803.971	-0.07
804.144	0.09
804.317	0.22
804.489	0.02
804.662	0.12
804.835	0.14
805.007	-0.38
805.18	0.53
805.353	0.24
805.525	-0.29
805.698	-0.38
805.87	0.37
806.043	0.33
806.215	-0.43
806.388	-0.3
806.56	-0.01
806.733	0.25
806.905	0.01
807.078	-0.12
807.25	-0.1
807.423	0.23
807.595	-0.18
807.768	-0.04
807.94	0.27
808.112	0.32
808.285	-0.05
808.457	0.15
808.629	0.14
808.802	0.06
808.974	0.08
809.146	-0.19
809.318	-0.26
809.491	0.31
809.663	0.39
809.835	-0.54
810.007	-0.08
810.18	-0.29
810.352	-0.38
810.524	-0.22
810.696	0.06
810.868	0.38
811.04	-0.19
811.212	0.22
811.384	0.42
811.556	-0.29
811.728	0.18
811.901	0.73
812.073	-0.48
812.245	0.2
812.417	0.28
812.589	-0.54
812.76	0.28
812.932	0.39
813.104	0.54
813.276	-0.22
813.448	0.44
813.62	0.19
813.792	0.28
813.964	-0.22
814.136	0.17
814.307	-0.32
814.479	-0.17
814.651	-0.11
814.823	0.78
814.995	-0.18
815.166	-0.06
815.338	-0.17
815.51	-0.45
815.681	1.03
815.853	0.19
816.025	0.21
816.196	0.71
816.368	0.06
816.54	-0.42
816.711	-0.47
816.883	0.26
817.054	0.84
817.226	-0.82
817.398	0.13
817.569	-0.07
817.741	0.25
817.912	0.27
818.084	-0.29
818.255	0.67
818.426	-0.52
818.598	0.06
818.769	-0.36
818.941	0.4
819.112	0.43
819.283	0.32
819.455	-0.29
819.626	-0.06
819.798	0.31
819.969	0.27
820.14	-0.41
820.311	-0.21
820.483	0.12
820.654	0.2
820.825	-0.04
820.996	-0.24
821.168	-0.23
821.339	-0.11
821.51	-0.67
821.681	0.35
821.852	0.26
822.023	-0.36
822.195	-0.86
822.366	0.19
822.537	-0.04
822.708	0.22
822.879	-0.42
823.05	0.64
823.221	-0.38
823.392	0.32
823.563	-0.05
823.734	0.21
823.905	0.23
824.076	-0.93
824.247	-0.8
824.418	-0.23
824.589	0.57
824.759	-0.33
824.93	-0.48
825.101	-0.53
825.272	0.57
825.443	0.39
825.614	0.61
825.784	-0.95
825.955	0.83
826.126	0.31
826.297	-0.1
826.467	0.85
826.638	0.95
826.809	-0.47
826.98	-0.11
827.15	-0.23
827.321	-0.06
827.492	0.6
827.662	0.22
827.833	0.51
828.003	0.53
828.174	-0.41
828.345	-0.87
828.515	0.98
828.686	0.06
828.856	-0.59
829.027	0.08
829.197	0.01
829.368	0.25
829.538	0.02
829.709	-0.4
829.879	0.7
830.049	0.13
830.22	-0.61
830.39	0.34
830.56	0.45
830.731	-0.3
830.901	-0.49
831.072	0.26
831.242	0.01
831.412	-0.12
831.582	-0.42
831.753	-0.83
831.923	-0.11
832.093	-0.27
832.263	0.06
832.434	-0.16
832.604	0.49
832.774	0.7
832.944	-0.35
833.114	-0.19
833.284	0.12
833.454	-0.67
833.624	-0.03
833.795	-0.45
833.965	1.02
834.135	0.57
834.305	-1.03
834.475	-0.86
834.645	0.49
834.815	-0.39
834.985	-0.58
835.155	-0.7
835.325	-0.34
835.494	0.41
835.664	0.1
835.834	-0.86
836.004	0.08
836.174	0.54
836.344	0.03
836.514	-0.53
836.684	-0.35
836.853	-0.5
837.023	-0.1
837.193	-0.62
837.363	0.92
837.532	0.89
837.702	-0.07
837.872	-0.94
838.041	0.6
838.211	1.32
838.381	-0.79
838.55	0.08
838.72	1.69
838.89	1.05
839.059	-0.27
839.229	-0.22
839.398	1.59
839.568	0.28
839.738	0.11
839.907	1.25
840.077	0.69
840.246	-0.03
840.416	-0.63
840.585	-0.86
840.755	0.62
840.924	0.78
841.093	-0.45
841.263	-1.03
841.432	0.91
841.602	-0.57
841.771	0
841.94	-0.65
842.11	2.13
842.279	0.87
842.448	-1.01
842.617	-0.41
842.787	0.96
842.956	-0.55
843.125	0.5
843.294	-0.2
843.464	1.51
843.633	0.57
843.802	-0.68
843.971	0.02
844.14	0.83
844.309	0.62
844.479	-1.28
844.648	0.01
844.817	-0.21
844.986	0.07
845.155	-1.1
845.324	0
845.493	0.32
845.662	-1.46
845.831	0.42
846	-0.4
846.169	0.22
846.338	1.34
846.507	0.06
846.676	0.14
846.844	-0.9
847.013	-0.49
847.182	-0.07
847.351	-0.25
847.52	0.07
847.689	-0.66
847.858	-0.11
848.026	-0.62
848.195	0.25
848.364	-0.76
848.533	-0.36
848.701	-1.13
848.87	0.78
849.039	0.65
849.207	1.29
849.376	0.73
849.545	0.85
849.713	-0.05
849.882	0.71
850.051	0.18
850.219	-0.56
850.388	0.8
850.556	-0.97
850.725	-0.5
850.893	-0.18
851.062	0.11
851.23	0.79
851.399	-0.88
851.567	-0.1
851.736	-0.74
851.904	-1.24
852.073	0.55
852.241	0.95
852.41	-0.07
852.578	0.15
852.746	-0.94
852.915	0.64
853.083	0.24
853.251	-1.24
853.42	-0.43
853.588	-0.17
853.756	0.9
853.924	-0.06
854.093	-0.41
854.261	-0.66
854.429	-0.05
854.597	0.51
854.765	-1.45
854.934	0.65
855.102	1.68
855.27	0.5
855.438	0.37
855.606	1.52
855.774	2.03
855.942	-1.15
856.11	-1.39
856.278	0.18
856.446	0.13
856.614	-0.02
856.782	-1.08
856.95	0.92
857.118	1.22
857.286	0.92
857.454	-0.29
857.622	0.79
857.79	0.34
857.958	-1.72
858.126	-1.53
858.294	-2.76
858.462	-0.01
858.629	-0.3
858.797	-0.29
858.965	0.06
859.133	0.31
859.301	0.33
859.468	1.31
859.636	-0.38
859.804	1.07
859.971	0.86
860.139	-1.53
860.307	0.25
860.474	-0.17
860.642	-0.99
860.81	-0.26
860.977	-0.47
861.145	-0.2
861.313	-0.63
861.48	-0.9
861.648	0.88
861.815	-0.64
861.983	0.46
862.15	-0.37
862.318	0.63
862.485	1.57
862.653	0.16
862.82	-0.53
862.988	1.87
863.155	0.9
863.322	-0.89
863.49	-1.3
863.657	-0.78
863.824	2.04
863.992	0.8
864.159	0.37
864.326	1.01
864.494	-0.01
864.661	2.05
864.828	-1.23
864.996	0.48
865.163	2.51
865.33	-0.99
865.497	-2.89
865.664	-0.6
865.832	-2.01
865.999	-0.29
866.166	-0.52
866.333	-0.19
866.5	-1.42
866.667	0.63
866.834	0.05
867.001	2.63
867.168	-1.77
867.335	0.3
867.502	-1.27
867.669	0.03
867.836	2.49
868.003	-0.72
868.17	2.78
868.337	-2.32
868.504	3.07
868.671	-1.71
868.838	-0.73
869.005	0.33
869.172	2.43
869.339	0.57
869.505	-0.61
869.672	0.92
869.839	1.09
870.006	-0.31
870.173	-1.5
870.339	0.14
870.506	3.44
870.673	-0.39
870.84	1.03
871.006	-0.97
871.173	-0.67
871.34	-0.33
871.506	-0.58
871.673	-0.08
871.839	-1.97
872.006	1
872.173	-0.38
872.339	1.62
872.506	0.68
872.672	-1.05
872.839	-2.45
873.005	0.03
873.172	2.4
873.338	-0.57
873.505	-0.38
873.671	1.3
873.838	1.27
874.004	-1.63
874.171	-1.81
874.337	1.03
874.503	0.41
874.67	-0.29
874.836	-0.91
875.002	3.32
875.169	1.06
875.335	-0.64
875.501	-2.24
875.668	1.43
875.834	0.75
876	-0.12
876.166	1.72
876.332	-0.11
876.499	3.38
876.665	0.06
876.831	0.93
876.997	1.7
877.163	1.01
877.329	-2.54
877.495	0.2
877.662	-0.09
877.828	-0.57
877.994	-1.78
878.16	-2.51
878.326	-1.35
878.492	0.32
878.658	0.04
878.824	1.93
878.99	0.86
879.156	-2.08
879.322	1.68
879.487	-0.2
879.653	1.48
879.819	1.85
879.985	-0.3
880.151	1.16
880.317	-0.73
880.483	0.58
880.648	1.98
880.814	-2.2
880.98	-0.22
881.146	-2.4
881.312	-1.54
881.477	-0.3
881.643	0.08
881.809	0.96
881.974	1.54
882.14	-1.31
882.306	-0.07
882.471	2.92
882.637	-2.08
882.803	1.61
882.968	4.94
883.134	5.11
883.299	1.37
883.465	0.24
883.63	2
883.796	2.15
883.961	0.83
884.127	0.76
884.292	-3.52
884.458	-3.23
884.623	-3.22
