Data from Apollo_Calib_20240827__AbsoluteIrradiance__297__04-06-00-886.txt Node

Date: Wed Aug 28 04:06:00 BST 2024
User: biology
Spectrometer: FLMT08252
Trigger mode: 0
Integration Time (sec): 5.000000E-1
Scans to average: 5
Electric dark correction enabled: true
Nonlinearity correction enabled: false
Boxcar width: 0
XAxis mode: Wavelengths
Number of Pixels in Spectrum: 3648
>>>>>Begin Spectral Data<<<<<
179.588	-0
179.809	-0
180.03	-0
180.251	-0
180.473	-0
180.694	0
180.915	0
181.136	-0
181.357	0
181.578	-0
181.799	-0
182.02	-0
182.241	0
182.462	-0
182.683	0
182.904	-0
183.125	-0
183.346	0
183.567	0
183.788	-0
184.009	-0
184.23	0
184.451	0
184.672	-0
184.892	-0
185.113	0
185.334	0
185.555	-0
185.776	-0
185.996	0
186.217	0
186.438	-0
186.659	-0
186.879	0
187.1	0
187.321	-0
187.541	-0
187.762	-0
187.983	-0
188.203	-0
188.424	-0
188.644	-0
188.865	-0
189.086	-0
189.306	-0
189.527	-0
189.747	-0
189.968	-0
190.188	0
190.409	-0
190.629	0
190.849	-0
191.07	-0
191.29	0
191.511	-0
191.731	-0
191.951	-0
192.172	-0
192.392	-0
192.612	-0
192.833	-0
193.053	-0
193.273	0
193.493	-0
193.714	0
193.934	0
194.154	0
194.374	-0
194.594	-0
194.815	-0
195.035	-0
195.255	-0
195.475	-0
195.695	0
195.915	-0
196.135	-0
196.355	0
196.575	0
196.795	0
197.015	-0
197.235	-0
197.455	-0
197.675	0
197.895	-0
198.115	-0
198.335	0
198.555	-0
198.775	-0
198.995	0
199.214	0
199.434	-0
199.654	-0
199.874	-0
200.094	1.5
200.313	-0.83
200.533	-0.65
200.753	-1.4
200.973	0.12
201.192	0.36
201.412	-1.38
201.632	-0.57
201.851	0.61
202.071	-0.78
202.291	-0.84
202.51	-0.46
202.73	0.34
202.95	-0.1
203.169	-0.95
203.389	-0
203.608	-0.14
203.828	-0.58
204.047	-0.83
204.267	0.42
204.486	-0.29
204.706	-0.21
204.925	-0.04
205.145	-0.63
205.364	0.61
205.583	0.72
205.803	-0.34
206.022	-0.91
206.242	0.06
206.461	-0.14
206.68	-0.5
206.9	-0.06
207.119	0.16
207.338	0.3
207.557	-0.5
207.777	-0.23
207.996	-0.09
208.215	0.36
208.434	-0.48
208.654	-0.73
208.873	0.09
209.092	0.49
209.311	-0.32
209.53	-0.33
209.749	-0.37
209.968	-0.55
210.187	-0.26
210.407	-0.54
210.626	-0.2
210.845	0.27
211.064	-0.03
211.283	-0.41
211.502	0.38
211.721	-0.13
211.94	-0.23
212.159	0.27
212.377	-0.06
212.596	0.39
212.815	0.12
213.034	-0.3
213.253	0.38
213.472	0.26
213.691	-0.36
213.91	-0.39
214.128	-0.17
214.347	0.22
214.566	-0.63
214.785	-0.38
215.003	0.04
215.222	0.02
215.441	0.02
215.66	-0.42
215.878	-0.12
216.097	0.18
216.316	-0.36
216.534	-0.11
216.753	-0.09
216.972	-0.28
217.19	0.03
217.409	-0.37
217.627	-0.31
217.846	-0.02
218.064	0.13
218.283	-0.2
218.501	0.24
218.72	0.28
218.938	-0.42
219.157	-0.11
219.375	0.25
219.594	0.13
219.812	-0.25
220.031	-0.34
220.249	0.07
220.467	0.15
220.686	-0.17
220.904	-0.31
221.122	-0.18
221.341	0.35
221.559	-0.06
221.777	-0.4
221.995	-0.12
222.214	-0.16
222.432	-0.16
222.65	0.04
222.868	0.03
223.086	-0.01
223.305	-0.05
223.523	-0.01
223.741	0.29
223.959	-0.04
224.177	-0.24
224.395	-0.2
224.613	-0.01
224.831	0.17
225.049	-0.18
225.267	-0.24
225.485	-0.02
225.703	-0.2
225.921	-0.04
226.139	-0.17
226.357	0.02
226.575	0
226.793	-0.15
227.011	0.54
227.229	0.01
227.447	0.14
227.665	-0.19
227.883	-0.19
228.1	-0
228.318	0.1
228.536	-0.39
228.754	-0.19
228.972	-0.03
229.189	0.06
229.407	-0.16
229.625	-0.12
229.843	0.09
230.06	0.04
230.278	-0.1
230.496	-0.07
230.713	-0.04
230.931	0.13
231.149	-0.11
231.366	-0.24
231.584	-0.12
231.801	0.3
232.019	-0.1
232.236	-0.31
232.454	-0.22
232.671	-0.11
232.889	-0.12
233.106	-0.2
233.324	-0.1
233.541	-0.08
233.759	-0.1
233.976	-0.13
234.194	-0.06
234.411	-0.11
234.628	-0.2
234.846	-0.12
235.063	-0.15
235.28	0
235.498	-0.02
235.715	-0.17
235.932	0.18
236.149	-0.04
236.367	-0.17
236.584	0.01
236.801	-0.17
237.018	0.15
237.236	-0.11
237.453	-0.22
237.67	0.07
237.887	-0.04
238.104	-0.12
238.321	-0.16
238.538	-0.13
238.755	0.08
238.973	-0.29
239.19	-0.03
239.407	-0.02
239.624	-0.05
239.841	-0.21
240.058	-0.11
240.275	-0.01
240.492	-0.08
240.709	-0.1
240.925	-0.02
241.142	-0.15
241.359	-0.09
241.576	-0.19
241.793	-0.09
242.01	-0.06
242.227	0.06
242.444	0.03
242.66	0.09
242.877	0.01
243.094	-0.13
243.311	0.02
243.527	-0.12
243.744	0.06
243.961	0.04
244.178	-0.06
244.394	-0.01
244.611	0.12
244.828	0.06
245.044	-0.17
245.261	-0.06
245.477	-0.05
245.694	0.01
245.911	-0.11
246.127	-0.01
246.344	0.13
246.56	-0
246.777	-0.05
246.993	-0.01
247.21	0
247.426	0.03
247.643	-0.11
247.859	-0.19
248.076	-0.12
248.292	0.22
248.508	-0.17
248.725	0.05
248.941	0.03
249.157	0.08
249.374	-0.04
249.59	-0.14
249.806	0.01
250.023	0.03
250.239	-0.1
250.455	-0.15
250.671	0.01
250.888	0.03
251.104	0.03
251.32	-0.1
251.536	-0.01
251.752	-0.13
251.969	-0.07
252.185	-0
252.401	0.13
252.617	0.01
252.833	-0.01
253.049	-0.04
253.265	0.01
253.481	-0.04
253.697	-0.08
253.913	-0.15
254.129	-0.04
254.345	-0.02
254.561	-0.05
254.777	-0.1
254.993	0.03
255.209	-0
255.425	-0.03
255.641	-0.12
255.857	0.03
256.073	-0.06
256.288	-0.13
256.504	-0.05
256.72	0.09
256.936	0.02
257.152	-0.05
257.367	-0.09
257.583	-0.04
257.799	0.06
258.015	-0.08
258.23	-0.1
258.446	0.16
258.662	-0.01
258.877	-0.15
259.093	-0.11
259.309	0.01
259.524	0.03
259.74	-0.09
259.955	-0.08
260.171	-0.01
260.387	0
260.602	0.02
260.818	0.04
261.033	-0.09
261.249	-0.01
261.464	-0.09
261.68	-0.15
261.895	-0.08
262.11	-0.02
262.326	-0.04
262.541	-0.15
262.757	0.13
262.972	-0
263.187	0
263.403	-0.03
263.618	0.02
263.833	-0.02
264.049	-0.1
264.264	-0.03
264.479	-0.06
264.694	0.09
264.91	-0.19
265.125	-0.1
265.34	0.13
265.555	0.1
265.77	0.04
265.986	-0.05
266.201	0.02
266.416	0.11
266.631	-0.03
266.846	-0.11
267.061	0.05
267.276	0
267.491	-0.12
267.706	0
267.921	-0.02
268.136	0.01
268.351	0.02
268.566	-0.16
268.781	0.05
268.996	0.04
269.211	-0.01
269.426	-0.1
269.641	-0.02
269.856	0.06
270.071	-0.09
270.285	-0.08
270.5	0.04
270.715	0.03
270.93	-0.01
271.145	0
271.359	0.04
271.574	-0.11
271.789	-0.04
272.004	-0.07
272.218	-0.03
272.433	0.04
272.648	-0.05
272.862	0.03
273.077	-0.05
273.292	0
273.506	-0.09
273.721	-0.13
273.936	0.01
274.15	0.04
274.365	-0.06
274.579	0.03
274.794	0.03
275.008	0.03
275.223	-0.13
275.437	0.01
275.652	0.08
275.866	-0.02
276.081	-0.02
276.295	0.06
276.509	-0.03
276.724	-0.01
276.938	-0.01
277.153	0
277.367	0.03
277.581	-0.02
277.796	-0.05
278.01	-0.12
278.224	0.03
278.438	0.07
278.653	-0.13
278.867	-0.1
279.081	0.03
279.295	-0.09
279.51	0.01
279.724	-0.08
279.938	0.06
280.152	-0.03
280.366	-0.05
280.58	-0.02
280.794	0.07
281.008	0
281.222	0.05
281.437	0.08
281.651	0.06
281.865	0.08
282.079	-0
282.293	-0.15
282.507	-0.08
282.721	-0.03
282.935	-0.03
283.148	-0.13
283.362	-0.06
283.576	-0.05
283.79	-0.01
284.004	-0.07
284.218	0.03
284.432	0
284.646	-0.03
284.859	-0.05
285.073	-0.07
285.287	-0.02
285.501	-0.04
285.714	-0
285.928	0.02
286.142	-0.02
286.356	-0.1
286.569	-0.09
286.783	0.1
286.997	0.06
287.21	-0.03
287.424	0.02
287.637	-0
287.851	-0.05
288.065	-0.03
288.278	-0.07
288.492	0.01
288.705	-0.03
288.919	-0.03
289.132	-0.08
289.346	0.02
289.559	-0.05
289.773	-0.07
289.986	-0.02
290.2	-0.02
290.413	0.01
290.626	-0.07
290.84	-0.03
291.053	-0.04
291.267	0.06
291.48	-0.03
291.693	-0.02
291.906	-0.03
292.12	-0.02
292.333	-0.09
292.546	-0.05
292.76	0.06
292.973	-0
293.186	0.01
293.399	-0.06
293.612	0.02
293.826	-0.04
294.039	-0.02
294.252	-0.06
294.465	0.02
294.678	-0.01
294.891	-0.05
295.104	-0.06
295.317	-0.04
295.53	-0.03
295.743	-0.05
295.956	-0.02
296.169	0.04
296.382	0.04
296.595	-0.04
296.808	-0.06
297.021	0.09
297.234	0.03
297.447	-0
297.66	0.02
297.873	0.06
298.086	0.07
298.299	-0.03
298.511	-0.06
298.724	-0.03
298.937	-0.06
299.15	-0.04
299.363	0.02
299.575	0.06
299.788	0.02
300.001	-0.05
300.213	-0.06
300.426	-0.04
300.639	-0.02
300.852	-0.05
301.064	0.06
301.277	0.03
301.489	0.06
301.702	0.01
301.915	0.03
302.127	-0.05
302.34	-0.03
302.552	0
302.765	-0.06
302.977	0.02
303.19	-0.05
303.402	-0.04
303.615	-0.02
303.827	0.01
304.04	0.01
304.252	0.01
304.464	-0.01
304.677	0.12
304.889	0.07
305.102	-0.03
305.314	-0.03
305.526	0.06
305.739	0.01
305.951	-0.05
306.163	-0.06
306.375	0.05
306.588	-0.05
306.8	-0.03
307.012	-0.08
307.224	0.05
307.436	0.03
307.649	-0.08
307.861	-0.02
308.073	0.07
308.285	-0.02
308.497	-0.06
308.709	-0.05
308.921	0.01
309.133	0.07
309.346	-0.02
309.558	-0.03
309.77	-0.02
309.982	0.06
310.194	0.02
310.406	-0.05
310.617	0.09
310.829	-0
311.041	-0.01
311.253	-0.05
311.465	-0.01
311.677	-0.02
311.889	0
312.101	-0.02
312.313	0.01
312.524	0.05
312.736	-0.1
312.948	-0.07
313.16	0.06
313.372	0.02
313.583	0.05
313.795	-0.01
314.007	-0.04
314.218	0.02
314.43	-0
314.642	-0.05
314.853	-0.05
315.065	0.04
315.277	-0.04
315.488	0.02
315.7	0.04
315.912	0.03
316.123	-0.05
316.335	-0.03
316.546	0.07
316.758	0
316.969	-0.07
317.181	-0.02
317.392	0
317.604	0.04
317.815	-0.02
318.026	-0.06
318.238	-0
318.449	0.02
318.661	-0.07
318.872	-0.09
319.083	-0.09
319.295	-0.01
319.506	-0.07
319.717	0.01
319.929	0.01
320.14	-0.03
320.351	-0.01
320.562	-0.04
320.774	-0.01
320.985	-0.06
321.196	-0.09
321.407	-0.08
321.618	0.03
321.829	0.02
322.041	0.06
322.252	-0.05
322.463	0.04
322.674	0.04
322.885	-0.06
323.096	-0.04
323.307	-0
323.518	-0.02
323.729	-0.06
323.94	-0.02
324.151	-0.01
324.362	-0
324.573	0.01
324.784	-0.08
324.995	0.09
325.206	-0
325.417	-0.04
325.628	-0.04
325.838	-0.02
326.049	0.01
326.26	0.02
326.471	-0.08
326.682	0.03
326.892	-0.01
327.103	-0.08
327.314	-0.03
327.525	0.04
327.735	0.03
327.946	-0.05
328.157	-0.03
328.368	-0.02
328.578	-0.05
328.789	-0
328.999	-0.01
329.21	-0.04
329.421	0
329.631	-0.08
329.842	-0.01
330.052	0.01
330.263	0.02
330.473	-0.02
330.684	0.01
330.894	-0.02
331.105	-0.04
331.315	-0.01
331.526	-0.03
331.736	0.1
331.947	0.02
332.157	-0
332.367	-0.09
332.578	-0
332.788	0.04
332.999	-0.01
333.209	0.01
333.419	-0.05
333.629	0.01
333.84	-0.01
334.05	-0.02
334.26	0.04
334.47	0.07
334.681	0.02
334.891	-0.04
335.101	0.02
335.311	0.05
335.521	0
335.732	-0.04
335.942	0.08
336.152	0.04
336.362	-0
336.572	-0.01
336.782	-0.01
336.992	-0.05
337.202	-0.04
337.412	-0.08
337.622	0.02
337.832	-0
338.042	0.01
338.252	-0.07
338.462	-0.02
338.672	-0.01
338.882	-0.06
339.092	0.01
339.302	0.06
339.511	0.04
339.721	-0.02
339.931	-0.04
340.141	0.04
340.351	0.05
340.561	-0.03
340.77	0.01
340.98	-0.01
341.19	-0
341.4	-0.02
341.609	-0.03
341.819	-0.03
342.029	-0.06
342.238	0.02
342.448	-0.06
342.658	0.03
342.867	-0.03
343.077	-0
343.286	-0.04
343.496	0.02
343.706	0.04
343.915	-0.03
344.125	-0.01
344.334	0.02
344.544	-0.09
344.753	-0.03
344.963	-0.06
345.172	-0.03
345.381	-0.03
345.591	-0.06
345.8	0.02
346.01	-0
346.219	0.06
346.428	-0.09
346.638	-0.04
346.847	-0.02
347.056	0.03
347.266	-0.02
347.475	-0
347.684	0.01
347.893	0
348.103	0.01
348.312	-0.02
348.521	0.01
348.73	-0.03
348.94	-0.04
349.149	-0.04
349.358	-0.01
349.567	-0.05
349.776	-0.11
349.985	-0.03
350.194	0.03
350.403	0.04
350.612	-0.06
350.821	-0.05
351.03	0
351.239	-0.09
351.448	-0.01
351.657	-0.04
351.866	0.04
352.075	-0
352.284	-0.01
352.493	-0.05
352.702	0.05
352.911	-0.01
353.12	-0.02
353.329	-0.03
353.538	0
353.746	0.01
353.955	-0.02
354.164	0.01
354.373	-0.03
354.582	0.03
354.79	0.01
354.999	0.01
355.208	-0.06
355.416	0.03
355.625	-0.03
355.834	-0.01
356.042	-0.01
356.251	-0.02
356.46	-0.07
356.668	0
356.877	0.07
357.085	0.03
357.294	-0.09
357.503	-0
357.711	0
357.92	0.13
358.128	-0
358.337	-0.02
358.545	0.01
358.754	0
358.962	0.02
359.17	-0.04
359.379	-0
359.587	0.02
359.796	-0.01
360.004	0.06
360.212	0.01
360.421	0.05
360.629	-0.05
360.837	-0.04
361.046	0.08
361.254	0.07
361.462	-0
361.67	-0.02
361.879	0
362.087	0.05
362.295	-0.02
362.503	-0.04
362.711	-0.06
362.92	-0.02
363.128	-0.04
363.336	-0.03
363.544	-0.1
363.752	-0.02
363.96	-0.02
364.168	-0.05
364.376	0.03
364.584	-0.01
364.792	0.03
365	0.01
365.208	0.01
365.416	-0.01
365.624	0.04
365.832	-0.02
366.04	0.06
366.248	0.03
366.456	-0.05
366.664	0.02
366.872	-0.04
367.079	-0.04
367.287	-0.02
367.495	0
367.703	0.01
367.911	-0.01
368.118	-0.03
368.326	-0.04
368.534	-0.08
368.742	0.04
368.949	-0.07
369.157	-0.04
369.365	0.02
369.572	-0.01
369.78	-0.04
369.988	0.05
370.195	0.04
370.403	0.03
370.61	-0.03
370.818	-0.06
371.026	0.09
371.233	-0.05
371.441	0.05
371.648	-0.07
371.856	0.01
372.063	-0.01
372.271	-0.03
372.478	-0.03
372.685	-0.05
372.893	-0.01
373.1	-0.03
373.308	-0.05
373.515	0.06
373.722	0.03
373.93	-0.03
374.137	0.01
374.344	0.04
374.552	-0.01
374.759	0.01
374.966	0.02
375.173	-0.04
375.381	0.04
375.588	0
375.795	-0.06
376.002	0.02
376.209	-0.05
376.417	-0.05
376.624	-0.04
376.831	0.04
377.038	-0.04
377.245	-0.03
377.452	-0.02
377.659	-0.01
377.866	-0.04
378.073	-0.07
378.28	-0.03
378.487	0.03
378.694	-0
378.901	-0.04
379.108	0.01
379.315	0.07
379.522	0.1
379.729	0
379.936	-0
380.143	0.01
380.35	0
380.557	-0.03
380.763	0
380.97	0.02
381.177	0.01
381.384	-0.05
381.591	-0.05
381.797	-0.01
382.004	-0
382.211	0.01
382.418	-0.01
382.624	0.03
382.831	0.01
383.038	-0.02
383.244	-0.01
383.451	0.01
383.658	-0.02
383.864	-0.03
384.071	-0.07
384.277	0.07
384.484	-0.06
384.69	0.02
384.897	-0.04
385.103	0.01
385.31	-0.04
385.516	-0.04
385.723	-0.1
385.929	-0
386.136	-0.03
386.342	-0
386.549	-0.04
386.755	0.07
386.961	-0.01
387.168	-0.01
387.374	-0.02
387.58	0.03
387.787	-0.03
387.993	-0.06
388.199	-0.01
388.406	-0.04
388.612	-0
388.818	-0.03
389.024	-0.05
389.231	0.02
389.437	0.07
389.643	0
389.849	-0.04
390.055	-0
390.261	-0.02
390.467	-0.04
390.674	-0.06
390.88	-0.04
391.086	-0
391.292	-0.05
391.498	0.04
391.704	-0
391.91	-0.03
392.116	-0.03
392.322	-0.14
392.528	-0.03
392.734	-0.04
392.94	0
393.146	-0.03
393.352	0.03
393.557	0.02
393.763	-0.01
393.969	0.02
394.175	-0.02
394.381	-0.01
394.587	-0.06
394.792	0.02
394.998	0.02
395.204	0.07
395.41	-0.04
395.615	0.02
395.821	-0.01
396.027	-0.02
396.233	-0.09
396.438	-0.01
396.644	0.04
396.85	0
397.055	-0.04
397.261	-0.02
397.466	-0.01
397.672	0.01
397.878	0
398.083	0.01
398.289	-0.03
398.494	0.04
398.7	0
398.905	-0.07
399.111	0.13
399.316	-0.04
399.522	0.03
399.727	-0.02
399.932	-0.06
400.138	-0.02
400.343	0.02
400.549	0.04
400.754	0.01
400.959	0.05
401.165	-0.01
401.37	0
401.575	0.1
401.78	-0.01
401.986	-0.03
402.191	-0.04
402.396	-0.05
402.601	-0.01
402.807	0.01
403.012	-0.02
403.217	0.05
403.422	-0.03
403.627	-0.04
403.832	-0.03
404.037	0.02
404.243	-0.02
404.448	-0.07
404.653	-0.01
404.858	-0.01
405.063	0.06
405.268	-0.07
405.473	-0.05
405.678	-0.07
405.883	0.08
406.088	-0
406.293	-0.06
406.498	-0.07
406.703	-0.01
406.907	-0.02
407.112	-0.05
407.317	-0.02
407.522	0
407.727	-0.06
407.932	-0.04
408.136	0.08
408.341	-0.02
408.546	-0.02
408.751	-0
408.956	0
409.16	0
409.365	-0.01
409.57	-0.02
409.774	-0.01
409.979	0
410.184	0.01
410.388	-0.04
410.593	0.04
410.798	-0.01
411.002	-0.03
411.207	0.02
411.411	0.01
411.616	-0.05
411.82	-0
412.025	0.02
412.229	-0.04
412.434	0.04
412.638	0
412.843	-0.02
413.047	0.02
413.252	-0.03
413.456	-0.02
413.66	-0.03
413.865	-0.04
414.069	0.03
414.273	-0.05
414.478	-0.07
414.682	-0.07
414.886	-0.02
415.091	-0.05
415.295	-0.13
415.499	0.02
415.703	-0.08
415.908	-0.02
416.112	-0.1
416.316	0.01
416.52	-0.03
416.724	-0.08
416.929	-0.05
417.133	0.06
417.337	-0.03
417.541	-0.02
417.745	-0.02
417.949	-0
418.153	0.01
418.357	-0.08
418.561	0.08
418.765	-0.01
418.969	0.1
419.173	0.02
419.377	-0.06
419.581	0.07
419.785	0.01
419.989	-0.13
420.193	-0.06
420.397	-0.02
420.601	0
420.804	0.05
421.008	-0.02
421.212	-0
421.416	0.04
421.62	-0.04
421.823	-0.02
422.027	0.13
422.231	-0
422.435	-0.08
422.638	-0
422.842	-0.06
423.046	-0.05
423.249	-0.01
423.453	-0
423.657	-0.01
423.86	-0.02
424.064	-0.01
424.268	0.01
424.471	0.03
424.675	0.06
424.878	0.03
425.082	-0.03
425.285	0.08
425.489	0.04
425.692	-0.03
425.896	-0.04
426.099	0.04
426.303	-0.07
426.506	-0.06
426.71	0.01
426.913	0.04
427.116	0.09
427.32	-0.01
427.523	0
427.726	0.07
427.93	-0.04
428.133	-0.01
428.336	-0.08
428.54	-0.05
428.743	0.07
428.946	0.01
429.149	-0.02
429.353	0.01
429.556	-0.01
429.759	0.02
429.962	-0.06
430.165	-0.04
430.368	0.01
430.571	-0.03
430.775	0.01
430.978	-0.05
431.181	0.01
431.384	-0.01
431.587	-0.03
431.79	-0.01
431.993	-0.02
432.196	-0.01
432.399	-0.01
432.602	0.05
432.805	-0.05
433.008	-0.02
433.211	-0.1
433.414	0.03
433.616	0.06
433.819	-0.04
434.022	-0.08
434.225	0.05
434.428	-0.01
434.631	0.12
434.833	0
435.036	-0.03
435.239	0.06
435.442	0.01
435.645	-0
435.847	0.03
436.05	0.07
436.253	-0.03
436.455	-0.06
436.658	0.01
436.861	0.13
437.063	-0.01
437.266	-0
437.468	0.03
437.671	0.12
437.874	-0.02
438.076	-0.04
438.279	-0.06
438.481	0.03
438.684	-0.05
438.886	0.01
439.089	-0.07
439.291	0.06
439.494	-0.01
439.696	-0.01
439.899	-0.02
440.101	0.01
440.303	-0.03
440.506	0.04
440.708	0.02
440.91	0.01
441.113	-0.02
441.315	-0.01
441.517	-0.04
441.72	0.05
441.922	-0.03
442.124	0.03
442.326	0.05
442.529	0.07
442.731	-0.05
442.933	0.07
443.135	-0.02
443.337	-0.02
443.539	0.01
443.742	-0.01
443.944	0.02
444.146	-0.02
444.348	-0.07
444.55	-0.01
444.752	0.04
444.954	-0
445.156	0.01
445.358	0
445.56	0.05
445.762	0.02
445.964	0.03
446.166	-0.01
446.368	0.03
446.57	0.07
446.772	0
446.974	0.01
447.175	-0.01
447.377	-0.02
447.579	0.04
447.781	-0.04
447.983	0.12
448.184	0.04
448.386	0.04
448.588	-0.02
448.79	0.06
448.991	0.03
449.193	0.02
449.395	0.04
449.597	0.09
449.798	0.04
450	0.07
450.202	-0.03
450.403	0.05
450.605	0.05
450.806	0.04
451.008	-0.05
451.21	-0.03
451.411	0.04
451.613	-0.02
451.814	0.04
452.016	0.08
452.217	0.01
452.419	0.05
452.62	-0
452.821	0.01
453.023	0.05
453.224	0.07
453.426	0.08
453.627	0.05
453.828	0.07
454.03	-0.02
454.231	0.07
454.432	-0.02
454.634	0.08
454.835	-0.04
455.036	-0.04
455.238	0.09
455.439	0.11
455.64	-0.04
455.841	-0.01
456.042	0.13
456.244	-0
456.445	-0.02
456.646	-0.1
456.847	-0.04
457.048	0.07
457.249	0.02
457.45	0.19
457.651	-0.02
457.852	0.13
458.054	-0.03
458.255	-0.04
458.456	0.04
458.657	0.02
458.858	-0.01
459.058	0.04
459.259	0.04
459.46	0.01
459.661	-0.05
459.862	0.11
460.063	-0.03
460.264	0.08
460.465	-0.03
460.666	0.15
460.866	0.03
461.067	-0
461.268	0
461.469	-0.02
461.67	-0.03
461.87	-0.02
462.071	0.01
462.272	-0.05
462.473	-0.02
462.673	0.01
462.874	-0.06
463.075	-0.02
463.275	-0.07
463.476	0.02
463.676	0.04
463.877	0.01
464.078	-0.02
464.278	0.03
464.479	-0.06
464.679	-0.04
464.88	-0.02
465.08	0.08
465.281	-0.05
465.481	-0.02
465.682	0.01
465.882	0.02
466.083	-0.01
466.283	-0.02
466.483	-0.01
466.684	-0.07
466.884	-0.06
467.085	-0.03
467.285	0.07
467.485	-0.05
467.686	0.01
467.886	-0.04
468.086	0.02
468.286	0.01
468.487	0.01
468.687	-0.03
468.887	-0.02
469.087	0.05
469.287	-0.06
469.488	-0.03
469.688	0.03
469.888	0.03
470.088	0.02
470.288	0.05
470.488	0.08
470.688	-0.05
470.888	-0.01
471.088	-0.09
471.288	0.06
471.488	0.02
471.688	0.01
471.888	-0.05
472.088	0.04
472.288	0.02
472.488	-0.06
472.688	-0.01
472.888	0.01
473.088	0
473.288	0
473.488	-0.03
473.688	0.1
473.887	0.01
474.087	-0.04
474.287	0.01
474.487	-0.04
474.687	0.02
474.886	-0.04
475.086	-0.02
475.286	0.02
475.486	-0.01
475.685	0.05
475.885	-0.04
476.085	0
476.284	-0.01
476.484	-0.04
476.684	0.02
476.883	0.05
477.083	0
477.282	-0.04
477.482	0.05
477.681	0.07
477.881	0
478.08	-0.05
478.28	-0.05
478.479	0.02
478.679	0.09
478.878	-0.03
479.078	-0.06
479.277	-0.01
479.477	-0.01
479.676	0.06
479.875	-0.02
480.075	-0.07
480.274	0.02
480.473	0.01
480.673	-0.06
480.872	0.03
481.071	0
481.271	0.03
481.47	-0.06
481.669	-0.01
481.868	-0.01
482.067	-0.05
482.267	-0.02
482.466	-0.01
482.665	-0.05
482.864	-0.04
483.063	-0.06
483.262	0.01
483.461	0.04
483.661	0.03
483.86	-0.01
484.059	-0
484.258	-0.01
484.457	-0.03
484.656	-0.01
484.855	0
485.054	-0.05
485.253	-0.03
485.452	-0.03
485.651	-0
485.849	-0.01
486.048	-0.02
486.247	-0.02
486.446	0.02
486.645	-0.05
486.844	-0.03
487.043	-0.04
487.241	0
487.44	-0.03
487.639	-0.03
487.838	0.02
488.037	0
488.235	0.07
488.434	0.02
488.633	-0.02
488.831	-0.02
489.03	0.02
489.229	0
489.427	-0
489.626	0.04
489.825	0.03
490.023	-0.01
490.222	-0.03
490.42	0
490.619	0.02
490.817	0.02
491.016	-0.02
491.214	0.02
491.413	-0.01
491.611	-0.02
491.81	-0
492.008	0.03
492.207	0.01
492.405	-0.02
492.604	-0.05
492.802	-0.03
493	-0.01
493.199	-0.01
493.397	-0.01
493.595	-0
493.794	-0.03
493.992	0.03
494.19	-0.01
494.388	-0.01
494.587	-0.01
494.785	-0
494.983	-0.03
495.181	-0.02
495.379	0.01
495.578	-0.02
495.776	0
495.974	-0
496.172	-0.03
496.37	-0.04
496.568	-0.03
496.766	-0.03
496.964	0.01
497.162	-0.01
497.36	-0.04
497.558	-0.01
497.756	0.04
497.954	-0.01
498.152	-0.03
498.35	-0.03
498.548	0
498.746	-0
498.944	-0.02
499.142	0.01
499.34	-0.06
499.538	-0.02
499.736	-0.03
499.933	0.02
500.131	0.01
500.329	0
500.527	0.02
500.725	0.03
500.922	0.03
501.12	0.01
501.318	0
501.516	-0.03
501.713	0.02
501.911	-0.03
502.109	-0.03
502.306	0
502.504	-0.02
502.701	-0.03
502.899	-0.01
503.097	0.06
503.294	0
503.492	-0.01
503.689	-0.01
503.887	0.03
504.084	0.03
504.282	-0.02
504.479	-0.04
504.677	0
504.874	-0.06
505.072	0
505.269	0.01
505.466	0.01
505.664	-0
505.861	-0.05
506.059	-0.03
506.256	0.03
506.453	-0.01
506.651	0.01
506.848	-0
507.045	0.02
507.242	0.03
507.44	-0.03
507.637	-0.02
507.834	-0.01
508.031	0
508.229	-0.04
508.426	-0
508.623	0.01
508.82	-0.03
509.017	-0.03
509.214	-0.01
509.411	-0.01
509.608	-0.04
509.805	0
510.003	-0.02
510.2	-0.02
510.397	0.01
510.594	-0.04
510.791	-0.04
510.988	0
511.184	0.03
511.381	0.02
511.578	-0.03
511.775	0.03
511.972	-0.03
512.169	-0.02
512.366	-0.02
512.563	0.01
512.76	0
512.956	0.03
513.153	-0.01
513.35	-0
513.547	-0.04
513.744	-0.02
513.94	-0.04
514.137	-0
514.334	0.01
514.53	-0.01
514.727	0
514.924	0.05
515.12	-0.02
515.317	-0.04
515.514	-0.02
515.71	-0.03
515.907	-0.02
516.103	0
516.3	-0.01
516.497	0.01
516.693	0.03
516.89	-0.01
517.086	-0.05
517.283	0.01
517.479	0
517.676	-0.02
517.872	-0.02
518.068	-0.01
518.265	-0.02
518.461	-0.03
518.658	-0.03
518.854	-0.03
519.05	-0.03
519.247	-0.02
519.443	-0.01
519.639	-0.01
519.836	0.02
520.032	-0.01
520.228	-0.01
520.424	0.04
520.621	0.02
520.817	-0
521.013	-0
521.209	0.03
521.405	0.03
521.601	0.01
521.798	-0.01
521.994	0.04
522.19	-0.02
522.386	-0.04
522.582	-0.01
522.778	-0.01
522.974	-0.03
523.17	-0.02
523.366	0.01
523.562	0.01
523.758	-0.01
523.954	-0.03
524.15	-0.04
524.346	0.01
524.542	-0.03
524.738	-0.05
524.934	-0.02
525.129	-0.02
525.325	0
525.521	-0
525.717	0.03
525.913	-0.01
526.109	-0.02
526.304	-0.03
526.5	0.01
526.696	0.01
526.892	-0.02
527.087	-0.02
527.283	-0.02
527.479	0.01
527.674	-0.02
527.87	-0.04
528.066	-0.02
528.261	0.01
528.457	-0.01
528.653	-0.02
528.848	-0.01
529.044	0.01
529.239	0.01
529.435	0
529.63	-0
529.826	0.06
530.021	0
530.217	0.03
530.412	-0.01
530.608	-0.01
530.803	-0
530.999	-0.01
531.194	-0.07
531.389	0
531.585	-0.06
531.78	0
531.975	0
532.171	0.02
532.366	-0.02
532.561	0.02
532.757	-0.03
532.952	-0.03
533.147	-0
533.342	-0.02
533.538	-0.04
533.733	0.01
533.928	-0.02
534.123	-0.03
534.318	-0.02
534.513	-0.03
534.709	-0.01
534.904	-0.04
535.099	-0.02
535.294	0
535.489	-0
535.684	-0.01
535.879	-0.05
536.074	-0.01
536.269	-0.04
536.464	0.02
536.659	-0.02
536.854	-0.01
537.049	-0.01
537.244	0.01
537.439	-0.02
537.634	0.01
537.828	-0
538.023	0.01
538.218	-0.05
538.413	-0
538.608	-0.03
538.803	0
538.997	-0.05
539.192	0.02
539.387	0.02
539.582	0.01
539.776	0.02
539.971	-0.04
540.166	-0
540.36	-0.03
540.555	-0
540.75	-0.03
540.944	0
541.139	-0.03
541.334	-0.03
541.528	0.01
541.723	-0
541.917	-0.03
542.112	-0.06
542.306	-0.01
542.501	-0
542.695	-0
542.89	-0.01
543.084	0
543.279	0.01
543.473	-0.02
543.668	-0.03
543.862	0
544.056	0.02
544.251	-0
544.445	0.01
544.64	-0.01
544.834	-0.02
545.028	-0.02
545.222	-0
545.417	0.03
545.611	-0
545.805	-0.02
546	-0.02
546.194	-0.02
546.388	0
546.582	0.01
546.776	-0.02
546.97	-0.02
547.165	0.01
547.359	0.02
547.553	-0.02
547.747	-0.01
547.941	-0.01
548.135	-0
548.329	0.03
548.523	0.01
548.717	-0.01
548.911	-0.01
549.105	-0.02
549.299	-0.04
549.493	0.01
549.687	0
549.881	-0.02
550.075	-0.02
550.269	-0.03
550.463	0.02
550.657	-0.03
550.85	-0.01
551.044	-0.04
551.238	-0.02
551.432	-0.04
551.626	-0.04
551.82	0.01
552.013	-0.03
552.207	-0.01
552.401	-0
552.594	-0
552.788	-0.01
552.982	-0
553.176	-0.03
553.369	0.01
553.563	-0.02
553.756	-0.05
553.95	-0.03
554.144	-0.02
554.337	0.02
554.531	0.01
554.724	-0
554.918	-0.02
555.111	-0
555.305	0
555.498	0.05
555.692	0.02
555.885	-0.02
556.079	-0.01
556.272	-0.02
556.466	0.02
556.659	0.01
556.852	-0.03
557.046	-0.02
557.239	0.01
557.432	-0.03
557.626	-0.03
557.819	0.01
558.012	0.01
558.206	0.03
558.399	0.01
558.592	0.02
558.785	-0.02
558.979	0.02
559.172	-0.02
559.365	0.03
559.558	-0.01
559.751	0
559.944	0.01
560.138	0
560.331	-0.02
560.524	-0.02
560.717	-0
560.91	-0.02
561.103	0.01
561.296	-0.02
561.489	-0.01
561.682	-0.03
561.875	0.01
562.068	-0.02
562.261	-0
562.454	0.03
562.647	-0.02
562.84	0.01
563.032	-0.02
563.225	0.01
563.418	-0.01
563.611	-0.02
563.804	0
563.997	-0.04
564.19	-0.03
564.382	-0.02
564.575	-0.01
564.768	-0.01
564.961	-0.01
565.153	-0.03
565.346	-0.01
565.539	0.01
565.731	0
565.924	0.03
566.117	-0.01
566.309	0
566.502	-0.03
566.695	-0.01
566.887	0
567.08	-0.04
567.272	-0.03
567.465	-0.03
567.657	-0
567.85	0.02
568.042	0
568.235	0.04
568.427	-0.02
568.62	-0.02
568.812	0.02
569.005	-0.01
569.197	-0.04
569.389	-0.01
569.582	0.02
569.774	-0.01
569.966	-0.05
570.159	-0.04
570.351	-0
570.543	-0.03
570.736	-0.02
570.928	-0.03
571.12	-0.02
571.312	-0.02
571.505	-0.04
571.697	0.03
571.889	-0.02
572.081	0.01
572.273	-0.04
572.465	0.02
572.658	-0.01
572.85	0.01
573.042	-0.03
573.234	-0.01
573.426	0.04
573.618	-0.03
573.81	-0.01
574.002	0.03
574.194	0.04
574.386	-0.03
574.578	-0.08
574.77	-0.05
574.962	-0.01
575.154	-0.05
575.346	-0.04
575.538	0.01
575.729	-0.02
575.921	-0.02
576.113	-0.03
576.305	0.01
576.497	-0.01
576.689	-0.03
576.88	-0.02
577.072	0.03
577.264	-0.02
577.456	-0.02
577.647	-0.06
577.839	0
578.031	0.03
578.223	-0.05
578.414	-0.05
578.606	0.02
578.798	0.01
578.989	-0.03
579.181	-0.03
579.372	0.03
579.564	0.01
579.755	-0
579.947	-0.01
580.139	0.01
580.33	-0.06
580.522	-0.03
580.713	-0.09
580.905	-0.01
581.096	0.02
581.287	-0.01
581.479	0
581.67	0.02
581.862	-0.02
582.053	-0.03
582.244	-0.07
582.436	0.01
582.627	-0.02
582.818	-0.04
583.01	-0.07
583.201	0.04
583.392	0
583.583	0
583.775	-0.03
583.966	-0.03
584.157	-0.01
584.348	-0.02
584.54	-0.06
584.731	0.02
584.922	-0.02
585.113	-0.04
585.304	0
585.495	0.04
585.686	-0.02
585.877	0.01
586.068	-0.02
586.259	-0.02
586.45	-0
586.641	-0.05
586.832	-0.06
587.023	-0.01
587.214	-0.01
587.405	-0.01
587.596	-0.05
587.787	0.04
587.978	-0.03
588.169	-0.05
588.36	-0.02
588.551	0
588.742	-0.03
588.932	-0
589.123	-0.03
589.314	0.01
589.505	0.02
589.696	0
589.886	-0.04
590.077	-0.05
590.268	-0.01
590.458	-0.05
590.649	-0.05
590.84	0.03
591.03	-0.03
591.221	-0.05
591.412	-0.05
591.602	0.03
591.793	0
591.984	-0.04
592.174	-0.05
592.365	0.06
592.555	-0.01
592.746	-0
592.936	0
593.127	0.01
593.317	0.05
593.508	-0.01
593.698	-0.03
593.889	-0.01
594.079	-0.01
594.269	-0.06
594.46	-0.04
594.65	-0
594.84	-0.01
595.031	-0.06
595.221	-0.04
595.411	-0.07
595.602	0.02
595.792	-0.01
595.982	-0.05
596.172	0.05
596.363	-0.01
596.553	-0.01
596.743	-0.02
596.933	0.02
597.123	0.02
597.314	-0.03
597.504	-0.05
597.694	0.03
597.884	0.01
598.074	-0.03
598.264	-0.03
598.454	-0.04
598.644	-0.01
598.834	-0.01
599.024	-0.08
599.214	-0.02
599.404	0.03
599.594	-0.03
599.784	-0.03
599.974	0.03
600.164	0.01
600.354	-0.06
600.544	-0.07
600.734	-0.02
600.924	0.04
601.114	-0.02
601.303	-0.02
601.493	0.02
601.683	-0.02
601.873	-0.01
602.063	-0.06
602.252	0.03
602.442	-0.07
602.632	-0.07
602.821	-0.05
603.011	-0
603.201	-0.01
603.39	-0.05
603.58	-0.03
603.77	-0
603.959	0.03
604.149	-0.03
604.339	-0.03
604.528	0.02
604.718	0
604.907	-0.02
605.097	-0.04
605.286	-0.03
605.476	0.01
605.665	0.01
605.855	-0.04
606.044	0.05
606.234	0.01
606.423	-0.01
606.612	-0.04
606.802	-0
606.991	0.01
607.181	-0
607.37	-0.07
607.559	0.01
607.749	-0.06
607.938	0.01
608.127	-0.03
608.316	-0.01
608.506	0.03
608.695	-0.02
608.884	-0.04
609.073	-0.03
609.263	-0
609.452	0.01
609.641	-0.02
609.83	-0.04
610.019	0.01
610.208	-0.03
610.397	-0.03
610.586	0.02
610.775	-0.04
610.965	-0.01
611.154	-0.03
611.343	0.02
611.532	-0
611.721	-0.05
611.91	-0.05
612.099	0.01
612.287	-0.04
612.476	-0.05
612.665	0.03
612.854	-0.01
613.043	-0.01
613.232	-0.01
613.421	-0.06
613.61	-0.02
613.798	-0.03
613.987	0
614.176	-0.02
614.365	0.03
614.554	0.01
614.742	0.01
614.931	-0.01
615.12	0.03
615.309	-0.02
615.497	-0
615.686	-0.04
615.875	-0.03
616.063	-0.03
616.252	-0.04
616.44	-0.04
616.629	-0.02
616.818	0.03
617.006	-0.03
617.195	-0.04
617.383	-0.01
617.572	0.03
617.76	-0.02
617.949	-0.03
618.137	0.01
618.326	0.03
618.514	-0.02
618.703	-0.05
618.891	0.03
619.079	-0.09
619.268	0.01
619.456	-0.02
619.644	0.04
619.833	-0.03
620.021	-0.04
620.209	-0.05
620.398	0.02
620.586	0
620.774	-0.01
620.962	0.02
621.151	0.04
621.339	-0.01
621.527	-0.05
621.715	-0.04
621.903	-0.05
622.092	-0.04
622.28	-0.01
622.468	-0.01
622.656	-0.03
622.844	0.03
623.032	-0.03
623.22	-0.11
623.408	0.01
623.596	0
623.784	0.03
623.972	-0.07
624.16	-0.04
624.348	-0.02
624.536	-0.05
624.724	-0.05
624.912	0.03
625.1	0
625.288	-0.03
625.476	-0.05
625.664	-0.01
625.851	-0.06
626.039	-0.01
626.227	0.01
626.415	0.02
626.603	-0.12
626.79	-0.01
626.978	-0.07
627.166	-0
627.354	-0.01
627.541	-0.05
627.729	-0.09
627.917	-0
628.104	0.01
628.292	0
628.48	-0.06
628.667	0.02
628.855	0
629.042	0.01
629.23	-0.04
629.418	-0.04
629.605	-0.04
629.793	-0.03
629.98	-0.02
630.168	-0.03
630.355	-0
630.543	-0
630.73	-0.05
630.917	-0.01
631.105	0.05
631.292	-0.02
631.48	-0.03
631.667	0.05
631.854	-0
632.042	-0.04
632.229	-0.06
632.416	-0.02
632.604	-0.02
632.791	-0.04
632.978	-0.01
633.165	0.01
633.353	0.04
633.54	0.01
633.727	-0.08
633.914	-0
634.101	-0.09
634.289	0.01
634.476	-0.04
634.663	-0.04
634.85	-0.02
635.037	-0.07
635.224	-0.08
635.411	0.02
635.598	0.04
635.785	0.01
635.972	-0.01
636.159	0.02
636.346	-0.03
636.533	-0.04
636.72	-0.03
636.907	-0
637.094	0.01
637.281	-0
637.468	-0.02
637.655	-0.03
637.842	-0.04
638.029	-0.04
638.215	0.02
638.402	-0.01
638.589	-0.04
638.776	-0.02
638.963	-0.06
639.149	0.03
639.336	0.07
639.523	-0.02
639.709	-0
639.896	-0.04
640.083	0.04
640.27	-0.01
640.456	-0.03
640.643	0.01
640.829	-0.06
641.016	-0.04
641.203	-0.07
641.389	0.05
641.576	0.02
641.762	-0.05
641.949	-0.05
642.135	0.01
642.322	-0.01
642.508	-0.06
642.695	-0.03
642.881	-0.03
643.068	-0
643.254	-0.02
643.441	0.03
643.627	-0.01
643.813	-0.04
644	0
644.186	-0.05
644.372	-0.02
644.559	0
644.745	-0.03
644.931	-0.03
645.118	-0.04
645.304	-0.03
645.49	-0.05
645.676	-0.04
645.862	0.01
646.049	0.01
646.235	-0.01
646.421	0.07
646.607	0.04
646.793	-0.04
646.979	-0.05
647.165	-0.02
647.352	-0.02
647.538	-0
647.724	-0.04
647.91	0.01
648.096	0.05
648.282	0.02
648.468	-0.02
648.654	-0.03
648.84	-0.02
649.026	-0.02
649.212	-0.02
649.397	-0.04
649.583	-0.04
649.769	-0
649.955	-0.02
650.141	-0.01
650.327	0.06
650.513	-0.03
650.698	0.01
650.884	-0.09
651.07	-0.02
651.256	0.01
651.442	-0.03
651.627	-0.03
651.813	-0.03
651.999	-0.02
652.184	-0.01
652.37	-0.06
652.556	-0.05
652.741	0.05
652.927	-0.03
653.113	-0.05
653.298	-0.05
653.484	-0.02
653.669	-0.03
653.855	-0.01
654.04	0.02
654.226	-0.02
654.412	-0.05
654.597	-0.06
654.782	-0.01
654.968	0.04
655.153	-0
655.339	-0.04
655.524	-0.06
655.71	0.04
655.895	-0.04
656.08	-0.04
656.266	0.03
656.451	-0.05
656.636	-0.06
656.822	-0.02
657.007	-0.03
657.192	-0.06
657.378	-0.06
657.563	-0.01
657.748	-0.02
657.933	0.02
658.118	-0.03
658.304	-0.04
658.489	-0.01
658.674	0.05
658.859	-0.08
659.044	-0.04
659.229	0.01
659.414	-0.02
659.599	-0.01
659.785	-0.05
659.97	-0.02
660.155	-0.02
660.34	-0.03
660.525	-0.04
660.71	-0.03
660.895	0
661.08	-0.04
661.264	0
661.449	0.06
661.634	0.03
661.819	-0.01
662.004	0.02
662.189	-0.09
662.374	-0.03
662.559	-0.08
662.743	-0.07
662.928	-0.01
663.113	-0.04
663.298	-0.05
663.483	-0.04
663.667	-0.03
663.852	-0.1
664.037	0.02
664.221	-0.07
664.406	-0.01
664.591	-0.02
664.775	-0.01
664.96	-0.04
665.145	-0.05
665.329	0.01
665.514	-0.06
665.698	-0.02
665.883	-0.13
666.068	0.04
666.252	-0
666.437	-0.09
666.621	-0.03
666.806	-0.04
666.99	-0.02
667.174	-0.06
667.359	0.06
667.543	-0.03
667.728	-0.02
667.912	-0.09
668.096	0.01
668.281	-0.04
668.465	-0.05
668.649	-0.02
668.834	-0.08
669.018	-0.03
669.202	-0.06
669.387	-0.07
669.571	0.04
669.755	-0.07
669.939	-0.01
670.124	-0.01
670.308	0.04
670.492	-0.01
670.676	-0.02
670.86	0
671.044	-0.07
671.228	0.01
671.413	-0.1
671.597	-0.06
671.781	-0.05
671.965	-0.01
672.149	-0.02
672.333	-0.04
672.517	-0.05
672.701	0.01
672.885	-0.04
673.069	-0.05
673.253	0.05
673.437	-0.01
673.621	-0.08
673.804	-0.03
673.988	0
674.172	-0.03
674.356	-0.05
674.54	-0.02
674.724	0.08
674.908	-0.05
675.091	0.01
675.275	-0.02
675.459	-0.02
675.643	0.07
675.826	0.01
676.01	-0.02
676.194	-0
676.377	0.01
676.561	0.02
676.745	0
676.928	0.03
677.112	-0.01
677.296	-0.06
677.479	-0.09
677.663	-0.06
677.846	0.05
678.03	-0.07
678.213	-0.03
678.397	-0.04
678.58	-0.04
678.764	-0.05
678.947	-0.05
679.131	-0.06
679.314	0.05
679.498	-0.06
679.681	0.01
679.865	0.05
680.048	-0.03
680.231	-0.01
680.415	-0
680.598	-0.07
680.781	-0.06
680.965	-0.05
681.148	-0.02
681.331	-0.05
681.514	-0.02
681.698	-0.02
681.881	-0.02
682.064	-0.01
682.247	-0
682.43	-0.06
682.614	-0
682.797	0.03
682.98	0.02
683.163	-0.02
683.346	0.02
683.529	-0.09
683.712	0
683.895	0.02
684.078	-0.12
684.261	-0.02
684.444	0.03
684.627	-0.02
684.81	-0.06
684.993	-0.02
685.176	0.02
685.359	-0.09
685.542	-0.06
685.725	0.03
685.908	0.01
686.091	0
686.274	0.05
686.457	0.05
686.639	0.01
686.822	-0.01
687.005	0.02
687.188	0
687.371	0.05
687.553	-0.02
687.736	-0.02
687.919	0.02
688.102	0.05
688.284	-0.05
688.467	-0.01
688.65	-0.06
688.832	-0.07
689.015	-0.03
689.197	-0.11
689.38	0.06
689.563	0.09
689.745	-0.07
689.928	-0.05
690.11	-0.04
690.293	0.06
690.475	-0.11
690.658	-0.02
690.84	-0.02
691.023	-0.05
691.205	-0.07
691.388	-0.03
691.57	0
691.752	-0.03
691.935	-0.1
692.117	-0.05
692.3	0.01
692.482	-0.02
692.664	-0.05
692.847	0.03
693.029	0.07
693.211	0.04
693.393	-0.01
693.576	-0.01
693.758	0
693.94	-0.05
694.122	-0.04
694.304	-0.04
694.487	-0.06
694.669	0.03
694.851	-0.1
695.033	-0.05
695.215	-0.06
695.397	-0.03
695.579	-0.01
695.761	-0.05
695.943	-0.06
696.125	0.07
696.308	0.03
696.49	-0.12
696.671	0.07
696.853	-0.05
697.035	0.09
697.217	-0.02
697.399	0.04
697.581	-0.04
697.763	0.01
697.945	-0.02
698.127	-0.02
698.309	0
698.491	-0.04
698.672	0.07
698.854	-0
699.036	0.07
699.218	-0.08
699.399	0.06
699.581	-0.01
699.763	-0.04
699.945	-0.04
700.126	-0.02
700.308	-0.03
700.49	-0
700.671	-0.07
700.853	-0.03
701.035	-0.04
701.216	-0.03
701.398	-0.08
701.579	-0.05
701.761	0.01
701.943	-0.06
702.124	-0.09
702.306	-0.05
702.487	0.09
702.669	-0.05
702.85	-0.06
703.031	-0.1
703.213	0.09
703.394	0.04
703.576	-0.1
703.757	0.03
703.938	0.05
704.12	0.17
704.301	-0
704.483	-0.06
704.664	-0.02
704.845	0.12
705.026	0.02
705.208	0.01
705.389	0.04
705.57	0.01
705.751	-0.05
705.933	-0.04
706.114	0.04
706.295	-0.05
706.476	-0.02
706.657	0.05
706.838	-0.01
707.02	-0.02
707.201	-0.04
707.382	-0.02
707.563	-0.01
707.744	-0.03
707.925	-0.08
708.106	-0.08
708.287	0.07
708.468	0.08
708.649	-0.03
708.83	-0.06
709.011	-0.04
709.192	0.03
709.373	-0.11
709.554	-0.01
709.734	0.08
709.915	0.05
710.096	-0.06
710.277	-0.2
710.458	-0.04
710.639	0.03
710.819	-0.13
711	-0.06
711.181	0.08
711.362	0.03
711.542	0.02
711.723	-0.03
711.904	0.08
712.085	0
712.265	-0.01
712.446	-0.13
712.627	-0.05
712.807	-0.08
712.988	-0.05
713.168	-0.14
713.349	0.05
713.53	-0.13
713.71	-0.08
713.891	-0.07
714.071	0.01
714.252	-0
714.432	-0.06
714.613	-0.07
714.793	-0.09
714.974	0.09
715.154	0
715.334	-0.01
715.515	0.1
715.695	-0.14
715.876	-0.1
716.056	-0.05
716.236	-0
716.417	-0.05
716.597	-0.08
716.777	0.14
716.957	-0.04
717.138	-0.06
717.318	0.01
717.498	-0.15
717.678	0.02
717.859	0.03
718.039	-0.12
718.219	-0.1
718.399	-0
718.579	-0.07
718.759	-0.11
718.939	-0.1
719.12	0
719.3	-0.01
719.48	-0.16
719.66	-0.13
719.84	0.06
720.02	0.01
720.2	-0.11
720.38	0.06
720.56	0.08
720.74	0.03
720.92	-0.04
721.1	0.03
721.279	-0
721.459	-0.1
721.639	-0.1
721.819	-0.01
721.999	-0.12
722.179	0.02
722.359	-0.06
722.538	-0.03
722.718	-0.02
722.898	-0.09
723.078	0
723.257	-0.06
723.437	0.01
723.617	-0.04
723.797	-0.09
723.976	-0.02
724.156	-0.01
724.336	0.02
724.515	0.12
724.695	-0.19
724.874	-0.04
725.054	0.07
725.234	-0.03
725.413	-0.06
725.593	-0.05
725.772	-0.05
725.952	0.02
726.131	-0.06
726.311	-0.04
726.49	0.01
726.67	-0.12
726.849	-0.13
727.028	0.04
727.208	0.04
727.387	-0.05
727.567	-0.11
727.746	-0.06
727.925	-0.1
728.105	-0.12
728.284	-0.14
728.463	-0.06
728.643	-0.08
728.822	-0.15
729.001	-0.08
729.18	-0.02
729.359	0.02
729.539	-0.13
729.718	-0.04
729.897	0
730.076	-0.12
730.255	-0.12
730.434	-0.02
730.614	-0.06
730.793	-0.01
730.972	-0.13
731.151	-0.05
731.33	0.09
731.509	0.06
731.688	-0.09
731.867	-0.06
732.046	-0.16
732.225	0.2
732.404	-0.07
732.583	-0.05
732.762	-0.01
732.941	0.11
733.12	0.07
733.298	-0.08
733.477	0.06
733.656	-0.03
733.835	-0.07
734.014	-0.04
734.193	-0.04
734.371	0.09
734.55	-0.03
734.729	-0.16
734.908	-0
735.086	-0
735.265	0.1
735.444	-0.13
735.623	-0.17
735.801	-0.15
735.98	-0.03
736.159	-0.07
736.337	0.04
736.516	-0.05
736.694	0.03
736.873	-0.13
737.052	0.21
737.23	-0
737.409	-0.16
737.587	0.08
737.766	-0.24
737.944	-0.07
738.123	-0.03
738.301	0.04
738.479	-0.05
738.658	0.04
738.836	-0.23
739.015	-0.07
739.193	0.08
739.371	-0.11
739.55	-0.08
739.728	-0.1
739.906	0.15
740.085	0.15
740.263	-0.02
740.441	-0.18
740.62	0.2
740.798	0.02
740.976	-0.18
741.154	-0.08
741.332	0.17
741.511	-0.13
741.689	0.05
741.867	0.11
742.045	-0.01
742.223	-0.06
742.401	-0.13
742.579	-0.11
742.757	-0.05
742.935	-0.12
743.114	-0.05
743.292	-0.06
743.47	0.01
743.648	0.11
743.826	0.01
744.004	0.02
744.181	0.06
744.359	-0.08
744.537	0.03
744.715	-0.1
744.893	-0.04
745.071	-0.05
745.249	-0.07
745.427	-0.1
745.605	-0.02
745.782	0.08
745.96	0.09
746.138	0.07
746.316	-0
746.493	0.01
746.671	-0.03
746.849	-0.1
747.027	0.09
747.204	-0.07
747.382	0.03
747.56	-0.13
747.737	-0.18
747.915	-0.09
748.093	0.05
748.27	-0.06
748.448	-0.05
748.625	-0.19
748.803	-0.07
748.98	-0.05
749.158	-0.03
749.335	-0.08
749.513	-0.08
749.69	-0.02
749.868	0
750.045	0.03
750.223	-0.16
750.4	-0.19
750.578	0.2
750.755	0.04
750.932	-0.11
751.11	0.15
751.287	-0.14
751.464	0.07
751.642	-0.11
751.819	-0.03
751.996	0.04
752.173	-0.17
752.351	-0.19
752.528	-0.09
752.705	-0.05
752.882	-0.11
753.06	-0
753.237	0.03
753.414	0.13
753.591	0.06
753.768	-0
753.945	-0.05
754.122	-0.01
754.299	0.09
754.476	-0.16
754.654	-0.06
754.831	0
755.008	0.06
755.185	-0.16
755.362	-0.21
755.539	-0
755.716	-0.06
755.892	-0.1
756.069	-0.02
756.246	-0.05
756.423	-0.11
756.6	0.07
756.777	-0.17
756.954	0.04
757.131	-0.04
757.307	-0.17
757.484	-0.19
757.661	-0.01
757.838	-0.07
758.015	-0.26
758.191	-0.05
758.368	0.11
758.545	0.1
758.721	-0.01
758.898	-0.07
759.075	-0.05
759.251	0.01
759.428	0.12
759.605	-0.21
759.781	0.03
759.958	0.08
760.134	0.01
760.311	-0.14
760.488	0.05
760.664	0.12
760.841	-0.08
761.017	-0.12
761.194	0.09
761.37	0.09
761.547	0.13
761.723	-0.12
761.899	0.13
762.076	-0.14
762.252	-0.06
762.429	-0.18
762.605	0.04
762.781	-0.05
762.958	0.03
763.134	-0.1
763.31	-0.1
763.486	0.11
763.663	-0.24
763.839	0.05
764.015	-0.27
764.191	-0.01
764.368	-0.12
764.544	-0.13
764.72	0.07
764.896	0.04
765.072	0.07
765.248	-0.09
765.425	-0.02
765.601	-0.04
765.777	-0.04
765.953	-0.26
766.129	-0.02
766.305	-0.08
766.481	-0.02
766.657	0
766.833	0.12
767.009	-0.07
767.185	-0.07
767.361	-0.07
767.537	-0.24
767.713	0.11
767.889	-0.11
768.065	-0.06
768.24	0.12
768.416	0.07
768.592	-0.21
768.768	-0.12
768.944	0.1
769.12	-0.24
769.295	0.07
769.471	-0.11
769.647	-0.18
769.823	0.08
769.998	-0.16
770.174	-0.19
770.35	0.26
770.525	0.16
770.701	0.01
770.877	-0.06
771.052	-0.09
771.228	-0.04
771.403	-0.11
771.579	0.12
771.755	0.33
771.93	-0.07
772.106	-0.14
772.281	-0.24
772.457	0.03
772.632	-0.02
772.808	-0.28
772.983	-0.14
773.159	-0.28
773.334	0.1
773.509	0.01
773.685	-0.09
773.86	0.37
774.036	0.11
774.211	0.04
774.386	-0.21
774.562	-0.04
774.737	-0
774.912	-0.16
775.087	0.09
775.263	-0.13
775.438	-0.04
775.613	0
775.788	-0.14
775.964	-0.06
776.139	0.4
776.314	-0.25
776.489	0.18
776.664	0.02
776.839	0
777.014	0.06
777.19	0.07
777.365	0.07
777.54	0.26
777.715	-0
777.89	-0.14
778.065	-0.18
778.24	-0.05
778.415	0.12
778.59	-0.17
778.765	-0.2
778.94	-0.04
779.115	-0.05
779.289	-0.19
779.464	-0.07
779.639	-0.01
779.814	-0.11
779.989	-0.2
780.164	0.06
780.339	0.05
780.513	-0.08
780.688	-0.18
780.863	0.12
781.038	0.22
781.212	-0.25
781.387	-0.12
781.562	0.25
781.737	-0.15
781.911	0.08
782.086	-0.19
782.261	0.05
782.435	0.21
782.61	-0.2
782.784	-0
782.959	0.29
783.134	-0.09
783.308	-0.21
783.483	-0.18
783.657	0.37
783.832	0.32
784.006	-0.4
784.181	-0.09
784.355	0.1
784.53	-0.41
784.704	-0.34
784.878	0.34
785.053	-0.06
785.227	0.11
785.402	0.33
785.576	-0.44
785.75	-0.23
785.925	-0.07
786.099	-0.21
786.273	-0.01
786.448	-0.05
786.622	0.18
786.796	-0.23
786.97	-0.09
787.145	0.5
787.319	-0.3
787.493	-0.23
787.667	-0.28
787.841	0.11
788.015	0.02
788.19	-0.23
788.364	-0.17
788.538	-0.04
788.712	-0.08
788.886	-0.05
789.06	0.25
789.234	0.15
789.408	-0.21
789.582	-0.08
789.756	-0.06
789.93	-0.29
790.104	-0.24
790.278	-0.08
790.452	-0.32
790.626	-0.08
790.8	-0.07
790.973	-0.01
791.147	0.42
791.321	0.29
791.495	0.28
791.669	-0.06
791.843	0.18
792.016	0.15
792.19	0.38
792.364	-0.62
792.538	0.27
792.711	0.09
792.885	-0.18
793.059	-0.47
793.233	-0.38
793.406	0.16
793.58	-0.03
793.754	0.02
793.927	-0.27
794.101	0.25
794.274	-0.33
794.448	0.13
794.622	-0.27
794.795	0.34
794.969	-0.28
795.142	0.17
795.316	-0.01
795.489	-0.23
795.663	0.26
795.836	-0.05
796.009	-0.14
796.183	0.32
796.356	-0.01
796.53	0.07
796.703	-0.24
796.876	0.48
797.05	-0.06
797.223	-0.27
797.396	-0.21
797.57	0.11
797.743	0.55
797.916	0.12
798.09	-0.21
798.263	0.07
798.436	0.23
798.609	-0.01
798.782	-0.06
798.956	0.05
799.129	0.04
799.302	-0.25
799.475	-0.25
799.648	-0.14
799.821	-0.17
799.994	-0.06
800.167	-0.47
800.34	-0.19
800.514	-0.09
800.687	-0.13
800.86	0.06
801.033	-0.16
801.206	-0.01
801.379	-0.28
801.551	0.25
801.724	0.22
801.897	0.36
802.07	-0.23
802.243	-0.69
802.416	-0.09
802.589	-0.17
802.762	0.15
802.935	-0.14
803.107	0.34
803.28	0.15
803.453	0.16
803.626	-0.35
803.798	-0.03
803.971	-0.31
804.144	0.06
804.317	0.06
804.489	-0.07
804.662	-0.15
804.835	-0.26
805.007	-0.49
805.18	0.26
805.353	-0.12
805.525	-0.5
805.698	-0.22
805.87	0.33
806.043	0.23
806.215	-0.55
806.388	-0.29
806.56	-0.22
806.733	0.17
806.905	0.07
807.078	-0.12
807.25	-0.18
807.423	0.04
807.595	-0.16
807.768	-0.09
807.94	0.36
808.112	0.15
808.285	-0.08
808.457	-0.37
808.629	-0.11
808.802	0.05
808.974	-0.51
809.146	0.13
809.318	-0.54
809.491	0.13
809.663	0.24
809.835	-0.11
810.007	-0.01
810.18	0.11
810.352	-0.47
810.524	-0.4
810.696	0.07
810.868	0.24
811.04	-0.26
811.212	-0.02
811.384	0.12
811.556	-0.08
811.728	-0.23
811.901	0.4
812.073	-0.11
812.245	-0.06
812.417	-0.13
812.589	-0.65
812.76	0.05
812.932	0.18
813.104	0.1
813.276	-0.17
813.448	0.31
813.62	0.02
813.792	0.09
813.964	0.07
814.136	-0.03
814.307	-0.29
814.479	-0.34
814.651	-0.15
814.823	0.7
814.995	-0.39
815.166	-0.2
815.338	-0.57
815.51	-0.64
815.681	0.75
815.853	0.13
816.025	-0.22
816.196	0.39
816.368	0.21
816.54	-0.12
816.711	0.04
816.883	0.1
817.054	0.67
817.226	-0.6
817.398	0.11
817.569	-0.34
817.741	0.02
817.912	-0
818.084	-0.42
818.255	0.73
818.426	-0.45
818.598	-0.36
818.769	-0.58
818.941	0.28
819.112	0.76
819.283	-0.03
819.455	-0.34
819.626	-0.25
819.798	0.13
819.969	0.02
820.14	-0.52
820.311	-0.09
820.483	-0.05
820.654	-0.21
820.825	-0.06
820.996	-0.41
821.168	-0.6
821.339	0.25
821.51	-0.51
821.681	-0.54
821.852	0.09
822.023	-0.8
822.195	-0.71
822.366	0.08
822.537	-0.33
822.708	0.43
822.879	-0.24
823.05	0.88
823.221	-0.24
823.392	0.21
823.563	-0.37
823.734	-0.14
823.905	-0
824.076	-0.53
824.247	-0.76
824.418	-0.42
824.589	0.23
824.759	0.03
824.93	-0.06
825.101	-0.77
825.272	0.89
825.443	0.48
825.614	0.18
825.784	-0.79
825.955	0.46
826.126	0.48
826.297	-0.33
826.467	1.13
826.638	0.69
826.809	-0.94
826.98	-0.23
827.15	-0.08
827.321	0.5
827.492	0.56
827.662	-0.39
827.833	0.14
828.003	-0.21
828.174	-0.53
828.345	-0.85
828.515	0.49
828.686	-0.09
828.856	0.07
829.027	-0.28
829.197	0.58
829.368	0.34
829.538	-0.75
829.709	-0.4
829.879	0.42
830.049	-0.32
830.22	-0.54
830.39	-0.79
830.56	0.35
830.731	-0.26
830.901	-0.48
831.072	-0.08
831.242	-0.02
831.412	0.09
831.582	0.11
831.753	-1.19
831.923	0.18
832.093	-0.1
832.263	-0.15
832.434	-0.44
832.604	-0.07
832.774	-0.23
832.944	-0.32
833.114	-0.65
833.284	0.14
833.454	-0.8
833.624	0.07
833.795	-0.11
833.965	0.61
834.135	0.71
834.305	-1.34
834.475	-1.21
834.645	0.23
834.815	-0.39
834.985	-0.34
835.155	-0.46
835.325	0.46
835.494	0.81
835.664	-0.06
835.834	-0.9
836.004	-0.32
836.174	-0.13
836.344	-0.46
836.514	-0.54
836.684	-0.46
836.853	0.29
837.023	0.09
837.193	0.22
837.363	0.56
837.532	0.15
837.702	-0.71
837.872	-1.27
838.041	0.15
838.211	1.48
838.381	-1.33
838.55	0.18
838.72	1.77
838.89	0.6
839.059	-0.48
839.229	-0.42
839.398	1.39
839.568	-0.05
839.738	-0.33
839.907	0.49
840.077	0.01
840.246	-0.19
840.416	-0.61
840.585	-0.76
840.755	1.24
840.924	0.61
841.093	-1.07
841.263	-0.34
841.432	0.05
841.602	-0.96
841.771	-0.64
841.94	-0.09
842.11	1.48
842.279	1.25
842.448	-0.69
842.617	-1.22
842.787	1.84
842.956	-1.17
843.125	-0.16
843.294	-0.71
843.464	0.09
843.633	0.83
843.802	-1.06
843.971	0.05
844.14	0.54
844.309	0.72
844.479	-0.55
844.648	-0.92
844.817	-0.33
844.986	0.11
845.155	-0.19
845.324	0.38
845.493	0.04
845.662	-0.75
845.831	0.18
846	0.01
846.169	0.44
846.338	1.85
846.507	-0.37
846.676	0.32
846.844	-0.97
847.013	1.63
847.182	-0.49
847.351	-0.27
847.52	-0.31
847.689	1.08
847.858	-0.2
848.026	-0.92
848.195	0.31
848.364	-0.62
848.533	-0.91
848.701	-0.96
848.87	-0
849.039	0.99
849.207	0.62
849.376	0.36
849.545	1.13
849.713	0.02
849.882	-0.84
850.051	-0.19
850.219	-0.81
850.388	0.64
850.556	-1.53
850.725	-0.93
850.893	-0.09
851.062	-0.13
851.23	0.46
851.399	-1.6
851.567	0.44
851.736	-0.59
851.904	-0.97
852.073	0.67
852.241	0.37
852.41	-0.63
852.578	-0.89
852.746	-0.58
852.915	-0.48
853.083	-0.59
853.251	-1.25
853.42	-0.2
853.588	-0.94
853.756	1.04
853.924	0.22
854.093	-0.4
854.261	-0.23
854.429	-1.27
854.597	0.56
854.765	-1.18
854.934	-0.29
855.102	1.02
855.27	0.63
855.438	-0.14
855.606	1.33
855.774	2.36
855.942	-1.92
856.11	-2.58
856.278	-0.92
856.446	-0.09
856.614	0.37
856.782	-1.62
856.95	1.07
857.118	0.11
857.286	1.16
857.454	-1.07
857.622	0.88
857.79	-0.13
857.958	-2.23
858.126	-1
858.294	-2.21
858.462	0.19
858.629	-1.67
858.797	-1.88
858.965	-0.35
859.133	0.07
859.301	-0.73
859.468	0.73
859.636	-0.28
859.804	1.87
859.971	1.54
860.139	-1.62
860.307	1.25
860.474	0.18
860.642	-1.12
860.81	-1.64
860.977	0.09
861.145	1.37
861.313	-1.42
861.48	-0.25
861.648	0.05
861.815	-0.88
861.983	-1.74
862.15	-0.79
862.318	1.24
862.485	0.91
862.653	-1.14
862.82	-1.41
862.988	1.83
863.155	1.27
863.322	-1.25
863.49	-0.83
863.657	0.11
863.824	0.82
863.992	0.76
864.159	0.66
864.326	1.46
864.494	-0.48
864.661	1.93
864.828	-0.9
864.996	0.63
865.163	3.06
865.33	-1.11
865.497	-3.2
865.664	-0.73
865.832	-2.09
865.999	-0.69
866.166	-2.17
866.333	-0.7
866.5	-1.14
866.667	-1.32
866.834	-0.03
867.001	-0.18
867.168	-2.78
867.335	0.84
867.502	-2.03
867.669	0.27
867.836	2.55
868.003	-0.5
868.17	0.53
868.337	2.6
868.504	2.78
868.671	-2.18
868.838	-0.99
869.005	0.08
869.172	0.08
869.339	-0.94
869.505	-0.35
869.672	0.36
869.839	2.23
870.006	-0.99
870.173	-1.72
870.339	0.65
870.506	2.16
870.673	-2.88
870.84	0.8
871.006	0.33
871.173	-0.21
871.34	0.46
871.506	-2.01
871.673	-0.5
871.839	-2.84
872.006	0.1
872.173	-1.04
872.339	1.05
872.506	1.44
872.672	-1.7
872.839	-1.92
873.005	0.18
873.172	2.65
873.338	-0.33
873.505	-1.24
873.671	1.23
873.838	0.74
874.004	-1.58
874.171	-0.24
874.337	0.05
874.503	0.82
874.67	-0.72
874.836	-1.19
875.002	4.01
875.169	0.76
875.335	1.15
875.501	0.12
875.668	0.26
875.834	-0.43
876	-1.32
876.166	0.98
876.332	-0.16
876.499	2.11
876.665	-0.65
876.831	-0.38
876.997	3.38
877.163	0.86
877.329	-0.73
877.495	0.36
877.662	0.75
877.828	0.68
877.994	-0.24
878.16	-4.49
878.326	-2.7
878.492	-0.08
878.658	-0.45
878.824	0.56
878.99	0.24
879.156	-0.8
879.322	2.59
879.487	-1.87
879.653	-0.32
879.819	-0.6
879.985	-1.17
880.151	0.2
880.317	-0.21
880.483	-2.09
880.648	0.48
880.814	-3.75
880.98	0.99
881.146	-1.82
881.312	-1.2
881.477	-1.6
881.643	0.32
881.809	2.71
881.974	2.2
882.14	-3.74
882.306	-0.66
882.471	0.45
882.637	-1.37
882.803	1.78
882.968	3.42
883.134	2.75
883.299	-0.26
883.465	-0.09
883.63	0.84
883.796	1.6
883.961	1.22
884.127	-0.73
884.292	-4.81
884.458	-1.7
884.623	-1.7
