Data from Apollo_Calib_20240827__AbsoluteIrradiance__589__08-58-00-217.txt Node

Date: Wed Aug 28 08:58:00 BST 2024
User: biology
Spectrometer: FLMT08252
Trigger mode: 0
Integration Time (sec): 5.000000E-1
Scans to average: 5
Electric dark correction enabled: true
Nonlinearity correction enabled: false
Boxcar width: 0
XAxis mode: Wavelengths
Number of Pixels in Spectrum: 3648
>>>>>Begin Spectral Data<<<<<
179.588	-0
179.809	-0
180.03	-0
180.251	-0
180.473	-0
180.694	0
180.915	0
181.136	-0
181.357	-0
181.578	-0
181.799	-0
182.02	-0
182.241	0
182.462	-0
182.683	0
182.904	-0
183.125	0
183.346	-0
183.567	0
183.788	0
184.009	-0
184.23	0
184.451	0
184.672	0
184.892	-0
185.113	0
185.334	0
185.555	-0
185.776	-0
185.996	0
186.217	0
186.438	0
186.659	-0
186.879	0
187.1	0
187.321	-0
187.541	0
187.762	0
187.983	0
188.203	0
188.424	0
188.644	-0
188.865	0
189.086	0
189.306	0
189.527	0
189.747	0
189.968	0
190.188	0
190.409	0
190.629	0
190.849	-0
191.07	0
191.29	0
191.511	0
191.731	-0
191.951	0
192.172	0
192.392	0
192.612	0
192.833	0
193.053	0
193.273	0
193.493	0
193.714	0
193.934	0
194.154	0
194.374	0
194.594	0
194.815	0
195.035	0
195.255	0
195.475	0
195.695	0
195.915	0
196.135	-0
196.355	0
196.575	0
196.795	0
197.015	-0
197.235	0
197.455	0
197.675	0
197.895	0
198.115	0
198.335	0
198.555	0
198.775	0
198.995	0
199.214	0
199.434	0
199.654	0
199.874	0
200.094	1.09
200.313	0.35
200.533	-0.28
200.753	-0.19
200.973	1.24
201.192	1.3
201.412	-0.13
201.632	0.4
201.851	1.95
202.071	0.27
202.291	0.36
202.51	-0.16
202.73	1.01
202.95	0.06
203.169	0.14
203.389	0.53
203.608	0.55
203.828	-0.03
204.047	0.36
204.267	0.81
204.486	0.69
204.706	0.52
204.925	0.55
205.145	0.13
205.364	0.44
205.583	1.28
205.803	0.32
206.022	-0.03
206.242	0.18
206.461	0.37
206.68	0.27
206.9	0.56
207.119	0.98
207.338	0.56
207.557	0.43
207.777	0.12
207.996	0.37
208.215	0.68
208.434	0.29
208.654	-0.1
208.873	0.41
209.092	0.87
209.311	0.38
209.53	0.14
209.749	-0.09
209.968	0.11
210.187	0.18
210.407	-0.07
210.626	0.16
210.845	0.52
211.064	0.14
211.283	-0.04
211.502	0.44
211.721	0.39
211.94	0.09
212.159	0.59
212.377	0.6
212.596	0.52
212.815	0.32
213.034	0.24
213.253	0.45
213.472	0.51
213.691	0.16
213.91	0.1
214.128	0.07
214.347	0.84
214.566	-0.2
214.785	-0.07
215.003	0.27
215.222	0.25
215.441	0.23
215.66	0.06
215.878	0.3
216.097	0.44
216.316	-0.02
216.534	0.18
216.753	0.28
216.972	0.11
217.19	0.21
217.409	0.02
217.627	0.08
217.846	0.07
218.064	0.3
218.283	0.1
218.501	0.62
218.72	0.41
218.938	0.09
219.157	0.1
219.375	0.3
219.594	0.24
219.812	0.1
220.031	-0.02
220.249	0.59
220.467	0.39
220.686	0.16
220.904	-0.01
221.122	0.02
221.341	0.53
221.559	0.19
221.777	0.03
221.995	0.2
222.214	0.31
222.432	0.09
222.65	0.49
222.868	0.34
223.086	0.18
223.305	0.21
223.523	0.11
223.741	0.45
223.959	-0.12
224.177	-0.08
224.395	0.04
224.613	0.32
224.831	0.3
225.049	0.03
225.267	0.18
225.485	0.27
225.703	0.2
225.921	0.13
226.139	0.13
226.357	0.31
226.575	0.21
226.793	0.11
227.011	0.6
227.229	0.24
227.447	0.24
227.665	0.17
227.883	-0.15
228.1	0.19
228.318	0.29
228.536	-0.2
228.754	-0.05
228.972	0.19
229.189	0.37
229.407	0.1
229.625	0.09
229.843	0.2
230.06	0.2
230.278	0.04
230.496	0.19
230.713	0.26
230.931	0.27
231.149	0.03
231.366	-0.04
231.584	0.17
231.801	0.38
232.019	0.12
232.236	-0.12
232.454	0.01
232.671	0.33
232.889	0.13
233.106	0.02
233.324	0.07
233.541	0.12
233.759	0.15
233.976	0.08
234.194	0.11
234.411	0.15
234.628	-0.03
234.846	0.07
235.063	0
235.28	0.12
235.498	0.05
235.715	-0.01
235.932	0.3
236.149	0.17
236.367	0.05
236.584	0.15
236.801	0.09
237.018	0.24
237.236	0.16
237.453	0.01
237.67	0.23
237.887	0.05
238.104	0.11
238.321	0.06
238.538	0.04
238.755	0.25
238.973	0.01
239.19	0.12
239.407	0.12
239.624	0.13
239.841	0.1
240.058	-0.01
240.275	0.13
240.492	0.12
240.709	0.1
240.925	0.13
241.142	0.1
241.359	0.01
241.576	0.01
241.793	-0.09
242.01	0.1
242.227	0.17
242.444	0.21
242.66	0.25
242.877	0.09
243.094	0.01
243.311	0.17
243.527	0.09
243.744	0.18
243.961	0.16
244.178	0.02
244.394	0.09
244.611	0.18
244.828	0.24
245.044	0.06
245.261	0.14
245.477	0.26
245.694	0.26
245.911	0.05
246.127	0.08
246.344	0.19
246.56	0.11
246.777	0.06
246.993	0.2
247.21	0.12
247.426	0.24
247.643	0.13
247.859	-0.07
248.076	0.09
248.292	0.2
248.508	0.11
248.725	0.14
248.941	0.15
249.157	0.26
249.374	0.02
249.59	0.06
249.806	0.19
250.023	0.18
250.239	0.01
250.455	0.04
250.671	0.04
250.888	0.08
251.104	0.1
251.32	0.05
251.536	0.04
251.752	0.07
251.969	0.09
252.185	0.06
252.401	0.33
252.617	0.19
252.833	0.08
253.049	0.11
253.265	0.1
253.481	0.16
253.697	0.1
253.913	0.06
254.129	0.12
254.345	0.13
254.561	0.08
254.777	0.1
254.993	0.16
255.209	0.12
255.425	0.03
255.641	0.04
255.857	0.19
256.073	0.08
256.288	-0.03
256.504	0.08
256.72	0.04
256.936	0.18
257.152	0.07
257.367	0.05
257.583	0.08
257.799	0.24
258.015	0.01
258.23	-0.04
258.446	0.21
258.662	0.04
258.877	0.03
259.093	0.11
259.309	0.06
259.524	0.12
259.74	0.05
259.955	0.02
260.171	0.03
260.387	0.08
260.602	0.14
260.818	0.14
261.033	0.04
261.249	0.04
261.464	0.06
261.68	0.02
261.895	0.08
262.11	0.17
262.326	0.08
262.541	-0.02
262.757	0.16
262.972	0.03
263.187	0.01
263.403	0.04
263.618	0.13
263.833	0.09
264.049	-0.02
264.264	0.11
264.479	0.16
264.694	0.18
264.91	-0.02
265.125	0.11
265.34	0.18
265.555	0.25
265.77	0.13
265.986	0.06
266.201	0.06
266.416	0.21
266.631	0.07
266.846	0.09
267.061	0.11
267.276	0.14
267.491	-0.05
267.706	0.12
267.921	0.09
268.136	0.11
268.351	0.06
268.566	0.04
268.781	0.13
268.996	0.05
269.211	0.04
269.426	-0.05
269.641	0.08
269.856	0.12
270.071	0.06
270.285	-0.02
270.5	0.14
270.715	0.06
270.93	0.08
271.145	0.12
271.359	0.11
271.574	0.07
271.789	0.11
272.004	0.07
272.218	0.06
272.433	0.14
272.648	0.03
272.862	0.11
273.077	0.05
273.292	0.05
273.506	0.04
273.721	0.04
273.936	0.13
274.15	0.21
274.365	0.08
274.579	0.13
274.794	0.11
275.008	0.14
275.223	-0.05
275.437	0.13
275.652	0.1
275.866	0.12
276.081	0.11
276.295	0.16
276.509	0.06
276.724	0.05
276.938	0.07
277.153	0.1
277.367	0.08
277.581	0.1
277.796	0.05
278.01	0.04
278.224	0.12
278.438	0.25
278.653	-0.03
278.867	0.01
279.081	0.07
279.295	0.04
279.51	0.1
279.724	-0
279.938	0.13
280.152	0.08
280.366	0.03
280.58	0.06
280.794	0.15
281.008	0.13
281.222	0.11
281.437	0.13
281.651	0.06
281.865	0.09
282.079	0.08
282.293	-0.02
282.507	0.04
282.721	0.07
282.935	0.09
283.148	-0.04
283.362	0.06
283.576	-0.01
283.79	0.06
284.004	0.02
284.218	0.12
284.432	0.03
284.646	0.08
284.859	0.05
285.073	0.05
285.287	0.05
285.501	0.05
285.714	0.05
285.928	0.14
286.142	0.04
286.356	0.04
286.569	0.04
286.783	0.16
286.997	0.11
287.21	0.06
287.424	0.07
287.637	0.03
287.851	0.02
288.065	0.07
288.278	0.01
288.492	0.07
288.705	0.08
288.919	0.11
289.132	-0
289.346	0.12
289.559	-0.05
289.773	-0.01
289.986	0.05
290.2	0.08
290.413	0.11
290.626	0
290.84	0.03
291.053	0.05
291.267	0.15
291.48	0.07
291.693	0.07
291.906	0.04
292.12	0.01
292.333	0.03
292.546	0.01
292.76	0.15
292.973	0.13
293.186	0.08
293.399	0.04
293.612	0.1
293.826	0.07
294.039	0.05
294.252	0.08
294.465	0.06
294.678	0.06
294.891	0.08
295.104	0.02
295.317	0.04
295.53	0.09
295.743	0.07
295.956	0.01
296.169	0.13
296.382	0.12
296.595	0.05
296.808	0.01
297.021	0.12
297.234	0.06
297.447	0.02
297.66	0.05
297.873	0.12
298.086	0.09
298.299	0.03
298.511	0.01
298.724	0.07
298.937	0.06
299.15	0.02
299.363	0.04
299.575	0.09
299.788	0.06
300.001	0.08
300.213	0.05
300.426	-0.02
300.639	0
300.852	0.03
301.064	0.06
301.277	0.12
301.489	0.12
301.702	0.13
301.915	0.06
302.127	0.07
302.34	0.07
302.552	0.07
302.765	0.04
302.977	0.05
303.19	0.03
303.402	0.04
303.615	0.05
303.827	0
304.04	0.04
304.252	0.07
304.464	0.06
304.677	0.18
304.889	0.04
305.102	0.06
305.314	0.01
305.526	0.11
305.739	0.07
305.951	0.03
306.163	0.06
306.375	0.11
306.588	0.02
306.8	-0.01
307.012	0
307.224	0.03
307.436	0.06
307.649	-0.03
307.861	0.08
308.073	0.04
308.285	0.05
308.497	0.01
308.709	0.01
308.921	0.07
309.133	0.1
309.346	0.02
309.558	0.07
309.77	0.08
309.982	0.1
310.194	0.1
310.406	0.01
310.617	0.11
310.829	0.08
311.041	0.07
311.253	0.04
311.465	0.04
311.677	0.06
311.889	0.07
312.101	0.04
312.313	0.1
312.524	0.07
312.736	0.01
312.948	0.02
313.16	0.15
313.372	0.06
313.583	0.06
313.795	0.07
314.007	-0
314.218	0.09
314.43	0.06
314.642	0.04
314.853	0.01
315.065	0.07
315.277	0.08
315.488	0.05
315.7	0.06
315.912	0.06
316.123	0.05
316.335	0.03
316.546	0.15
316.758	0.08
316.969	0.03
317.181	0.03
317.392	0.08
317.604	0.1
317.815	0.01
318.026	0.05
318.238	0.04
318.449	0.03
318.661	-0.01
318.872	-0.01
319.083	0.04
319.295	0.06
319.506	0.01
319.717	0.05
319.929	0.04
320.14	0.05
320.351	0.05
320.562	0.03
320.774	0.06
320.985	0.06
321.196	0.02
321.407	0.01
321.618	0.11
321.829	0.06
322.041	0.09
322.252	0.02
322.463	0.08
322.674	0.1
322.885	0.04
323.096	0.05
323.307	0.04
323.518	0.09
323.729	0.03
323.94	0.05
324.151	0.02
324.362	0.09
324.573	0.05
324.784	0.02
324.995	0.09
325.206	0.08
325.417	0.09
325.628	0.04
325.838	0.07
326.049	0.06
326.26	0.05
326.471	0.03
326.682	0.08
326.892	0.04
327.103	-0.01
327.314	-0
327.525	0.06
327.735	0.04
327.946	0.04
328.157	0.04
328.368	0.06
328.578	0.04
328.789	0.09
328.999	0.03
329.21	0.04
329.421	0.07
329.631	-0
329.842	0.02
330.052	0.09
330.263	0.08
330.473	0.09
330.684	0.09
330.894	0.03
331.105	0.06
331.315	0.07
331.526	-0.02
331.736	0.11
331.947	0.04
332.157	0.05
332.367	0.04
332.578	0.08
332.788	0.1
332.999	0.09
333.209	0.04
333.419	0
333.629	0.07
333.84	0.11
334.05	0.04
334.26	0.11
334.47	0.08
334.681	0.11
334.891	0.04
335.101	0.08
335.311	0.08
335.521	0.03
335.732	0
335.942	0.12
336.152	0.06
336.362	0.07
336.572	0.09
336.782	0.1
336.992	0.01
337.202	0.03
337.412	0.03
337.622	0.07
337.832	0.03
338.042	0.09
338.252	-0.01
338.462	0
338.672	0.07
338.882	0.05
339.092	0.05
339.302	0.13
339.511	0.09
339.721	0.02
339.931	0.04
340.141	0.09
340.351	0.1
340.561	0.05
340.77	0.07
340.98	0.01
341.19	0.1
341.4	-0.01
341.609	0.02
341.819	0.05
342.029	-0
342.238	0.06
342.448	0.08
342.658	0.09
342.867	0.05
343.077	0.03
343.286	0.06
343.496	0.07
343.706	0.1
343.915	0
344.125	0.09
344.334	0.08
344.544	0.04
344.753	0.08
344.963	-0.02
345.172	0.02
345.381	-0.01
345.591	0.01
345.8	0.1
346.01	0.09
346.219	0.1
346.428	-0.08
346.638	0.03
346.847	0.03
347.056	0.14
347.266	0.06
347.475	0.03
347.684	0.05
347.893	0.09
348.103	0.02
348.312	0.05
348.521	0.08
348.73	0.07
348.94	0.08
349.149	0.03
349.358	0.04
349.567	-0.05
349.776	-0.03
349.985	0.04
350.194	0.06
350.403	0.08
350.612	0
350.821	0.06
351.03	0.06
351.239	0.02
351.448	0.08
351.657	0.03
351.866	0.13
352.075	0.04
352.284	0.08
352.493	-0.03
352.702	0.09
352.911	0.09
353.12	0.07
353.329	0.03
353.538	0.06
353.746	0.07
353.955	0.01
354.164	0.06
354.373	0.04
354.582	0.09
354.79	0.08
354.999	0.06
355.208	0.06
355.416	0.07
355.625	0.05
355.834	0.04
356.042	0.07
356.251	0.02
356.46	0.03
356.668	0.06
356.877	0.13
357.085	0.11
357.294	-0.06
357.503	0.11
357.711	0.03
357.92	0.16
358.128	0.1
358.337	0.03
358.545	0.04
358.754	0.03
358.962	0.1
359.17	0.04
359.379	0.06
359.587	0.07
359.796	0.03
360.004	0.08
360.212	0.08
360.421	0.11
360.629	0.06
360.837	0.05
361.046	0.06
361.254	0.15
361.462	0.06
361.67	0.02
361.879	0.1
362.087	0.09
362.295	0.04
362.503	0.05
362.711	-0.01
362.92	0.01
363.128	0.04
363.336	0.02
363.544	0.01
363.752	0.04
363.96	0.02
364.168	0.03
364.376	0.03
364.584	0.05
364.792	0.06
365	0.11
365.208	0.08
365.416	0.05
365.624	0.1
365.832	0.03
366.04	0.15
366.248	0.08
366.456	0.09
366.664	0.06
366.872	0.04
367.079	0.05
367.287	0.03
367.495	0.06
367.703	0.05
367.911	0.05
368.118	0.03
368.326	0.04
368.534	-0
368.742	0.07
368.949	0.01
369.157	-0.01
369.365	0.07
369.572	0.02
369.78	0.01
369.988	0.08
370.195	0.07
370.403	0.08
370.61	0.01
370.818	0.06
371.026	0.07
371.233	0.02
371.441	0.04
371.648	0.03
371.856	0.09
372.063	0.08
372.271	0.06
372.478	0.04
372.685	0.04
372.893	0.1
373.1	0.06
373.308	0.01
373.515	0.06
373.722	0.06
373.93	-0
374.137	0.07
374.344	0.14
374.552	0.05
374.759	0.05
374.966	0.03
375.173	0.02
375.381	0.12
375.588	0.03
375.795	-0.05
376.002	0.03
376.209	-0.01
376.417	0.06
376.624	0.03
376.831	0.07
377.038	0.02
377.245	-0.01
377.452	0.04
377.659	0.07
377.866	0.02
378.073	0.05
378.28	0.09
378.487	0.1
378.694	0.08
378.901	0.06
379.108	0.04
379.315	0.08
379.522	0.13
379.729	-0.01
379.936	0.02
380.143	0.03
380.35	0.02
380.557	0.03
380.763	0.06
380.97	0.04
381.177	0.04
381.384	0.09
381.591	0.02
381.797	0.08
382.004	0.08
382.211	0.08
382.418	0.03
382.624	0.06
382.831	0.08
383.038	0.02
383.244	0.06
383.451	0.03
383.658	0.09
383.864	0.04
384.071	0.02
384.277	0.1
384.484	0.04
384.69	0.12
384.897	0.01
385.103	0.03
385.31	0.02
385.516	0.06
385.723	-0.01
385.929	0.07
386.136	0.01
386.342	0.06
386.549	0.06
386.755	0.12
386.961	0.04
387.168	0.04
387.374	0.05
387.58	0.07
387.787	0.07
387.993	0.02
388.199	0.01
388.406	0.02
388.612	0.03
388.818	0.03
389.024	0.02
389.231	0.05
389.437	0.09
389.643	0.09
389.849	0.04
390.055	0.04
390.261	0.09
390.467	0.05
390.674	0.01
390.88	0.04
391.086	0.05
391.292	0.01
391.498	0.09
391.704	0.09
391.91	0.03
392.116	0.06
392.322	-0.02
392.528	0.07
392.734	0.06
392.94	0.05
393.146	0.01
393.352	0.04
393.557	0.03
393.763	0.06
393.969	0.1
394.175	0.01
394.381	0.07
394.587	0.06
394.792	0.01
394.998	0.07
395.204	0.09
395.41	0.01
395.615	0.06
395.821	0.04
396.027	0.03
396.233	0.07
396.438	0.02
396.644	0.09
396.85	0.08
397.055	0.04
397.261	0.05
397.466	0.14
397.672	0.04
397.878	0.07
398.083	0.08
398.289	-0
398.494	0.02
398.7	0.08
398.905	0
399.111	0.14
399.316	-0
399.522	0.05
399.727	0.06
399.932	0.01
400.138	0.03
400.343	0.09
400.549	0.07
400.754	0.05
400.959	0.05
401.165	0.05
401.37	0.01
401.575	0.12
401.78	0.05
401.986	-0
402.191	0.05
402.396	0.02
402.601	0.04
402.807	0.08
403.012	0.03
403.217	0.07
403.422	0.03
403.627	0.06
403.832	0.04
404.037	0.07
404.243	0.06
404.448	0
404.653	-0.02
404.858	0.03
405.063	0.08
405.268	0.03
405.473	0.03
405.678	0.01
405.883	0.16
406.088	0.08
406.293	0.01
406.498	0.03
406.703	0.1
406.907	0.04
407.112	-0.02
407.317	0.05
407.522	0.11
407.727	-0.03
407.932	0.08
408.136	0.12
408.341	0.02
408.546	0.04
408.751	0.06
408.956	0.02
409.16	0.06
409.365	0.06
409.57	0.07
409.774	0.05
409.979	0.1
410.184	0.06
410.388	0.01
410.593	0.03
410.798	0.02
411.002	0.01
411.207	0.1
411.411	0.05
411.616	0.02
411.82	0.04
412.025	0.07
412.229	-0.01
412.434	0.1
412.638	0.07
412.843	0.03
413.047	0.01
413.252	0.04
413.456	0.02
413.66	0.09
413.865	-0.02
414.069	0.1
414.273	0.01
414.478	0.03
414.682	0.05
414.886	0.04
415.091	-0.03
415.295	-0.06
415.499	0.06
415.703	0.03
415.908	0.07
416.112	-0.03
416.316	0.1
416.52	-0.01
416.724	-0.02
416.929	0.03
417.133	0.11
417.337	0.05
417.541	0.02
417.745	0.03
417.949	0.08
418.153	0.02
418.357	-0.03
418.561	0.11
418.765	0.02
418.969	0.12
419.173	0.1
419.377	0.03
419.581	0.11
419.785	0.03
419.989	-0.03
420.193	0.02
420.397	-0.03
420.601	0.07
420.804	0.07
421.008	0.06
421.212	0.02
421.416	0.08
421.62	0.01
421.823	0.06
422.027	0.14
422.231	0.08
422.435	-0
422.638	0.06
422.842	0.01
423.046	0.02
423.249	0.09
423.453	0.14
423.657	0.05
423.86	0.11
424.064	0.04
424.268	0.11
424.471	0.02
424.675	0.09
424.878	0.09
425.082	0.03
425.285	0.09
425.489	0.05
425.692	0.08
425.896	0.03
426.099	0.08
426.303	0.01
426.506	-0.03
426.71	0.1
426.913	0.06
427.116	0.1
427.32	0.05
427.523	0.08
427.726	0.12
427.93	0.02
428.133	0.03
428.336	-0.02
428.54	-0.01
428.743	0.09
428.946	0.09
429.149	0.01
429.353	0.05
429.556	0.08
429.759	0.04
429.962	-0.01
430.165	0.06
430.368	0.07
430.571	0.03
430.775	0.05
430.978	0.08
431.181	0.06
431.384	0.07
431.587	0.04
431.79	0.05
431.993	0.07
432.196	0.07
432.399	0.05
432.602	0.1
432.805	0.02
433.008	0.01
433.211	0.01
433.414	0.05
433.616	0.06
433.819	0.02
434.022	-0.01
434.225	0.1
434.428	0.06
434.631	0.13
434.833	0.04
435.036	0.03
435.239	0.05
435.442	0.05
435.645	0.06
435.847	0.07
436.05	0.06
436.253	0.05
436.455	0.01
436.658	0.05
436.861	0.12
437.063	0.05
437.266	0.04
437.468	0.08
437.671	0.19
437.874	0.03
438.076	-0.05
438.279	-0.05
438.481	0.03
438.684	0.02
438.886	0.12
439.089	-0.05
439.291	0.06
439.494	0.06
439.696	0.03
439.899	0.04
440.101	0.08
440.303	-0.05
440.506	0.15
440.708	0.02
440.91	0.11
441.113	0
441.315	0.08
441.517	0.02
441.72	0.07
441.922	0.03
442.124	0.03
442.326	0.04
442.529	0.14
442.731	0.01
442.933	0.15
443.135	0.02
443.337	-0.03
443.539	0.01
443.742	-0.01
443.944	0.07
444.146	0.03
444.348	0.02
444.55	-0.05
444.752	0.06
444.954	0.01
445.156	0.04
445.358	0.04
445.56	0.09
445.762	0.08
445.964	0.03
446.166	0.06
446.368	0
446.57	0.07
446.772	0.11
446.974	0.05
447.175	0.05
447.377	-0
447.579	-0
447.781	-0.02
447.983	0.15
448.184	0.02
448.386	0.06
448.588	-0.04
448.79	0.04
448.991	-0.03
449.193	-0.02
449.395	0.01
449.597	0.05
449.798	0.07
450	0.05
450.202	0.06
450.403	0.07
450.605	0.07
450.806	0.1
451.008	-0.03
451.21	0.03
451.411	0.08
451.613	0.05
451.814	0.08
452.016	0.04
452.217	0.05
452.419	0.07
452.62	0.05
452.821	0.13
453.023	0.08
453.224	0.12
453.426	0.03
453.627	0.06
453.828	0.07
454.03	0.04
454.231	0.09
454.432	-0
454.634	0.1
454.835	0.04
455.036	-0.02
455.238	0.1
455.439	0.13
455.64	0
455.841	-0.03
456.042	0.12
456.244	0.12
456.445	-0
456.646	-0.01
456.847	-0.03
457.048	0.08
457.249	0.1
457.45	0.23
457.651	0.02
457.852	0.14
458.054	0.05
458.255	0.03
458.456	0.09
458.657	0.06
458.858	0.02
459.058	0.06
459.259	0.1
459.46	0.07
459.661	0.04
459.862	0.12
460.063	0.05
460.264	0.1
460.465	-0.02
460.666	0.15
460.866	0.07
461.067	0.05
461.268	0.06
461.469	0.06
461.67	0.05
461.87	0.01
462.071	0.03
462.272	-0.01
462.473	0.05
462.673	0.08
462.874	0.06
463.075	0.06
463.275	-0.03
463.476	0.08
463.676	0.04
463.877	0.08
464.078	0.03
464.278	0.11
464.479	0.04
464.679	0.02
464.88	0.04
465.08	0.12
465.281	-0
465.481	0.02
465.682	0.02
465.882	0.05
466.083	0.07
466.283	0.02
466.483	0.02
466.684	0.02
466.884	-0
467.085	0.03
467.285	0.07
467.485	0.06
467.686	0.02
467.886	0
468.086	0.01
468.286	0.02
468.487	0.07
468.687	0.03
468.887	-0.01
469.087	0.09
469.287	0.04
469.488	-0.02
469.688	0.05
469.888	0.09
470.088	0.07
470.288	0.08
470.488	0.07
470.688	0.01
470.888	0.05
471.088	-0
471.288	0.06
471.488	0.05
471.688	0.05
471.888	0.04
472.088	0.08
472.288	0.07
472.488	0.02
472.688	0.02
472.888	0.08
473.088	0.03
473.288	0.05
473.488	0.03
473.688	0.11
473.887	0.04
474.087	-0.03
474.287	0.03
474.487	0.03
474.687	0.07
474.886	-0.01
475.086	0.03
475.286	0.04
475.486	0.01
475.685	0.06
475.885	0.03
476.085	0.03
476.284	0.04
476.484	-0.01
476.684	0.06
476.883	0.09
477.083	0.03
477.282	-0.03
477.482	0.11
477.681	0.1
477.881	0.06
478.08	-0.02
478.28	0.02
478.479	0.05
478.679	0.11
478.878	-0.01
479.078	0.01
479.277	0.04
479.477	0.04
479.676	0.06
479.875	0.05
480.075	-0.01
480.274	0.03
480.473	0.07
480.673	-0
480.872	0.07
481.071	0.04
481.271	0.05
481.47	0.01
481.669	-0
481.868	0
482.067	0.01
482.267	-0
482.466	0
482.665	-0.01
482.864	-0.01
483.063	-0.03
483.262	0.07
483.461	0.06
483.661	0.04
483.86	0.03
484.059	0.05
484.258	0
484.457	0.02
484.656	0.02
484.855	0.08
485.054	-0.01
485.253	0.02
485.452	0.01
485.651	0.01
485.849	0.06
486.048	0
486.247	-0.01
486.446	0.02
486.645	-0.01
486.844	0.02
487.043	0
487.241	0.04
487.44	0.01
487.639	0.01
487.838	0.05
488.037	0.03
488.235	0.08
488.434	0.04
488.633	0.02
488.831	0.04
489.03	0.07
489.229	0.05
489.427	0.01
489.626	0.05
489.825	0.05
490.023	0.03
490.222	-0.01
490.42	0.05
490.619	0.08
490.817	0.04
491.016	0.02
491.214	0.06
491.413	0.01
491.611	0.02
491.81	0.02
492.008	0.03
492.207	0.03
492.405	0.03
492.604	-0.02
492.802	0
493	0.02
493.199	0.02
493.397	0.02
493.595	0
493.794	0.01
493.992	0.08
494.19	0
494.388	0.05
494.587	0.03
494.785	0.03
494.983	-0.01
495.181	0.04
495.379	0.04
495.578	0.03
495.776	0.05
495.974	0.04
496.172	0.04
496.37	0.02
496.568	-0.03
496.766	0.01
496.964	0.05
497.162	0.01
497.36	-0.02
497.558	0.01
497.756	0.05
497.954	0.03
498.152	0
498.35	0.02
498.548	0
498.746	0.04
498.944	-0
499.142	0.01
499.34	-0
499.538	0.02
499.736	0
499.933	0.04
500.131	0.04
500.329	0.04
500.527	0.06
500.725	0.04
500.922	0.03
501.12	0.01
501.318	0.03
501.516	0.02
501.713	0.03
501.911	0
502.109	-0.01
502.306	0.05
502.504	0.01
502.701	0.01
502.899	0.03
503.097	0.05
503.294	0.01
503.492	0.01
503.689	0.04
503.887	0.04
504.084	0.08
504.282	0.02
504.479	-0
504.677	0.05
504.874	0.01
505.072	0.04
505.269	-0
505.466	0.06
505.664	0.03
505.861	-0.01
506.059	-0.01
506.256	0.06
506.453	0.02
506.651	0.06
506.848	0.03
507.045	0.02
507.242	0.02
507.44	0.02
507.637	0.02
507.834	0.01
508.031	0.04
508.229	-0
508.426	0.02
508.623	0.05
508.82	0.01
509.017	-0.02
509.214	0.02
509.411	0.01
509.608	0.01
509.805	0.02
510.003	-0.01
510.2	-0.01
510.397	0.05
510.594	0
510.791	0
510.988	0.02
511.184	0.02
511.381	0.03
511.578	0.02
511.775	0.06
511.972	-0.01
512.169	0.03
512.366	0.02
512.563	0.01
512.76	0.01
512.956	0.02
513.153	0.01
513.35	0.03
513.547	-0
513.744	-0.01
513.94	-0.03
514.137	0.04
514.334	0.04
514.53	0.02
514.727	0.04
514.924	0.09
515.12	0.01
515.317	0.01
515.514	0.02
515.71	-0.01
515.907	0.03
516.103	0.01
516.3	0.04
516.497	0.04
516.693	0.06
516.89	0.03
517.086	0.01
517.283	0.03
517.479	0.06
517.676	0.01
517.872	0.01
518.068	0.01
518.265	0.01
518.461	0.01
518.658	-0.02
518.854	0.02
519.05	0.01
519.247	-0.02
519.443	0.04
519.639	0.02
519.836	0.02
520.032	0.02
520.228	0.02
520.424	0.07
520.621	0.03
520.817	-0
521.013	0.03
521.209	0.04
521.405	0.05
521.601	0.03
521.798	0.02
521.994	0.07
522.19	0.02
522.386	-0.02
522.582	0.02
522.778	0.02
522.974	0.02
523.17	0.01
523.366	0.01
523.562	0.04
523.758	0
523.954	0
524.15	0.03
524.346	0.04
524.542	0.04
524.738	-0
524.934	0.03
525.129	-0.03
525.325	0.04
525.521	-0
525.717	0.03
525.913	0.03
526.109	0.02
526.304	0.02
526.5	0.03
526.696	0.07
526.892	0.02
527.087	0.02
527.283	0.01
527.479	0.04
527.674	-0
527.87	0.02
528.066	-0
528.261	0.05
528.457	0.03
528.653	0.02
528.848	0.01
529.044	0.04
529.239	0.01
529.435	0.05
529.63	0.05
529.826	0.07
530.021	0.02
530.217	0.05
530.412	0.01
530.608	0.02
530.803	0.02
530.999	0.02
531.194	-0.03
531.389	0.04
531.585	-0.01
531.78	0.01
531.975	0.02
532.171	0.05
532.366	0.01
532.561	-0
532.757	-0
532.952	0.01
533.147	0.06
533.342	0.01
533.538	0
533.733	0.04
533.928	0.03
534.123	0.01
534.318	-0.01
534.513	0.01
534.709	0.01
534.904	0.02
535.099	0.01
535.294	0.03
535.489	0.05
535.684	-0
535.879	0.01
536.074	0.03
536.269	0.01
536.464	0.04
536.659	0.02
536.854	0.01
537.049	0.04
537.244	0.04
537.439	0.02
537.634	0.07
537.828	0.02
538.023	0.02
538.218	-0
538.413	0.01
538.608	-0.03
538.803	0.03
538.997	0
539.192	0.02
539.387	0.05
539.582	0.04
539.776	0.03
539.971	0.03
540.166	0.02
540.36	-0.01
540.555	0.04
540.75	0.01
540.944	0.03
541.139	-0.01
541.334	0.04
541.528	0.04
541.723	0.02
541.917	0.01
542.112	-0.01
542.306	0.02
542.501	0.03
542.695	0.02
542.89	0.02
543.084	0.05
543.279	0.03
543.473	-0
543.668	0.03
543.862	0.05
544.056	0.04
544.251	0.03
544.445	0.03
544.64	0.01
544.834	0.01
545.028	0.01
545.222	0.04
545.417	0.05
545.611	0.03
545.805	0.04
546	0.02
546.194	0.02
546.388	0.01
546.582	0.05
546.776	0.02
546.97	0.03
547.165	0.05
547.359	0.06
547.553	0
547.747	0.01
547.941	0.02
548.135	0.03
548.329	0.04
548.523	0.06
548.717	0.01
548.911	0.02
549.105	-0
549.299	0.04
549.493	0.04
549.687	0.03
549.881	0.03
550.075	0.04
550.269	0.02
550.463	0.05
550.657	0
550.85	0.01
551.044	0.01
551.238	0.04
551.432	0.01
551.626	-0.01
551.82	0.04
552.013	0.02
552.207	0.04
552.401	0.05
552.594	0.03
552.788	0.02
552.982	0.02
553.176	0.02
553.369	0.04
553.563	0.03
553.756	-0.02
553.95	0.02
554.144	0.03
554.337	0.05
554.531	0.03
554.724	0.04
554.918	0.01
555.111	0.03
555.305	0.05
555.498	0.07
555.692	0.05
555.885	0.02
556.079	0.03
556.272	0.03
556.466	0.05
556.659	0.03
556.852	0.03
557.046	0.03
557.239	0.04
557.432	-0
557.626	0.01
557.819	0.04
558.012	0.05
558.206	0.06
558.399	0.03
558.592	0.02
558.785	0.02
558.979	0.04
559.172	0.05
559.365	0.04
559.558	0.04
559.751	0.04
559.944	0.07
560.138	0.03
560.331	0.03
560.524	0.03
560.717	0.03
560.91	0.02
561.103	0.04
561.296	0.05
561.489	0.03
561.682	0.02
561.875	0.07
562.068	0.04
562.261	0.04
562.454	0.07
562.647	0.04
562.84	0.06
563.032	0.01
563.225	0.04
563.418	0.04
563.611	0.02
563.804	0.01
563.997	0.03
564.19	0.01
564.382	-0.05
564.575	0.04
564.768	0.04
564.961	0.05
565.153	0.01
565.346	0.05
565.539	0.06
565.731	0.04
565.924	0.05
566.117	0.04
566.309	0.02
566.502	0.02
566.695	0.04
566.887	0.07
567.08	0.02
567.272	0.04
567.465	0.03
567.657	0.04
567.85	0.04
568.042	0.05
568.235	0.05
568.427	0.04
568.62	0.04
568.812	0.03
569.005	0.04
569.197	0.01
569.389	0.03
569.582	0.03
569.774	0.05
569.966	0.01
570.159	-0.01
570.351	0.05
570.543	0.03
570.736	0.03
570.928	0.02
571.12	0.03
571.312	0.02
571.505	0.01
571.697	0.05
571.889	-0
572.081	0.03
572.273	0.02
572.465	0.07
572.658	0.03
572.85	0.04
573.042	0.01
573.234	0.03
573.426	0.08
573.618	0.02
573.81	0.06
574.002	0.07
574.194	0.08
574.386	0.01
574.578	-0.03
574.77	0.03
574.962	0.03
575.154	0.02
575.346	0.03
575.538	0.04
575.729	0.03
575.921	0.02
576.113	0.02
576.305	0.06
576.497	0.06
576.689	0.03
576.88	0.01
577.072	0.05
577.264	0.04
577.456	0.04
577.647	-0.03
577.839	0.03
578.031	0.08
578.223	0.01
578.414	0.02
578.606	0.04
578.798	0.04
578.989	0.02
579.181	0.04
579.372	0.05
579.564	0.02
579.755	0.05
579.947	0.06
580.139	0.07
580.33	-0.01
580.522	0.03
580.713	-0.01
580.905	0.02
581.096	0.07
581.287	0.06
581.479	0.05
581.67	0.05
581.862	0.06
582.053	0.02
582.244	0.01
582.436	0.04
582.627	0.05
582.818	0.03
583.01	0.03
583.201	0.08
583.392	0.08
583.583	0.03
583.775	0.04
583.966	0.05
584.157	0.06
584.348	0.05
584.54	0.02
584.731	0.09
584.922	0.04
585.113	0.02
585.304	0.05
585.495	0.06
585.686	0.06
585.877	0.06
586.068	0.07
586.259	0.07
586.45	0.07
586.641	0.05
586.832	-0.01
587.023	0.04
587.214	0.03
587.405	0.07
587.596	0.03
587.787	0.1
587.978	0.07
588.169	0.03
588.36	0.04
588.551	0.07
588.742	0.04
588.932	0.07
589.123	0.06
589.314	0.08
589.505	0.07
589.696	0.08
589.886	0.05
590.077	0.01
590.268	0.06
590.458	0.03
590.649	0.02
590.84	0.09
591.03	0.06
591.221	0.02
591.412	0.03
591.602	0.09
591.793	0.09
591.984	0.06
592.174	0.07
592.365	0.15
592.555	0.04
592.746	0.08
592.936	0.09
593.127	0.07
593.317	0.12
593.508	0.07
593.698	0.07
593.889	0.09
594.079	0.08
594.269	0.07
594.46	0.06
594.65	0.09
594.84	0.07
595.031	0.07
595.221	0.07
595.411	0.02
595.602	0.09
595.792	0.08
595.982	0.04
596.172	0.14
596.363	0.09
596.553	0.09
596.743	0.08
596.933	0.08
597.123	0.13
597.314	0.06
597.504	0.05
597.694	0.13
597.884	0.11
598.074	0.1
598.264	0.06
598.454	0.12
598.644	0.11
598.834	0.1
599.024	0.07
599.214	0.08
599.404	0.15
599.594	0.1
599.784	0.08
599.974	0.18
600.164	0.17
600.354	0.07
600.544	0.06
600.734	0.14
600.924	0.16
601.114	0.12
601.303	0.11
601.493	0.13
601.683	0.12
601.873	0.14
602.063	0.1
602.252	0.14
602.442	0.07
602.632	0.13
602.821	0.12
603.011	0.18
603.201	0.11
603.39	0.1
603.58	0.14
603.77	0.16
603.959	0.17
604.149	0.15
604.339	0.14
604.528	0.21
604.718	0.19
604.907	0.16
605.097	0.15
605.286	0.15
605.476	0.19
605.665	0.22
605.855	0.16
606.044	0.25
606.234	0.18
606.423	0.18
606.612	0.17
606.802	0.21
606.991	0.22
607.181	0.22
607.37	0.14
607.559	0.2
607.749	0.17
607.938	0.23
608.127	0.22
608.316	0.19
608.506	0.21
608.695	0.23
608.884	0.2
609.073	0.21
609.263	0.27
609.452	0.29
609.641	0.27
609.83	0.21
610.019	0.26
610.208	0.21
610.397	0.24
610.586	0.31
610.775	0.26
610.965	0.28
611.154	0.27
611.343	0.3
611.532	0.28
611.721	0.31
611.91	0.29
612.099	0.33
612.287	0.3
612.476	0.29
612.665	0.37
612.854	0.31
613.043	0.38
613.232	0.33
613.421	0.32
613.61	0.36
613.798	0.35
613.987	0.4
614.176	0.41
614.365	0.39
614.554	0.43
614.742	0.46
614.931	0.35
615.12	0.46
615.309	0.43
615.497	0.46
615.686	0.41
615.875	0.48
616.063	0.44
616.252	0.45
616.44	0.49
616.629	0.5
616.818	0.51
617.006	0.49
617.195	0.49
617.383	0.52
617.572	0.53
617.76	0.57
617.949	0.57
618.137	0.62
618.326	0.61
618.514	0.57
618.703	0.59
618.891	0.66
619.079	0.59
619.268	0.7
619.456	0.58
619.644	0.7
619.833	0.65
620.021	0.7
620.209	0.63
620.398	0.75
620.586	0.72
620.774	0.78
620.962	0.76
621.151	0.85
621.339	0.81
621.527	0.81
621.715	0.8
621.903	0.84
622.092	0.81
622.28	0.9
622.468	0.86
622.656	0.87
622.844	0.96
623.032	0.92
623.22	0.89
623.408	1.02
623.596	0.97
623.784	1.05
623.972	0.98
624.16	1.04
624.348	1.08
624.536	1.09
624.724	1.09
624.912	1.16
625.1	1.19
625.288	1.16
625.476	1.18
625.664	1.32
625.851	1.2
626.039	1.3
626.227	1.33
626.415	1.34
626.603	1.26
626.79	1.4
626.978	1.38
627.166	1.45
627.354	1.41
627.541	1.45
627.729	1.36
627.917	1.56
628.104	1.6
628.292	1.56
628.48	1.63
628.667	1.62
628.855	1.68
629.042	1.75
629.23	1.69
629.418	1.79
629.605	1.81
629.793	1.79
629.98	1.81
630.168	1.89
630.355	1.92
630.543	1.98
630.73	1.97
630.917	2.02
631.105	2.12
631.292	2.12
631.48	2.17
631.667	2.24
631.854	2.23
632.042	2.31
632.229	2.27
632.416	2.31
632.604	2.4
632.791	2.35
632.978	2.46
633.165	2.46
633.353	2.59
633.54	2.62
633.727	2.61
633.914	2.63
634.101	2.59
634.289	2.81
634.476	2.74
634.663	2.78
634.85	2.82
635.037	2.89
635.224	2.93
635.411	3.02
635.598	3.01
635.785	3.1
635.972	3.16
636.159	3.21
636.346	3.27
636.533	3.28
636.72	3.38
636.907	3.43
637.094	3.44
637.281	3.39
637.468	3.61
637.655	3.59
637.842	3.7
638.029	3.71
638.215	3.79
638.402	3.9
638.589	3.9
638.776	3.98
638.963	4.05
639.149	4.17
639.336	4.26
639.523	4.22
639.709	4.3
639.896	4.37
640.083	4.38
640.27	4.52
640.456	4.61
640.643	4.64
640.829	4.6
641.016	4.73
641.203	4.74
641.389	4.93
641.576	4.95
641.762	5.05
641.949	5.14
642.135	5.26
642.322	5.36
642.508	5.36
642.695	5.59
642.881	5.61
643.068	5.63
643.254	5.82
643.441	5.92
643.627	6.04
643.813	6
644	6.24
644.186	6.18
644.372	6.42
644.559	6.45
644.745	6.59
644.931	6.64
645.118	6.85
645.304	6.93
645.49	7.08
645.676	7.18
645.862	7.27
646.049	7.46
646.235	7.57
646.421	7.77
646.607	7.96
646.793	7.94
646.979	7.95
647.165	8.29
647.352	8.35
647.538	8.45
647.724	8.64
647.91	8.72
648.096	8.94
648.282	9.19
648.468	9.26
648.654	9.38
648.84	9.55
649.026	9.73
649.212	9.74
649.397	9.99
649.583	10.21
649.769	10.4
649.955	10.45
650.141	10.8
650.327	10.68
650.513	11.02
650.698	11.23
650.884	11.2
651.07	11.58
651.256	11.63
651.442	11.8
651.627	11.81
651.813	12.36
651.999	12.21
652.184	12.49
652.37	12.71
652.556	12.93
652.741	13.06
652.927	13.04
653.113	13.46
653.298	13.54
653.484	13.83
653.669	13.99
653.855	14.1
654.04	14.37
654.226	14.41
654.412	14.6
654.597	14.62
654.782	14.98
654.968	15.06
655.153	15.26
655.339	15.52
655.524	15.54
655.71	15.79
655.895	16.02
656.08	16.23
656.266	16.45
656.451	16.15
656.636	16.39
656.822	16.64
657.007	16.85
657.192	17.02
657.378	17.12
657.563	16.98
657.748	17.27
657.933	17.4
658.118	17.11
658.304	17.61
658.489	17.79
658.674	17.58
658.859	17.71
659.044	17.59
659.229	17.61
659.414	17.84
659.599	17.66
659.785	17.53
659.97	17.48
660.155	17.39
660.34	17.5
660.525	17.06
660.71	16.89
660.895	16.85
661.08	16.78
661.264	16.35
661.449	16.19
661.634	15.85
661.819	15.81
662.004	15.3
662.189	15.25
662.374	15.04
662.559	14.48
662.743	14.08
662.928	13.9
663.113	13.44
663.298	13.19
663.483	12.96
663.667	12.56
663.852	12.18
664.037	11.82
664.221	11.64
664.406	11.23
664.591	10.87
664.775	10.56
664.96	10.12
665.145	9.69
665.329	9.53
665.514	9.27
665.698	8.77
665.883	8.5
666.068	8.39
666.252	8.05
666.437	7.75
666.621	7.44
666.806	7.21
666.99	6.88
667.174	6.68
667.359	6.45
667.543	6.24
667.728	6.05
667.912	5.73
668.096	5.53
668.281	5.38
668.465	5.19
668.649	5.05
668.834	4.67
669.018	4.73
669.202	4.55
669.387	4.36
669.571	4.29
669.755	4.04
669.939	3.93
670.124	3.77
670.308	3.65
670.492	3.61
670.676	3.45
670.86	3.29
671.044	3.12
671.228	3.14
671.413	2.97
671.597	2.85
671.781	2.79
671.965	2.79
672.149	2.63
672.333	2.56
672.517	2.45
672.701	2.43
672.885	2.35
673.069	2.15
673.253	2.2
673.437	2.08
673.621	1.98
673.804	1.97
673.988	1.97
674.172	1.85
674.356	1.72
674.54	1.73
674.724	1.74
674.908	1.58
675.091	1.65
675.275	1.53
675.459	1.5
675.643	1.44
675.826	1.41
676.01	1.28
676.194	1.31
676.377	1.26
676.561	1.25
676.745	1.18
676.928	1.16
677.112	1.15
677.296	1.09
677.479	0.97
677.663	0.98
677.846	1.06
678.03	0.89
678.213	0.84
678.397	0.93
678.58	0.87
678.764	0.8
678.947	0.78
679.131	0.72
679.314	0.86
679.498	0.73
679.681	0.78
679.865	0.74
680.048	0.68
680.231	0.63
680.415	0.62
680.598	0.61
680.781	0.6
680.965	0.59
681.148	0.58
681.331	0.49
681.514	0.56
681.698	0.49
681.881	0.53
682.064	0.49
682.247	0.48
682.43	0.42
682.614	0.47
682.797	0.51
682.98	0.51
683.163	0.44
683.346	0.45
683.529	0.37
683.712	0.38
683.895	0.45
684.078	0.37
684.261	0.34
684.444	0.39
684.627	0.37
684.81	0.35
684.993	0.35
685.176	0.37
685.359	0.32
685.542	0.31
685.725	0.37
685.908	0.33
686.091	0.3
686.274	0.39
686.457	0.33
686.639	0.26
686.822	0.32
687.005	0.26
687.188	0.33
687.371	0.34
687.553	0.33
687.736	0.33
687.919	0.28
688.102	0.27
688.284	0.28
688.467	0.24
688.65	0.25
688.832	0.22
689.015	0.29
689.197	0.17
689.38	0.35
689.563	0.34
689.745	0.22
689.928	0.17
690.11	0.18
690.293	0.22
690.475	0.19
690.658	0.28
690.84	0.22
691.023	0.21
691.205	0.16
691.388	0.19
691.57	0.27
691.752	0.23
691.935	0.14
692.117	0.17
692.3	0.2
692.482	0.19
692.664	0.12
692.847	0.2
693.029	0.23
693.211	0.21
693.393	0.16
693.576	0.19
693.758	0.16
693.94	0.14
694.122	0.15
694.304	0.19
694.487	0.17
694.669	0.19
694.851	0.11
695.033	0.15
695.215	0.11
695.397	0.1
695.579	0.16
695.761	0.1
695.943	0.11
696.125	0.2
696.308	0.19
696.49	0.06
696.671	0.28
696.853	0.13
697.035	0.23
697.217	0.17
697.399	0.14
697.581	0.07
697.763	0.12
697.945	0.1
698.127	0.17
698.309	0.17
698.491	0.15
698.672	0.16
698.854	0.22
699.036	0.22
699.218	0.12
699.399	0.18
699.581	0.14
699.763	0.13
699.945	0.06
700.126	0.05
700.308	0.18
700.49	0.15
700.671	0.06
700.853	0.11
701.035	0.07
701.216	0.07
701.398	0.09
701.579	0.08
701.761	0.13
701.943	0.06
702.124	0.09
702.306	0.14
702.487	0.22
702.669	0.15
702.85	0.03
703.031	0.06
703.213	0.18
703.394	0.13
703.576	0.04
703.757	0.2
703.938	0.15
704.12	0.19
704.301	0.09
704.483	0.08
704.664	0.13
704.845	0.2
705.026	0.17
705.208	0.1
705.389	0.11
705.57	0.13
705.751	0.08
705.933	0.11
706.114	0.18
706.295	0.13
706.476	0.08
706.657	0.23
706.838	0.11
707.02	0.15
707.201	0.05
707.382	0.04
707.563	0.2
707.744	0.11
707.925	0.06
708.106	0.11
708.287	0.11
708.468	0.26
708.649	0.08
708.83	0.14
709.011	0.11
709.192	0.15
709.373	0.06
709.554	0.06
709.734	0.14
709.915	0.15
710.096	0.09
710.277	0.01
710.458	0.1
710.639	0.11
710.819	0.01
711	0.07
711.181	0.24
711.362	0.12
711.542	0.07
711.723	0.05
711.904	0.14
712.085	0.15
712.265	0.05
712.446	0.03
712.627	0.1
712.807	0.09
712.988	0.09
713.168	0.08
713.349	0.19
713.53	0.04
713.71	0.03
713.891	0.06
714.071	0.18
714.252	0.04
714.432	0.02
714.613	0.01
714.793	0.06
714.974	0.2
715.154	0.15
715.334	0.11
715.515	0.12
715.695	-0.01
715.876	0.11
716.056	0.07
716.236	0.14
716.417	0.07
716.597	0.03
716.777	0.21
716.957	0.08
717.138	0.09
717.318	0.07
717.498	0.02
717.678	0.16
717.859	0.1
718.039	0.01
718.219	0.07
718.399	0.12
718.579	0.07
718.759	0.02
718.939	0.13
719.12	0.08
719.3	0.06
719.48	-0.06
719.66	-0.01
719.84	0.19
720.02	0.09
720.2	0.01
720.38	0.06
720.56	0.21
720.74	0.03
720.92	0.09
721.1	0.08
721.279	0.15
721.459	0.07
721.639	0.02
721.819	0.08
721.999	-0
722.179	0.14
722.359	0
722.538	0.09
722.718	0.06
722.898	0.05
723.078	0.02
723.257	0.04
723.437	0.04
723.617	0.12
723.797	0.09
723.976	-0.01
724.156	0.14
724.336	0.15
724.515	0.21
724.695	0.03
724.874	0.02
725.054	0.21
725.234	0.05
725.413	0.14
725.593	0.13
725.772	0.06
725.952	0.1
726.131	0.06
726.311	0.11
726.49	0.07
726.67	-0
726.849	0.06
727.028	0.09
727.208	0.1
727.387	0.12
727.567	0.04
727.746	0.05
727.925	0
728.105	0.02
728.284	0.06
728.463	-0.15
728.643	0.13
728.822	-0.02
729.001	0.12
729.18	0.11
729.359	0.19
729.539	0.06
729.718	0.09
729.897	0.15
730.076	0.1
730.255	-0.07
730.434	0.16
730.614	0.15
730.793	0.15
730.972	-0.03
731.151	0.06
731.33	0.06
731.509	0.09
731.688	0.11
731.867	0.11
732.046	-0
732.225	0.29
732.404	0.07
732.583	0.04
732.762	0.19
732.941	0.12
733.12	0.17
733.298	0.05
733.477	0.14
733.656	0.01
733.835	0.04
734.014	0.16
734.193	0.07
734.371	0.15
734.55	0.1
734.729	0.03
734.908	0.1
735.086	0.18
735.265	0.13
735.444	-0.01
735.623	0.04
735.801	0.05
735.98	0.03
736.159	0.03
736.337	0.2
736.516	0.16
736.694	0.12
736.873	0.13
737.052	0.14
737.23	0.25
737.409	0.04
737.587	0.2
737.766	-0.07
737.944	0.07
738.123	0.19
738.301	0.18
738.479	0.19
738.658	0.12
738.836	-0
739.015	0.1
739.193	0.22
739.371	-0.06
739.55	0.06
739.728	0.06
739.906	0.17
740.085	0.24
740.263	0.07
740.441	-0.19
740.62	0.25
740.798	0.24
740.976	0.04
741.154	0.05
741.332	0.27
741.511	0.09
741.689	0.12
741.867	0.04
742.045	0.13
742.223	0.16
742.401	0.04
742.579	0.01
742.757	0.12
742.935	-0.04
743.114	0.03
743.292	0.03
743.47	0.05
743.648	0.13
743.826	-0.01
744.004	0.19
744.181	0.08
744.359	-0.02
744.537	0.06
744.715	0.11
744.893	0.1
745.071	0.16
745.249	0.06
745.427	0.15
745.605	0.19
745.782	0.11
745.96	0.19
746.138	0.13
746.316	0.23
746.493	0.04
746.671	0.16
746.849	0.06
747.027	0.27
747.204	-0.03
747.382	-0
747.56	-0.03
747.737	0.04
747.915	0.03
748.093	0.06
748.27	0.05
748.448	0.02
748.625	-0.02
748.803	-0.11
748.98	0.03
749.158	0.1
749.335	0.17
749.513	0.08
749.69	0.05
749.868	0.03
750.045	0.11
750.223	0.13
750.4	-0.09
750.578	0.3
750.755	0.11
750.932	0.05
751.11	0.16
751.287	-0.1
751.464	0.14
751.642	-0.1
751.819	0.06
751.996	0.07
752.173	0
752.351	0
752.528	0.14
752.705	-0
752.882	0.01
753.06	0.17
753.237	0.07
753.414	0.25
753.591	0.25
753.768	0.15
753.945	0.05
754.122	0.04
754.299	0.17
754.476	0.04
754.654	0.14
754.831	0.05
755.008	0.06
755.185	0.05
755.362	0
755.539	0.02
755.716	0.03
755.892	0.03
756.069	0.06
756.246	0.11
756.423	0.1
756.6	0.27
756.777	0.11
756.954	0.25
757.131	0.05
757.307	-0.04
757.484	-0.02
757.661	0.07
757.838	0.05
758.015	0.03
758.191	0.21
758.368	-0.11
758.545	0.26
758.721	0.09
758.898	-0.01
759.075	0.11
759.251	0.22
759.428	0.14
759.605	-0.07
759.781	0.14
759.958	0.22
760.134	0.16
760.311	0.11
760.488	0.26
760.664	0.18
760.841	0.14
761.017	-0.04
761.194	0.17
761.37	0.17
761.547	0.01
761.723	0.16
761.899	0.26
762.076	-0.09
762.252	-0.02
762.429	0.07
762.605	0.18
762.781	0.02
762.958	0.21
763.134	0.12
763.31	0.07
763.486	0.2
763.663	-0.07
763.839	0.18
764.015	-0.12
764.191	0.04
764.368	0.06
764.544	-0.07
764.72	0.01
764.896	0.22
765.072	0.07
765.248	0.13
765.425	0.12
765.601	0.09
765.777	0.05
765.953	-0.12
766.129	0.12
766.305	0.07
766.481	0.03
766.657	0.06
766.833	0.33
767.009	-0.05
767.185	0.08
767.361	0.07
767.537	-0.01
767.713	0.19
767.889	0.01
768.065	0.07
768.24	-0.03
768.416	0.13
768.592	0.05
768.768	0.09
768.944	0.11
769.12	-0.07
769.295	0.02
769.471	0.11
769.647	0.07
769.823	0.33
769.998	0.22
770.174	-0.03
770.35	0.41
770.525	0.59
770.701	0.16
770.877	0.14
771.052	0.09
771.228	0.22
771.403	0.14
771.579	0.13
771.755	0.37
771.93	0.01
772.106	0.07
772.281	-0.13
772.457	-0.06
772.632	0.12
772.808	-0.07
772.983	0.01
773.159	-0.06
773.334	0.21
773.509	0.01
773.685	0.12
773.86	0.44
774.036	0.18
774.211	0.12
774.386	0.08
774.562	0.14
774.737	0.44
774.912	-0.1
775.087	0.08
775.263	0.17
775.438	0.08
775.613	-0
775.788	0.09
775.964	0.3
776.139	0.43
776.314	-0.09
776.489	0.12
776.664	0.11
776.839	-0.16
777.014	0.23
777.19	0.19
777.365	0.38
777.54	0.16
777.715	-0.05
777.89	0.04
778.065	0.06
778.24	0.07
778.415	0.15
778.59	-0.01
778.765	0.03
778.94	0.17
779.115	0.12
779.289	0.06
779.464	-0.01
779.639	0.08
779.814	-0.13
779.989	-0.14
780.164	0.28
780.339	0.37
780.513	0.04
780.688	-0.07
780.863	0.06
781.038	0.15
781.212	-0.09
781.387	0.15
781.562	0.28
781.737	-0.01
781.911	0.22
782.086	0.06
782.261	0.18
782.435	0.28
782.61	0.12
782.784	0.09
782.959	0.41
783.134	-0.02
783.308	-0.05
783.483	0.08
783.657	0.57
783.832	0.31
784.006	-0.24
784.181	0.02
784.355	0.33
784.53	-0.23
784.704	0.09
784.878	0.42
785.053	0.24
785.227	0.25
785.402	0.46
785.576	-0.11
785.75	0.02
785.925	0.05
786.099	0.09
786.273	0.12
786.448	0.24
786.622	0.41
786.796	-0.03
786.97	0.06
787.145	0.5
787.319	-0.12
787.493	-0.01
787.667	-0.28
787.841	-0.04
788.015	0.43
788.19	0.02
788.364	0.1
788.538	0.2
788.712	0.33
788.886	0.12
789.06	0.35
789.234	0.3
789.408	0.04
789.582	0.07
789.756	0.06
789.93	-0.13
790.104	0.15
790.278	0.15
790.452	0.16
790.626	0.41
790.8	-0.09
790.973	0.13
791.147	0.42
791.321	0.19
791.495	0.39
791.669	0.47
791.843	0.1
792.016	0.1
792.19	0.57
792.364	0.1
792.538	0.7
792.711	0.44
792.885	0.02
793.059	0.11
793.233	-0.43
793.406	0.27
793.58	0.23
793.754	0.04
793.927	0.04
794.101	0.26
794.274	0.12
794.448	0.38
794.622	-0.16
794.795	0.47
794.969	-0.05
795.142	0.49
795.316	0.1
795.489	0.2
795.663	0.7
795.836	0.07
796.009	0.06
796.183	0.52
796.356	0.3
796.53	0.05
796.703	0.19
796.876	0.62
797.05	0.33
797.223	-0.06
797.396	0.21
797.57	0.01
797.743	0.56
797.916	0.13
798.09	0.05
798.263	0.4
798.436	0.44
798.609	-0.02
798.782	0.17
798.956	0.36
799.129	0.25
799.302	0.1
799.475	0.16
799.648	-0.09
799.821	-0.1
799.994	0.2
800.167	-0.19
800.34	0
800.514	0.07
800.687	-0.01
800.86	-0.03
801.033	0.27
801.206	0.38
801.379	0.04
801.551	0.5
801.724	0.53
801.897	0.58
802.07	0.19
802.243	-0.37
802.416	0.03
802.589	0.19
802.762	0.22
802.935	-0.09
803.107	0.3
803.28	0.79
803.453	0.6
803.626	0.13
803.798	0.07
803.971	-0.06
804.144	0.22
804.317	0.28
804.489	0.46
804.662	0.06
804.835	0.17
805.007	0.15
805.18	0.5
805.353	0.09
805.525	0.03
805.698	-0.09
805.87	0.47
806.043	0.31
806.215	-0.08
806.388	-0.07
806.56	0.47
806.733	0.3
806.905	0.31
807.078	0.03
807.25	-0.09
807.423	0.34
807.595	0.14
807.768	0.36
807.94	0.33
808.112	0.43
808.285	0.45
808.457	0.03
808.629	0.23
808.802	0.53
808.974	0.21
809.146	0.16
809.318	-0.35
809.491	0.39
809.663	0.12
809.835	-0.19
810.007	0.16
810.18	0.25
810.352	-0.39
810.524	0.09
810.696	0.24
810.868	0.65
811.04	0.04
811.212	0.17
811.384	0.65
811.556	0.34
811.728	0.15
811.901	0.82
812.073	0.12
812.245	0.03
812.417	0.09
812.589	-0.12
812.76	0.23
812.932	0.32
813.104	0.35
813.276	0.15
813.448	0.16
813.62	0.07
813.792	0.48
813.964	0.36
814.136	0.06
814.307	0.1
814.479	0.18
814.651	-0.02
814.823	1.02
814.995	-0.04
815.166	0.65
815.338	-0.18
815.51	-0.46
815.681	0.48
815.853	0.28
816.025	0.23
816.196	0.54
816.368	0.47
816.54	-0.22
816.711	0.12
816.883	0.19
817.054	0.78
817.226	-0.56
817.398	-0.14
817.569	0.2
817.741	0.32
817.912	-0.08
818.084	0.25
818.255	0.55
818.426	-0.01
818.598	0.36
818.769	-0.04
818.941	0.54
819.112	0.63
819.283	0.37
819.455	-0.22
819.626	0.13
819.798	0.49
819.969	0.35
820.14	0.22
820.311	0.06
820.483	0.16
820.654	0.96
820.825	0.22
820.996	0.23
821.168	0.02
821.339	0.19
821.51	-0.48
821.681	0.12
821.852	0.44
822.023	-0.27
822.195	-0.31
822.366	0.71
822.537	-0.13
822.708	0.29
822.879	0.25
823.05	0.65
823.221	0.46
823.392	0.5
823.563	0.06
823.734	0.44
823.905	0.11
824.076	0.22
824.247	0.11
824.418	0.06
824.589	1.15
824.759	0.63
824.93	0.12
825.101	-0.39
825.272	0.73
825.443	0.99
825.614	0.92
825.784	-0.47
825.955	0.96
826.126	1.05
826.297	-0.05
826.467	1.56
826.638	1.29
826.809	-0.24
826.98	0.55
827.15	0.65
827.321	0.26
827.492	0.61
827.662	0.14
827.833	1.1
828.003	0.89
828.174	0
828.345	0.05
828.515	1.18
828.686	0.5
828.856	-0.16
829.027	0.07
829.197	0.34
829.368	0.94
829.538	0.4
829.709	0.02
829.879	-0.41
830.049	0.67
830.22	0.36
830.39	0.19
830.56	1.15
830.731	0.56
830.901	0.06
831.072	0.34
831.242	0.5
831.412	0.36
831.582	0.2
831.753	0.23
831.923	0.81
832.093	0.63
832.263	0.71
832.434	0.21
832.604	-0.1
832.774	0.29
832.944	0.32
833.114	0.55
833.284	1.01
833.454	-0.81
833.624	0.48
833.795	0.03
833.965	1.48
834.135	1.32
834.305	-0.61
834.475	-0.57
834.645	0.43
834.815	-0.24
834.985	0.54
835.155	-0.4
835.325	0.67
835.494	0.44
835.664	0.81
835.834	0.52
836.004	0.66
836.174	1.13
836.344	-0.01
836.514	-0.16
836.684	0.61
836.853	-0.04
837.023	0.66
837.193	0.03
837.363	0.99
837.532	1.04
837.702	0.08
837.872	0.04
838.041	1.02
838.211	0.83
838.381	-0.57
838.55	0.39
838.72	1.34
838.89	1.18
839.059	0.86
839.229	0.59
839.398	1.42
839.568	0.61
839.738	0.46
839.907	0.8
840.077	0.79
840.246	0.13
840.416	-0.35
840.585	-0.88
840.755	1.43
840.924	1.93
841.093	-0.46
841.263	0.13
841.432	0.47
841.602	-0.39
841.771	0.37
841.94	0.21
842.11	2.58
842.279	0.88
842.448	-0.81
842.617	-0.15
842.787	1.44
842.956	-0.45
843.125	0.41
843.294	0.57
843.464	1.66
843.633	1.04
843.802	-0.49
843.971	0.49
844.14	1.06
844.309	1.66
844.479	-0.01
844.648	-0.45
844.817	-0.1
844.986	1.22
845.155	0.45
845.324	0.31
845.493	0.26
845.662	-0.52
845.831	0.8
846	0.79
846.169	0.1
846.338	1.75
846.507	0.71
846.676	0.99
846.844	-0.2
847.013	0.75
847.182	0.17
847.351	0.18
847.52	0.58
847.689	0.81
847.858	-0.26
848.026	-0.52
848.195	0.46
848.364	0.6
848.533	0.63
848.701	0.32
848.87	0.66
849.039	1.57
849.207	1.62
849.376	1.43
849.545	1.35
849.713	0.55
849.882	0.05
850.051	0.46
850.219	0.87
850.388	1.57
850.556	-0.28
850.725	-0.21
850.893	0.62
851.062	1.31
851.23	1.23
851.399	0.21
851.567	0.11
851.736	1.05
851.904	-0.37
852.073	0.43
852.241	0.69
852.41	0.55
852.578	0.94
852.746	0.52
852.915	1.97
853.083	0.34
853.251	0.16
853.42	-0.18
853.588	0.35
853.756	2.12
853.924	0.93
854.093	0.89
854.261	-0.21
854.429	-0.47
854.597	0.7
854.765	-0.23
854.934	1.51
855.102	2.02
855.27	0.89
855.438	1.75
855.606	1.98
855.774	1.97
855.942	-1.22
856.11	-0.66
856.278	1
856.446	2.06
856.614	0.74
856.782	0.14
856.95	1.6
857.118	1.16
857.286	0.74
857.454	0.29
857.622	2.06
857.79	1.06
857.958	0.22
858.126	0.43
858.294	-2.32
858.462	0.97
858.629	1.34
858.797	-0.17
858.965	1.34
859.133	0.84
859.301	0.16
859.468	1.43
859.636	0.01
859.804	1.41
859.971	1.89
860.139	-0.5
860.307	0.83
860.474	0.08
860.642	0.45
860.81	1.62
860.977	-0.19
861.145	2.15
861.313	0.06
861.48	1.65
861.648	1.8
861.815	1.02
861.983	0.57
862.15	1.03
862.318	1.87
862.485	1.31
862.653	0.34
862.82	-0.93
862.988	3.4
863.155	1.64
863.322	-0.55
863.49	0.82
863.657	-0.52
863.824	2.64
863.992	1.56
864.159	-0.1
864.326	2.46
864.494	0.71
864.661	3.37
864.828	-0.7
864.996	2.42
865.163	3.34
865.33	1.12
865.497	-1.81
865.664	0.64
865.832	-1.67
865.999	1.44
866.166	-0.92
866.333	0.4
866.5	-0.24
866.667	1
866.834	0.1
867.001	3.62
867.168	-0.49
867.335	1.14
867.502	-0.49
867.669	1.33
867.836	2.92
868.003	-0.27
868.17	2.42
868.337	3.75
868.504	2.95
868.671	-1.32
868.838	-0.81
869.005	0.97
869.172	1.54
869.339	1.31
869.505	-0.51
869.672	1.88
869.839	4.04
870.006	1.41
870.173	-1.19
870.339	1.75
870.506	3.69
870.673	-0.46
870.84	1.7
871.006	0.76
871.173	0.92
871.34	1.32
871.506	-0.16
871.673	0.76
871.839	-0.84
872.006	1.63
872.173	1.02
872.339	0.62
872.506	1.52
872.672	1.28
872.839	-1.07
873.005	0.11
873.172	3.38
873.338	1.9
873.505	0.15
873.671	0.84
873.838	1.15
874.004	-0.51
874.171	-0.18
874.337	0.89
874.503	2.08
874.67	0.68
874.836	-0.4
875.002	2.71
875.169	2.36
875.335	1.58
875.501	0.21
875.668	2.64
875.834	0.86
876	0.3
876.166	2.71
876.332	0.55
876.499	4.07
876.665	1.07
876.831	2.62
876.997	2.34
877.163	1.87
877.329	-0.32
877.495	1.97
877.662	1.77
877.828	2.63
877.994	0.77
878.16	-1.91
878.326	-0.48
878.492	1.05
878.658	-0.6
878.824	0.26
878.99	1.45
879.156	-0.17
879.322	3.43
879.487	1.98
879.653	2.33
879.819	0.44
879.985	-0.86
880.151	1.43
880.317	2.82
880.483	1.96
880.648	2.09
880.814	-3.05
880.98	1.4
881.146	-3.05
881.312	0.16
881.477	-1.3
881.643	0.07
881.809	2.9
881.974	1.09
882.14	-1.23
882.306	0.69
882.471	4.14
882.637	-0.47
882.803	2.15
882.968	2.65
883.134	4.22
883.299	0.29
883.465	1.08
883.63	3.13
883.796	2.64
883.961	3.59
884.127	1.5
884.292	-2.1
884.458	0.22
884.623	0.22
