Data from Apollo_Calib_20240827__AbsoluteIrradiance__57__00-06-00-941.txt Node

Date: Wed Aug 28 00:06:00 BST 2024
User: biology
Spectrometer: FLMT08252
Trigger mode: 0
Integration Time (sec): 5.000000E-1
Scans to average: 5
Electric dark correction enabled: true
Nonlinearity correction enabled: false
Boxcar width: 0
XAxis mode: Wavelengths
Number of Pixels in Spectrum: 3648
>>>>>Begin Spectral Data<<<<<
179.588	-0
179.809	-0
180.03	-0
180.251	-0
180.473	-0
180.694	0
180.915	0
181.136	-0
181.357	0
181.578	-0
181.799	0
182.02	-0
182.241	0
182.462	-0
182.683	0
182.904	-0
183.125	-0
183.346	0
183.567	-0
183.788	-0
184.009	-0
184.23	0
184.451	0
184.672	-0
184.892	-0
185.113	0
185.334	0
185.555	-0
185.776	-0
185.996	0
186.217	-0
186.438	0
186.659	-0
186.879	0
187.1	-0
187.321	-0
187.541	-0
187.762	0
187.983	-0
188.203	-0
188.424	0
188.644	-0
188.865	-0
189.086	-0
189.306	-0
189.527	-0
189.747	-0
189.968	-0
190.188	0
190.409	-0
190.629	0
190.849	-0
191.07	-0
191.29	0
191.511	-0
191.731	-0
191.951	-0
192.172	-0
192.392	-0
192.612	-0
192.833	-0
193.053	0
193.273	0
193.493	-0
193.714	-0
193.934	0
194.154	0
194.374	-0
194.594	-0
194.815	-0
195.035	0
195.255	-0
195.475	-0
195.695	0
195.915	0
196.135	-0
196.355	0
196.575	0
196.795	0
197.015	-0
197.235	-0
197.455	-0
197.675	0
197.895	-0
198.115	-0
198.335	0
198.555	-0
198.775	-0
198.995	0
199.214	0
199.434	0
199.654	-0
199.874	-0
200.094	0.6
200.313	-0.19
200.533	-0.85
200.753	-1.2
200.973	0.72
201.192	0.36
201.412	-1.16
201.632	-0.6
201.851	0.59
202.071	-0.46
202.291	-0.41
202.51	-0.68
202.73	-0.26
202.95	-0.23
203.169	-0.53
203.389	-0.24
203.608	-0.08
203.828	-0.32
204.047	-0.51
204.267	0.36
204.486	0.07
204.706	0.21
204.925	-0.09
205.145	-0.36
205.364	0.84
205.583	0.64
205.803	-0.53
206.022	-0.41
206.242	-0.18
206.461	-0.5
206.68	-0.34
206.9	-0.25
207.119	0.24
207.338	0.38
207.557	-0.38
207.777	-0.08
207.996	-0.23
208.215	0.44
208.434	-0.33
208.654	-0.34
208.873	0.13
209.092	0.32
209.311	-0.26
209.53	-0.04
209.749	-0.11
209.968	-0.4
210.187	-0.26
210.407	-0.46
210.626	0.05
210.845	0.14
211.064	-0.06
211.283	-0.37
211.502	0.31
211.721	-0.11
211.94	-0.13
212.159	0.12
212.377	0.23
212.596	0.25
212.815	-0.23
213.034	0.04
213.253	0.06
213.472	0.06
213.691	-0.32
213.91	-0.28
214.128	-0.14
214.347	0.38
214.566	-0.39
214.785	-0.27
215.003	0.02
215.222	0.11
215.441	-0.02
215.66	-0.14
215.878	-0.17
216.097	0.26
216.316	-0.29
216.534	-0.14
216.753	0.13
216.972	-0.15
217.19	-0.17
217.409	-0.24
217.627	0.06
217.846	0.01
218.064	-0.19
218.283	-0.35
218.501	0.27
218.72	0.16
218.938	-0.32
219.157	-0.2
219.375	0.06
219.594	-0.09
219.812	-0.37
220.031	-0.25
220.249	0.19
220.467	0.24
220.686	-0.04
220.904	-0.31
221.122	-0.17
221.341	0.34
221.559	-0.07
221.777	-0.17
221.995	0.16
222.214	0.03
222.432	-0.1
222.65	0.09
222.868	0.03
223.086	0.05
223.305	-0.02
223.523	0.02
223.741	0.24
223.959	-0.13
224.177	-0.39
224.395	-0.02
224.613	0.13
224.831	0.1
225.049	-0.03
225.267	-0.21
225.485	-0.08
225.703	-0.16
225.921	0.01
226.139	-0.07
226.357	0.13
226.575	-0.07
226.793	-0.07
227.011	0.48
227.229	-0.1
227.447	0.1
227.665	-0.09
227.883	-0.29
228.1	-0.06
228.318	0.09
228.536	-0.25
228.754	-0.12
228.972	0.12
229.189	0.1
229.407	-0.2
229.625	0.04
229.843	0.08
230.06	0.15
230.278	-0.07
230.496	-0.02
230.713	0.05
230.931	0.22
231.149	-0.12
231.366	-0.15
231.584	-0.16
231.801	0.25
232.019	-0.05
232.236	-0.12
232.454	-0.08
232.671	0.03
232.889	-0.12
233.106	-0.17
233.324	-0.05
233.541	-0.1
233.759	0.03
233.976	-0.09
234.194	-0.02
234.411	0
234.628	-0.16
234.846	-0.1
235.063	0.02
235.28	-0.06
235.498	-0.13
235.715	-0.16
235.932	0.17
236.149	-0.14
236.367	-0.07
236.584	-0.08
236.801	-0.09
237.018	-0
237.236	0.02
237.453	-0.25
237.67	-0.02
237.887	-0.1
238.104	-0.16
238.321	-0.2
238.538	-0.08
238.755	0.15
238.973	-0.28
239.19	-0.07
239.407	0.01
239.624	-0.04
239.841	-0.16
240.058	-0.1
240.275	0.09
240.492	-0.04
240.709	-0.05
240.925	-0.09
241.142	0
241.359	-0.12
241.576	-0.14
241.793	-0.08
242.01	-0.03
242.227	0.09
242.444	0.03
242.66	0.05
242.877	-0.02
243.094	-0.03
243.311	-0.01
243.527	0.04
243.744	0.04
243.961	0.07
244.178	-0.09
244.394	-0.07
244.611	0.1
244.828	0.09
245.044	-0.11
245.261	-0.05
245.477	-0.04
245.694	-0.03
245.911	-0.09
246.127	0.07
246.344	0.16
246.56	0.05
246.777	-0.08
246.993	-0.04
247.21	0
247.426	0.07
247.643	-0.07
247.859	-0.15
248.076	-0.07
248.292	0.13
248.508	-0.07
248.725	-0.11
248.941	0.01
249.157	0.13
249.374	-0.09
249.59	-0.04
249.806	-0.04
250.023	0
250.239	-0.11
250.455	-0.04
250.671	-0.06
250.888	0.01
251.104	0.04
251.32	0.03
251.536	-0.03
251.752	-0.06
251.969	-0.08
252.185	-0.03
252.401	0.12
252.617	-0
252.833	-0.06
253.049	-0.06
253.265	-0.05
253.481	0.07
253.697	-0.03
253.913	-0.12
254.129	0.06
254.345	-0
254.561	0
254.777	-0.03
254.993	0.08
255.209	-0
255.425	-0.08
255.641	-0.05
255.857	-0
256.073	-0.03
256.288	-0.15
256.504	-0.02
256.72	-0.01
256.936	0.07
257.152	-0.05
257.367	-0.13
257.583	-0.07
257.799	0.06
258.015	-0.11
258.23	-0.05
258.446	0.16
258.662	-0.08
258.877	-0.07
259.093	-0.1
259.309	-0.02
259.524	0.04
259.74	-0.04
259.955	-0.12
260.171	-0
260.387	-0.07
260.602	0.09
260.818	0.04
261.033	-0.12
261.249	-0.08
261.464	-0.07
261.68	-0.1
261.895	0.05
262.11	0.07
262.326	-0
262.541	-0.14
262.757	0.09
262.972	0.06
263.187	-0.04
263.403	0.03
263.618	-0.02
263.833	-0.01
264.049	-0.11
264.264	-0.03
264.479	0.03
264.694	0.08
264.91	-0.05
265.125	0.02
265.34	0.06
265.555	0.14
265.77	0.01
265.986	-0.07
266.201	-0.02
266.416	0.1
266.631	-0.05
266.846	-0.04
267.061	0.04
267.276	0.04
267.491	-0.21
267.706	-0.01
267.921	0.01
268.136	-0.01
268.351	-0.04
268.566	-0.12
268.781	0.09
268.996	0.1
269.211	0.01
269.426	-0.1
269.641	-0.03
269.856	0.08
270.071	-0.07
270.285	-0.09
270.5	0.02
270.715	0.13
270.93	-0.06
271.145	-0.01
271.359	0.07
271.574	-0
271.789	-0.02
272.004	-0.01
272.218	-0.03
272.433	0.07
272.648	-0.08
272.862	0.06
273.077	-0
273.292	0.01
273.506	-0.1
273.721	-0.05
273.936	0.05
274.15	0.07
274.365	0
274.579	0.01
274.794	0.02
275.008	0.03
275.223	-0.12
275.437	0.01
275.652	0.06
275.866	0
276.081	0.01
276.295	0.07
276.509	-0.03
276.724	-0.01
276.938	0.02
277.153	0.04
277.367	0.09
277.581	-0.07
277.796	-0.02
278.01	-0.08
278.224	0.1
278.438	0.14
278.653	-0.05
278.867	-0.05
279.081	-0.19
279.295	-0.03
279.51	-0.03
279.724	-0.11
279.938	0.02
280.152	-0.01
280.366	-0.07
280.58	0.01
280.794	0.12
281.008	0.02
281.222	0.09
281.437	0.1
281.651	-0
281.865	0.07
282.079	-0.02
282.293	-0.11
282.507	-0.09
282.721	-0.05
282.935	-0.01
283.148	-0.1
283.362	-0.06
283.576	-0.04
283.79	0.04
284.004	-0.1
284.218	0.02
284.432	-0.04
284.646	-0.08
284.859	-0
285.073	-0.06
285.287	0.01
285.501	-0
285.714	-0.08
285.928	0.02
286.142	0
286.356	-0.08
286.569	0.01
286.783	0.13
286.997	0.02
287.21	-0.04
287.424	0.02
287.637	-0.05
287.851	-0.01
288.065	-0.03
288.278	-0.01
288.492	-0.03
288.705	-0.01
288.919	0.03
289.132	-0.06
289.346	0.03
289.559	-0.07
289.773	-0.06
289.986	0
290.2	-0
290.413	0.04
290.626	-0.03
290.84	-0.05
291.053	-0.02
291.267	0.11
291.48	0.03
291.693	-0.03
291.906	-0.02
292.12	-0.02
292.333	-0.07
292.546	-0.01
292.76	0.1
292.973	0.01
293.186	0.01
293.399	-0.03
293.612	0.08
293.826	0.01
294.039	-0.04
294.252	-0.04
294.465	0.04
294.678	0.01
294.891	0
295.104	-0.02
295.317	-0.03
295.53	0.01
295.743	-0.04
295.956	-0.01
296.169	0.04
296.382	0.05
296.595	-0.03
296.808	-0.03
297.021	0.07
297.234	0.05
297.447	-0
297.66	0
297.873	0.07
298.086	0.02
298.299	-0.02
298.511	-0.07
298.724	-0.05
298.937	-0.07
299.15	-0.03
299.363	-0.05
299.575	0.02
299.788	0.03
300.001	-0.01
300.213	0
300.426	0.04
300.639	-0
300.852	-0.04
301.064	0.04
301.277	0.06
301.489	0.03
301.702	0.04
301.915	-0.01
302.127	0.02
302.34	0.01
302.552	0.03
302.765	-0.05
302.977	0
303.19	-0.01
303.402	0.01
303.615	-0.03
303.827	-0.03
304.04	-0.03
304.252	0.03
304.464	-0.01
304.677	0.14
304.889	0.05
305.102	-0.04
305.314	-0.05
305.526	0.01
305.739	0
305.951	-0.04
306.163	-0.04
306.375	0.06
306.588	-0.03
306.8	-0.03
307.012	-0.08
307.224	-0.01
307.436	0.05
307.649	-0.08
307.861	0.02
308.073	0
308.285	-0.01
308.497	-0.09
308.709	-0.07
308.921	-0.01
309.133	0.03
309.346	-0.03
309.558	-0.02
309.77	0.02
309.982	0.06
310.194	0.07
310.406	-0.02
310.617	0.06
310.829	0.04
311.041	0.01
311.253	-0.03
311.465	-0.01
311.677	-0.04
311.889	-0.05
312.101	-0.02
312.313	0.05
312.524	0.04
312.736	-0.06
312.948	0
313.16	0.06
313.372	-0.03
313.583	0.01
313.795	-0.03
314.007	-0.02
314.218	0.06
314.43	0.03
314.642	0.01
314.853	-0.06
315.065	0.03
315.277	-0.01
315.488	0.03
315.7	0.05
315.912	0
316.123	-0.04
316.335	-0.01
316.546	0.1
316.758	-0.02
316.969	-0.07
317.181	0.01
317.392	0.02
317.604	0.04
317.815	-0.07
318.026	-0.05
318.238	0.01
318.449	0.04
318.661	-0.11
318.872	-0.05
319.083	-0.07
319.295	0.01
319.506	-0.04
319.717	0.03
319.929	0.07
320.14	-0.01
320.351	-0.01
320.562	-0.01
320.774	-0.01
320.985	0.01
321.196	-0.04
321.407	-0.02
321.618	0.04
321.829	0.01
322.041	-0
322.252	0
322.463	-0.02
322.674	0.02
322.885	-0.04
323.096	-0.02
323.307	0.02
323.518	0.05
323.729	-0.08
323.94	0.01
324.151	-0.05
324.362	-0
324.573	0.03
324.784	-0.04
324.995	0.04
325.206	0.04
325.417	-0.04
325.628	0
325.838	0.01
326.049	0.01
326.26	0.04
326.471	-0.02
326.682	0.07
326.892	-0.02
327.103	-0.04
327.314	-0.06
327.525	0.04
327.735	0.07
327.946	-0.01
328.157	-0.04
328.368	0
328.578	-0
328.789	0.03
328.999	-0.04
329.21	-0.02
329.421	0.04
329.631	-0
329.842	-0.07
330.052	-0.02
330.263	0.01
330.473	0.01
330.684	-0.01
330.894	0.01
331.105	0.01
331.315	-0.03
331.526	-0.08
331.736	0.11
331.947	-0.02
332.157	0.02
332.367	-0.04
332.578	0.03
332.788	0.07
332.999	-0.02
333.209	-0.03
333.419	-0.05
333.629	-0.01
333.84	0.03
334.05	-0
334.26	0.04
334.47	-0.01
334.681	0.05
334.891	-0.01
335.101	0.05
335.311	0.1
335.521	0.03
335.732	-0.05
335.942	0.06
336.152	0.02
336.362	0.03
336.572	-0.03
336.782	0.03
336.992	-0.01
337.202	-0.03
337.412	-0.03
337.622	0.05
337.832	-0.04
338.042	0.03
338.252	-0.03
338.462	-0.03
338.672	-0.03
338.882	-0.05
339.092	0.01
339.302	0.06
339.511	0.01
339.721	-0.07
339.931	-0.1
340.141	0.03
340.351	0.04
340.561	-0.03
340.77	0.01
340.98	0.02
341.19	0.03
341.4	-0.04
341.609	-0.06
341.819	-0.01
342.029	-0.07
342.238	0.02
342.448	-0.07
342.658	0.04
342.867	-0.01
343.077	-0.04
343.286	0.02
343.496	0.01
343.706	0.09
343.915	-0.07
344.125	0.01
344.334	0.01
344.544	-0.07
344.753	-0.03
344.963	-0.03
345.172	-0.05
345.381	-0.05
345.591	-0.06
345.8	-0.04
346.01	0.02
346.219	0.05
346.428	-0.13
346.638	-0.02
346.847	0.04
347.056	0.05
347.266	0.01
347.475	-0.02
347.684	0.03
347.893	0.02
348.103	0.01
348.312	-0
348.521	-0.01
348.73	-0.05
348.94	0
349.149	-0.08
349.358	0
349.567	-0.05
349.776	-0.04
349.985	-0.02
350.194	0.05
350.403	0.03
350.612	-0.07
350.821	-0.04
351.03	-0.05
351.239	-0.06
351.448	0.01
351.657	-0
351.866	0.05
352.075	-0.02
352.284	0.02
352.493	-0.04
352.702	0.04
352.911	-0.02
353.12	0.01
353.329	-0.05
353.538	0.02
353.746	-0.05
353.955	-0.05
354.164	0
354.373	-0.03
354.582	0.05
354.79	0.01
354.999	0.06
355.208	-0.03
355.416	0.05
355.625	-0.05
355.834	-0.06
356.042	-0.02
356.251	-0.01
356.46	-0.04
356.668	-0
356.877	0.04
357.085	0.07
357.294	-0.08
357.503	0.02
357.711	-0.02
357.92	0.09
358.128	0.04
358.337	-0.03
358.545	0
358.754	-0.02
358.962	0.06
359.17	-0.03
359.379	0.06
359.587	-0.01
359.796	-0.04
360.004	0.03
360.212	0.01
360.421	0.03
360.629	-0.05
360.837	-0.05
361.046	0.04
361.254	0.13
361.462	0.02
361.67	0
361.879	0.03
362.087	0.05
362.295	0.03
362.503	-0.02
362.711	-0.03
362.92	0.04
363.128	-0.03
363.336	-0.04
363.544	-0.04
363.752	-0.02
363.96	-0.04
364.168	-0
364.376	0.02
364.584	0.02
364.792	0.05
365	0.01
365.208	-0
365.416	-0.01
365.624	0.01
365.832	-0.01
366.04	0.07
366.248	0.02
366.456	0
366.664	0.03
366.872	-0.01
367.079	0.01
367.287	0.04
367.495	-0
367.703	-0.02
367.911	-0.03
368.118	-0.03
368.326	-0.02
368.534	-0.05
368.742	0.07
368.949	-0.07
369.157	0.01
369.365	0.05
369.572	-0.02
369.78	-0.05
369.988	0.03
370.195	-0
370.403	0.01
370.61	-0.04
370.818	0
371.026	0.05
371.233	-0.07
371.441	0.05
371.648	-0.01
371.856	0.03
372.063	-0.02
372.271	-0
372.478	-0.01
372.685	-0.03
372.893	0.03
373.1	-0.02
373.308	-0.07
373.515	0.07
373.722	0.07
373.93	-0.05
374.137	0.02
374.344	0.07
374.552	0.01
374.759	0.04
374.966	-0.01
375.173	-0.01
375.381	0.07
375.588	-0.02
375.795	-0.05
376.002	-0.06
376.209	-0.03
376.417	-0.04
376.624	0.01
376.831	0.01
377.038	-0.02
377.245	-0.08
377.452	-0.02
377.659	0.02
377.866	-0.01
378.073	-0
378.28	-0
378.487	0.07
378.694	0.03
378.901	-0.02
379.108	0.01
379.315	0.04
379.522	0.1
379.729	-0.04
379.936	-0.02
380.143	-0.01
380.35	0.05
380.557	-0.01
380.763	0.04
380.97	-0.01
381.177	0.02
381.384	-0.01
381.591	0.02
381.797	0.07
382.004	0.02
382.211	0.02
382.418	0
382.624	0.07
382.831	0.05
383.038	-0.02
383.244	-0.03
383.451	0.02
383.658	0.02
383.864	-0
384.071	-0.03
384.277	0.09
384.484	-0.02
384.69	0.05
384.897	-0.02
385.103	0
385.31	-0.02
385.516	-0.03
385.723	-0.02
385.929	-0
386.136	-0.02
386.342	-0.02
386.549	-0.03
386.755	0.08
386.961	-0.01
387.168	-0.02
387.374	0
387.58	0.03
387.787	0.01
387.993	0.01
388.199	0.01
388.406	-0.05
388.612	-0.01
388.818	-0.06
389.024	-0.01
389.231	-0.01
389.437	0.06
389.643	0.06
389.849	-0.01
390.055	0
390.261	0.03
390.467	0.02
390.674	-0.06
390.88	-0.01
391.086	0
391.292	-0.03
391.498	0.02
391.704	-0
391.91	-0.01
392.116	-0.07
392.322	-0.16
392.528	0.02
392.734	0
392.94	0
393.146	-0.05
393.352	0.01
393.557	-0.02
393.763	0
393.969	0.02
394.175	-0
394.381	0.02
394.587	-0.04
394.792	-0.02
394.998	0.02
395.204	0.05
395.41	-0.07
395.615	-0
395.821	0.04
396.027	0.01
396.233	-0.09
396.438	0.05
396.644	-0.04
396.85	-0.01
397.055	-0.03
397.261	-0.03
397.466	0.06
397.672	-0.01
397.878	0.01
398.083	-0.03
398.289	-0.01
398.494	-0
398.7	-0.01
398.905	-0.13
399.111	0.03
399.316	-0.03
399.522	0.03
399.727	-0.02
399.932	0.01
400.138	-0.04
400.343	0.03
400.549	0.01
400.754	0
400.959	-0.03
401.165	-0.02
401.37	0.04
401.575	-0.05
401.78	0.03
401.986	-0
402.191	-0.02
402.396	0.01
402.601	0.04
402.807	0.02
403.012	-0
403.217	0.06
403.422	-0.02
403.627	-0.01
403.832	0.02
404.037	0
404.243	0.05
404.448	-0.01
404.653	-0.04
404.858	0.04
405.063	0.05
405.268	-0.04
405.473	-0.07
405.678	-0.03
405.883	0.13
406.088	0.02
406.293	-0.08
406.498	-0.07
406.703	0.04
406.907	0.01
407.112	-0.05
407.317	-0.01
407.522	-0
407.727	-0.05
407.932	0.01
408.136	0.08
408.341	-0.01
408.546	0.01
408.751	-0
408.956	-0
409.16	0.04
409.365	-0.01
409.57	-0.04
409.774	0.01
409.979	0.02
410.184	-0.04
410.388	-0.05
410.593	0.04
410.798	0.06
411.002	-0.05
411.207	0.01
411.411	0.01
411.616	-0.01
411.82	-0.02
412.025	0
412.229	-0.04
412.434	0.09
412.638	-0.04
412.843	-0.04
413.047	-0.01
413.252	-0.08
413.456	-0.02
413.66	0.07
413.865	-0.01
414.069	0.04
414.273	-0.03
414.478	-0.02
414.682	-0.06
414.886	-0.05
415.091	-0.05
415.295	-0.1
415.499	0.01
415.703	-0.02
415.908	0.05
416.112	-0.04
416.316	0.03
416.52	-0
416.724	-0.08
416.929	-0.11
417.133	0.06
417.337	-0.03
417.541	-0.06
417.745	-0.01
417.949	0.03
418.153	0.02
418.357	-0.06
418.561	0.11
418.765	-0.03
418.969	0.12
419.173	0.03
419.377	-0.09
419.581	0.09
419.785	-0.02
419.989	-0.03
420.193	-0.01
420.397	-0.01
420.601	0.04
420.804	0.04
421.008	0.01
421.212	0.02
421.416	0.04
421.62	-0.05
421.823	0
422.027	0.05
422.231	0.02
422.435	0.02
422.638	0.02
422.842	-0.01
423.046	-0
423.249	0.01
423.453	0.01
423.657	0.03
423.86	0.01
424.064	-0.01
424.268	0.08
424.471	-0
424.675	0.06
424.878	0.08
425.082	-0.01
425.285	0.03
425.489	0.01
425.692	-0.02
425.896	-0.1
426.099	0.02
426.303	-0.02
426.506	-0.06
426.71	0.03
426.913	0.06
427.116	0.09
427.32	-0.01
427.523	-0.01
427.726	0.09
427.93	-0.01
428.133	-0.02
428.336	-0.02
428.54	-0.03
428.743	0.04
428.946	0.03
429.149	-0.05
429.353	0.02
429.556	0.03
429.759	0.03
429.962	-0.03
430.165	0.03
430.368	-0.01
430.571	-0.01
430.775	0.01
430.978	0.02
431.181	0.04
431.384	0.02
431.587	-0.03
431.79	0.01
431.993	0
432.196	-0.03
432.399	0.01
432.602	0.07
432.805	0.01
433.008	-0.03
433.211	-0.06
433.414	0.03
433.616	0.06
433.819	-0
434.022	-0.08
434.225	0.11
434.428	0.03
434.631	0.09
434.833	0.03
435.036	0.01
435.239	0.08
435.442	-0.03
435.645	-0.03
435.847	0
436.05	0.02
436.253	0.06
436.455	-0.06
436.658	-0.02
436.861	0.11
437.063	0.01
437.266	0
437.468	0.02
437.671	0.13
437.874	0.01
438.076	-0.05
438.279	-0.05
438.481	0.11
438.684	-0.04
438.886	0.03
439.089	-0.05
439.291	0.02
439.494	0.05
439.696	0.02
439.899	-0.02
440.101	-0
440.303	-0.05
440.506	0.07
440.708	0.05
440.91	0.08
441.113	-0.03
441.315	0.08
441.517	-0
441.72	0.05
441.922	-0.05
442.124	-0.03
442.326	0.03
442.529	0.06
442.731	-0.04
442.933	0.11
443.135	-0
443.337	-0
443.539	-0.02
443.742	0.02
443.944	0.06
444.146	-0.03
444.348	0.01
444.55	-0.02
444.752	0.03
444.954	-0.02
445.156	0.04
445.358	-0.01
445.56	0.03
445.762	-0.01
445.964	0.06
446.166	-0
446.368	0
446.57	0.07
446.772	0.06
446.974	0.03
447.175	0.05
447.377	0.05
447.579	0.05
447.781	-0.03
447.983	0.15
448.184	0.02
448.386	0.07
448.588	0
448.79	0.03
448.991	0.05
449.193	0.03
449.395	0.07
449.597	0.05
449.798	0.11
450	0.08
450.202	0.06
450.403	0.13
450.605	0.07
450.806	0.01
451.008	-0.01
451.21	0.05
451.411	0.02
451.613	0.05
451.814	0.03
452.016	0.05
452.217	0.06
452.419	0.04
452.62	0.02
452.821	0.09
453.023	0.07
453.224	0.1
453.426	0.07
453.627	0.08
453.828	0.09
454.03	0.03
454.231	0.03
454.432	0.02
454.634	0.19
454.835	0.02
455.036	-0.03
455.238	0.08
455.439	0.12
455.64	-0.02
455.841	-0.01
456.042	0.13
456.244	0.07
456.445	-0
456.646	-0.04
456.847	0.05
457.048	0.08
457.249	0.09
457.45	0.27
457.651	-0.03
457.852	0.1
458.054	0.04
458.255	-0.02
458.456	0.06
458.657	0.01
458.858	-0.01
459.058	0.05
459.259	0.09
459.46	0
459.661	0
459.862	0.1
460.063	0.06
460.264	0.09
460.465	-0.02
460.666	0.11
460.866	0
461.067	0.05
461.268	-0.02
461.469	0.02
461.67	-0.02
461.87	0.05
462.071	0
462.272	-0.07
462.473	0.01
462.673	-0
462.874	-0.05
463.075	0.01
463.275	-0.04
463.476	0.07
463.676	0.03
463.877	0.02
464.078	0.04
464.278	0.07
464.479	-0.02
464.679	0.01
464.88	-0
465.08	0.11
465.281	-0.05
465.481	0.02
465.682	0.04
465.882	0.03
466.083	0.02
466.283	0.02
466.483	0.01
466.684	-0.05
466.884	-0.04
467.085	0
467.285	0.07
467.485	-0.04
467.686	0.02
467.886	-0.07
468.086	-0.02
468.286	0.01
468.487	0.03
468.687	-0.03
468.887	-0.02
469.087	0.07
469.287	-0.02
469.488	-0.06
469.688	0.01
469.888	0.02
470.088	0.06
470.288	0.02
470.488	0.05
470.688	-0.02
470.888	-0.04
471.088	-0.01
471.288	0.03
471.488	0.03
471.688	0.01
471.888	-0.03
472.088	0.05
472.288	0.03
472.488	-0.07
472.688	-0.04
472.888	0.04
473.088	0.01
473.288	-0.01
473.488	-0.02
473.688	0.1
473.887	-0.01
474.087	-0.04
474.287	0
474.487	-0.04
474.687	0.01
474.886	-0.04
475.086	-0.01
475.286	-0.01
475.486	-0
475.685	-0.03
475.885	-0.02
476.085	0.01
476.284	0.04
476.484	0
476.684	0.03
476.883	0.04
477.083	-0.01
477.282	-0.03
477.482	0.05
477.681	0.02
477.881	0.01
478.08	0.01
478.28	-0.04
478.479	0.02
478.679	0.06
478.878	-0.04
479.078	-0.01
479.277	-0.03
479.477	-0.01
479.676	0.06
479.875	0.01
480.075	-0.07
480.274	0.01
480.473	0
480.673	-0.02
480.872	0.03
481.071	0.01
481.271	0
481.47	-0.02
481.669	0.02
481.868	-0
482.067	-0.03
482.267	-0.06
482.466	-0.02
482.665	-0.04
482.864	-0.04
483.063	-0.03
483.262	-0.01
483.461	0.05
483.661	0.02
483.86	-0.01
484.059	0
484.258	-0.02
484.457	-0.01
484.656	-0
484.855	0.03
485.054	-0.03
485.253	-0.03
485.452	-0.03
485.651	0.03
485.849	-0
486.048	-0.02
486.247	-0.04
486.446	0.01
486.645	-0.05
486.844	-0.04
487.043	-0.02
487.241	-0.01
487.44	-0.03
487.639	-0.01
487.838	0
488.037	0.01
488.235	0.08
488.434	0.01
488.633	-0.02
488.831	0.03
489.03	0.03
489.229	0.01
489.427	-0.03
489.626	0.04
489.825	0.04
490.023	-0.01
490.222	-0.02
490.42	0.01
490.619	0.05
490.817	-0
491.016	-0.01
491.214	0.02
491.413	0.01
491.611	-0.02
491.81	0
492.008	0.01
492.207	0.03
492.405	0.03
492.604	-0.04
492.802	-0.02
493	-0.03
493.199	-0.03
493.397	0.01
493.595	-0.01
493.794	-0.02
493.992	0.05
494.19	-0.01
494.388	0.03
494.587	-0.02
494.785	-0.01
494.983	-0.03
495.181	-0
495.379	-0.02
495.578	-0.01
495.776	0.01
495.974	-0.01
496.172	0
496.37	-0
496.568	-0.03
496.766	-0.04
496.964	0.04
497.162	-0
497.36	-0.04
497.558	0.01
497.756	0.02
497.954	0.02
498.152	-0.02
498.35	-0.02
498.548	-0.01
498.746	-0.02
498.944	-0.03
499.142	-0.02
499.34	-0.04
499.538	-0.01
499.736	-0.03
499.933	0.02
500.131	0.01
500.329	-0
500.527	0.01
500.725	0.02
500.922	0
501.12	-0
501.318	0.01
501.516	-0.02
501.713	0.01
501.911	-0.01
502.109	-0.04
502.306	0
502.504	0.01
502.701	-0.01
502.899	-0.01
503.097	0.02
503.294	-0
503.492	-0.03
503.689	-0.01
503.887	0.02
504.084	0.05
504.282	-0
504.479	-0.04
504.677	0.04
504.874	-0.04
505.072	0
505.269	-0.01
505.466	0.01
505.664	0.01
505.861	-0.04
506.059	-0.01
506.256	0.02
506.453	-0.01
506.651	0.05
506.848	0.01
507.045	0.03
507.242	-0.01
507.44	-0.02
507.637	-0.01
507.834	-0.02
508.031	0.01
508.229	-0.04
508.426	-0.02
508.623	0.02
508.82	-0.01
509.017	-0.03
509.214	-0.02
509.411	-0.01
509.608	-0.01
509.805	-0
510.003	-0.02
510.2	-0.02
510.397	0.02
510.594	-0.02
510.791	-0.01
510.988	-0.02
511.184	0.03
511.381	0.01
511.578	-0.03
511.775	0.02
511.972	-0.02
512.169	-0.01
512.366	-0.02
512.563	0.01
512.76	-0.02
512.956	0.01
513.153	-0.03
513.35	-0.01
513.547	-0.02
513.744	-0.03
513.94	-0.02
514.137	-0.01
514.334	0
514.53	-0.01
514.727	-0
514.924	0.04
515.12	-0
515.317	-0.05
515.514	-0.01
515.71	-0.04
515.907	0.01
516.103	0
516.3	0.01
516.497	0.02
516.693	0.03
516.89	-0
517.086	-0.03
517.283	-0.01
517.479	0
517.676	-0.02
517.872	-0.02
518.068	-0.02
518.265	-0.02
518.461	-0.04
518.658	-0.02
518.854	0
519.05	-0.01
519.247	-0.04
519.443	0.01
519.639	-0.01
519.836	0
520.032	0.02
520.228	0.01
520.424	0.04
520.621	0.01
520.817	-0
521.013	-0.02
521.209	0
521.405	0.04
521.601	0.02
521.798	-0
521.994	0.02
522.19	-0.03
522.386	-0.04
522.582	-0.01
522.778	-0
522.974	-0.03
523.17	-0.01
523.366	0.01
523.562	0.03
523.758	-0.02
523.954	-0.02
524.15	-0
524.346	0.02
524.542	-0.01
524.738	-0.01
524.934	-0.02
525.129	0.01
525.325	0.01
525.521	0.01
525.717	0.02
525.913	-0
526.109	0.01
526.304	-0.02
526.5	-0
526.696	0.03
526.892	0
527.087	-0.02
527.283	-0.02
527.479	0.02
527.674	-0.02
527.87	-0
528.066	-0.04
528.261	0.01
528.457	0.02
528.653	-0.02
528.848	0.01
529.044	-0
529.239	-0.01
529.435	0.01
529.63	0.01
529.826	0.03
530.021	-0.01
530.217	-0
530.412	-0.01
530.608	-0.01
530.803	0
530.999	-0.01
531.194	-0.07
531.389	-0
531.585	-0.05
531.78	-0
531.975	-0
532.171	0.02
532.366	-0
532.561	-0
532.757	-0.02
532.952	-0.02
533.147	0.02
533.342	-0.01
533.538	-0
533.733	0.02
533.928	-0.01
534.123	-0.03
534.318	-0.04
534.513	-0.01
534.709	-0.01
534.904	-0.02
535.099	-0.02
535.294	0.01
535.489	0
535.684	-0.02
535.879	-0.03
536.074	0.01
536.269	-0.02
536.464	-0.02
536.659	0.01
536.854	-0.01
537.049	0.01
537.244	0.02
537.439	-0.02
537.634	0.04
537.828	-0
538.023	-0.03
538.218	-0.03
538.413	0
538.608	-0.07
538.803	-0
538.997	-0.04
539.192	0.01
539.387	0
539.582	0.01
539.776	0
539.971	-0.01
540.166	-0.02
540.36	-0.03
540.555	-0
540.75	-0.03
540.944	0.01
541.139	-0.05
541.334	-0.01
541.528	-0.02
541.723	0.01
541.917	-0.03
542.112	-0.05
542.306	-0.02
542.501	-0.01
542.695	-0
542.89	-0.01
543.084	0.01
543.279	-0
543.473	-0.02
543.668	-0.01
543.862	-0.02
544.056	-0
544.251	-0.01
544.445	0.01
544.64	-0.02
544.834	-0.04
545.028	0
545.222	-0.01
545.417	0.01
545.611	-0
545.805	-0.01
546	-0.02
546.194	0
546.388	-0.02
546.582	0
546.776	-0.01
546.97	0
547.165	-0
547.359	0.02
547.553	0
547.747	0
547.941	-0.01
548.135	-0.01
548.329	0.02
548.523	0
548.717	-0.02
548.911	-0.01
549.105	-0.02
549.299	-0.01
549.493	0.02
549.687	0.01
549.881	0.01
550.075	0.02
550.269	-0.04
550.463	0.01
550.657	-0
550.85	-0.01
551.044	-0.03
551.238	0.01
551.432	-0.05
551.626	-0.03
551.82	-0
552.013	-0.03
552.207	0.01
552.401	0.03
552.594	-0
552.788	-0.01
552.982	0
553.176	-0.02
553.369	0.02
553.563	0.02
553.756	-0.04
553.95	-0.03
554.144	0.02
554.337	0.01
554.531	0.02
554.724	0.01
554.918	-0.01
555.111	0.01
555.305	0.01
555.498	0.04
555.692	0.02
555.885	-0.03
556.079	0.01
556.272	-0.03
556.466	0.03
556.659	0.01
556.852	-0.02
557.046	-0.01
557.239	0
557.432	-0.02
557.626	-0.02
557.819	0.02
558.012	0.01
558.206	-0.01
558.399	-0.01
558.592	0.01
558.785	-0.02
558.979	0.01
559.172	-0
559.365	0.01
559.558	-0.01
559.751	-0.02
559.944	0.02
560.138	0
560.331	-0.01
560.524	0
560.717	-0.01
560.91	-0.02
561.103	0.01
561.296	0
561.489	0.01
561.682	0
561.875	0.02
562.068	0.01
562.261	-0.01
562.454	0.03
562.647	0.02
562.84	0.02
563.032	-0.02
563.225	0.01
563.418	-0.01
563.611	-0.02
563.804	-0.04
563.997	-0.02
564.19	-0.04
564.382	-0.01
564.575	-0.02
564.768	-0.01
564.961	0.02
565.153	-0.04
565.346	0.01
565.539	0.01
565.731	0.01
565.924	0.02
566.117	0.01
566.309	-0.01
566.502	-0.03
566.695	0.02
566.887	-0.01
567.08	-0
567.272	-0.02
567.465	-0.02
567.657	-0.02
567.85	0.02
568.042	0.02
568.235	0.02
568.427	0.01
568.62	0.01
568.812	0
569.005	-0.01
569.197	-0.05
569.389	0.01
569.582	0.03
569.774	0
569.966	-0.02
570.159	-0.04
570.351	0.01
570.543	-0.02
570.736	-0.02
570.928	-0.01
571.12	-0.02
571.312	-0.03
571.505	-0.04
571.697	0.04
571.889	-0.01
572.081	-0.04
572.273	-0.03
572.465	0.03
572.658	-0.01
572.85	0
573.042	-0.01
573.234	-0
573.426	0.02
573.618	-0.04
573.81	0.01
574.002	0.05
574.194	0.03
574.386	-0.03
574.578	-0.08
574.77	-0.03
574.962	-0
575.154	-0.03
575.346	-0.02
575.538	0.02
575.729	-0.04
575.921	-0.02
576.113	-0.01
576.305	0.05
576.497	-0.01
576.689	-0.01
576.88	-0.05
577.072	0.03
577.264	-0.01
577.456	-0.01
577.647	-0.07
577.839	-0
578.031	0.04
578.223	-0.02
578.414	-0.04
578.606	0.01
578.798	0.01
578.989	-0.01
579.181	-0.02
579.372	-0.02
579.564	-0.01
579.755	0.01
579.947	0
580.139	0.01
580.33	-0.07
580.522	-0.03
580.713	-0.09
580.905	-0.01
581.096	-0.01
581.287	0
581.479	-0.01
581.67	0.02
581.862	-0
582.053	-0.03
582.244	-0.05
582.436	-0.04
582.627	0.02
582.818	-0
583.01	-0.06
583.201	0.02
583.392	0.01
583.583	-0.01
583.775	-0.01
583.966	-0
584.157	0
584.348	-0.02
584.54	-0.06
584.731	-0
584.922	-0.01
585.113	-0.03
585.304	0.02
585.495	-0.01
585.686	0.01
585.877	0.01
586.068	0
586.259	0.01
586.45	-0.01
586.641	-0.03
586.832	-0.07
587.023	-0
587.214	0.01
587.405	-0.01
587.596	-0.04
587.787	0.03
587.978	-0.01
588.169	-0.04
588.36	-0.04
588.551	0.01
588.742	-0.04
588.932	-0.04
589.123	-0.01
589.314	0.01
589.505	0.01
589.696	-0.02
589.886	-0.02
590.077	-0.04
590.268	0
590.458	-0.06
590.649	-0.05
590.84	0.01
591.03	-0.03
591.221	-0.07
591.412	-0.03
591.602	-0.01
591.793	0.02
591.984	-0.02
592.174	-0.02
592.365	0.05
592.555	-0.02
592.746	-0
592.936	0
593.127	0.02
593.317	0.01
593.508	-0.04
593.698	-0.05
593.889	-0.01
594.079	-0
594.269	-0.03
594.46	-0
594.65	0.02
594.84	0.02
595.031	-0.04
595.221	-0.05
595.411	-0.06
595.602	0.03
595.792	-0.02
595.982	-0.01
596.172	0.07
596.363	0
596.553	-0.01
596.743	-0.03
596.933	-0.01
597.123	0.04
597.314	-0.01
597.504	-0.04
597.694	0.01
597.884	-0
598.074	-0.03
598.264	-0.01
598.454	0.01
598.644	-0.01
598.834	-0.03
599.024	-0.02
599.214	-0.02
599.404	0.01
599.594	-0.04
599.784	-0.05
599.974	0.04
600.164	0.03
600.354	-0.04
600.544	-0.07
600.734	-0.01
600.924	0.05
601.114	-0.01
601.303	0.02
601.493	-0.02
601.683	-0.02
601.873	-0.01
602.063	-0.06
602.252	-0.01
602.442	-0.08
602.632	-0.02
602.821	-0.01
603.011	0.01
603.201	-0.05
603.39	-0.06
603.58	-0.06
603.77	-0.01
603.959	0.01
604.149	-0.01
604.339	-0.01
604.528	0.02
604.718	0.01
604.907	-0.03
605.097	-0.02
605.286	0
605.476	0.02
605.665	0.01
605.855	0
606.044	0.06
606.234	0.02
606.423	-0.01
606.612	-0.03
606.802	-0.02
606.991	0.03
607.181	0.01
607.37	-0.04
607.559	-0.01
607.749	-0.06
607.938	-0.03
608.127	-0.01
608.316	-0.04
608.506	0
608.695	-0.02
608.884	-0.03
609.073	-0.01
609.263	0.03
609.452	0
609.641	-0.02
609.83	-0.02
610.019	-0.01
610.208	-0.03
610.397	0
610.586	-0
610.775	-0.03
610.965	-0.03
611.154	-0.03
611.343	0.02
611.532	0.01
611.721	-0.07
611.91	-0.03
612.099	0.03
612.287	-0.01
612.476	-0.05
612.665	-0
612.854	-0.01
613.043	0.05
613.232	-0.01
613.421	-0.07
613.61	0.01
613.798	-0.04
613.987	0.01
614.176	-0.01
614.365	0.01
614.554	-0.01
614.742	0.02
614.931	-0.02
615.12	0.03
615.309	-0.02
615.497	0
615.686	-0.05
615.875	-0.03
616.063	0.01
616.252	-0.03
616.44	-0.04
616.629	0.01
616.818	0.01
617.006	0.01
617.195	-0.03
617.383	0.02
617.572	-0.05
617.76	-0.02
617.949	-0.02
618.137	0.02
618.326	0.05
618.514	-0.01
618.703	-0.02
618.891	0.02
619.079	-0.06
619.268	-0.01
619.456	-0.02
619.644	0.03
619.833	-0.03
620.021	0.01
620.209	-0.06
620.398	-0.01
620.586	0.02
620.774	0.02
620.962	-0.01
621.151	0.06
621.339	-0.02
621.527	-0.05
621.715	-0.04
621.903	-0.04
622.092	-0.03
622.28	0.02
622.468	-0
622.656	-0.02
622.844	0.03
623.032	-0.05
623.22	-0.04
623.408	0.05
623.596	0.02
623.784	0
623.972	-0.02
624.16	-0.02
624.348	0.03
624.536	-0.02
624.724	-0.02
624.912	0.03
625.1	0.02
625.288	-0.03
625.476	-0.03
625.664	0.02
625.851	-0.05
626.039	-0.01
626.227	0.03
626.415	0.02
626.603	-0.04
626.79	0.02
626.978	-0.03
627.166	0.01
627.354	-0.02
627.541	-0.02
627.729	-0.08
627.917	0.01
628.104	0.06
628.292	-0.01
628.48	-0.01
628.667	-0
628.855	0.01
629.042	0.02
629.23	-0.01
629.418	0.01
629.605	-0.02
629.793	-0.03
629.98	-0.01
630.168	-0.01
630.355	0.01
630.543	0.04
630.73	-0.03
630.917	0.03
631.105	0.06
631.292	-0
631.48	-0.01
631.667	0.09
631.854	-0.01
632.042	-0.01
632.229	-0.05
632.416	-0
632.604	0
632.791	-0.05
632.978	0.04
633.165	0.03
633.353	0.07
633.54	0.06
633.727	-0.06
633.914	0
634.101	-0.07
634.289	0.01
634.476	-0.04
634.663	-0.04
634.85	0.01
635.037	-0.04
635.224	-0.03
635.411	0.04
635.598	0.04
635.785	-0.01
635.972	-0.01
636.159	0.04
636.346	-0.02
636.533	0.01
636.72	0.01
636.907	0.01
637.094	0.03
637.281	0.01
637.468	0.02
637.655	0.03
637.842	-0.04
638.029	-0.01
638.215	0.05
638.402	0
638.589	-0.02
638.776	-0.02
638.963	-0.03
639.149	0.06
639.336	0.07
639.523	0.02
639.709	0.02
639.896	-0.01
640.083	0.06
640.27	0.04
640.456	0
640.643	0.01
640.829	-0.03
641.016	0.03
641.203	-0.03
641.389	0.05
641.576	0.04
641.762	0.02
641.949	-0.02
642.135	0.02
642.322	0.03
642.508	-0.04
642.695	0.03
642.881	0.03
643.068	0.02
643.254	0.02
643.441	0.05
643.627	0.01
643.813	-0.02
644	0.07
644.186	0
644.372	0.06
644.559	0.08
644.745	0.03
644.931	-0.01
645.118	0.04
645.304	0.04
645.49	-0
645.676	-0.01
645.862	0.03
646.049	0.08
646.235	0.05
646.421	0.1
646.607	0.13
646.793	0.01
646.979	0.04
647.165	0.05
647.352	0.05
647.538	0.1
647.724	0.06
647.91	0.04
648.096	0.09
648.282	0.1
648.468	0.03
648.654	0.03
648.84	0.06
649.026	0.05
649.212	0.08
649.397	0.03
649.583	0.01
649.769	0.09
649.955	0.09
650.141	0.07
650.327	0.11
650.513	0.02
650.698	0.08
650.884	0
651.07	0.06
651.256	0.07
651.442	0.07
651.627	0.04
651.813	0.12
651.999	0.05
652.184	0.09
652.37	0.06
652.556	0.06
652.741	0.17
652.927	-0.01
653.113	0.06
653.298	0.08
653.484	0.09
653.669	0.02
653.855	0.06
654.04	0.13
654.226	0.09
654.412	0.03
654.597	0.05
654.782	0.11
654.968	0.11
655.153	0.09
655.339	0.09
655.524	0.05
655.71	0.15
655.895	0.06
656.08	0.09
656.266	0.14
656.451	0.13
656.636	0.03
656.822	0.09
657.007	0.06
657.192	0.08
657.378	0.05
657.563	0.11
657.748	0.14
657.933	0.14
658.118	0.08
658.304	0.06
658.489	0.11
658.674	0.11
658.859	0.06
659.044	0.1
659.229	0.14
659.414	0.1
659.599	0.11
659.785	0.03
659.97	0.06
660.155	0.15
660.34	0.11
660.525	0.07
660.71	0.05
660.895	0.11
661.08	0.08
661.264	0.05
661.449	0.11
661.634	0.16
661.819	0.08
662.004	0.1
662.189	0.01
662.374	0.02
662.559	0.05
662.743	-0.02
662.928	0.03
663.113	0.06
663.298	-0.01
663.483	0.03
663.667	0.03
663.852	0.01
664.037	0.11
664.221	0.03
664.406	0.09
664.591	0.06
664.775	0.06
664.96	0.05
665.145	0.05
665.329	0.04
665.514	0.02
665.698	0.01
665.883	0.01
666.068	0.09
666.252	0.03
666.437	-0.01
666.621	0.05
666.806	0.02
666.99	-0.01
667.174	-0.04
667.359	0.1
667.543	-0.01
667.728	0.01
667.912	-0.07
668.096	0.03
668.281	0
668.465	0
668.649	0.02
668.834	-0.04
669.018	0.02
669.202	0
669.387	-0.02
669.571	0.06
669.755	-0.03
669.939	-0.01
670.124	-0.01
670.308	0.05
670.492	0.03
670.676	0.03
670.86	-0.02
671.044	-0.06
671.228	0.05
671.413	0.01
671.597	-0.01
671.781	-0.06
671.965	0.01
672.149	-0
672.333	-0.02
672.517	0.02
672.701	-0.01
672.885	-0.03
673.069	-0.08
673.253	0.05
673.437	-0.01
673.621	-0.03
673.804	-0.01
673.988	-0.03
674.172	-0.03
674.356	-0.07
674.54	-0.02
674.724	0.08
674.908	-0.04
675.091	0.03
675.275	-0.04
675.459	0.03
675.643	0.07
675.826	0.02
676.01	-0
676.194	-0
676.377	0.06
676.561	0.01
676.745	-0
676.928	-0.04
677.112	0.04
677.296	-0.05
677.479	-0.04
677.663	-0.06
677.846	0
678.03	0
678.213	-0.04
678.397	-0
678.58	-0.04
678.764	-0.02
678.947	-0.07
679.131	-0.04
679.314	0.04
679.498	-0.02
679.681	0
679.865	0.08
680.048	-0.02
680.231	-0.01
680.415	-0
680.598	0.02
680.781	-0.05
680.965	-0.06
681.148	-0.02
681.331	-0.05
681.514	0.01
681.698	-0.01
681.881	-0.03
682.064	0.01
682.247	0.03
682.43	-0.09
682.614	-0.02
682.797	0.04
682.98	0.03
683.163	-0.06
683.346	0
683.529	-0.08
683.712	-0.06
683.895	0.02
684.078	-0.04
684.261	-0.01
684.444	-0.02
684.627	0.04
684.81	-0.05
684.993	-0.03
685.176	0.03
685.359	-0.05
685.542	-0.06
685.725	0.05
685.908	0.01
686.091	-0.06
686.274	0.03
686.457	0.02
686.639	-0.04
686.822	0.04
687.005	-0.01
687.188	0.06
687.371	0.13
687.553	0.02
687.736	0.03
687.919	0.09
688.102	0.05
688.284	-0.04
688.467	-0.01
688.65	-0.01
688.832	-0.03
689.015	-0.04
689.197	-0.04
689.38	0.06
689.563	0.06
689.745	-0.05
689.928	-0.02
690.11	-0.07
690.293	0.02
690.475	-0.1
690.658	0.06
690.84	0.05
691.023	-0.09
691.205	-0.04
691.388	-0.03
691.57	0.03
691.752	0.05
691.935	-0.11
692.117	-0.01
692.3	-0.04
692.482	-0.01
692.664	0.01
692.847	0.01
693.029	0.02
693.211	0.01
693.393	-0.04
693.576	-0.02
693.758	0.04
693.94	-0.06
694.122	-0.04
694.304	-0.03
694.487	0.01
694.669	0.09
694.851	-0.07
695.033	-0.02
695.215	-0.06
695.397	-0.07
695.579	0.01
695.761	-0.04
695.943	-0.04
696.125	0.05
696.308	0.03
696.49	-0.11
696.671	0.09
696.853	0
697.035	0.16
697.217	-0.01
697.399	0.03
697.581	-0.01
697.763	0.02
697.945	0.03
698.127	0.03
698.309	0.08
698.491	0.01
698.672	0.05
698.854	0.05
699.036	0.04
699.218	-0.03
699.399	0.07
699.581	0.07
699.763	-0.01
699.945	-0.03
700.126	-0.03
700.308	0.01
700.49	0.02
700.671	-0.06
700.853	-0.04
701.035	-0.05
701.216	0
701.398	-0.01
701.579	-0.03
701.761	0.05
701.943	-0.08
702.124	-0.06
702.306	-0.01
702.487	0.15
702.669	0.01
702.85	-0.04
703.031	-0.07
703.213	0.13
703.394	0.05
703.576	0
703.757	0.03
703.938	0.04
704.12	0.19
704.301	0
704.483	0.02
704.664	0.04
704.845	0.11
705.026	0.01
705.208	-0.06
705.389	-0
705.57	0.07
705.751	-0.01
705.933	0.01
706.114	0.06
706.295	-0.08
706.476	-0.06
706.657	0.06
706.838	0.04
707.02	0.09
707.201	-0.02
707.382	-0.08
707.563	-0.01
707.744	-0.02
707.925	-0.03
708.106	-0.06
708.287	0.01
708.468	0.08
708.649	0.01
708.83	0.07
709.011	0.04
709.192	0.08
709.373	-0.08
709.554	-0.02
709.734	0.11
709.915	0.08
710.096	-0.04
710.277	-0.07
710.458	-0.04
710.639	0.03
710.819	-0.07
711	-0.02
711.181	0.09
711.362	0.03
711.542	0.01
711.723	-0.01
711.904	0.07
712.085	0.01
712.265	0.07
712.446	-0.11
712.627	-0.08
712.807	-0.02
712.988	0
713.168	-0.06
713.349	0.02
713.53	-0.13
713.71	-0.03
713.891	-0.04
714.071	0.04
714.252	-0.01
714.432	-0.04
714.613	-0.03
714.793	-0.06
714.974	0.07
715.154	0.09
715.334	0.1
715.515	0.09
715.695	-0.07
715.876	-0.04
716.056	0.02
716.236	-0.05
716.417	-0
716.597	-0.07
716.777	0.13
716.957	0.02
717.138	-0.02
717.318	-0.01
717.498	-0.05
717.678	0.02
717.859	0.05
718.039	-0.1
718.219	0.06
718.399	0.1
718.579	-0.04
718.759	-0.01
718.939	0.02
719.12	0.03
719.3	-0.02
719.48	-0.09
719.66	-0.1
719.84	0.13
720.02	0.04
720.2	-0.03
720.38	0.03
720.56	0.09
720.74	0.05
720.92	0
721.1	0.08
721.279	0.11
721.459	0.05
721.639	-0.07
721.819	0.05
721.999	-0.01
722.179	0.08
722.359	0.01
722.538	0.05
722.718	0
722.898	-0.03
723.078	0.03
723.257	-0.03
723.437	0.12
723.617	0.05
723.797	0.04
723.976	0.02
724.156	0.04
724.336	0.16
724.515	0.21
724.695	-0.07
724.874	0.08
725.054	0.08
725.234	0.03
725.413	0.06
725.593	-0.01
725.772	0.06
725.952	-0
726.131	0.05
726.311	0.03
726.49	0.08
726.67	-0.09
726.849	-0
727.028	0.03
727.208	0.03
727.387	0.09
727.567	-0.09
727.746	0.04
727.925	0.05
728.105	-0.01
728.284	0.05
728.463	0.02
728.643	0.13
728.822	-0.02
729.001	-0.04
729.18	0.05
729.359	0.15
729.539	0.07
729.718	0.05
729.897	0.19
730.076	-0.02
730.255	-0.09
730.434	0.05
730.614	0.18
730.793	0.18
730.972	0.05
731.151	0.01
731.33	0.22
731.509	0.13
731.688	0.04
731.867	0.09
732.046	-0.01
732.225	0.32
732.404	0.01
732.583	0
732.762	0.05
732.941	0.16
733.12	0.13
733.298	-0.04
733.477	0.18
733.656	0.14
733.835	0.03
734.014	0.1
734.193	0.12
734.371	0.04
734.55	0.12
734.729	-0.01
734.908	0.21
735.086	0.16
735.265	0.12
735.444	-0.11
735.623	0.02
735.801	-0.05
735.98	0.11
736.159	0.1
736.337	0.23
736.516	0.06
736.694	0.09
736.873	0.1
737.052	0.17
737.23	0.18
737.409	0.1
737.587	0.3
737.766	-0.02
737.944	-0.01
738.123	0.14
738.301	0.17
738.479	0.04
738.658	0.18
738.836	-0.14
739.015	0.1
739.193	0.22
739.371	-0.02
739.55	0.07
739.728	-0.17
739.906	0.15
740.085	0.37
740.263	0.1
740.441	-0.17
740.62	0.22
740.798	0.19
740.976	-0.01
741.154	0.01
741.332	0.16
741.511	-0.04
741.689	0.07
741.867	0.09
742.045	0.05
742.223	-0.03
742.401	-0.01
742.579	-0.06
742.757	0.12
742.935	-0.12
743.114	0.01
743.292	0
743.47	0.06
743.648	-0.05
743.826	0.09
744.004	0.1
744.181	0.14
744.359	-0.05
744.537	0.06
744.715	0.07
744.893	0.01
745.071	0.02
745.249	0.05
745.427	-0.02
745.605	0.06
745.782	-0.02
745.96	0.04
746.138	0.09
746.316	0.11
746.493	0
746.671	0.02
746.849	-0.03
747.027	0.16
747.204	-0.04
747.382	0.05
747.56	-0.08
747.737	0.07
747.915	-0.09
748.093	0.03
748.27	0.07
748.448	0.04
748.625	-0.09
748.803	-0.05
748.98	-0.09
749.158	0.09
749.335	0.14
749.513	0.06
749.69	0.04
749.868	0.03
750.045	0.2
750.223	0.02
750.4	-0.21
750.578	0.22
750.755	-0.03
750.932	-0.07
751.11	0.11
751.287	-0.11
751.464	0.13
751.642	-0.03
751.819	0.04
751.996	0.06
752.173	-0.07
752.351	-0.17
752.528	0.04
752.705	-0.1
752.882	-0.17
753.06	-0.09
753.237	0.06
753.414	0.02
753.591	0.2
753.768	0.1
753.945	-0.08
754.122	0
754.299	0.03
754.476	-0.11
754.654	0.03
754.831	0
755.008	-0.01
755.185	-0.07
755.362	-0.08
755.539	0.01
755.716	-0.07
755.892	-0.01
756.069	-0.07
756.246	-0.07
756.423	-0.01
756.6	0.13
756.777	-0.06
756.954	0.25
757.131	-0.01
757.307	-0.09
757.484	-0.12
757.661	0.03
757.838	0.1
758.015	-0.1
758.191	0.01
758.368	-0.06
758.545	0.07
758.721	0.07
758.898	-0.16
759.075	0.02
759.251	0.07
759.428	0.01
759.605	-0.13
759.781	0.05
759.958	0.07
760.134	-0.05
760.311	0
760.488	0.16
760.664	0.1
760.841	0
761.017	-0.1
761.194	0.05
761.37	0.07
761.547	-0.03
761.723	-0.07
761.899	0.1
762.076	-0.07
762.252	-0.19
762.429	-0.06
762.605	0.21
762.781	-0.05
762.958	0.19
763.134	-0.06
763.31	-0.01
763.486	0.18
763.663	-0.21
763.839	0.1
764.015	-0.2
764.191	-0.15
764.368	0.05
764.544	-0.07
764.72	-0.03
764.896	0.09
765.072	0.05
765.248	-0.05
765.425	-0.08
765.601	0.06
765.777	-0.02
765.953	-0.28
766.129	-0.15
766.305	-0.14
766.481	0.07
766.657	-0.01
766.833	0.12
767.009	-0.14
767.185	-0.08
767.361	-0.08
767.537	-0.21
767.713	0.1
767.889	0.01
768.065	-0.1
768.24	-0.15
768.416	0.14
768.592	0.03
768.768	0.01
768.944	0.1
769.12	-0.14
769.295	-0.09
769.471	-0.11
769.647	-0
769.823	0.08
769.998	-0.22
770.174	-0.16
770.35	0.26
770.525	0.18
770.701	-0.02
770.877	0.05
771.052	-0.02
771.228	0.1
771.403	-0.02
771.579	0.02
771.755	0.09
771.93	-0.01
772.106	-0.27
772.281	-0.11
772.457	0.08
772.632	0.06
772.808	-0.18
772.983	-0.01
773.159	-0.18
773.334	0.26
773.509	0.01
773.685	-0.12
773.86	0.29
774.036	0.2
774.211	0.02
774.386	-0.04
774.562	-0
774.737	0.09
774.912	-0.18
775.087	0.02
775.263	-0.04
775.438	-0.01
775.613	-0.01
775.788	-0.11
775.964	0.19
776.139	0.34
776.314	-0.17
776.489	-0.02
776.664	0.07
776.839	-0.22
777.014	0.14
777.19	0.19
777.365	0.17
777.54	0.19
777.715	-0.03
777.89	0.04
778.065	-0.27
778.24	-0.12
778.415	0.17
778.59	-0.03
778.765	-0.2
778.94	0.12
779.115	0.03
779.289	-0.19
779.464	0.05
779.639	-0.14
779.814	-0.16
779.989	-0.22
780.164	0.11
780.339	0.04
780.513	-0.19
780.688	-0.17
780.863	-0.03
781.038	0.3
781.212	-0.27
781.387	0.08
781.562	0.22
781.737	0.02
781.911	0.23
782.086	-0.25
782.261	0.01
782.435	0.29
782.61	0.05
782.784	-0.15
782.959	0.14
783.134	-0.18
783.308	-0.09
783.483	-0.07
783.657	0.46
783.832	0.36
784.006	-0.46
784.181	-0.04
784.355	0.27
784.53	0.1
784.704	-0.01
784.878	0.37
785.053	0.06
785.227	0.13
785.402	0.27
785.576	-0.21
785.75	-0.13
785.925	-0.19
786.099	-0.02
786.273	-0.01
786.448	0.17
786.622	0.05
786.796	-0.05
786.97	-0.18
787.145	0.39
787.319	-0.24
787.493	-0.11
787.667	-0.46
787.841	-0.03
788.015	0.29
788.19	-0.33
788.364	-0.08
788.538	0.07
788.712	0.07
788.886	-0.05
789.06	0.12
789.234	0.06
789.408	-0.17
789.582	0.06
789.756	-0.1
789.93	-0.08
790.104	-0.05
790.278	0.03
790.452	-0.13
790.626	-0.03
790.8	-0.2
790.973	-0.13
791.147	0.21
791.321	0.46
791.495	0.19
791.669	-0.03
791.843	0.22
792.016	0.25
792.19	0.48
792.364	-0.3
792.538	0.2
792.711	0.15
792.885	-0.17
793.059	-0.31
793.233	-0.52
793.406	0.18
793.58	0.03
793.754	0.26
793.927	0.06
794.101	0.26
794.274	0
794.448	0.11
794.622	-0.15
794.795	0.04
794.969	-0.15
795.142	0.13
795.316	-0.11
795.489	-0.18
795.663	0.44
795.836	0.04
796.009	-0.15
796.183	0.22
796.356	0.07
796.53	0.1
796.703	-0.03
796.876	0.64
797.05	-0.11
797.223	-0.14
797.396	0.19
797.57	0.17
797.743	0.1
797.916	-0.01
798.09	0.01
798.263	0.45
798.436	-0.21
798.609	-0.14
798.782	-0.12
798.956	0.12
799.129	-0.23
799.302	-0.14
799.475	-0.16
799.648	-0.15
799.821	-0.03
799.994	0
800.167	-0.38
800.34	0.16
800.514	-0.08
800.687	-0.27
800.86	0.01
801.033	0.14
801.206	0.12
801.379	-0.34
801.551	0.38
801.724	0.14
801.897	0.25
802.07	-0.03
802.243	-0.31
802.416	-0.29
802.589	0.25
802.762	0.03
802.935	-0.02
803.107	0.19
803.28	0.32
803.453	0.25
803.626	-0.28
803.798	-0.04
803.971	-0.43
804.144	0.2
804.317	0.12
804.489	0.12
804.662	0.25
804.835	0.22
805.007	-0.33
805.18	0.14
805.353	0.11
805.525	-0.35
805.698	-0.04
805.87	0.34
806.043	0.12
806.215	-0.34
806.388	-0.68
806.56	0.41
806.733	0.41
806.905	0.14
807.078	0.02
807.25	-0.23
807.423	-0.06
807.595	0.11
807.768	0.31
807.94	0.23
808.112	0.24
808.285	-0.12
808.457	0.12
808.629	-0.11
808.802	0.15
808.974	-0.05
809.146	-0.16
809.318	-0.3
809.491	0.31
809.663	0.31
809.835	-0.31
810.007	-0.04
810.18	-0.14
810.352	-0.42
810.524	-0.34
810.696	0.27
810.868	0.61
811.04	0.07
811.212	-0.04
811.384	0.32
811.556	-0.18
811.728	-0.47
811.901	0.63
812.073	-0.16
812.245	-0.1
812.417	-0.29
812.589	-0.57
812.76	0.13
812.932	0.08
813.104	0.25
813.276	-0.22
813.448	0.23
813.62	-0.25
813.792	0.07
813.964	0.22
814.136	-0.04
814.307	-0.1
814.479	0.01
814.651	-0.26
814.823	0.72
814.995	-0.34
815.166	0.17
815.338	-0.1
815.51	-0.72
815.681	0.71
815.853	-0.11
816.025	0.02
816.196	0.38
816.368	-0.19
816.54	-0.61
816.711	-0.53
816.883	0.3
817.054	0.62
817.226	-0.67
817.398	0.26
817.569	-0.58
817.741	0.01
817.912	-0.18
818.084	-0.61
818.255	0.49
818.426	-0.42
818.598	-0.16
818.769	0.15
818.941	0.34
819.112	0.16
819.283	0.5
819.455	-0.24
819.626	-0.09
819.798	0.13
819.969	0.18
820.14	-0.12
820.311	-0.03
820.483	-0.1
820.654	-0.08
820.825	0.16
820.996	0.09
821.168	-0.36
821.339	-0.48
821.51	-0.51
821.681	-0.16
821.852	0.15
822.023	-0.72
822.195	-0.87
822.366	0.4
822.537	-0.18
822.708	0.23
822.879	-0.2
823.05	0.74
823.221	-0.24
823.392	0.5
823.563	0.32
823.734	0.34
823.905	0.01
824.076	-0.4
824.247	-0.43
824.418	-0.28
824.589	0.64
824.759	0.11
824.93	-0.23
825.101	-0.99
825.272	0.89
825.443	0.37
825.614	0.96
825.784	-1.13
825.955	1.15
826.126	0.41
826.297	0.17
826.467	0.66
826.638	0.42
826.809	-0.56
826.98	-0.47
827.15	0.08
827.321	0.2
827.492	0.75
827.662	0.12
827.833	0.72
828.003	0.53
828.174	-0.25
828.345	-0.64
828.515	0.54
828.686	0.05
828.856	-0.47
829.027	-0.22
829.197	-0.77
829.368	0.38
829.538	-0.22
829.709	-0.62
829.879	-0.12
830.049	0.09
830.22	-0.12
830.39	-0.38
830.56	0.67
830.731	0.02
830.901	-0.39
831.072	-0.34
831.242	-0.05
831.412	-0.03
831.582	0.09
831.753	-0.8
831.923	0.32
832.093	-0.1
832.263	-0.3
832.434	-1.02
832.604	-0.56
832.774	0.07
832.944	-0.88
833.114	-1.04
833.284	0.25
833.454	-0.77
833.624	-0.17
833.795	-0.87
833.965	1.21
834.135	0.44
834.305	-0.61
834.475	-0.44
834.645	0.04
834.815	0.14
834.985	-0.45
835.155	-0.62
835.325	-0.3
835.494	0.25
835.664	-0.53
835.834	-1.34
836.004	0.07
836.174	0.33
836.344	0.44
836.514	-0.54
836.684	-0.22
836.853	-0.07
837.023	0.04
837.193	-0.16
837.363	0.73
837.532	0.3
837.702	0.27
837.872	0.02
838.041	0.83
838.211	1.14
838.381	-0.43
838.55	-0.69
838.72	1.89
838.89	1.5
839.059	-0.44
839.229	-0.71
839.398	1.47
839.568	0.25
839.738	0.27
839.907	0.11
840.077	0.29
840.246	-0.27
840.416	-0.72
840.585	-1.32
840.755	1.21
840.924	1.07
841.093	-0.02
841.263	-0.47
841.432	-0.25
841.602	-0.62
841.771	-0.55
841.94	-0.73
842.11	1.7
842.279	1.87
842.448	-0.59
842.617	0.02
842.787	0.45
842.956	-1.46
843.125	-0.15
843.294	0.24
843.464	0.86
843.633	1.15
843.802	-0.48
843.971	0.36
844.14	0.92
844.309	0.81
844.479	-0.79
844.648	-0.75
844.817	-0.52
844.986	0.43
845.155	-0.94
845.324	0.09
845.493	-1.01
845.662	-0.62
845.831	0.75
846	0.98
846.169	-0.11
846.338	1.77
846.507	0.19
846.676	0.42
846.844	-0.34
847.013	0.76
847.182	-0.67
847.351	-0.82
847.52	-0.43
847.689	0.75
847.858	-0.59
848.026	-0.34
848.195	-0.23
848.364	-0.6
848.533	-0.72
848.701	-0.35
848.87	0.27
849.039	0.71
849.207	0.64
849.376	0.21
849.545	0.86
849.713	-0.8
849.882	-0.22
850.051	-0.37
850.219	0.08
850.388	0.7
850.556	-0.49
850.725	-0.36
850.893	0.2
851.062	-0.71
851.23	0.63
851.399	-1.53
851.567	-0.91
851.736	-0.32
851.904	-0.71
852.073	-0.04
852.241	0.58
852.41	0.29
852.578	-0.57
852.746	-0.03
852.915	1
853.083	-0.8
853.251	-0.17
853.42	-0.56
853.588	-0.15
853.756	0.15
853.924	-0.31
854.093	0.1
854.261	0.68
854.429	-1.85
854.597	0.56
854.765	-0.67
854.934	0.5
855.102	0.59
855.27	-0.5
855.438	0.32
855.606	0.4
855.774	1.94
855.942	-1.27
856.11	-2.29
856.278	-0.11
856.446	1.63
856.614	0.58
856.782	-0.66
856.95	0.5
857.118	0.93
857.286	-0.31
857.454	-1.18
857.622	1.07
857.79	-0.31
857.958	-1.65
858.126	-0.89
858.294	-0.83
858.462	-0.5
858.629	-0.7
858.797	-0.96
858.965	-0.55
859.133	0.18
859.301	-0.68
859.468	0.64
859.636	-0.53
859.804	1.68
859.971	0.57
860.139	-1.9
860.307	1.21
860.474	-0.6
860.642	-1.62
860.81	-0.76
860.977	-0.38
861.145	0.59
861.313	0.03
861.48	0.3
861.648	0.32
861.815	-0.21
861.983	-0.92
862.15	-1.25
862.318	-0.19
862.485	2.08
862.653	-0.3
862.82	-1.26
862.988	0.17
863.155	0.5
863.322	-0.6
863.49	-1.58
863.657	-0.8
863.824	1.62
863.992	1.13
864.159	0.31
864.326	-0.47
864.494	-1.31
864.661	3.51
864.828	0.02
864.996	0.42
865.163	1.65
865.33	-0.96
865.497	-1.7
865.664	-0.18
865.832	-1.58
865.999	-0.96
866.166	-0.72
866.333	-1.59
866.5	-0.01
866.667	0.08
866.834	-0.78
867.001	1.9
867.168	-2.79
867.335	0.95
867.502	-1.17
867.669	1.59
867.836	2.45
868.003	0.42
868.17	0.11
868.337	3.62
868.504	2.85
868.671	-0.1
868.838	-1.97
869.005	1.22
869.172	1.42
869.339	-0.69
869.505	-1.49
869.672	0.3
869.839	2.9
870.006	0.51
870.173	-1.56
870.339	0.79
870.506	1.82
870.673	-2.59
870.84	1.03
871.006	-0.85
871.173	-0.25
871.34	-1.29
871.506	-1.52
871.673	0.73
871.839	-2.94
872.006	-0.93
872.173	-0.8
872.339	0.43
872.506	1.31
872.672	0.34
872.839	-1.2
873.005	0.09
873.172	1.54
873.338	1.64
873.505	0.87
873.671	0.22
873.838	-0.23
874.004	-0.41
874.171	-2.13
874.337	2.25
874.503	-0.05
874.67	-0.19
874.836	0
875.002	2.73
875.169	2.1
875.335	-0.36
875.501	1.14
875.668	-1.9
875.834	-1.84
876	0.22
876.166	1.08
876.332	0.77
876.499	2.75
876.665	-1.12
876.831	0.62
876.997	4.18
877.163	0.65
877.329	-2.03
877.495	0
877.662	1.91
877.828	1.58
877.994	0.1
878.16	-4.64
878.326	-1.77
878.492	1.35
878.658	-0.42
878.824	1.41
878.99	1.25
879.156	-2.25
879.322	2
879.487	0.4
879.653	-0.76
879.819	1.05
879.985	-0.68
880.151	1.42
880.317	1.84
880.483	1.59
880.648	1.72
880.814	-3.04
880.98	-0.09
881.146	-2.51
881.312	-1.07
881.477	-0.95
881.643	1.64
881.809	2.81
881.974	2.75
882.14	-3.83
882.306	0.04
882.471	3.62
882.637	-0.41
882.803	1.65
882.968	2.98
883.134	3.26
883.299	-1.01
883.465	-0.95
883.63	1.46
883.796	0.58
883.961	1.43
884.127	1.64
884.292	-3.45
884.458	-3.15
884.623	-3.15
