Data from Apollo_Calib_20240827__AbsoluteIrradiance__260__03-29-02-871.txt Node

Date: Wed Aug 28 03:29:02 BST 2024
User: biology
Spectrometer: FLMT08252
Trigger mode: 0
Integration Time (sec): 5.000000E-1
Scans to average: 5
Electric dark correction enabled: true
Nonlinearity correction enabled: false
Boxcar width: 0
XAxis mode: Wavelengths
Number of Pixels in Spectrum: 3648
>>>>>Begin Spectral Data<<<<<
179.588	-0
179.809	-0
180.03	-0
180.251	-0
180.473	-0
180.694	0
180.915	0
181.136	-0
181.357	0
181.578	-0
181.799	0
182.02	-0
182.241	0
182.462	-0
182.683	0
182.904	-0
183.125	-0
183.346	0
183.567	0
183.788	0
184.009	-0
184.23	0
184.451	0
184.672	-0
184.892	-0
185.113	0
185.334	0
185.555	0
185.776	-0
185.996	0
186.217	-0
186.438	0
186.659	-0
186.879	0
187.1	-0
187.321	-0
187.541	-0
187.762	0
187.983	0
188.203	0
188.424	0
188.644	0
188.865	-0
189.086	0
189.306	-0
189.527	0
189.747	0
189.968	-0
190.188	0
190.409	0
190.629	0
190.849	-0
191.07	-0
191.29	0
191.511	0
191.731	-0
191.951	-0
192.172	-0
192.392	0
192.612	-0
192.833	0
193.053	0
193.273	0
193.493	-0
193.714	-0
193.934	0
194.154	0
194.374	0
194.594	-0
194.815	-0
195.035	0
195.255	0
195.475	-0
195.695	0
195.915	0
196.135	-0
196.355	0
196.575	0
196.795	0
197.015	-0
197.235	0
197.455	0
197.675	0
197.895	-0
198.115	-0
198.335	0
198.555	-0
198.775	0
198.995	0
199.214	0
199.434	-0
199.654	-0
199.874	0
200.094	0.83
200.313	-0.08
200.533	-0.26
200.753	-0.74
200.973	0.55
201.192	0.58
201.412	-0.58
201.632	-0.01
201.851	1.01
202.071	-0.32
202.291	0.01
202.51	-0.05
202.73	0.61
202.95	-0.12
203.169	-0.73
203.389	0.46
203.608	0.41
203.828	-0.44
204.047	0.15
204.267	0.41
204.486	0.18
204.706	0.3
204.925	0.36
205.145	-0.1
205.364	0.47
205.583	0.99
205.803	-0.14
206.022	-0.62
206.242	0.15
206.461	0.26
206.68	-0.13
206.9	0.33
207.119	0.7
207.338	0.67
207.557	-0
207.777	0.18
207.996	0.31
208.215	0.58
208.434	-0.02
208.654	-0.44
208.873	0.12
209.092	0.3
209.311	-0.09
209.53	0.07
209.749	-0.22
209.968	-0.05
210.187	-0.02
210.407	-0.41
210.626	-0.33
210.845	0.06
211.064	0.35
211.283	-0.23
211.502	0.46
211.721	-0.1
211.94	-0.08
212.159	0.13
212.377	0.53
212.596	0.38
212.815	0.19
213.034	0.22
213.253	0.3
213.472	0.27
213.691	0.03
213.91	-0.04
214.128	0.09
214.347	0.63
214.566	-0.41
214.785	-0.15
215.003	0.39
215.222	0.22
215.441	-0.01
215.66	-0.08
215.878	0.05
216.097	0.43
216.316	-0.1
216.534	-0.06
216.753	0.19
216.972	0.29
217.19	0.07
217.409	-0.08
217.627	-0.01
217.846	0.1
218.064	-0.02
218.283	-0.15
218.501	0.54
218.72	0.52
218.938	-0.14
219.157	-0.06
219.375	0.31
219.594	0.25
219.812	-0.16
220.031	0.06
220.249	0.43
220.467	0.42
220.686	-0.01
220.904	-0.12
221.122	-0.12
221.341	0.43
221.559	-0.01
221.777	-0.18
221.995	0.08
222.214	0.26
222.432	-0.08
222.65	0.1
222.868	0.07
223.086	0.04
223.305	0.07
223.523	-0.02
223.741	0.47
223.959	-0.01
224.177	-0.21
224.395	-0.06
224.613	0.15
224.831	0.24
225.049	-0.08
225.267	-0.05
225.485	0.16
225.703	0.03
225.921	0.09
226.139	-0.06
226.357	0.09
226.575	0.03
226.793	-0.18
227.011	0.68
227.229	0.14
227.447	0.24
227.665	-0.06
227.883	-0.08
228.1	0.03
228.318	0.15
228.536	-0.25
228.754	-0.13
228.972	0.1
229.189	0.2
229.407	0.01
229.625	-0.02
229.843	0.14
230.06	0.18
230.278	0.04
230.496	0.07
230.713	0.08
230.931	0.24
231.149	-0.02
231.366	-0.11
231.584	0.12
231.801	0.29
232.019	0.04
232.236	-0.11
232.454	-0.12
232.671	0.13
232.889	0.05
233.106	-0.08
233.324	-0.02
233.541	0.04
233.759	0.1
233.976	-0.04
234.194	0.06
234.411	0.1
234.628	-0.14
234.846	-0.03
235.063	0.03
235.28	0.02
235.498	0.06
235.715	-0.11
235.932	0.1
236.149	0.07
236.367	0.01
236.584	0.09
236.801	0.01
237.018	0.19
237.236	0.04
237.453	-0.12
237.67	0.16
237.887	-0.03
238.104	0.09
238.321	-0.03
238.538	-0.06
238.755	0.18
238.973	-0.09
239.19	0.16
239.407	0.13
239.624	0.14
239.841	-0.05
240.058	0.01
240.275	0.19
240.492	-0.07
240.709	0.07
240.925	-0
241.142	0.01
241.359	-0.01
241.576	-0.02
241.793	0.04
242.01	0.09
242.227	0.1
242.444	0.04
242.66	0.08
242.877	0.03
243.094	-0.03
243.311	0.04
243.527	0.06
243.744	0.1
243.961	0.01
244.178	-0.12
244.394	-0
244.611	0.25
244.828	0.3
245.044	-0.05
245.261	0.03
245.477	0.08
245.694	0.06
245.911	-0.04
246.127	0.12
246.344	0.11
246.56	0.1
246.777	0.01
246.993	0.15
247.21	0.09
247.426	0.13
247.643	0
247.859	-0.01
248.076	0.03
248.292	0.28
248.508	0.06
248.725	0.07
248.941	0.07
249.157	0.15
249.374	-0.06
249.59	0.02
249.806	-0.05
250.023	0.02
250.239	-0.05
250.455	0.03
250.671	0.07
250.888	0.11
251.104	0.06
251.32	-0.04
251.536	0.11
251.752	-0
251.969	0.06
252.185	0.01
252.401	0.2
252.617	0.13
252.833	-0.1
253.049	0.05
253.265	0.03
253.481	0.05
253.697	0.03
253.913	-0.1
254.129	0.03
254.345	0.09
254.561	-0.03
254.777	-0.01
254.993	0.05
255.209	0.07
255.425	0.02
255.641	-0.02
255.857	0.07
256.073	0.05
256.288	-0.04
256.504	0.04
256.72	0.07
256.936	0.09
257.152	-0.01
257.367	-0.06
257.583	0.09
257.799	0.11
258.015	-0.01
258.23	-0.11
258.446	0.19
258.662	0.01
258.877	-0
259.093	-0.03
259.309	0.01
259.524	0.02
259.74	-0.02
259.955	-0.04
260.171	0.05
260.387	0.08
260.602	0.11
260.818	0.04
261.033	-0.09
261.249	-0.06
261.464	-0.05
261.68	-0.09
261.895	0.05
262.11	0.06
262.326	-0.05
262.541	-0.06
262.757	0.1
262.972	0.08
263.187	0.1
263.403	0.06
263.618	0.06
263.833	0.05
264.049	-0.04
264.264	0.08
264.479	0.12
264.694	0.15
264.91	-0.03
265.125	-0.03
265.34	0.11
265.555	0.14
265.77	0.02
265.986	0.03
266.201	0.11
266.416	0.09
266.631	0.01
266.846	0.05
267.061	0.11
267.276	0.04
267.491	-0.17
267.706	0.08
267.921	0.05
268.136	0.09
268.351	0.04
268.566	-0.07
268.781	0.18
268.996	0.08
269.211	0.09
269.426	-0.06
269.641	0.05
269.856	0.09
270.071	-0.04
270.285	-0.06
270.5	0.08
270.715	0.15
270.93	0.04
271.145	0.04
271.359	0.17
271.574	-0
271.789	0.06
272.004	-0.05
272.218	0.05
272.433	0.09
272.648	-0.02
272.862	0.09
273.077	0.07
273.292	-0.02
273.506	0.02
273.721	0.04
273.936	0.11
274.15	0.1
274.365	0.07
274.579	0.07
274.794	0.07
275.008	0.1
275.223	-0.03
275.437	-0.03
275.652	0.12
275.866	0.07
276.081	0.04
276.295	0.07
276.509	0.07
276.724	0.04
276.938	0.03
277.153	0.08
277.367	0.1
277.581	-0.01
277.796	-0.02
278.01	-0.02
278.224	0.08
278.438	0.18
278.653	-0.02
278.867	-0
279.081	0.05
279.295	-0
279.51	0.01
279.724	-0.07
279.938	0.1
280.152	0
280.366	-0.01
280.58	0.07
280.794	0.15
281.008	0.03
281.222	0.07
281.437	0.11
281.651	0.04
281.865	0.1
282.079	0.02
282.293	-0.05
282.507	0.01
282.721	0.01
282.935	0.03
283.148	-0.08
283.362	0.04
283.576	-0.03
283.79	0.06
284.004	0.02
284.218	0.09
284.432	-0
284.646	0.05
284.859	-0.03
285.073	-0.01
285.287	0.01
285.501	0.03
285.714	-0
285.928	0.07
286.142	0.06
286.356	-0.03
286.569	0.02
286.783	0.13
286.997	0.1
287.21	0.04
287.424	0.06
287.637	0.03
287.851	-0.01
288.065	0.05
288.278	0.06
288.492	0.05
288.705	0.02
288.919	0.06
289.132	-0.02
289.346	0.1
289.559	-0.03
289.773	-0.07
289.986	-0
290.2	0.03
290.413	0.1
290.626	-0.08
290.84	0.07
291.053	-0
291.267	0.1
291.48	-0
291.693	0.04
291.906	0.03
292.12	0.01
292.333	-0.03
292.546	0.04
292.76	0.07
292.973	0.03
293.186	0.03
293.399	-0.02
293.612	0.08
293.826	0.05
294.039	0
294.252	0.04
294.465	0.08
294.678	0.03
294.891	0.08
295.104	-0.05
295.317	0.04
295.53	0.05
295.743	0.05
295.956	-0.02
296.169	0.07
296.382	0.1
296.595	0.04
296.808	0.02
297.021	0.06
297.234	0.08
297.447	0.07
297.66	0.07
297.873	0.06
298.086	0.05
298.299	0
298.511	-0.01
298.724	0.03
298.937	0.02
299.15	-0.04
299.363	0.04
299.575	0.07
299.788	0.09
300.001	0.02
300.213	-0.01
300.426	0.05
300.639	-0.02
300.852	-0.01
301.064	0.07
301.277	0.08
301.489	0.08
301.702	0.06
301.915	0.02
302.127	0.07
302.34	0.05
302.552	0.06
302.765	-0.01
302.977	0.09
303.19	-0.03
303.402	0
303.615	0.05
303.827	0.03
304.04	0.01
304.252	0.06
304.464	0.01
304.677	0.13
304.889	0.11
305.102	0.02
305.314	-0.01
305.526	0.09
305.739	0.06
305.951	-0.05
306.163	0
306.375	0.08
306.588	0.01
306.8	0.01
307.012	-0.03
307.224	0.04
307.436	0.08
307.649	-0.01
307.861	0.03
308.073	0.06
308.285	0.03
308.497	-0.01
308.709	0.01
308.921	0.08
309.133	0.12
309.346	0.03
309.558	0.03
309.77	0.08
309.982	0.1
310.194	0.05
310.406	-0
310.617	0.14
310.829	0.04
311.041	0.03
311.253	-0.02
311.465	0.03
311.677	0.05
311.889	0.01
312.101	0.01
312.313	0.07
312.524	0.04
312.736	0.01
312.948	-0.03
313.16	0.09
313.372	0.04
313.583	0.01
313.795	0.01
314.007	0.02
314.218	0.08
314.43	0.06
314.642	-0.01
314.853	-0.01
315.065	0.08
315.277	-0.01
315.488	0.03
315.7	0.06
315.912	0.05
316.123	0.04
316.335	0.02
316.546	0.13
316.758	0.03
316.969	0.02
317.181	0.01
317.392	-0
317.604	0.08
317.815	0.05
318.026	-0.02
318.238	0.01
318.449	0.07
318.661	-0.02
318.872	-0.03
319.083	0.03
319.295	0.05
319.506	0.01
319.717	0.02
319.929	0.06
320.14	0.07
320.351	0.06
320.562	0.01
320.774	0.05
320.985	0.01
321.196	-0.03
321.407	-0
321.618	0.08
321.829	0.05
322.041	0.04
322.252	0.04
322.463	0.08
322.674	0.08
322.885	-0.03
323.096	0.01
323.307	0
323.518	0.03
323.729	-0
323.94	0.04
324.151	0
324.362	-0.01
324.573	0.06
324.784	-0.02
324.995	0.07
325.206	0.06
325.417	0.01
325.628	0.02
325.838	0.01
326.049	0.04
326.26	0.07
326.471	0.03
326.682	0.1
326.892	0.03
327.103	-0.03
327.314	-0.02
327.525	0.08
327.735	0.01
327.946	-0.03
328.157	-0.02
328.368	0.11
328.578	-0
328.789	0.05
328.999	0.02
329.21	0.06
329.421	0.09
329.631	0.01
329.842	0.02
330.052	0.05
330.263	0.05
330.473	0.09
330.684	0.02
330.894	0.04
331.105	0.03
331.315	-0.01
331.526	-0.01
331.736	0.14
331.947	0.07
332.157	0.06
332.367	-0.04
332.578	0.09
332.788	0.1
332.999	0.08
333.209	0.05
333.419	0.02
333.629	0.13
333.84	0.09
334.05	0.06
334.26	0.1
334.47	0.02
334.681	0.08
334.891	-0.02
335.101	0.09
335.311	0.12
335.521	0.04
335.732	-0.03
335.942	0.12
336.152	0.06
336.362	0.04
336.572	0.04
336.782	0.09
336.992	0.03
337.202	0.04
337.412	-0
337.622	0.04
337.832	0.03
338.042	0.02
338.252	0.03
338.462	0.02
338.672	0.04
338.882	0
339.092	0.05
339.302	0.11
339.511	0.07
339.721	0.01
339.931	-0.01
340.141	0.1
340.351	0.05
340.561	0.03
340.77	0.07
340.98	0.06
341.19	0.12
341.4	-0.01
341.609	-0.01
341.819	0.02
342.029	-0.03
342.238	0.04
342.448	0.04
342.658	0.08
342.867	0.01
343.077	0.03
343.286	0.08
343.496	0.03
343.706	0.1
343.915	-0.02
344.125	0.03
344.334	0.08
344.544	0.02
344.753	0.02
344.963	0.01
345.172	0.03
345.381	0.02
345.591	0.01
345.8	0.03
346.01	0.1
346.219	0.07
346.428	-0.11
346.638	0.06
346.847	0.05
347.056	0.07
347.266	-0.02
347.475	0.05
347.684	0.05
347.893	0.08
348.103	0.06
348.312	0.02
348.521	0.07
348.73	0.01
348.94	0.06
349.149	0.03
349.358	0.07
349.567	0.04
349.776	-0.02
349.985	-0
350.194	0.06
350.403	0.09
350.612	-0.03
350.821	0.03
351.03	0.01
351.239	-0.04
351.448	0.06
351.657	0.05
351.866	0.1
352.075	0.05
352.284	0.02
352.493	0.02
352.702	0.11
352.911	0.08
353.12	0.03
353.329	0.02
353.538	0.08
353.746	0.05
353.955	-0.02
354.164	0.04
354.373	0.02
354.582	0.07
354.79	0.05
354.999	0.09
355.208	-0.01
355.416	0.11
355.625	-0.02
355.834	0.02
356.042	0.07
356.251	-0.01
356.46	-0
356.668	0.04
356.877	0.17
357.085	0.11
357.294	-0.01
357.503	0.04
357.711	0.04
357.92	0.12
358.128	0.08
358.337	0.01
358.545	0.04
358.754	0.03
358.962	0.03
359.17	0.04
359.379	0.05
359.587	0.05
359.796	0
360.004	0.06
360.212	0.06
360.421	0.1
360.629	0.03
360.837	0.04
361.046	0.08
361.254	0.19
361.462	0.04
361.67	0.04
361.879	0.04
362.087	0.14
362.295	0.03
362.503	-0.02
362.711	-0
362.92	0.01
363.128	0.01
363.336	0.02
363.544	-0.04
363.752	0.01
363.96	0.03
364.168	0.03
364.376	0.03
364.584	0.09
364.792	0.09
365	0.05
365.208	0.05
365.416	0.05
365.624	0.07
365.832	0.01
366.04	0.08
366.248	0.05
366.456	0.08
366.664	0.06
366.872	0.06
367.079	0.04
367.287	0.05
367.495	0.1
367.703	0.04
367.911	0.01
368.118	0.04
368.326	0.04
368.534	0.03
368.742	0.1
368.949	0.01
369.157	0.02
369.365	0.06
369.572	0.03
369.78	-0.01
369.988	0.06
370.195	0.08
370.403	0.07
370.61	0.02
370.818	0.07
371.026	0.09
371.233	0.03
371.441	0.04
371.648	0.04
371.856	0.09
372.063	0.06
372.271	0.02
372.478	0
372.685	0.02
372.893	0.13
373.1	0.01
373.308	0.02
373.515	0.14
373.722	0.1
373.93	0.03
374.137	0.06
374.344	0.09
374.552	0.06
374.759	0.09
374.966	0.04
375.173	0.08
375.381	0.13
375.588	0.02
375.795	-0.01
376.002	0.02
376.209	0
376.417	0.06
376.624	0.07
376.831	0.05
377.038	0.02
377.245	-0.02
377.452	0.03
377.659	0.06
377.866	0.02
378.073	0.05
378.28	0.05
378.487	0.06
378.694	0.06
378.901	0.05
379.108	0.02
379.315	0.13
379.522	0.15
379.729	0.08
379.936	0.06
380.143	0.07
380.35	0.11
380.557	0.03
380.763	0.06
380.97	0.04
381.177	0.06
381.384	0.08
381.591	0.07
381.797	0.07
382.004	0.08
382.211	0.09
382.418	0.08
382.624	0.05
382.831	0.1
383.038	0.07
383.244	0.09
383.451	0.04
383.658	0.08
383.864	0.05
384.071	0.05
384.277	0.14
384.484	0.06
384.69	0.07
384.897	0.04
385.103	0.08
385.31	0
385.516	0.07
385.723	0.04
385.929	0.01
386.136	0.06
386.342	0.08
386.549	0.04
386.755	0.12
386.961	0.09
387.168	0.07
387.374	0.08
387.58	0.13
387.787	0.09
387.993	0.09
388.199	0.03
388.406	0.03
388.612	0.07
388.818	0.02
389.024	0.07
389.231	0.09
389.437	0.19
389.643	0.1
389.849	0.09
390.055	0.08
390.261	0.11
390.467	0.11
390.674	0.05
390.88	0.11
391.086	0.12
391.292	0.08
391.498	0.1
391.704	0.11
391.91	0.1
392.116	0.06
392.322	-0.06
392.528	0.13
392.734	0.07
392.94	0.13
393.146	0.07
393.352	0.08
393.557	0.08
393.763	0.13
393.969	0.14
394.175	0.13
394.381	0.09
394.587	0.09
394.792	0.11
394.998	0.2
395.204	0.17
395.41	0.12
395.615	0.12
395.821	0.16
396.027	0.18
396.233	0.11
396.438	0.2
396.644	0.25
396.85	0.24
397.055	0.15
397.261	0.23
397.466	0.16
397.672	0.2
397.878	0.22
398.083	0.23
398.289	0.17
398.494	0.27
398.7	0.24
398.905	0.12
399.111	0.31
399.316	0.21
399.522	0.23
399.727	0.27
399.932	0.27
400.138	0.31
400.343	0.31
400.549	0.29
400.754	0.37
400.959	0.39
401.165	0.35
401.37	0.39
401.575	0.47
401.78	0.43
401.986	0.38
402.191	0.42
402.396	0.44
402.601	0.5
402.807	0.58
403.012	0.56
403.217	0.63
403.422	0.59
403.627	0.6
403.832	0.6
404.037	0.7
404.243	0.72
404.448	0.73
404.653	0.73
404.858	0.8
405.063	0.85
405.268	0.88
405.473	0.84
405.678	0.91
405.883	1.15
406.088	1.04
406.293	0.97
406.498	1.1
406.703	1.16
406.907	1.24
407.112	1.24
407.317	1.35
407.522	1.44
407.727	1.44
407.932	1.59
408.136	1.7
408.341	1.66
408.546	1.74
408.751	1.82
408.956	1.93
409.16	1.99
409.365	2.07
409.57	2.15
409.774	2.23
409.979	2.38
410.184	2.44
410.388	2.46
410.593	2.66
410.798	2.72
411.002	2.95
411.207	3.04
411.411	3.13
411.616	3.14
411.82	3.34
412.025	3.51
412.229	3.62
412.434	3.68
412.638	3.85
412.843	3.93
413.047	4.14
413.252	4.19
413.456	4.57
413.66	4.68
413.865	4.8
414.069	4.9
414.273	5.05
414.478	5.17
414.682	5.35
414.886	5.61
415.091	5.63
415.295	5.9
415.499	6.24
415.703	6.18
415.908	6.55
416.112	6.62
416.316	7.01
416.52	7.26
416.724	7.31
416.929	7.53
417.133	8.14
417.337	8
417.541	8.3
417.745	8.38
417.949	8.67
418.153	9.06
418.357	9.28
418.561	9.71
418.765	9.74
418.969	9.87
419.173	10.37
419.377	10.44
419.581	10.99
419.785	11.26
419.989	11.17
420.193	11.71
420.397	11.91
420.601	12.08
420.804	12.3
421.008	12.23
421.212	12.63
421.416	12.51
421.62	12.54
421.823	12.58
422.027	12.66
422.231	12.54
422.435	12.43
422.638	12.25
422.842	12.51
423.046	12.62
423.249	12.82
423.453	12.56
423.657	12.76
423.86	12.78
424.064	12.84
424.268	12.8
424.471	12.58
424.675	12.72
424.878	12.5
425.082	12.5
425.285	12.85
425.489	12.32
425.692	12.11
425.896	11.93
426.099	11.73
426.303	11.9
426.506	11.65
426.71	11.76
426.913	11.62
427.116	11.58
427.32	11.07
427.523	10.81
427.726	10.94
427.93	10.68
428.133	10.68
428.336	10.45
428.54	10.37
428.743	10.2
428.946	10.13
429.149	9.72
429.353	9.35
429.556	8.98
429.759	8.73
429.962	8.49
430.165	8.29
430.368	7.68
430.571	7.4
430.775	7.22
430.978	6.85
431.181	6.65
431.384	6.43
431.587	6.29
431.79	6.31
431.993	6.1
432.196	6
432.399	5.98
432.602	5.84
432.805	5.7
433.008	5.76
433.211	5.54
433.414	5.5
433.616	5.32
433.819	5.14
434.022	5.01
434.225	4.98
434.428	4.78
434.631	4.92
434.833	4.48
435.036	4.47
435.239	4.36
435.442	4.29
435.645	4.19
435.847	4.05
436.05	4.1
436.253	4.05
436.455	3.8
436.658	3.69
436.861	3.76
437.063	3.52
437.266	3.4
437.468	3.48
437.671	3.51
437.874	3.32
438.076	3.09
438.279	3.09
438.481	3.01
438.684	3.05
438.886	3.01
439.089	2.82
439.291	2.82
439.494	2.77
439.696	2.62
439.899	2.68
440.101	2.67
440.303	2.52
440.506	2.68
440.708	2.46
440.91	2.44
441.113	2.41
441.315	2.39
441.517	2.2
441.72	2.23
441.922	2.06
442.124	2
442.326	1.99
442.529	1.98
442.731	1.83
442.933	1.95
443.135	1.77
443.337	1.66
443.539	1.73
443.742	1.54
443.944	1.57
444.146	1.54
444.348	1.45
444.55	1.38
444.752	1.44
444.954	1.25
445.156	1.27
445.358	1.26
445.56	1.26
445.762	1.19
445.964	1.16
446.166	1.12
446.368	1.09
446.57	1.13
446.772	1.03
446.974	1.02
447.175	1
447.377	0.88
447.579	0.97
447.781	0.82
447.983	0.94
448.184	0.85
448.386	0.89
448.588	0.77
448.79	0.83
448.991	0.82
449.193	0.8
449.395	0.77
449.597	0.85
449.798	0.69
450	0.74
450.202	0.7
450.403	0.69
450.605	0.76
450.806	0.64
451.008	0.55
451.21	0.66
451.411	0.65
451.613	0.57
451.814	0.58
452.016	0.62
452.217	0.51
452.419	0.6
452.62	0.52
452.821	0.55
453.023	0.6
453.224	0.59
453.426	0.48
453.627	0.53
453.828	0.52
454.03	0.43
454.231	0.48
454.432	0.41
454.634	0.52
454.835	0.37
455.036	0.41
455.238	0.46
455.439	0.51
455.64	0.4
455.841	0.37
456.042	0.54
456.244	0.37
456.445	0.34
456.646	0.28
456.847	0.38
457.048	0.45
457.249	0.43
457.45	0.57
457.651	0.29
457.852	0.41
458.054	0.34
458.255	0.32
458.456	0.32
458.657	0.36
458.858	0.28
459.058	0.3
459.259	0.33
459.46	0.26
459.661	0.24
459.862	0.42
460.063	0.29
460.264	0.33
460.465	0.2
460.666	0.38
460.866	0.25
461.067	0.25
461.268	0.2
461.469	0.2
461.67	0.25
461.87	0.25
462.071	0.22
462.272	0.17
462.473	0.15
462.673	0.24
462.874	0.19
463.075	0.22
463.275	0.19
463.476	0.22
463.676	0.24
463.877	0.23
464.078	0.13
464.278	0.22
464.479	0.23
464.679	0.21
464.88	0.18
465.08	0.3
465.281	0.11
465.481	0.15
465.682	0.2
465.882	0.19
466.083	0.19
466.283	0.18
466.483	0.18
466.684	0.08
466.884	0.1
467.085	0.15
467.285	0.15
467.485	0.11
467.686	0.15
467.886	0.11
468.086	0.13
468.286	0.15
468.487	0.14
468.687	0.1
468.887	0.12
469.087	0.15
469.287	0.11
469.488	0.07
469.688	0.17
469.888	0.15
470.088	0.2
470.288	0.19
470.488	0.15
470.688	0.12
470.888	0.13
471.088	0.07
471.288	0.13
471.488	0.16
471.688	0.17
471.888	0.07
472.088	0.16
472.288	0.14
472.488	0.1
472.688	0.07
472.888	0.09
473.088	0.07
473.288	0.12
473.488	0.13
473.688	0.18
473.887	0.11
474.087	0.08
474.287	0.12
474.487	0.08
474.687	0.15
474.886	0.06
475.086	0.1
475.286	0.07
475.486	0.09
475.685	0.08
475.885	0.09
476.085	0.1
476.284	0.11
476.484	0.07
476.684	0.1
476.883	0.16
477.083	0.11
477.282	0.08
477.482	0.13
477.681	0.14
477.881	0.12
478.08	0.06
478.28	0.07
478.479	0.11
478.679	0.16
478.878	0.03
479.078	0.02
479.277	0.05
479.477	0.08
479.676	0.08
479.875	0.08
480.075	0
480.274	0.09
480.473	0.1
480.673	0.06
480.872	0.08
481.071	0.08
481.271	0.08
481.47	0.04
481.669	0.06
481.868	0.02
482.067	0.06
482.267	0.06
482.466	0.02
482.665	0.04
482.864	-0.01
483.063	0.03
483.262	0.09
483.461	0.12
483.661	0.07
483.86	0.05
484.059	0.04
484.258	0.07
484.457	0.04
484.656	0.06
484.855	0.1
485.054	-0.01
485.253	0.05
485.452	-0.02
485.651	0.06
485.849	0.06
486.048	0.01
486.247	0.02
486.446	0.06
486.645	0.02
486.844	0.02
487.043	0.05
487.241	0.07
487.44	0.02
487.639	0.01
487.838	0.04
488.037	0.01
488.235	0.1
488.434	0.05
488.633	0.01
488.831	0.06
489.03	0.09
489.229	0.05
489.427	0.04
489.626	0.05
489.825	0.11
490.023	0.03
490.222	0.04
490.42	0.06
490.619	0.09
490.817	0.02
491.016	0.03
491.214	0.07
491.413	0.05
491.611	0.02
491.81	0.02
492.008	0.07
492.207	0.05
492.405	0.06
492.604	-0.01
492.802	0.02
493	0.05
493.199	0.04
493.397	0.04
493.595	0.02
493.794	0.02
493.992	0.08
494.19	0.04
494.388	0.07
494.587	0
494.785	0.03
494.983	0
495.181	0.05
495.379	0.05
495.578	0.01
495.776	0.05
495.974	0.05
496.172	0.03
496.37	0.03
496.568	-0
496.766	0.03
496.964	0.07
497.162	0.05
497.36	-0.01
497.558	0.07
497.756	0.06
497.954	0.02
498.152	0.03
498.35	0.04
498.548	0.02
498.746	0.05
498.944	0.01
499.142	0.02
499.34	0.01
499.538	0.04
499.736	0
499.933	0.06
500.131	0.07
500.329	0.02
500.527	0.04
500.725	0.05
500.922	0.05
501.12	0.04
501.318	0.04
501.516	0.02
501.713	0.04
501.911	0
502.109	0.01
502.306	0.05
502.504	0.01
502.701	0.01
502.899	0.01
503.097	0.07
503.294	0.02
503.492	0.04
503.689	0.05
503.887	0.04
504.084	0.08
504.282	0.01
504.479	0.01
504.677	0.05
504.874	-0.01
505.072	0.03
505.269	0.02
505.466	0.06
505.664	0.05
505.861	-0.02
506.059	0.03
506.256	0.06
506.453	0.04
506.651	0.09
506.848	0.06
507.045	0.04
507.242	0.04
507.44	0.02
507.637	0.03
507.834	0.03
508.031	0.06
508.229	0.01
508.426	0.02
508.623	0.04
508.82	0.01
509.017	0.02
509.214	0.03
509.411	0.03
509.608	0.01
509.805	0.03
510.003	0
510.2	0.01
510.397	0.04
510.594	-0
510.791	-0.02
510.988	-0
511.184	0.05
511.381	0.01
511.578	0.01
511.775	0.08
511.972	-0
512.169	0.02
512.366	0.01
512.563	0.04
512.76	0
512.956	0.05
513.153	0.02
513.35	0.01
513.547	0.01
513.744	-0
513.94	-0.02
514.137	0.06
514.334	0.02
514.53	0.01
514.727	0.04
514.924	0.07
515.12	0.01
515.317	0
515.514	-0
515.71	-0
515.907	0.02
516.103	0.03
516.3	0.03
516.497	0.06
516.693	0.06
516.89	0.02
517.086	0.01
517.283	0.07
517.479	0.04
517.676	0.03
517.872	0.02
518.068	0.02
518.265	0.02
518.461	0.01
518.658	-0
518.854	0.03
519.05	0.04
519.247	0.02
519.443	0.06
519.639	0.04
519.836	0.02
520.032	0.01
520.228	0.02
520.424	0.1
520.621	0.03
520.817	0.02
521.013	0.05
521.209	0.03
521.405	0.07
521.601	0.05
521.798	0.01
521.994	0.04
522.19	-0.01
522.386	-0.01
522.582	0.03
522.778	0.03
522.974	0
523.17	0.01
523.366	0.02
523.562	0.07
523.758	0.02
523.954	0
524.15	0.01
524.346	0.02
524.542	-0.01
524.738	-0.01
524.934	-0
525.129	0.01
525.325	0.04
525.521	0.02
525.717	0.04
525.913	0.02
526.109	0.03
526.304	0.02
526.5	0.02
526.696	0.05
526.892	-0.02
527.087	0.03
527.283	-0
527.479	0.04
527.674	0
527.87	0.01
528.066	-0.01
528.261	0.03
528.457	0.04
528.653	0.01
528.848	0
529.044	0.02
529.239	0.02
529.435	0.05
529.63	0.03
529.826	0.06
530.021	0.04
530.217	0.03
530.412	-0
530.608	0
530.803	0.02
530.999	0.01
531.194	-0.02
531.389	0.04
531.585	-0.03
531.78	0.01
531.975	0.03
532.171	0.06
532.366	0
532.561	0.04
532.757	-0
532.952	0
533.147	0.05
533.342	0.02
533.538	-0.02
533.733	0.05
533.928	0.02
534.123	0.01
534.318	-0.02
534.513	0.02
534.709	0.03
534.904	0
535.099	0.01
535.294	0.02
535.489	0.02
535.684	0.01
535.879	0.01
536.074	0.03
536.269	0
536.464	-0
536.659	0.01
536.854	0.01
537.049	0.03
537.244	0.03
537.439	0.01
537.634	0.04
537.828	-0
538.023	0.01
538.218	-0.01
538.413	0.01
538.608	0
538.803	0.04
538.997	-0.01
539.192	0.04
539.387	0.03
539.582	-0
539.776	0.02
539.971	-0.01
540.166	0.01
540.36	0.01
540.555	0.01
540.75	0.04
540.944	0.02
541.139	-0.03
541.334	0.02
541.528	0.04
541.723	0.03
541.917	0
542.112	-0
542.306	0.02
542.501	0.02
542.695	0.01
542.89	-0
543.084	0.01
543.279	0.03
543.473	-0.01
543.668	0
543.862	0.02
544.056	0.04
544.251	0.02
544.445	0.02
544.64	0.02
544.834	-0.01
545.028	0.01
545.222	0.02
545.417	0.07
545.611	0.02
545.805	0.01
546	0.01
546.194	0
546.388	0
546.582	0.04
546.776	0.01
546.97	0.01
547.165	0.01
547.359	0.03
547.553	-0.01
547.747	0.03
547.941	0.02
548.135	0.02
548.329	0.03
548.523	0.04
548.717	0
548.911	-0.01
549.105	-0.01
549.299	0.01
549.493	0.05
549.687	0.03
549.881	0.03
550.075	0.02
550.269	-0.02
550.463	0.03
550.657	-0.02
550.85	-0.01
551.044	-0.01
551.238	0.01
551.432	0.02
551.626	-0.02
551.82	0.02
552.013	-0
552.207	0.02
552.401	0.04
552.594	0.03
552.788	0.02
552.982	0.01
553.176	-0
553.369	0.03
553.563	0
553.756	-0.01
553.95	-0.02
554.144	0.02
554.337	0.04
554.531	0.02
554.724	0.03
554.918	0.01
555.111	0.05
555.305	0.01
555.498	0.06
555.692	0.03
555.885	0.01
556.079	0.02
556.272	-0
556.466	0.04
556.659	0
556.852	0.02
557.046	0.01
557.239	0.04
557.432	-0.01
557.626	-0.01
557.819	0.03
558.012	0.05
558.206	0.03
558.399	0.02
558.592	0.01
558.785	0.01
558.979	0.03
559.172	0.02
559.365	0.02
559.558	0
559.751	0.01
559.944	0.04
560.138	0.01
560.331	0.03
560.524	-0.01
560.717	-0
560.91	0.01
561.103	0.03
561.296	0
561.489	0.02
561.682	-0
561.875	0.04
562.068	0.03
562.261	0.02
562.454	0.04
562.647	0.02
562.84	0.05
563.032	0.01
563.225	0.04
563.418	0.02
563.611	0.01
563.804	0.02
563.997	-0.03
564.19	-0.04
564.382	0.02
564.575	0.02
564.768	-0
564.961	0.03
565.153	-0.02
565.346	0.03
565.539	0.01
565.731	0.04
565.924	0.07
566.117	0.03
566.309	0.01
566.502	-0
566.695	0.01
566.887	0.01
567.08	0.02
567.272	0.01
567.465	-0.03
567.657	0.01
567.85	0.03
568.042	0.03
568.235	0.04
568.427	0.02
568.62	0.03
568.812	0.03
569.005	0
569.197	0
569.389	0.02
569.582	0.01
569.774	0.02
569.966	-0.03
570.159	0.01
570.351	0.04
570.543	-0
570.736	0.02
570.928	-0.02
571.12	0.01
571.312	-0.01
571.505	-0.02
571.697	0.04
571.889	-0.02
572.081	0
572.273	-0.03
572.465	0.04
572.658	0.02
572.85	0.01
573.042	0
573.234	-0
573.426	0.05
573.618	-0.04
573.81	0
574.002	0.05
574.194	0.03
574.386	-0.02
574.578	-0.06
574.77	-0.02
574.962	0.03
575.154	-0.03
575.346	-0.01
575.538	0.01
575.729	-0
575.921	0
576.113	-0
576.305	0.04
576.497	0.01
576.689	-0.01
576.88	-0.03
577.072	0.03
577.264	0.01
577.456	0.01
577.647	-0.07
577.839	0.03
578.031	0.04
578.223	-0.01
578.414	-0.04
578.606	0.04
578.798	0.03
578.989	-0
579.181	-0.01
579.372	0.01
579.564	0.01
579.755	0.01
579.947	0.01
580.139	0.03
580.33	-0.04
580.522	-0.03
580.713	-0.07
580.905	-0
581.096	0.03
581.287	0.01
581.479	0.01
581.67	0.04
581.862	0.01
582.053	-0.01
582.244	-0.04
582.436	0
582.627	0.02
582.818	-0.04
583.01	-0.02
583.201	0.03
583.392	0.04
583.583	-0.01
583.775	-0.01
583.966	-0.03
584.157	-0.01
584.348	-0.01
584.54	-0.06
584.731	0.02
584.922	0.01
585.113	0
585.304	0.03
585.495	0.02
585.686	0.03
585.877	0.02
586.068	0.01
586.259	0
586.45	0
586.641	-0.03
586.832	-0.03
587.023	0.01
587.214	-0.01
587.405	0.01
587.596	-0.02
587.787	0.06
587.978	0.01
588.169	-0.03
588.36	0
588.551	0.01
588.742	-0.03
588.932	0.01
589.123	0
589.314	0.01
589.505	0.03
589.696	0.03
589.886	-0
590.077	-0.02
590.268	0
590.458	-0.05
590.649	-0.04
590.84	0.02
591.03	-0.02
591.221	-0.02
591.412	-0.03
591.602	0.03
591.793	0.06
591.984	-0.02
592.174	0.01
592.365	0.08
592.555	-0.02
592.746	-0.01
592.936	-0.01
593.127	0.01
593.317	0.07
593.508	-0.01
593.698	-0.03
593.889	0.01
594.079	0.03
594.269	-0
594.46	-0.01
594.65	0.01
594.84	-0.01
595.031	-0.04
595.221	-0.01
595.411	-0.05
595.602	0.01
595.792	0
595.982	-0
596.172	0.06
596.363	0.03
596.553	0.01
596.743	-0.01
596.933	0
597.123	0.03
597.314	-0.01
597.504	-0.02
597.694	0.04
597.884	0.03
598.074	-0.02
598.264	-0.02
598.454	0.02
598.644	0.04
598.834	0.01
599.024	-0.04
599.214	-0.01
599.404	0.03
599.594	-0.01
599.784	-0.02
599.974	0.04
600.164	0.01
600.354	-0.03
600.544	-0.03
600.734	0.01
600.924	0.02
601.114	-0.03
601.303	0.04
601.493	0.04
601.683	0
601.873	0
602.063	-0.03
602.252	0.03
602.442	-0.04
602.632	-0.03
602.821	-0.02
603.011	0.01
603.201	-0.03
603.39	-0.02
603.58	-0.01
603.77	0.05
603.959	0.05
604.149	0.02
604.339	-0.01
604.528	0.04
604.718	0.04
604.907	-0.02
605.097	0
605.286	-0.05
605.476	0.02
605.665	0.02
605.855	-0.01
606.044	0.05
606.234	0.02
606.423	-0.02
606.612	-0.06
606.802	0.02
606.991	0.05
607.181	0.03
607.37	-0.02
607.559	0
607.749	-0.01
607.938	-0.03
608.127	0
608.316	-0.02
608.506	0.04
608.695	0
608.884	-0.03
609.073	-0.02
609.263	0.02
609.452	0.02
609.641	0.02
609.83	-0.03
610.019	0.01
610.208	-0.03
610.397	0
610.586	0.04
610.775	-0
610.965	-0.01
611.154	-0.02
611.343	-0.01
611.532	0.03
611.721	-0.01
611.91	-0.02
612.099	0.05
612.287	0.02
612.476	-0.03
612.665	0
612.854	-0.01
613.043	0.04
613.232	-0.02
613.421	-0.03
613.61	-0
613.798	-0.02
613.987	0.04
614.176	0.01
614.365	0.05
614.554	-0
614.742	0.01
614.931	0
615.12	0.05
615.309	-0.01
615.497	0.01
615.686	-0.04
615.875	0.01
616.063	0.04
616.252	-0.03
616.44	-0.04
616.629	-0.01
616.818	0.03
617.006	-0.01
617.195	0.01
617.383	0.01
617.572	0.01
617.76	-0.01
617.949	-0.01
618.137	0.01
618.326	-0.01
618.514	-0.01
618.703	-0.02
618.891	0.05
619.079	-0.05
619.268	-0.01
619.456	-0.02
619.644	0.05
619.833	0
620.021	-0.01
620.209	-0.05
620.398	0.01
620.586	0.01
620.774	0.02
620.962	-0.03
621.151	0.06
621.339	0.01
621.527	-0.02
621.715	-0.03
621.903	-0.01
622.092	-0.05
622.28	0.02
622.468	0.01
622.656	0.01
622.844	0.05
623.032	-0.02
623.22	-0.05
623.408	0.04
623.596	0.05
623.784	0.02
623.972	0.01
624.16	0
624.348	0.03
624.536	-0.03
624.724	-0.01
624.912	0.04
625.1	0.03
625.288	-0.03
625.476	-0.03
625.664	0.01
625.851	-0.02
626.039	0
626.227	0.02
626.415	-0.01
626.603	-0.08
626.79	-0.01
626.978	-0.02
627.166	0
627.354	0.02
627.541	0
627.729	-0.07
627.917	0.04
628.104	0.04
628.292	-0
628.48	-0.01
628.667	0.02
628.855	0
629.042	0.01
629.23	-0.01
629.418	0.03
629.605	0.01
629.793	-0.02
629.98	-0.05
630.168	0
630.355	-0
630.543	0.02
630.73	-0.02
630.917	0.06
631.105	0.03
631.292	-0.03
631.48	0
631.667	0.11
631.854	0.01
632.042	-0.02
632.229	-0.05
632.416	0
632.604	-0.02
632.791	-0.04
632.978	0
633.165	0.03
633.353	0.07
633.54	0.02
633.727	-0.05
633.914	-0.03
634.101	-0.07
634.289	0.02
634.476	-0.02
634.663	-0.04
634.85	0.02
635.037	-0.03
635.224	-0.07
635.411	0.01
635.598	0.05
635.785	0.01
635.972	0.02
636.159	0.04
636.346	-0.02
636.533	-0.02
636.72	-0.01
636.907	0
637.094	0.01
637.281	-0.04
637.468	0.03
637.655	0.01
637.842	0.01
638.029	-0
638.215	0.02
638.402	0.02
638.589	-0.03
638.776	-0
638.963	-0.02
639.149	0.02
639.336	0.09
639.523	0.01
639.709	-0.02
639.896	-0.02
640.083	0.05
640.27	-0
640.456	-0.02
640.643	0.01
640.829	-0.06
641.016	-0.02
641.203	-0.05
641.389	0.02
641.576	0.04
641.762	0.01
641.949	-0.03
642.135	0.03
642.322	0.02
642.508	-0.06
642.695	-0.01
642.881	-0
643.068	0.02
643.254	-0.02
643.441	0.06
643.627	0.01
643.813	-0.02
644	0.01
644.186	-0.04
644.372	0.04
644.559	0.03
644.745	-0.02
644.931	-0.01
645.118	0
645.304	-0.01
645.49	-0.04
645.676	-0.01
645.862	0.01
646.049	0.06
646.235	-0.03
646.421	0.05
646.607	0.07
646.793	-0.01
646.979	-0.03
647.165	0.02
647.352	0.01
647.538	0.06
647.724	-0
647.91	0.04
648.096	0.02
648.282	0.02
648.468	-0.01
648.654	0.02
648.84	0
649.026	-0.01
649.212	-0.03
649.397	-0.03
649.583	-0.05
649.769	0.02
649.955	0.01
650.141	0.03
650.327	0.07
650.513	-0.04
650.698	0.02
650.884	-0.06
651.07	-0.03
651.256	-0.03
651.442	0.01
651.627	-0.02
651.813	0.02
651.999	-0.02
652.184	0.03
652.37	-0.02
652.556	-0.03
652.741	0.06
652.927	-0.08
653.113	0.01
653.298	0.01
653.484	0.01
653.669	-0.05
653.855	0.02
654.04	-0.01
654.226	-0.03
654.412	-0.03
654.597	-0.05
654.782	0.03
654.968	0.06
655.153	0.02
655.339	-0.02
655.524	-0.03
655.71	0.03
655.895	-0.03
656.08	-0.01
656.266	0.07
656.451	0.03
656.636	-0.07
656.822	0.01
657.007	-0.05
657.192	-0
657.378	-0.02
657.563	-0.01
657.748	0.02
657.933	-0.02
658.118	-0.02
658.304	-0.01
658.489	0.04
658.674	0.04
658.859	-0.04
659.044	-0
659.229	0.03
659.414	-0.04
659.599	-0.01
659.785	-0.05
659.97	-0.01
660.155	0.06
660.34	-0.02
660.525	-0.02
660.71	-0.02
660.895	-0.01
661.08	-0.04
661.264	-0.02
661.449	0.07
661.634	0.04
661.819	0.03
662.004	0.02
662.189	-0.08
662.374	-0.02
662.559	-0.01
662.743	-0.02
662.928	-0.03
663.113	-0.02
663.298	-0.05
663.483	-0.02
663.667	-0.01
663.852	-0.04
664.037	0
664.221	-0.03
664.406	0.01
664.591	0.04
664.775	-0.02
664.96	-0.06
665.145	0.01
665.329	0.03
665.514	-0.04
665.698	-0.01
665.883	-0.06
666.068	0.08
666.252	0
666.437	-0.02
666.621	0.01
666.806	0.01
666.99	0.01
667.174	-0.06
667.359	0.06
667.543	-0
667.728	-0.03
667.912	-0.1
668.096	0.01
668.281	0.02
668.465	-0.01
668.649	-0.03
668.834	-0.05
669.018	0.02
669.202	-0.02
669.387	-0.02
669.571	0.05
669.755	-0.01
669.939	-0.03
670.124	-0.03
670.308	0.05
670.492	0.04
670.676	0.01
670.86	-0.05
671.044	-0.03
671.228	0.06
671.413	-0.06
671.597	-0.02
671.781	-0.06
671.965	0.04
672.149	0.01
672.333	0.01
672.517	-0.05
672.701	0.04
672.885	0
673.069	-0.09
673.253	0.04
673.437	0.01
673.621	0.01
673.804	-0.01
673.988	0.02
674.172	-0.01
674.356	-0.08
674.54	-0.01
674.724	0.04
674.908	0.02
675.091	0.02
675.275	0.02
675.459	0.07
675.643	0.05
675.826	0.03
676.01	0.02
676.194	0.02
676.377	0.06
676.561	0
676.745	0.03
676.928	0.04
677.112	0.04
677.296	-0.01
677.479	-0.02
677.663	-0.02
677.846	0.01
678.03	-0.01
678.213	-0.02
678.397	0.06
678.58	-0.02
678.764	-0.01
678.947	-0.03
679.131	-0.04
679.314	0.1
679.498	-0
679.681	0.01
679.865	0.04
680.048	-0.02
680.231	-0.01
680.415	-0.01
680.598	-0.04
680.781	0
680.965	-0
681.148	0.04
681.331	-0.01
681.514	0.05
681.698	-0.04
681.881	0.03
682.064	0.06
682.247	-0.03
682.43	-0.04
682.614	-0
682.797	0.07
682.98	0.02
683.163	-0.02
683.346	0.05
683.529	-0.02
683.712	-0.05
683.895	0.05
684.078	-0.07
684.261	-0.03
684.444	0.02
684.627	0.01
684.81	-0.02
684.993	-0.01
685.176	0.01
685.359	-0.07
685.542	-0.06
685.725	0.04
685.908	-0.01
686.091	0.03
686.274	0.03
686.457	-0.02
686.639	-0.05
686.822	0.08
687.005	-0.01
687.188	0.06
687.371	0.1
687.553	0.01
687.736	0.03
687.919	0.08
688.102	0.09
688.284	-0
688.467	-0.02
688.65	-0.01
688.832	-0
689.015	-0.02
689.197	-0.06
689.38	0.07
689.563	0.12
689.745	-0.01
689.928	-0.07
690.11	0.04
690.293	0.01
690.475	-0.05
690.658	-0.01
690.84	-0.03
691.023	0.02
691.205	-0.02
691.388	0
691.57	0.05
691.752	0.03
691.935	-0.08
692.117	-0.03
692.3	0.03
692.482	0.06
692.664	-0
692.847	-0
693.029	0.08
693.211	0.03
693.393	-0.08
693.576	-0.06
693.758	-0
693.94	0.04
694.122	-0.06
694.304	0.01
694.487	-0.08
694.669	0.1
694.851	-0.08
695.033	-0.02
695.215	-0.03
695.397	-0.11
695.579	0.04
695.761	-0.02
695.943	0.01
696.125	0.08
696.308	0.03
696.49	-0.11
696.671	0.14
696.853	0.02
697.035	0.12
697.217	-0.02
697.399	0.03
697.581	-0.03
697.763	0
697.945	-0.03
698.127	0.01
698.309	0.07
698.491	0.02
698.672	0.02
698.854	0.06
699.036	0.07
699.218	0.04
699.399	0.05
699.581	0.1
699.763	0
699.945	-0.03
700.126	-0.06
700.308	0.02
700.49	0.03
700.671	-0.07
700.853	-0.01
701.035	0.01
701.216	0.02
701.398	-0.02
701.579	-0.03
701.761	0.09
701.943	-0.03
702.124	-0.07
702.306	0.02
702.487	0.11
702.669	-0.04
702.85	-0.05
703.031	-0.08
703.213	0.09
703.394	0.06
703.576	-0.07
703.757	0.07
703.938	0.04
704.12	0.14
704.301	-0.01
704.483	-0.06
704.664	0.01
704.845	0.03
705.026	0.01
705.208	-0.05
705.389	0.02
705.57	0.03
705.751	-0.04
705.933	0.04
706.114	0.04
706.295	0.01
706.476	-0.11
706.657	0.1
706.838	0.01
707.02	-0
707.201	-0.03
707.382	-0.02
707.563	0.07
707.744	-0.01
707.925	-0.06
708.106	-0.04
708.287	-0.01
708.468	0.04
708.649	0
708.83	0.01
709.011	-0.04
709.192	0.06
709.373	0
709.554	0.02
709.734	0.04
709.915	0.04
710.096	0
710.277	-0.07
710.458	0.02
710.639	0.06
710.819	-0.06
711	-0.06
711.181	0.03
711.362	0.05
711.542	0.05
711.723	-0.06
711.904	0.02
712.085	0.02
712.265	0.06
712.446	-0.03
712.627	-0
712.807	-0.05
712.988	0.01
713.168	-0.1
713.349	0.08
713.53	-0.14
713.71	-0.04
713.891	-0.06
714.071	-0.05
714.252	-0.01
714.432	0.01
714.613	-0.11
714.793	-0.05
714.974	0.1
715.154	0.07
715.334	0.07
715.515	0.09
715.695	-0.05
715.876	-0.01
716.056	0.03
716.236	-0.07
716.417	0.01
716.597	-0.06
716.777	0.14
716.957	-0
717.138	0.06
717.318	-0.05
717.498	0.01
717.678	-0.06
717.859	0.03
718.039	-0.07
718.219	-0.04
718.399	0.1
718.579	-0.08
718.759	-0.03
718.939	-0.02
719.12	0.02
719.3	0.07
719.48	-0.1
719.66	-0.13
719.84	0.08
720.02	0.01
720.2	-0.07
720.38	-0.01
720.56	0.11
720.74	-0.09
720.92	0.02
721.1	0.08
721.279	0.09
721.459	-0.01
721.639	-0.04
721.819	-0
721.999	-0.02
722.179	0.05
722.359	-0.1
722.538	0.06
722.718	-0.05
722.898	-0.05
723.078	0.06
723.257	-0.03
723.437	-0.07
723.617	0.01
723.797	-0
723.976	0.02
724.156	0.05
724.336	0.04
724.515	0.19
724.695	-0.2
724.874	-0.02
725.054	0.01
725.234	-0.09
725.413	0.01
725.593	-0
725.772	-0.06
725.952	0.01
726.131	-0
726.311	0.05
726.49	0.04
726.67	-0.14
726.849	-0.08
727.028	0.05
727.208	-0.08
727.387	-0.04
727.567	-0.13
727.746	-0.01
727.925	-0.05
728.105	-0.13
728.284	-0.04
728.463	-0.02
728.643	0.07
728.822	-0.11
729.001	-0.08
729.18	0.01
729.359	0.04
729.539	-0.06
729.718	-0.07
729.897	0.01
730.076	-0.04
730.255	-0.12
730.434	-0.01
730.614	0.07
730.793	0.03
730.972	-0.01
731.151	-0.09
731.33	0.12
731.509	0.01
731.688	0.08
731.867	-0.04
732.046	-0.07
732.225	0.19
732.404	-0.02
732.583	-0.02
732.762	0.02
732.941	0.03
733.12	-0.04
733.298	-0.05
733.477	0.08
733.656	-0.03
733.835	-0.06
734.014	0.05
734.193	-0.03
734.371	0.02
734.55	0.03
734.729	-0.08
734.908	-0.05
735.086	-0.03
735.265	0.03
735.444	-0.11
735.623	-0.15
735.801	-0.09
735.98	0.03
736.159	0.01
736.337	0.1
736.516	-0.04
736.694	-0.01
736.873	-0.14
737.052	0.16
737.23	0.19
737.409	-0.03
737.587	0.16
737.766	-0.23
737.944	-0.06
738.123	0.1
738.301	0.15
738.479	-0.09
738.658	0.04
738.836	-0.16
739.015	-0.01
739.193	0.11
739.371	-0.06
739.55	-0.04
739.728	-0.04
739.906	0.09
740.085	0.16
740.263	0.13
740.441	-0.11
740.62	0.11
740.798	0.11
740.976	-0.11
741.154	-0.08
741.332	0.1
741.511	-0.01
741.689	-0.02
741.867	0.03
742.045	-0.02
742.223	-0.06
742.401	-0.01
742.579	-0.11
742.757	0.04
742.935	-0.07
743.114	-0.04
743.292	-0.12
743.47	0.09
743.648	0.11
743.826	-0.09
744.004	0.09
744.181	0.07
744.359	-0.06
744.537	0.06
744.715	0.03
744.893	-0.02
745.071	0.16
745.249	-0.02
745.427	-0.04
745.605	0.06
745.782	0.01
745.96	0.05
746.138	0.1
746.316	0.08
746.493	-0.07
746.671	-0.06
746.849	0.04
747.027	0.13
747.204	-0.12
747.382	0.12
747.56	-0.08
747.737	0.03
747.915	-0.04
748.093	-0.06
748.27	0.06
748.448	-0.07
748.625	-0.03
748.803	-0.1
748.98	-0.07
749.158	0.05
749.335	0.05
749.513	0.06
749.69	-0.03
749.868	-0.1
750.045	0.09
750.223	-0.05
750.4	-0.14
750.578	0.24
750.755	0.05
750.932	-0.01
751.11	0.15
751.287	-0.04
751.464	0.12
751.642	0.01
751.819	-0.03
751.996	-0.01
752.173	0.06
752.351	-0.18
752.528	-0.05
752.705	-0.07
752.882	-0.05
753.06	0.02
753.237	0.08
753.414	0.13
753.591	0.08
753.768	-0.01
753.945	0
754.122	0
754.299	0.09
754.476	-0.11
754.654	-0.07
754.831	-0.02
755.008	0.04
755.185	-0.12
755.362	-0.04
755.539	0.12
755.716	-0.08
755.892	0.05
756.069	-0
756.246	0.03
756.423	-0.08
756.6	0.1
756.777	-0.02
756.954	0.2
757.131	0
757.307	-0.17
757.484	0.01
757.661	-0.07
757.838	-0.01
758.015	-0.16
758.191	0.08
758.368	0.01
758.545	0.1
758.721	0.07
758.898	-0.1
759.075	0.05
759.251	0.05
759.428	0.1
759.605	-0.04
759.781	-0.13
759.958	-0.02
760.134	0.07
760.311	0.03
760.488	0.14
760.664	0.21
760.841	-0
761.017	0.06
761.194	0.06
761.37	0.19
761.547	0.04
761.723	-0.14
761.899	0.08
762.076	-0.08
762.252	-0.14
762.429	-0.17
762.605	0.15
762.781	-0.12
762.958	0.14
763.134	-0.08
763.31	-0.1
763.486	0.1
763.663	-0.05
763.839	-0.03
764.015	-0.2
764.191	-0.06
764.368	-0.09
764.544	-0.06
764.72	0.08
764.896	0.08
765.072	0.07
765.248	0.09
765.425	0.02
765.601	0.06
765.777	0.09
765.953	-0.04
766.129	-0.05
766.305	-0.08
766.481	0.09
766.657	0.05
766.833	0.23
767.009	-0.03
767.185	-0.15
767.361	0.19
767.537	-0.1
767.713	0.17
767.889	-0.07
768.065	0.07
768.24	0.04
768.416	0.06
768.592	0.03
768.768	0.03
768.944	0.08
769.12	-0.08
769.295	-0.07
769.471	0.14
769.647	0.01
769.823	0.11
769.998	-0.07
770.174	-0.14
770.35	0.27
770.525	0.38
770.701	-0.01
770.877	-0.07
771.052	0.04
771.228	0.22
771.403	0.08
771.579	0.14
771.755	0.2
771.93	-0.04
772.106	-0.11
772.281	-0.19
772.457	0
772.632	0.08
772.808	-0.12
772.983	-0.1
773.159	-0.13
773.334	0.18
773.509	-0.07
773.685	-0.14
773.86	0.34
774.036	0.35
774.211	0.1
774.386	-0.01
774.562	0.05
774.737	-0.19
774.912	-0.12
775.087	0.09
775.263	0.01
775.438	0.06
775.613	-0.21
775.788	-0.04
775.964	0.06
776.139	0.36
776.314	-0.06
776.489	0.05
776.664	0.04
776.839	-0.08
777.014	0.24
777.19	0.09
777.365	0.22
777.54	0.33
777.715	-0.07
777.89	-0.15
778.065	-0.13
778.24	0.08
778.415	0.02
778.59	-0.22
778.765	-0.06
778.94	0.03
779.115	-0.19
779.289	-0.09
779.464	-0.17
779.639	-0.03
779.814	-0.09
779.989	-0.11
780.164	0.24
780.339	0.11
780.513	-0.15
780.688	-0.1
780.863	-0.11
781.038	0.26
781.212	-0.22
781.387	-0.08
781.562	0.29
781.737	0.11
781.911	0.17
782.086	-0.04
782.261	-0.02
782.435	0.22
782.61	0.02
782.784	-0.01
782.959	0.18
783.134	-0.08
783.308	-0.14
783.483	-0.11
783.657	0.28
783.832	0.04
784.006	-0.36
784.181	-0.08
784.355	0.18
784.53	-0.22
784.704	-0.04
784.878	0.24
785.053	0.07
785.227	0.33
785.402	0.32
785.576	-0.26
785.75	-0.06
785.925	-0.15
786.099	0.12
786.273	0.17
786.448	0.1
786.622	0.14
786.796	-0.12
786.97	-0.05
787.145	0.45
787.319	-0.22
787.493	-0.23
787.667	-0.46
787.841	-0.11
788.015	0.25
788.19	-0.21
788.364	-0.02
788.538	0.22
788.712	0.08
788.886	-0.16
789.06	0.07
789.234	0.23
789.408	-0.28
789.582	-0
789.756	-0.26
789.93	-0.19
790.104	0.03
790.278	-0.1
790.452	-0.16
790.626	0.19
790.8	-0.02
790.973	0.15
791.147	0.34
791.321	0.34
791.495	0.31
791.669	0.08
791.843	0.03
792.016	0.06
792.19	0.29
792.364	-0.12
792.538	0.51
792.711	0.25
792.885	-0.06
793.059	-0.02
793.233	-0.36
793.406	0.12
793.58	0.04
793.754	0.25
793.927	0.03
794.101	0.24
794.274	-0.09
794.448	0.02
794.622	0.02
794.795	0.42
794.969	-0.01
795.142	0.28
795.316	-0.18
795.489	-0.07
795.663	0.35
795.836	-0.08
796.009	-0.31
796.183	0.45
796.356	0.3
796.53	-0.12
796.703	-0.04
796.876	0.25
797.05	-0.11
797.223	-0.08
797.396	0.11
797.57	0.08
797.743	0.61
797.916	0.06
798.09	0.04
798.263	0.2
798.436	-0.06
798.609	-0.05
798.782	-0.07
798.956	0.02
799.129	0.14
799.302	-0.01
799.475	-0.22
799.648	-0.09
799.821	-0.09
799.994	0.02
800.167	-0.47
800.34	-0.15
800.514	0.1
800.687	-0.03
800.86	-0.11
801.033	0.09
801.206	0.26
801.379	-0.32
801.551	0.18
801.724	0
801.897	0.53
802.07	-0.3
802.243	-0.57
802.416	-0.03
802.589	-0.19
802.762	0.17
802.935	-0.08
803.107	0.08
803.28	0.46
803.453	0.2
803.626	-0.26
803.798	-0.17
803.971	-0.06
804.144	0.09
804.317	0.17
804.489	0.28
804.662	0.03
804.835	0.22
805.007	-0.37
805.18	0.32
805.353	0.24
805.525	-0.16
805.698	-0.04
805.87	0.19
806.043	0.19
806.215	-0.35
806.388	-0.04
806.56	0.08
806.733	0.2
806.905	0.08
807.078	-0.25
807.25	0.02
807.423	0.14
807.595	-0.05
807.768	-0.17
807.94	0.4
808.112	0.03
808.285	0.23
808.457	-0.26
808.629	-0.29
808.802	0.11
808.974	-0.02
809.146	-0.34
809.318	-0.43
809.491	0.09
809.663	0.26
809.835	-0.29
810.007	0.09
810.18	-0.07
810.352	-0.13
810.524	0.04
810.696	0.41
810.868	0.41
811.04	-0.09
811.212	-0.08
811.384	0.21
811.556	0.19
811.728	-0.26
811.901	1.11
812.073	-0.31
812.245	0.31
812.417	0.24
812.589	-0.62
812.76	0.28
812.932	0.24
813.104	0.41
813.276	0.1
813.448	0.61
813.62	0.08
813.792	0.23
813.964	0.31
814.136	0.28
814.307	-0.11
814.479	-0.66
814.651	-0.28
814.823	0.31
814.995	-0.02
815.166	0.26
815.338	-0.33
815.51	-0.71
815.681	0.83
815.853	0.13
816.025	0.15
816.196	0.42
816.368	0.19
816.54	-0.42
816.711	-0.41
816.883	0.22
817.054	0.94
817.226	-0.24
817.398	0.02
817.569	-0.36
817.741	0.12
817.912	-0.3
818.084	0.03
818.255	0.39
818.426	-0.54
818.598	0.21
818.769	-0.06
818.941	0.41
819.112	0.6
819.283	0.36
819.455	-0.25
819.626	0.29
819.798	-0.04
819.969	-0.04
820.14	-0.18
820.311	-0.13
820.483	0.24
820.654	0.23
820.825	0.28
820.996	-0.36
821.168	-0.46
821.339	-0.29
821.51	-0.39
821.681	-0.33
821.852	-0.06
822.023	-0.51
822.195	-1
822.366	0.06
822.537	0.35
822.708	0.46
822.879	-0.58
823.05	0.27
823.221	-0.07
823.392	0.59
823.563	-0.17
823.734	0.14
823.905	-0.17
824.076	0.5
824.247	-0.1
824.418	-0.38
824.589	0.8
824.759	0.15
824.93	-0.05
825.101	-0.95
825.272	0.65
825.443	0.87
825.614	0.33
825.784	-0.14
825.955	1.27
826.126	0.46
826.297	-0.08
826.467	0.49
826.638	1.16
826.809	-0.36
826.98	-0.02
827.15	0.46
827.321	0.1
827.492	0.81
827.662	-0.37
827.833	0.75
828.003	0.34
828.174	-0.64
828.345	-0.74
828.515	0.81
828.686	0.16
828.856	0.18
829.027	-0.25
829.197	0.69
829.368	0.3
829.538	-0.5
829.709	0.1
829.879	0.08
830.049	0.04
830.22	0.19
830.39	-0.31
830.56	0.29
830.731	-0.07
830.901	-0.32
831.072	-0.24
831.242	-0.11
831.412	0.13
831.582	0.07
831.753	-0.85
831.923	0.14
832.093	0.19
832.263	-0.23
832.434	-0.64
832.604	-0.41
832.774	0.15
832.944	-0.07
833.114	-0.38
833.284	0.48
833.454	0.15
833.624	-0.13
833.795	-0.13
833.965	0.36
834.135	0.83
834.305	-0.71
834.475	-0.62
834.645	0.22
834.815	-0.25
834.985	-0.99
835.155	0.16
835.325	-0.06
835.494	0.39
835.664	-0.8
835.834	-0.86
836.004	-0.28
836.174	0.25
836.344	-0.29
836.514	-0.99
836.684	0
836.853	0.2
837.023	-0.18
837.193	0
837.363	0.28
837.532	0.23
837.702	-0.11
837.872	-0.57
838.041	0.97
838.211	1.64
838.381	0.04
838.55	-0.09
838.72	1.9
838.89	1.37
839.059	-0.03
839.229	-0.86
839.398	1.34
839.568	-0.86
839.738	0.27
839.907	1.08
840.077	0.61
840.246	-0.57
840.416	-1.01
840.585	-0.6
840.755	0.69
840.924	0.75
841.093	-1.03
841.263	-0.29
841.432	-0.27
841.602	-0.45
841.771	-0.51
841.94	0.01
842.11	0.9
842.279	0.9
842.448	-0.83
842.617	-0.99
842.787	0.58
842.956	-1.26
843.125	0.49
843.294	0.82
843.464	1.19
843.633	0.04
843.802	-0.59
843.971	-0.79
844.14	0.85
844.309	0.67
844.479	-0.94
844.648	-0.53
844.817	-0.37
844.986	0.2
845.155	-0.57
845.324	0.17
845.493	0.11
845.662	-0.98
845.831	0.2
846	0.34
846.169	0.13
846.338	1.99
846.507	0.36
846.676	-0.25
846.844	-0.63
847.013	0.66
847.182	0.27
847.351	-0.23
847.52	0.24
847.689	0
847.858	0.8
848.026	0.23
848.195	0.12
848.364	-0.24
848.533	-0.98
848.701	-0.68
848.87	0.99
849.039	0.58
849.207	0.62
849.376	1.67
849.545	0.59
849.713	0.3
849.882	-0.56
850.051	0.61
850.219	0.34
850.388	1.02
850.556	-0.63
850.725	-0.73
850.893	-0.06
851.062	0.45
851.23	1.41
851.399	-1.15
851.567	0.14
851.736	-0.01
851.904	-0.31
852.073	0.61
852.241	0.75
852.41	-0.6
852.578	-0.09
852.746	-0.3
852.915	1.04
853.083	0.53
853.251	-1.57
853.42	-0.31
853.588	0.42
853.756	0.95
853.924	0.43
854.093	-0.93
854.261	-0.8
854.429	-0.67
854.597	-0.4
854.765	-0.83
854.934	0.81
855.102	1.94
855.27	0.05
855.438	0.16
855.606	2.39
855.774	1.3
855.942	-1.23
856.11	-0.86
856.278	0.58
856.446	1.06
856.614	0.51
856.782	-0.99
856.95	1.92
857.118	0.73
857.286	0.52
857.454	-0.75
857.622	1.67
857.79	0.65
857.958	-2.05
858.126	-0.49
858.294	-2.79
858.462	-0.18
858.629	-0.04
858.797	-0.54
858.965	0.17
859.133	0.53
859.301	-0.51
859.468	1.42
859.636	0.01
859.804	1.91
859.971	0.73
860.139	-0.97
860.307	0.52
860.474	0.08
860.642	-0.38
860.81	-1.47
860.977	-0.43
861.145	0.49
861.313	-1.24
861.48	1.35
861.648	1.44
861.815	-0.33
861.983	-1.46
862.15	-0.92
862.318	1.13
862.485	1.65
862.653	-1.11
862.82	-1.21
862.988	1.82
863.155	-2.7
863.322	-0.6
863.49	-1.08
863.657	-0.9
863.824	2.83
863.992	1.18
864.159	0.85
864.326	1.47
864.494	-0.91
864.661	2.55
864.828	-0.87
864.996	1.85
865.163	2.17
865.33	-0.58
865.497	-1.47
865.664	-0.63
865.832	-2.2
865.999	-0.74
866.166	-1.28
866.333	-0.77
866.5	-0.43
866.667	0.11
866.834	-1.35
867.001	1.91
867.168	-2.05
867.335	-0.25
867.502	-0.86
867.669	-0.65
867.836	2.4
868.003	-0.13
868.17	1.07
868.337	-1.25
868.504	2.44
868.671	-0.92
868.838	-0.35
869.005	-0.23
869.172	0.69
869.339	-1.24
869.505	0.66
869.672	-0.99
869.839	1.98
870.006	0.74
870.173	-2.28
870.339	0.02
870.506	1.91
870.673	-0.57
870.84	-0.16
871.006	0.89
871.173	0.43
871.34	-0.3
871.506	-0.99
871.673	-0.16
871.839	-1.84
872.006	0.58
872.173	-1.02
872.339	-0.06
872.506	0.1
872.672	-0.6
872.839	-1.93
873.005	1.72
873.172	4.94
873.338	2.74
873.505	-0.16
873.671	-0.74
873.838	-1.13
874.004	-2.17
874.171	-1.01
874.337	1.82
874.503	1.38
874.67	0.42
874.836	-0.65
875.002	0.63
875.169	2.52
875.335	0.25
875.501	-0.23
875.668	2.54
875.834	0.38
876	-1.1
876.166	0.07
876.332	1.06
876.499	3.23
876.665	0.55
876.831	0.61
876.997	3.43
877.163	0.77
877.329	-0.82
877.495	0.15
877.662	2.33
877.828	1.72
877.994	-0.99
878.16	-3.19
878.326	-2.88
878.492	-0.39
878.658	-0.2
878.824	-0.22
878.99	3.22
879.156	-0.67
879.322	0.56
879.487	-0.3
879.653	0.71
879.819	1.33
879.985	0.43
880.151	0.45
880.317	1.82
880.483	-0.8
880.648	1.81
880.814	-2.52
880.98	2.27
881.146	-4.09
881.312	-1.01
881.477	-0.82
881.643	-0.02
881.809	1.49
881.974	2.58
882.14	-2.96
882.306	1.72
882.471	1.98
882.637	-0.09
882.803	0.45
882.968	2.27
883.134	2.77
883.299	0.88
883.465	-2.13
883.63	2.76
883.796	0.58
883.961	0.85
884.127	0.39
884.292	-4.38
884.458	-0.86
884.623	-0.86
