Data from Apollo_Calib_20240827__AbsoluteIrradiance__392__05-41-03-070.txt Node

Date: Wed Aug 28 05:41:03 BST 2024
User: biology
Spectrometer: FLMT08252
Trigger mode: 0
Integration Time (sec): 5.000000E-1
Scans to average: 5
Electric dark correction enabled: true
Nonlinearity correction enabled: false
Boxcar width: 0
XAxis mode: Wavelengths
Number of Pixels in Spectrum: 3648
>>>>>Begin Spectral Data<<<<<
179.588	-0
179.809	-0
180.03	-0
180.251	-0
180.473	-0
180.694	0
180.915	0
181.136	-0
181.357	0
181.578	-0
181.799	0
182.02	-0
182.241	-0
182.462	-0
182.683	0
182.904	-0
183.125	-0
183.346	0
183.567	0
183.788	-0
184.009	-0
184.23	0
184.451	0
184.672	-0
184.892	-0
185.113	-0
185.334	0
185.555	-0
185.776	-0
185.996	0
186.217	-0
186.438	-0
186.659	-0
186.879	-0
187.1	-0
187.321	-0
187.541	-0
187.762	0
187.983	-0
188.203	0
188.424	0
188.644	-0
188.865	-0
189.086	-0
189.306	-0
189.527	-0
189.747	0
189.968	-0
190.188	0
190.409	-0
190.629	0
190.849	-0
191.07	-0
191.29	0
191.511	0
191.731	-0
191.951	-0
192.172	-0
192.392	-0
192.612	-0
192.833	-0
193.053	0
193.273	0
193.493	-0
193.714	-0
193.934	0
194.154	0
194.374	0
194.594	-0
194.815	-0
195.035	0
195.255	-0
195.475	-0
195.695	0
195.915	-0
196.135	-0
196.355	0
196.575	0
196.795	-0
197.015	-0
197.235	-0
197.455	-0
197.675	0
197.895	-0
198.115	-0
198.335	0
198.555	-0
198.775	-0
198.995	0
199.214	0
199.434	-0
199.654	-0
199.874	-0
200.094	0.37
200.313	0.38
200.533	-0.76
200.753	-0.8
200.973	0.82
201.192	0.27
201.412	-1.11
201.632	-0.45
201.851	0.65
202.071	-0.36
202.291	-0.78
202.51	-0.49
202.73	0.52
202.95	-0.21
203.169	-0.86
203.389	0.05
203.608	0.05
203.828	-0.53
204.047	-0.51
204.267	0.56
204.486	-0.04
204.706	-0.12
204.925	-0.29
205.145	-0.49
205.364	0.13
205.583	0.73
205.803	-0.03
206.022	-0.5
206.242	-0.03
206.461	0.07
206.68	-0.33
206.9	-0.09
207.119	0.53
207.338	0.43
207.557	-0.25
207.777	-0.13
207.996	-0.22
208.215	0.36
208.434	-0.41
208.654	-0.27
208.873	-0.12
209.092	0.31
209.311	-0.29
209.53	-0.33
209.749	-0.28
209.968	-0.45
210.187	-0.25
210.407	-0.47
210.626	-0.24
210.845	0.18
211.064	-0.02
211.283	-0.52
211.502	0.27
211.721	-0.1
211.94	-0.15
212.159	0.11
212.377	0.15
212.596	0.18
212.815	-0.05
213.034	-0.01
213.253	0.12
213.472	0.02
213.691	-0.16
213.91	-0.49
214.128	-0.26
214.347	0.23
214.566	-0.3
214.785	-0.23
215.003	0.14
215.222	0.06
215.441	-0.17
215.66	-0.27
215.878	-0.02
216.097	0.2
216.316	-0.25
216.534	-0.3
216.753	0.07
216.972	-0.03
217.19	-0.03
217.409	-0.36
217.627	-0.34
217.846	0.02
218.064	-0.14
218.283	-0.19
218.501	0.42
218.72	0.25
218.938	-0.3
219.157	-0.2
219.375	0.15
219.594	0.08
219.812	-0.41
220.031	-0.29
220.249	0.07
220.467	0.39
220.686	-0.21
220.904	-0.15
221.122	-0.26
221.341	0.24
221.559	0.02
221.777	-0.27
221.995	-0.06
222.214	0.06
222.432	-0.02
222.65	0.12
222.868	0.06
223.086	0.06
223.305	0.18
223.523	-0.1
223.741	0.34
223.959	-0.11
224.177	-0.18
224.395	-0.08
224.613	-0.12
224.831	0.06
225.049	-0.14
225.267	-0.01
225.485	-0.08
225.703	-0.06
225.921	-0.09
226.139	-0.11
226.357	0.07
226.575	0.13
226.793	-0.19
227.011	0.47
227.229	0.05
227.447	0.06
227.665	-0.1
227.883	-0.16
228.1	0.03
228.318	-0.05
228.536	-0.39
228.754	-0.2
228.972	0.13
229.189	0.07
229.407	-0.12
229.625	-0.09
229.843	0.13
230.06	0.18
230.278	-0.18
230.496	-0.06
230.713	-0.08
230.931	0.16
231.149	-0.22
231.366	-0.25
231.584	0.06
231.801	0.29
232.019	-0.18
232.236	-0.22
232.454	-0.14
232.671	0.01
232.889	-0.06
233.106	-0.08
233.324	-0.03
233.541	0.01
233.759	-0.05
233.976	-0.05
234.194	0.02
234.411	-0.09
234.628	-0.09
234.846	-0.12
235.063	0.06
235.28	-0.11
235.498	-0.03
235.715	-0.18
235.932	0.03
236.149	-0.01
236.367	-0.15
236.584	-0.01
236.801	-0.07
237.018	0.07
237.236	0.07
237.453	-0.21
237.67	0.15
237.887	0
238.104	-0.08
238.321	-0.13
238.538	-0.14
238.755	0.16
238.973	-0.15
239.19	0.01
239.407	0.01
239.624	-0.02
239.841	-0.19
240.058	-0.07
240.275	0.08
240.492	-0.03
240.709	-0.04
240.925	-0.14
241.142	-0.04
241.359	-0.14
241.576	-0.13
241.793	-0.11
242.01	0.02
242.227	0.09
242.444	0.09
242.66	0.02
242.877	0.01
243.094	-0.11
243.311	0.06
243.527	0.04
243.744	0.06
243.961	0.03
244.178	-0.03
244.394	-0.05
244.611	0.09
244.828	0.14
245.044	-0.13
245.261	-0.06
245.477	0.07
245.694	0.12
245.911	-0.09
246.127	-0.03
246.344	0.14
246.56	-0.01
246.777	-0.11
246.993	-0.09
247.21	-0.01
247.426	0.1
247.643	-0.14
247.859	-0.1
248.076	-0.02
248.292	0.19
248.508	-0.11
248.725	0.01
248.941	0.04
249.157	0.06
249.374	-0.04
249.59	-0.02
249.806	0.01
250.023	0.03
250.239	-0.1
250.455	-0.13
250.671	0.03
250.888	0.05
251.104	0.02
251.32	-0.09
251.536	-0
251.752	0.03
251.969	-0.03
252.185	-0.05
252.401	0.1
252.617	-0.12
252.833	-0.03
253.049	-0.04
253.265	-0.01
253.481	-0
253.697	-0.09
253.913	-0.15
254.129	0.03
254.345	0.01
254.561	-0.06
254.777	-0.02
254.993	0.09
255.209	-0.02
255.425	-0.06
255.641	-0.09
255.857	0.05
256.073	0.02
256.288	-0.1
256.504	-0.02
256.72	-0.03
256.936	0.06
257.152	-0.02
257.367	-0.08
257.583	0.02
257.799	0.05
258.015	-0.09
258.23	-0.08
258.446	0.16
258.662	-0.04
258.877	-0.08
259.093	-0.05
259.309	-0.04
259.524	0.08
259.74	-0.12
259.955	-0.08
260.171	0.04
260.387	-0.01
260.602	0.08
260.818	0.06
261.033	-0.05
261.249	-0.06
261.464	0.02
261.68	-0.15
261.895	0.1
262.11	0.05
262.326	-0.09
262.541	-0.1
262.757	0.04
262.972	0.07
263.187	0.04
263.403	-0.02
263.618	0.01
263.833	-0
264.049	-0.1
264.264	-0.11
264.479	0.06
264.694	0.07
264.91	-0.09
265.125	-0.03
265.34	0.03
265.555	0.12
265.77	0.01
265.986	-0.03
266.201	0.04
266.416	0.11
266.631	0
266.846	-0.01
267.061	0.04
267.276	0.05
267.491	-0.18
267.706	0.02
267.921	0.03
268.136	0.01
268.351	-0.04
268.566	-0.11
268.781	0.05
268.996	0.02
269.211	0.02
269.426	-0.08
269.641	-0.01
269.856	-0.03
270.071	-0.05
270.285	-0.11
270.5	0.04
270.715	0.05
270.93	-0.03
271.145	-0.01
271.359	0.03
271.574	-0.05
271.789	-0.03
272.004	-0.07
272.218	-0.03
272.433	0.06
272.648	-0.07
272.862	0.05
273.077	-0.07
273.292	-0.03
273.506	-0.06
273.721	-0.06
273.936	0.05
274.15	0.08
274.365	-0.06
274.579	0.05
274.794	0.01
275.008	0.08
275.223	-0.09
275.437	0.02
275.652	-0.01
275.866	0.05
276.081	-0.01
276.295	0.04
276.509	0.01
276.724	-0.01
276.938	0
277.153	-0.01
277.367	0.05
277.581	-0.01
277.796	-0.02
278.01	-0.12
278.224	0
278.438	0.17
278.653	-0.08
278.867	-0.02
279.081	-0.12
279.295	-0
279.51	0.01
279.724	-0.08
279.938	0.01
280.152	0.02
280.366	-0.07
280.58	-0.01
280.794	0.07
281.008	0.02
281.222	0.04
281.437	0.1
281.651	0.06
281.865	0.04
282.079	-0.03
282.293	-0.12
282.507	-0.04
282.721	0.01
282.935	0.02
283.148	-0.09
283.362	-0.03
283.576	-0.11
283.79	0.01
284.004	-0.07
284.218	0.04
284.432	-0.05
284.646	0
284.859	-0.03
285.073	-0
285.287	-0.03
285.501	-0.02
285.714	-0.02
285.928	-0.01
286.142	-0.02
286.356	-0.05
286.569	-0.07
286.783	0.1
286.997	0.05
287.21	0.06
287.424	0
287.637	-0.03
287.851	-0.03
288.065	0.01
288.278	-0.01
288.492	-0.01
288.705	-0
288.919	0.04
289.132	-0.13
289.346	0.07
289.559	-0.07
289.773	-0.07
289.986	-0.03
290.2	-0.03
290.413	0.04
290.626	-0.02
290.84	-0.02
291.053	0
291.267	0.08
291.48	0
291.693	0.01
291.906	-0.05
292.12	-0.03
292.333	-0.06
292.546	-0.01
292.76	0.09
292.973	-0.01
293.186	0.04
293.399	-0.05
293.612	0.07
293.826	0.01
294.039	0.01
294.252	-0.03
294.465	0.05
294.678	0.03
294.891	-0.01
295.104	-0.06
295.317	-0.01
295.53	0.01
295.743	0.01
295.956	-0.03
296.169	0.08
296.382	0.04
296.595	0
296.808	-0.04
297.021	0.05
297.234	0.03
297.447	-0.03
297.66	0.01
297.873	0.05
298.086	0.04
298.299	-0.03
298.511	-0.06
298.724	-0.03
298.937	-0.03
299.15	-0.06
299.363	0.02
299.575	0.01
299.788	-0.01
300.001	-0.02
300.213	-0.07
300.426	-0.01
300.639	-0
300.852	-0.04
301.064	0.01
301.277	0.05
301.489	0.05
301.702	0.05
301.915	0.02
302.127	-0.04
302.34	0.05
302.552	0.03
302.765	-0.02
302.977	0.03
303.19	0.01
303.402	0.02
303.615	-0.03
303.827	0.02
304.04	-0
304.252	0.04
304.464	0
304.677	0.11
304.889	-0
305.102	-0.01
305.314	-0.02
305.526	0.02
305.739	0.05
305.951	-0.06
306.163	-0.03
306.375	0.06
306.588	-0.04
306.8	-0.04
307.012	-0.04
307.224	0.05
307.436	0.05
307.649	-0.07
307.861	-0.01
308.073	0.01
308.285	-0
308.497	-0.02
308.709	-0.02
308.921	0.04
309.133	0.07
309.346	-0.01
309.558	-0.02
309.77	0.03
309.982	0.06
310.194	0.06
310.406	-0.06
310.617	0.06
310.829	0.02
311.041	0.03
311.253	-0.03
311.465	0.02
311.677	0.04
311.889	-0.04
312.101	-0.06
312.313	0.01
312.524	0.06
312.736	-0.05
312.948	0
313.16	0.06
313.372	0.02
313.583	0.01
313.795	-0.02
314.007	-0.04
314.218	0.06
314.43	-0.03
314.642	-0.03
314.853	-0.03
315.065	0.06
315.277	0.01
315.488	0
315.7	0.04
315.912	0.05
316.123	0
316.335	-0.01
316.546	0.11
316.758	0.02
316.969	-0.01
317.181	0.02
317.392	0.01
317.604	0.05
317.815	-0.05
318.026	-0.01
318.238	-0.04
318.449	-0.02
318.661	-0.06
318.872	-0.06
319.083	-0.07
319.295	0.04
319.506	0.04
319.717	0.05
319.929	0.03
320.14	-0.02
320.351	0.03
320.562	-0.06
320.774	-0
320.985	0.04
321.196	-0.05
321.407	-0.07
321.618	0.03
321.829	0.01
322.041	0.05
322.252	0.01
322.463	0.02
322.674	0.04
322.885	-0.06
323.096	-0.01
323.307	0.01
323.518	0.01
323.729	-0.08
323.94	0.01
324.151	-0.02
324.362	0.02
324.573	0.03
324.784	-0.05
324.995	0.04
325.206	0.01
325.417	-0.02
325.628	-0.02
325.838	-0
326.049	0.01
326.26	0.06
326.471	-0.07
326.682	0.08
326.892	0.04
327.103	-0.06
327.314	-0.04
327.525	0.03
327.735	-0.04
327.946	0.01
328.157	-0.02
328.368	0.03
328.578	-0.05
328.789	0.02
328.999	-0.02
329.21	0
329.421	-0
329.631	-0.07
329.842	-0.04
330.052	-0
330.263	-0.01
330.473	-0.03
330.684	-0.01
330.894	0
331.105	0.06
331.315	-0.03
331.526	-0.04
331.736	0.09
331.947	0.05
332.157	-0.01
332.367	-0.03
332.578	-0.02
332.788	0.01
332.999	0.03
333.209	0.04
333.419	-0.1
333.629	-0
333.84	0.04
334.05	-0.02
334.26	0.07
334.47	0
334.681	0.05
334.891	-0.05
335.101	0.02
335.311	0.11
335.521	0.01
335.732	-0.04
335.942	0.05
336.152	-0
336.362	0
336.572	-0.04
336.782	0.04
336.992	-0.03
337.202	-0.03
337.412	-0.04
337.622	0.02
337.832	-0
338.042	-0.01
338.252	-0.06
338.462	-0.02
338.672	0.01
338.882	-0.05
339.092	0
339.302	0.07
339.511	0.03
339.721	-0.04
339.931	-0.04
340.141	0.1
340.351	0.02
340.561	0.01
340.77	0.01
340.98	0.04
341.19	0.01
341.4	-0.01
341.609	-0.05
341.819	0.01
342.029	-0.04
342.238	0.01
342.448	-0.03
342.658	-0.01
342.867	0.02
343.077	0.01
343.286	0.02
343.496	0.02
343.706	0.08
343.915	-0.04
344.125	-0.02
344.334	0.02
344.544	-0.03
344.753	0
344.963	-0.03
345.172	-0
345.381	-0.03
345.591	-0.03
345.8	0.01
346.01	0.05
346.219	0.09
346.428	-0.13
346.638	-0.02
346.847	0
347.056	0.08
347.266	-0.04
347.475	0
347.684	-0
347.893	0.03
348.103	0.03
348.312	-0.02
348.521	-0.02
348.73	-0.02
348.94	0.02
349.149	-0.02
349.358	-0.01
349.567	-0.05
349.776	-0.06
349.985	-0.04
350.194	0.04
350.403	0.03
350.612	-0.07
350.821	-0
351.03	-0
351.239	-0.09
351.448	-0.02
351.657	0.01
351.866	0.08
352.075	0.05
352.284	0.04
352.493	-0.08
352.702	0.08
352.911	0.01
353.12	-0.01
353.329	-0.03
353.538	0.02
353.746	0.01
353.955	-0.04
354.164	-0.01
354.373	-0.02
354.582	0.01
354.79	-0
354.999	0.03
355.208	-0.02
355.416	0.06
355.625	-0.02
355.834	-0.04
356.042	0.03
356.251	-0.03
356.46	-0.03
356.668	0
356.877	0.06
357.085	-0
357.294	-0.07
357.503	0.04
357.711	0.01
357.92	0.12
358.128	-0
358.337	-0.06
358.545	0.06
358.754	-0.02
358.962	0.04
359.17	-0.04
359.379	-0.02
359.587	0.07
359.796	-0.01
360.004	0.04
360.212	0.01
360.421	0.05
360.629	-0.05
360.837	-0.03
361.046	0.03
361.254	0.11
361.462	-0.01
361.67	-0.06
361.879	0.01
362.087	0.04
362.295	0.02
362.503	-0.01
362.711	-0.05
362.92	-0.01
363.128	-0.01
363.336	-0.07
363.544	-0.07
363.752	-0
363.96	-0.04
364.168	-0.02
364.376	0.02
364.584	-0.02
364.792	0.02
365	0.05
365.208	-0.01
365.416	0.01
365.624	0.03
365.832	-0.01
366.04	0.07
366.248	0.02
366.456	0.02
366.664	-0.01
366.872	-0.01
367.079	0.02
367.287	0.01
367.495	0.01
367.703	0.01
367.911	0
368.118	-0.02
368.326	-0.01
368.534	-0
368.742	0.02
368.949	-0.07
369.157	-0.04
369.365	0.02
369.572	-0.05
369.78	-0.04
369.988	0.05
370.195	0.03
370.403	0.03
370.61	-0.01
370.818	-0.03
371.026	0.07
371.233	-0.03
371.441	0.01
371.648	0
371.856	0.03
372.063	-0.03
372.271	-0.01
372.478	0
372.685	-0.03
372.893	0.06
373.1	-0.03
373.308	-0.04
373.515	0.09
373.722	0.01
373.93	-0.02
374.137	-0.03
374.344	0.11
374.552	0.04
374.759	0.03
374.966	-0.01
375.173	-0.01
375.381	0.04
375.588	0.01
375.795	-0.07
376.002	0
376.209	-0.07
376.417	-0.01
376.624	-0.03
376.831	0.05
377.038	-0.02
377.245	-0.09
377.452	-0.02
377.659	-0.01
377.866	-0.03
378.073	-0.02
378.28	-0.01
378.487	0.04
378.694	0.06
378.901	0
379.108	0
379.315	0.03
379.522	0.08
379.729	0.01
379.936	0.02
380.143	0.01
380.35	-0.03
380.557	0
380.763	-0
380.97	0
381.177	0.01
381.384	0.02
381.591	-0.01
381.797	-0.02
382.004	-0
382.211	0.01
382.418	-0.02
382.624	0.05
382.831	0.06
383.038	-0.05
383.244	0.01
383.451	-0.02
383.658	0.05
383.864	-0.01
384.071	-0
384.277	0.06
384.484	-0.02
384.69	-0
384.897	0
385.103	-0.02
385.31	-0.02
385.516	-0.01
385.723	-0.05
385.929	-0.01
386.136	-0
386.342	0.01
386.549	-0.05
386.755	0.07
386.961	0.02
387.168	-0.01
387.374	-0.01
387.58	0.04
387.787	0.02
387.993	0.02
388.199	-0.04
388.406	-0.03
388.612	0.01
388.818	-0.01
389.024	-0.02
389.231	0.02
389.437	0.07
389.643	0.04
389.849	-0.01
390.055	-0
390.261	0.05
390.467	0.03
390.674	-0.1
390.88	0
391.086	0.03
391.292	-0.03
391.498	-0
391.704	-0.03
391.91	-0.01
392.116	-0.02
392.322	-0.12
392.528	0.01
392.734	-0.07
392.94	0.03
393.146	-0.02
393.352	0.02
393.557	-0.03
393.763	-0.01
393.969	-0.01
394.175	0.01
394.381	0
394.587	-0.06
394.792	-0.01
394.998	0.05
395.204	0.06
395.41	-0.02
395.615	0.01
395.821	0.06
396.027	0.03
396.233	-0.04
396.438	-0.03
396.644	0.04
396.85	0.02
397.055	0
397.261	0.02
397.466	0.11
397.672	0.02
397.878	0.02
398.083	-0
398.289	-0.04
398.494	0.05
398.7	0.03
398.905	-0.12
399.111	0.08
399.316	-0.05
399.522	0.01
399.727	0.01
399.932	-0.07
400.138	0.01
400.343	0.07
400.549	-0.02
400.754	0.01
400.959	0.02
401.165	-0.03
401.37	0
401.575	0.08
401.78	0.03
401.986	-0.03
402.191	-0.03
402.396	-0.01
402.601	0.04
402.807	-0.01
403.012	0.03
403.217	0.03
403.422	0.02
403.627	0.01
403.832	-0.04
404.037	0.05
404.243	0.03
404.448	-0.03
404.653	-0.04
404.858	0.01
405.063	0.06
405.268	0.01
405.473	-0.03
405.678	-0.04
405.883	0.09
406.088	0
406.293	-0.02
406.498	-0.07
406.703	0.04
406.907	-0.01
407.112	-0.05
407.317	0.01
407.522	0.03
407.727	-0.05
407.932	0.02
408.136	0.1
408.341	0.02
408.546	-0.01
408.751	0.03
408.956	-0
409.16	0.05
409.365	-0
409.57	-0.01
409.774	0.02
409.979	0.01
410.184	-0.02
410.388	-0.06
410.593	0.04
410.798	0.04
411.002	-0.05
411.207	0.03
411.411	0.01
411.616	-0.03
411.82	-0.03
412.025	0.05
412.229	0
412.434	0.02
412.638	0.01
412.843	-0.02
413.047	0.01
413.252	-0.02
413.456	-0.03
413.66	0.02
413.865	-0.03
414.069	0.09
414.273	-0.01
414.478	-0.05
414.682	-0.01
414.886	-0.04
415.091	-0.06
415.295	-0.1
415.499	0.02
415.703	-0.03
415.908	0.01
416.112	-0.07
416.316	0.03
416.52	-0.02
416.724	-0.03
416.929	-0.02
417.133	0.07
417.337	-0.05
417.541	-0.03
417.745	-0.02
417.949	-0
418.153	0.02
418.357	-0.06
418.561	0.06
418.765	-0.01
418.969	0.1
419.173	0.01
419.377	-0.04
419.581	0.07
419.785	-0.04
419.989	-0.03
420.193	0.03
420.397	-0.04
420.601	0.06
420.804	0.03
421.008	-0.02
421.212	-0.01
421.416	-0
421.62	-0.05
421.823	0.01
422.027	0.09
422.231	-0.01
422.435	0.01
422.638	0.04
422.842	0.04
423.046	-0.06
423.249	0.07
423.453	0.03
423.657	0.03
423.86	-0.02
424.064	-0.01
424.268	0.07
424.471	0.01
424.675	0.1
424.878	0.04
425.082	-0.02
425.285	0.04
425.489	0.02
425.692	0.01
425.896	-0.05
426.099	0.03
426.303	-0.05
426.506	-0.07
426.71	0.06
426.913	0.09
427.116	0.1
427.32	-0
427.523	-0.03
427.726	0.06
427.93	-0.07
428.133	-0.03
428.336	-0.03
428.54	-0.04
428.743	0
428.946	0.02
429.149	-0.02
429.353	-0.01
429.556	-0
429.759	0.02
429.962	-0.04
430.165	0.03
430.368	-0.04
430.571	-0.02
430.775	0.01
430.978	0.01
431.181	0.01
431.384	0.02
431.587	-0.01
431.79	-0.04
431.993	0.04
432.196	-0.01
432.399	-0.03
432.602	0.07
432.805	-0.05
433.008	-0.03
433.211	-0.06
433.414	-0.01
433.616	0.01
433.819	-0
434.022	-0.06
434.225	0.06
434.428	0.02
434.631	0.18
434.833	-0
435.036	-0
435.239	0.04
435.442	0.02
435.645	0
435.847	-0
436.05	0.04
436.253	0
436.455	-0.04
436.658	-0.03
436.861	0.09
437.063	-0.02
437.266	0
437.468	0.03
437.671	0.14
437.874	0.01
438.076	-0.06
438.279	-0.04
438.481	0.03
438.684	-0.11
438.886	0.07
439.089	-0.07
439.291	0.01
439.494	0.05
439.696	-0.06
439.899	-0.04
440.101	-0.01
440.303	-0.06
440.506	0.04
440.708	0
440.91	0
441.113	-0.03
441.315	0.06
441.517	-0.04
441.72	0.05
441.922	-0.03
442.124	-0.02
442.326	0.03
442.529	0.1
442.731	-0
442.933	0.08
443.135	-0
443.337	-0.07
443.539	-0.01
443.742	-0.04
443.944	0.07
444.146	-0.04
444.348	-0.04
444.55	-0.04
444.752	-0.01
444.954	-0.08
445.156	0.05
445.358	-0.02
445.56	0.09
445.762	-0.04
445.964	-0.01
446.166	0.02
446.368	-0.05
446.57	0.07
446.772	0.03
446.974	-0.06
447.175	0
447.377	0.02
447.579	-0.02
447.781	-0.1
447.983	0.09
448.184	-0.03
448.386	0.01
448.588	-0.07
448.79	0
448.991	-0.04
449.193	-0.03
449.395	-0.01
449.597	0.02
449.798	0
450	0.02
450.202	0.03
450.403	0.04
450.605	0.06
450.806	0.02
451.008	-0.07
451.21	0.04
451.411	0.03
451.613	0
451.814	-0.01
452.016	0.02
452.217	0.04
452.419	0.03
452.62	0.01
452.821	0.06
453.023	0.07
453.224	0.01
453.426	-0.01
453.627	0.04
453.828	0.04
454.03	0.05
454.231	0.02
454.432	-0
454.634	0.09
454.835	-0.04
455.036	-0.08
455.238	0.02
455.439	0.1
455.64	-0.02
455.841	-0.01
456.042	0.09
456.244	0.03
456.445	-0.03
456.646	-0.07
456.847	-0.04
457.048	0.08
457.249	0.03
457.45	0.2
457.651	-0.08
457.852	0.07
458.054	0.06
458.255	-0.02
458.456	0.02
458.657	0.03
458.858	-0.03
459.058	0.01
459.259	0.04
459.46	0.01
459.661	-0.02
459.862	0.06
460.063	-0.03
460.264	0.1
460.465	-0.08
460.666	0.11
460.866	-0.04
461.067	-0.04
461.268	-0.02
461.469	-0
461.67	0.06
461.87	-0
462.071	-0.04
462.272	-0.06
462.473	-0.01
462.673	0.1
462.874	-0.03
463.075	0.03
463.275	-0.08
463.476	0.07
463.676	-0.01
463.877	0.02
464.078	-0.01
464.278	-0
464.479	-0
464.679	-0.08
464.88	0.03
465.08	-0
465.281	-0.02
465.481	0.01
465.682	0.03
465.882	0.06
466.083	0.03
466.283	-0.01
466.483	0.03
466.684	-0.06
466.884	-0.03
467.085	-0.01
467.285	0.07
467.485	-0.05
467.686	0
467.886	-0.01
468.086	-0.01
468.286	-0.01
468.487	0.03
468.687	-0.04
468.887	-0.02
469.087	0.02
469.287	0
469.488	-0.03
469.688	0.06
469.888	0.02
470.088	0.03
470.288	0.05
470.488	0.02
470.688	-0.04
470.888	0.02
471.088	-0.01
471.288	0.08
471.488	0.03
471.688	0.03
471.888	-0.05
472.088	0.05
472.288	0.05
472.488	-0.01
472.688	-0.02
472.888	0.01
473.088	0.03
473.288	0.05
473.488	0.04
473.688	0.11
473.887	0.05
474.087	-0.04
474.287	-0.01
474.487	-0.04
474.687	0.03
474.886	0.01
475.086	0.01
475.286	-0
475.486	0.01
475.685	0
475.885	-0.01
476.085	0.02
476.284	0.06
476.484	-0.01
476.684	0.04
476.883	0.07
477.083	0.03
477.282	-0.02
477.482	0.09
477.681	0.07
477.881	0.08
478.08	0.02
478.28	-0.03
478.479	0.02
478.679	0.1
478.878	0.03
479.078	0.02
479.277	0.02
479.477	0.03
479.676	0.05
479.875	0.04
480.075	-0.02
480.274	0.05
480.473	0.04
480.673	0.01
480.872	0.08
481.071	0.03
481.271	0.03
481.47	-0.01
481.669	0.03
481.868	-0.01
482.067	0.02
482.267	-0
482.466	0.01
482.665	0.01
482.864	0.03
483.063	0.01
483.262	0.05
483.461	0.09
483.661	0.07
483.86	0.07
484.059	0.06
484.258	0.04
484.457	0.07
484.656	0.05
484.855	0.07
485.054	0.03
485.253	0.02
485.452	0.01
485.651	0.02
485.849	0.06
486.048	-0.01
486.247	-0
486.446	0.06
486.645	-0.01
486.844	0.05
487.043	0.04
487.241	0.08
487.44	0.04
487.639	0.05
487.838	0.09
488.037	0.07
488.235	0.12
488.434	0.06
488.633	0.05
488.831	0.06
489.03	0.08
489.229	0.07
489.427	0.05
489.626	0.11
489.825	0.13
490.023	0.1
490.222	0.06
490.42	0.11
490.619	0.1
490.817	0.09
491.016	0.07
491.214	0.13
491.413	0.07
491.611	0.09
491.81	0.1
492.008	0.13
492.207	0.12
492.405	0.11
492.604	0.06
492.802	0.1
493	0.1
493.199	0.11
493.397	0.11
493.595	0.12
493.794	0.09
493.992	0.15
494.19	0.11
494.388	0.15
494.587	0.12
494.785	0.12
494.983	0.11
495.181	0.12
495.379	0.15
495.578	0.12
495.776	0.16
495.974	0.15
496.172	0.16
496.37	0.15
496.568	0.12
496.766	0.13
496.964	0.18
497.162	0.18
497.36	0.17
497.558	0.19
497.756	0.21
497.954	0.19
498.152	0.15
498.35	0.2
498.548	0.19
498.746	0.21
498.944	0.17
499.142	0.2
499.34	0.19
499.538	0.24
499.736	0.2
499.933	0.26
500.131	0.27
500.329	0.26
500.527	0.28
500.725	0.29
500.922	0.27
501.12	0.26
501.318	0.28
501.516	0.28
501.713	0.34
501.911	0.28
502.109	0.26
502.306	0.31
502.504	0.31
502.701	0.29
502.899	0.34
503.097	0.39
503.294	0.35
503.492	0.38
503.689	0.4
503.887	0.42
504.084	0.44
504.282	0.39
504.479	0.37
504.677	0.43
504.874	0.4
505.072	0.44
505.269	0.44
505.466	0.5
505.664	0.49
505.861	0.45
506.059	0.45
506.256	0.53
506.453	0.5
506.651	0.6
506.848	0.59
507.045	0.58
507.242	0.56
507.44	0.54
507.637	0.61
507.834	0.58
508.031	0.64
508.229	0.6
508.426	0.62
508.623	0.71
508.82	0.63
509.017	0.66
509.214	0.68
509.411	0.72
509.608	0.68
509.805	0.75
510.003	0.75
510.2	0.75
510.397	0.83
510.594	0.77
510.791	0.8
510.988	0.83
511.184	0.83
511.381	0.8
511.578	0.85
511.775	0.92
511.972	0.89
512.169	0.9
512.366	0.91
512.563	0.97
512.76	0.96
512.956	1.02
513.153	0.96
513.35	1.01
513.547	1
513.744	1.04
513.94	1.01
514.137	1.1
514.334	1.08
514.53	1.09
514.727	1.17
514.924	1.21
515.12	1.12
515.317	1.15
515.514	1.14
515.71	1.12
515.907	1.21
516.103	1.27
516.3	1.26
516.497	1.28
516.693	1.28
516.89	1.31
517.086	1.28
517.283	1.34
517.479	1.28
517.676	1.33
517.872	1.35
518.068	1.34
518.265	1.35
518.461	1.37
518.658	1.36
518.854	1.43
519.05	1.44
519.247	1.43
519.443	1.43
519.639	1.48
519.836	1.46
520.032	1.45
520.228	1.48
520.424	1.54
520.621	1.51
520.817	1.49
521.013	1.52
521.209	1.58
521.405	1.57
521.601	1.5
521.798	1.51
521.994	1.59
522.19	1.46
522.386	1.49
522.582	1.54
522.778	1.56
522.974	1.53
523.17	1.54
523.366	1.51
523.562	1.53
523.758	1.53
523.954	1.48
524.15	1.54
524.346	1.57
524.542	1.55
524.738	1.49
524.934	1.54
525.129	1.53
525.325	1.5
525.521	1.49
525.717	1.55
525.913	1.5
526.109	1.48
526.304	1.52
526.5	1.49
526.696	1.52
526.892	1.45
527.087	1.5
527.283	1.46
527.479	1.44
527.674	1.4
527.87	1.47
528.066	1.41
528.261	1.41
528.457	1.4
528.653	1.39
528.848	1.4
529.044	1.41
529.239	1.35
529.435	1.38
529.63	1.31
529.826	1.4
530.021	1.29
530.217	1.36
530.412	1.26
530.608	1.27
530.803	1.25
530.999	1.24
531.194	1.2
531.389	1.23
531.585	1.16
531.78	1.19
531.975	1.2
532.171	1.18
532.366	1.16
532.561	1.14
532.757	1.13
532.952	1.13
533.147	1.11
533.342	1.12
533.538	1.08
533.733	1.13
533.928	1.03
534.123	1.05
534.318	1
534.513	1.03
534.709	1.05
534.904	1
535.099	1.03
535.294	1.02
535.489	1
535.684	0.96
535.879	0.92
536.074	0.95
536.269	0.92
536.464	0.89
536.659	0.93
536.854	0.92
537.049	0.9
537.244	0.89
537.439	0.84
537.634	0.88
537.828	0.88
538.023	0.81
538.218	0.79
538.413	0.8
538.608	0.76
538.803	0.83
538.997	0.74
539.192	0.8
539.387	0.77
539.582	0.76
539.776	0.74
539.971	0.71
540.166	0.73
540.36	0.68
540.555	0.74
540.75	0.71
540.944	0.71
541.139	0.66
541.334	0.69
541.528	0.71
541.723	0.7
541.917	0.66
542.112	0.59
542.306	0.63
542.501	0.61
542.695	0.67
542.89	0.6
543.084	0.61
543.279	0.6
543.473	0.62
543.668	0.6
543.862	0.58
544.056	0.58
544.251	0.57
544.445	0.59
544.64	0.58
544.834	0.54
545.028	0.53
545.222	0.53
545.417	0.59
545.611	0.54
545.805	0.54
546	0.5
546.194	0.52
546.388	0.48
546.582	0.5
546.776	0.47
546.97	0.5
547.165	0.51
547.359	0.48
547.553	0.43
547.747	0.47
547.941	0.47
548.135	0.43
548.329	0.45
548.523	0.47
548.717	0.41
548.911	0.41
549.105	0.42
549.299	0.43
549.493	0.44
549.687	0.41
549.881	0.41
550.075	0.39
550.269	0.35
550.463	0.43
550.657	0.38
550.85	0.36
551.044	0.32
551.238	0.38
551.432	0.35
551.626	0.35
551.82	0.34
552.013	0.31
552.207	0.36
552.401	0.35
552.594	0.34
552.788	0.32
552.982	0.32
553.176	0.29
553.369	0.33
553.563	0.31
553.756	0.26
553.95	0.26
554.144	0.31
554.337	0.29
554.531	0.29
554.724	0.29
554.918	0.25
555.111	0.29
555.305	0.27
555.498	0.33
555.692	0.31
555.885	0.24
556.079	0.28
556.272	0.24
556.466	0.28
556.659	0.25
556.852	0.22
557.046	0.22
557.239	0.24
557.432	0.2
557.626	0.2
557.819	0.25
558.012	0.24
558.206	0.26
558.399	0.22
558.592	0.22
558.785	0.19
558.979	0.21
559.172	0.18
559.365	0.22
559.558	0.2
559.751	0.18
559.944	0.19
560.138	0.18
560.331	0.17
560.524	0.16
560.717	0.18
560.91	0.16
561.103	0.2
561.296	0.16
561.489	0.17
561.682	0.18
561.875	0.22
562.068	0.18
562.261	0.17
562.454	0.2
562.647	0.17
562.84	0.19
563.032	0.14
563.225	0.17
563.418	0.16
563.611	0.13
563.804	0.14
563.997	0.11
564.19	0.12
564.382	0.16
564.575	0.11
564.768	0.14
564.961	0.13
565.153	0.12
565.346	0.15
565.539	0.15
565.731	0.16
565.924	0.13
566.117	0.12
566.309	0.12
566.502	0.1
566.695	0.11
566.887	0.14
567.08	0.1
567.272	0.1
567.465	0.08
567.657	0.12
567.85	0.11
568.042	0.12
568.235	0.13
568.427	0.09
568.62	0.11
568.812	0.12
569.005	0.11
569.197	0.06
569.389	0.12
569.582	0.09
569.774	0.1
569.966	0.05
570.159	0.08
570.351	0.12
570.543	0.07
570.736	0.11
570.928	0.05
571.12	0.1
571.312	0.08
571.505	0.04
571.697	0.12
571.889	0.06
572.081	0.07
572.273	0.09
572.465	0.11
572.658	0.09
572.85	0.06
573.042	0.06
573.234	0.06
573.426	0.12
573.618	0.04
573.81	0.09
574.002	0.11
574.194	0.09
574.386	0.03
574.578	0.01
574.77	0.04
574.962	0.07
575.154	0.03
575.346	0.05
575.538	0.07
575.729	0.02
575.921	0.07
576.113	0.04
576.305	0.08
576.497	0.06
576.689	0.03
576.88	0.04
577.072	0.09
577.264	0.06
577.456	0.03
577.647	-0.01
577.839	0.04
578.031	0.08
578.223	0.01
578.414	0.01
578.606	0.06
578.798	0.06
578.989	0.03
579.181	0.06
579.372	0.04
579.564	0.05
579.755	0.05
579.947	0.04
580.139	0.07
580.33	-0.01
580.522	0.01
580.713	-0.02
580.905	0.06
581.096	0.05
581.287	0.05
581.479	0.04
581.67	0.07
581.862	0.04
582.053	0.01
582.244	0
582.436	0.02
582.627	0.04
582.818	-0
583.01	0
583.201	0.06
583.392	0.05
583.583	0.04
583.775	0.01
583.966	0.02
584.157	0.02
584.348	0.02
584.54	-0.01
584.731	0.08
584.922	0.01
585.113	-0.01
585.304	0.02
585.495	0.07
585.686	0.03
585.877	0.04
586.068	0.05
586.259	0.05
586.45	0.06
586.641	0.02
586.832	-0.04
587.023	0.05
587.214	0.01
587.405	0.04
587.596	-0.01
587.787	0.07
587.978	0.03
588.169	0.01
588.36	0
588.551	0.05
588.742	-0.01
588.932	0.03
589.123	0.01
589.314	0.06
589.505	0.05
589.696	0.02
589.886	0.01
590.077	-0.01
590.268	0.02
590.458	-0.01
590.649	-0.03
590.84	0.06
591.03	-0.01
591.221	-0.03
591.412	-0.01
591.602	0.06
591.793	0.07
591.984	-0.03
592.174	0.01
592.365	0.08
592.555	-0.02
592.746	0.02
592.936	0.02
593.127	0.04
593.317	0.02
593.508	-0.01
593.698	0.01
593.889	0.02
594.079	0.02
594.269	-0.01
594.46	-0.01
594.65	0.02
594.84	0.02
595.031	-0.04
595.221	0.01
595.411	-0.02
595.602	0.02
595.792	0.02
595.982	-0
596.172	0.08
596.363	0.04
596.553	0
596.743	0
596.933	0.02
597.123	0.05
597.314	-0.02
597.504	-0.02
597.694	0.05
597.884	0.03
598.074	0.01
598.264	-0
598.454	0.04
598.644	-0
598.834	0.01
599.024	-0.06
599.214	0
599.404	0.04
599.594	-0
599.784	-0.03
599.974	0.05
600.164	0.01
600.354	-0.02
600.544	-0.03
600.734	0.05
600.924	0.03
601.114	-0.01
601.303	0.02
601.493	0.03
601.683	0.01
601.873	0.02
602.063	-0.02
602.252	0.05
602.442	-0.07
602.632	-0.03
602.821	-0.03
603.011	0.03
603.201	-0.01
603.39	-0.02
603.58	-0.03
603.77	-0.01
603.959	0.04
604.149	0
604.339	-0.02
604.528	0.03
604.718	0.05
604.907	-0.01
605.097	-0
605.286	-0.05
605.476	0.01
605.665	0.03
605.855	-0
606.044	0.04
606.234	-0
606.423	0
606.612	-0.02
606.802	-0
606.991	0.04
607.181	0.01
607.37	-0.05
607.559	-0
607.749	-0.05
607.938	0
608.127	-0
608.316	-0.02
608.506	0.03
608.695	-0.01
608.884	-0.02
609.073	-0.01
609.263	0.01
609.452	0.04
609.641	0.01
609.83	-0.02
610.019	0.01
610.208	-0.05
610.397	-0.01
610.586	0.04
610.775	-0.03
610.965	-0.02
611.154	-0.02
611.343	0.03
611.532	-0.01
611.721	-0.02
611.91	-0
612.099	0.02
612.287	-0.01
612.476	-0.02
612.665	0.03
612.854	-0.02
613.043	0.05
613.232	0.01
613.421	-0.03
613.61	0.03
613.798	-0.01
613.987	0.03
614.176	-0.02
614.365	0.02
614.554	-0
614.742	0.02
614.931	0
615.12	0.02
615.309	-0.01
615.497	0.03
615.686	-0.03
615.875	-0.02
616.063	-0
616.252	-0.04
616.44	-0.04
616.629	-0.01
616.818	0.05
617.006	0.02
617.195	-0
617.383	0.02
617.572	-0
617.76	-0.02
617.949	-0.02
618.137	0.04
618.326	0.06
618.514	-0.02
618.703	-0.03
618.891	0.02
619.079	-0.04
619.268	0
619.456	-0.01
619.644	0.06
619.833	0.01
620.021	-0.01
620.209	-0.07
620.398	0.02
620.586	-0.01
620.774	-0
620.962	-0.01
621.151	0.06
621.339	0
621.527	-0.04
621.715	-0.03
621.903	-0.02
622.092	-0.01
622.28	0.02
622.468	-0.04
622.656	-0.01
622.844	-0.01
623.032	-0.02
623.22	-0.04
623.408	0.03
623.596	-0.03
623.784	-0.02
623.972	-0.03
624.16	-0.01
624.348	0.07
624.536	-0.01
624.724	-0.01
624.912	0.08
625.1	0.03
625.288	-0.01
625.476	-0.04
625.664	0.03
625.851	-0.04
626.039	-0.02
626.227	0.01
626.415	-0.02
626.603	-0.06
626.79	-0.01
626.978	-0.03
627.166	0.02
627.354	-0.02
627.541	-0.05
627.729	-0.08
627.917	0.03
628.104	0.04
628.292	-0.01
628.48	-0.01
628.667	-0.02
628.855	-0.01
629.042	-0
629.23	-0.02
629.418	-0.01
629.605	0
629.793	-0.03
629.98	0
630.168	0.02
630.355	-0.04
630.543	-0.02
630.73	-0.05
630.917	0.01
631.105	0.07
631.292	-0.04
631.48	0.01
631.667	0.09
631.854	0.02
632.042	-0.04
632.229	-0.06
632.416	0.03
632.604	-0.01
632.791	-0.04
632.978	0.01
633.165	0.01
633.353	0.08
633.54	0.01
633.727	-0.04
633.914	-0.05
634.101	-0.09
634.289	0.05
634.476	-0.05
634.663	-0.02
634.85	-0.02
635.037	-0.02
635.224	-0.08
635.411	0
635.598	0.03
635.785	-0.05
635.972	-0.03
636.159	0.02
636.346	-0.04
636.533	-0
636.72	0.01
636.907	-0
637.094	0.01
637.281	-0.03
637.468	-0.02
637.655	-0
637.842	-0.01
638.029	-0.03
638.215	0.02
638.402	0.01
638.589	-0.01
638.776	0
638.963	-0.03
639.149	0.05
639.336	0.06
639.523	-0.04
639.709	-0.01
639.896	-0
640.083	0.08
640.27	-0.01
640.456	-0.01
640.643	0.01
640.829	-0.05
641.016	-0.01
641.203	-0.05
641.389	0.01
641.576	0.01
641.762	-0.04
641.949	-0.04
642.135	0
642.322	0.01
642.508	-0.04
642.695	-0.02
642.881	-0.01
643.068	-0.02
643.254	-0.01
643.441	0.02
643.627	0
643.813	-0.03
644	0.02
644.186	-0.03
644.372	-0.01
644.559	0
644.745	-0.04
644.931	-0.02
645.118	0.01
645.304	-0.01
645.49	-0.04
645.676	-0.03
645.862	0
646.049	0.04
646.235	0.01
646.421	0.03
646.607	0.05
646.793	-0.03
646.979	-0.05
647.165	0.02
647.352	0
647.538	-0.01
647.724	0.02
647.91	0.01
648.096	0.01
648.282	0.04
648.468	-0.03
648.654	0.03
648.84	0.02
649.026	-0
649.212	-0
649.397	-0.03
649.583	-0.04
649.769	-0.01
649.955	0
650.141	0.01
650.327	0.08
650.513	-0.01
650.698	0.02
650.884	-0.08
651.07	0.03
651.256	0.03
651.442	-0.02
651.627	0.01
651.813	0.01
651.999	-0.01
652.184	0
652.37	-0.05
652.556	-0.06
652.741	0.08
652.927	-0.07
653.113	0.01
653.298	-0.01
653.484	-0.04
653.669	-0.07
653.855	-0
654.04	0
654.226	-0.02
654.412	-0.04
654.597	-0.04
654.782	-0.03
654.968	0.04
655.153	-0.01
655.339	-0.01
655.524	-0.02
655.71	0.04
655.895	-0.01
656.08	-0.01
656.266	0.03
656.451	0.03
656.636	-0.03
656.822	0.02
657.007	-0.02
657.192	-0.03
657.378	-0.06
657.563	-0.01
657.748	0.01
657.933	0.04
658.118	-0.04
658.304	-0.02
658.489	0.01
658.674	0.02
658.859	-0.06
659.044	-0.02
659.229	0
659.414	-0.04
659.599	-0.01
659.785	-0.06
659.97	-0.04
660.155	0
660.34	-0
660.525	-0.03
660.71	-0.04
660.895	0.01
661.08	-0.02
661.264	-0.04
661.449	0.04
661.634	0.03
661.819	-0.02
662.004	-0.04
662.189	-0.08
662.374	-0.06
662.559	-0.04
662.743	-0.05
662.928	-0.02
663.113	-0.01
663.298	-0.09
663.483	-0.05
663.667	0.01
663.852	-0.02
664.037	0.06
664.221	-0.05
664.406	0.04
664.591	-0.01
664.775	0.01
664.96	-0.09
665.145	-0
665.329	0.02
665.514	-0.02
665.698	-0.01
665.883	-0.04
666.068	0.06
666.252	-0.01
666.437	-0.05
666.621	-0
666.806	0.02
666.99	-0.01
667.174	-0.05
667.359	0.06
667.543	-0
667.728	-0.01
667.912	-0.09
668.096	0.01
668.281	-0.02
668.465	-0.03
668.649	-0.01
668.834	-0.03
669.018	0.02
669.202	-0.05
669.387	-0.01
669.571	0.06
669.755	-0.04
669.939	0.01
670.124	-0.03
670.308	0.05
670.492	0.03
670.676	-0
670.86	0
671.044	-0.03
671.228	0.06
671.413	-0.01
671.597	-0.01
671.781	-0.05
671.965	-0.01
672.149	-0.03
672.333	-0.01
672.517	-0.03
672.701	-0.02
672.885	-0.01
673.069	-0.06
673.253	0.05
673.437	-0.02
673.621	-0.06
673.804	-0.03
673.988	-0.01
674.172	-0.01
674.356	-0.07
674.54	-0.01
674.724	0.1
674.908	0.01
675.091	0.05
675.275	0.01
675.459	0.02
675.643	-0
675.826	-0.02
676.01	-0.04
676.194	-0.02
676.377	0.05
676.561	0
676.745	-0.02
676.928	0
677.112	0.06
677.296	-0.05
677.479	-0
677.663	-0.05
677.846	0.04
678.03	-0.03
678.213	-0.08
678.397	-0.03
678.58	-0.02
678.764	-0.01
678.947	-0.04
679.131	-0.04
679.314	0.01
679.498	-0.01
679.681	-0.01
679.865	0.04
680.048	-0.01
680.231	-0.01
680.415	-0.02
680.598	-0.02
680.781	-0.03
680.965	-0.02
681.148	-0.01
681.331	0
681.514	0.02
681.698	-0.05
681.881	-0.01
682.064	0.01
682.247	-0.02
682.43	-0.07
682.614	0.03
682.797	0.06
682.98	0.03
683.163	-0.08
683.346	0.01
683.529	-0.05
683.712	-0.07
683.895	0.01
684.078	-0.04
684.261	-0.02
684.444	-0.02
684.627	0.01
684.81	-0.02
684.993	-0.03
685.176	-0.02
685.359	-0.03
685.542	-0.01
685.725	0.08
685.908	-0.03
686.091	-0.01
686.274	-0.02
686.457	0
686.639	-0.01
686.822	0.03
687.005	0
687.188	0.06
687.371	0.06
687.553	0.02
687.736	0.04
687.919	0.04
688.102	0.09
688.284	-0.04
688.467	-0.02
688.65	0.02
688.832	-0.01
689.015	0.01
689.197	-0.13
689.38	0.1
689.563	0.09
689.745	-0.07
689.928	0.01
690.11	0.03
690.293	0.04
690.475	-0.11
690.658	0.01
690.84	-0.02
691.023	-0.01
691.205	-0.05
691.388	0
691.57	0
691.752	0.03
691.935	-0.05
692.117	0.01
692.3	0.03
692.482	-0.05
692.664	-0.05
692.847	0.05
693.029	0.06
693.211	0.04
693.393	0.05
693.576	-0.02
693.758	0
693.94	0
694.122	-0.06
694.304	-0.04
694.487	-0.03
694.669	0.06
694.851	-0.1
695.033	-0.03
695.215	-0.04
695.397	-0.04
695.579	0.02
695.761	-0.05
695.943	-0.07
696.125	0.04
696.308	0.03
696.49	-0.12
696.671	0.06
696.853	0.01
697.035	0.06
697.217	-0.03
697.399	0.03
697.581	-0.02
697.763	-0.02
697.945	-0.04
698.127	-0.02
698.309	0.04
698.491	-0.05
698.672	0.02
698.854	0.04
699.036	0.08
699.218	-0.05
699.399	0.04
699.581	0.01
699.763	0.03
699.945	-0.08
700.126	-0.01
700.308	0.02
700.49	-0.03
700.671	-0.14
700.853	-0.04
701.035	-0.02
701.216	-0.03
701.398	-0.04
701.579	-0.01
701.761	0.09
701.943	-0.05
702.124	-0.07
702.306	-0.01
702.487	0.17
702.669	-0.01
702.85	-0.07
703.031	-0.05
703.213	0.12
703.394	0.03
703.576	-0.09
703.757	0.05
703.938	0.04
704.12	0.12
704.301	-0.06
704.483	-0.02
704.664	0.03
704.845	0.14
705.026	0.03
705.208	-0.05
705.389	-0.02
705.57	0.01
705.751	-0.03
705.933	0.01
706.114	0.03
706.295	0
706.476	-0.06
706.657	0.08
706.838	0.03
707.02	0.07
707.201	-0.03
707.382	-0.02
707.563	0.03
707.744	-0.04
707.925	-0.04
708.106	-0.03
708.287	0.03
708.468	0.08
708.649	-0
708.83	0.01
709.011	-0.03
709.192	0.13
709.373	-0.06
709.554	-0.04
709.734	0.01
709.915	0.05
710.096	0.02
710.277	-0.13
710.458	0
710.639	0.02
710.819	-0.07
711	-0.06
711.181	0.02
711.362	0.03
711.542	0.01
711.723	0
711.904	0.04
712.085	-0.03
712.265	0.04
712.446	-0
712.627	-0.06
712.807	-0.02
712.988	0.07
713.168	-0.07
713.349	0.01
713.53	-0.13
713.71	-0.06
713.891	-0.02
714.071	-0
714.252	-0.09
714.432	-0.12
714.613	-0.09
714.793	-0.04
714.974	0.08
715.154	0.06
715.334	0.03
715.515	0.11
715.695	-0
715.876	-0.12
716.056	-0
716.236	-0.05
716.417	-0.02
716.597	-0.06
716.777	0.2
716.957	-0.08
717.138	-0
717.318	-0.01
717.498	-0.07
717.678	-0.03
717.859	-0
718.039	-0.05
718.219	0.02
718.399	0.03
718.579	-0.11
718.759	-0.05
718.939	0.08
719.12	-0.05
719.3	0.03
719.48	-0.14
719.66	-0.13
719.84	-0
720.02	-0.01
720.2	-0.08
720.38	-0.02
720.56	0.12
720.74	-0
720.92	-0.01
721.1	0.06
721.279	0.06
721.459	-0.01
721.639	-0.1
721.819	-0.03
721.999	-0.09
722.179	-0.01
722.359	-0.11
722.538	-0.05
722.718	0.01
722.898	-0.05
723.078	-0.04
723.257	-0.05
723.437	0.05
723.617	-0.07
723.797	-0.04
723.976	-0
724.156	0.04
724.336	0.03
724.515	0.14
724.695	-0.17
724.874	0.05
725.054	0.02
725.234	-0.11
725.413	0.02
725.593	0.01
725.772	-0.06
725.952	-0.07
726.131	-0.04
726.311	0.01
726.49	-0.04
726.67	-0.01
726.849	-0.07
727.028	-0
727.208	0.06
727.387	0
727.567	-0.14
727.746	-0.04
727.925	0.05
728.105	-0.11
728.284	0.05
728.463	-0.07
728.643	0.08
728.822	-0.14
729.001	-0.04
729.18	-0.01
729.359	0.08
729.539	-0.04
729.718	-0.05
729.897	0.02
730.076	-0.1
730.255	-0.12
730.434	0.07
730.614	0.05
730.793	0.05
730.972	-0.05
731.151	-0.01
731.33	0.1
731.509	0.09
731.688	-0.04
731.867	-0.04
732.046	-0.14
732.225	0.11
732.404	-0.12
732.583	-0.1
732.762	-0.04
732.941	0.09
733.12	0.03
733.298	-0.07
733.477	0.03
733.656	-0.01
733.835	-0.17
734.014	0.07
734.193	-0.05
734.371	0.07
734.55	0.03
734.729	-0.12
734.908	0.05
735.086	0.09
735.265	0.04
735.444	-0.13
735.623	-0.14
735.801	-0.1
735.98	-0.01
736.159	-0.04
736.337	0.04
736.516	0.06
736.694	0.04
736.873	-0.14
737.052	0.05
737.23	0.11
737.409	-0.04
737.587	0.16
737.766	-0.21
737.944	-0.07
738.123	0.05
738.301	-0.08
738.479	-0.08
738.658	-0.02
738.836	-0.25
739.015	0.02
739.193	-0.01
739.371	-0.16
739.55	0.02
739.728	-0.1
739.906	0.1
740.085	0.23
740.263	0.01
740.441	-0.17
740.62	0.16
740.798	-0.02
740.976	-0.08
741.154	-0.09
741.332	0.1
741.511	-0.06
741.689	0.04
741.867	0.09
742.045	-0.03
742.223	0.05
742.401	-0.14
742.579	0.01
742.757	0.06
742.935	-0.13
743.114	-0.08
743.292	-0.09
743.47	0.01
743.648	-0.03
743.826	-0.02
744.004	0.05
744.181	0.02
744.359	-0.11
744.537	0.01
744.715	-0.02
744.893	0.03
745.071	0.04
745.249	0.02
745.427	-0.09
745.605	0.01
745.782	-0.03
745.96	0.1
746.138	0
746.316	0.13
746.493	0.02
746.671	0.01
746.849	-0.04
747.027	0.09
747.204	-0.02
747.382	0.05
747.56	-0.17
747.737	0.06
747.915	-0.07
748.093	0
748.27	-0.15
748.448	-0.09
748.625	-0.09
748.803	-0.07
748.98	-0.17
749.158	0.06
749.335	0.11
749.513	-0.04
749.69	-0.09
749.868	-0.02
750.045	-0.02
750.223	0.03
750.4	-0.15
750.578	0.19
750.755	-0.13
750.932	-0.18
751.11	0.14
751.287	-0.07
751.464	0.03
751.642	-0.12
751.819	0.03
751.996	-0.04
752.173	-0.04
752.351	-0.14
752.528	0.04
752.705	-0.08
752.882	-0.04
753.06	0.07
753.237	0.02
753.414	0.17
753.591	0.22
753.768	-0.01
753.945	-0.06
754.122	-0.06
754.299	0.11
754.476	-0.04
754.654	0.07
754.831	0.1
755.008	-0.04
755.185	-0.14
755.362	-0.19
755.539	0.05
755.716	-0.13
755.892	-0.09
756.069	0.07
756.246	-0.03
756.423	-0.02
756.6	0.19
756.777	0.02
756.954	0.13
757.131	0.01
757.307	-0.14
757.484	-0.07
757.661	-0.07
757.838	0.05
758.015	-0.32
758.191	-0.01
758.368	-0.04
758.545	0.17
758.721	0.1
758.898	-0.04
759.075	0.03
759.251	0.13
759.428	0
759.605	-0.16
759.781	-0.12
759.958	0
760.134	0.02
760.311	-0.08
760.488	0.16
760.664	0.08
760.841	0
761.017	-0.21
761.194	-0.03
761.37	0.02
761.547	0.08
761.723	-0.1
761.899	0.14
762.076	-0.1
762.252	-0.16
762.429	0
762.605	0.1
762.781	-0.03
762.958	0.02
763.134	-0.07
763.31	0.1
763.486	0.19
763.663	-0.21
763.839	0.06
764.015	-0.09
764.191	-0.14
764.368	-0
764.544	-0.11
764.72	0.01
764.896	0.04
765.072	-0.03
765.248	-0.03
765.425	-0.05
765.601	0.05
765.777	0.05
765.953	-0.18
766.129	-0.17
766.305	-0.07
766.481	0.16
766.657	-0.11
766.833	0.12
767.009	-0.2
767.185	-0.05
767.361	-0.13
767.537	-0.19
767.713	0.09
767.889	-0.18
768.065	-0.03
768.24	0.03
768.416	0.06
768.592	-0.06
768.768	-0.03
768.944	-0.08
769.12	-0.14
769.295	-0.11
769.471	-0.01
769.647	-0.21
769.823	-0
769.998	0.04
770.174	-0.05
770.35	0.35
770.525	0.21
770.701	0.07
770.877	-0.02
771.052	-0.06
771.228	0.15
771.403	0.04
771.579	0.09
771.755	0.32
771.93	-0.04
772.106	-0.13
772.281	-0.17
772.457	0.06
772.632	0.09
772.808	-0.18
772.983	-0.09
773.159	-0.22
773.334	0.13
773.509	-0.01
773.685	-0.05
773.86	0.25
774.036	0.08
774.211	-0.03
774.386	-0.06
774.562	-0
774.737	0.01
774.912	-0.12
775.087	0.15
775.263	-0.01
775.438	-0.05
775.613	-0.11
775.788	-0.06
775.964	0.2
776.139	0.35
776.314	-0.14
776.489	0.02
776.664	-0.1
776.839	-0.14
777.014	0.07
777.19	0.07
777.365	0.23
777.54	0.16
777.715	-0.15
777.89	0
778.065	-0.13
778.24	0.03
778.415	0.06
778.59	-0.21
778.765	-0.04
778.94	0.02
779.115	0.1
779.289	0.03
779.464	-0.08
779.639	-0.04
779.814	-0.13
779.989	-0.3
780.164	0.14
780.339	0.05
780.513	-0.11
780.688	-0.04
780.863	-0.06
781.038	0
781.212	-0.03
781.387	-0.02
781.562	0.26
781.737	0.06
781.911	0.05
782.086	-0.14
782.261	0.01
782.435	0.26
782.61	-0.17
782.784	-0.04
782.959	0.1
783.134	-0.2
783.308	-0.2
783.483	-0.15
783.657	0.33
783.832	0.11
784.006	-0.37
784.181	0.04
784.355	0.2
784.53	-0.33
784.704	-0.08
784.878	0.17
785.053	-0.09
785.227	0.05
785.402	0.3
785.576	-0.37
785.75	-0.05
785.925	-0.14
786.099	-0.07
786.273	-0
786.448	0.02
786.622	0.03
786.796	-0.04
786.97	-0.04
787.145	0.58
787.319	-0.41
787.493	-0.11
787.667	-0.41
787.841	-0.09
788.015	0.24
788.19	-0.13
788.364	-0.05
788.538	0.2
788.712	0.05
788.886	-0
789.06	0.23
789.234	0.11
789.408	-0.08
789.582	0.06
789.756	-0.12
789.93	-0.06
790.104	-0.12
790.278	-0.18
790.452	-0.08
790.626	0.1
790.8	-0.18
790.973	-0.11
791.147	0.25
791.321	0.2
791.495	0.21
791.669	0.01
791.843	-0.02
792.016	0.01
792.19	0.5
792.364	-0.24
792.538	0.53
792.711	0.11
792.885	-0.05
793.059	-0.24
793.233	-0.75
793.406	0.1
793.58	-0.03
793.754	0.17
793.927	0.01
794.101	0.2
794.274	-0.1
794.448	0.09
794.622	-0.39
794.795	0.21
794.969	-0.21
795.142	0.13
795.316	-0.04
795.489	-0.27
795.663	0.41
795.836	0.02
796.009	-0.05
796.183	0.39
796.356	0.13
796.53	0.11
796.703	-0.15
796.876	0.62
797.05	-0.2
797.223	0.01
797.396	0.21
797.57	0
797.743	0.23
797.916	-0.01
798.09	0.07
798.263	0.22
798.436	0.15
798.609	-0.12
798.782	-0.43
798.956	0.18
799.129	-0.09
799.302	-0.16
799.475	-0.3
799.648	-0.3
799.821	-0.03
799.994	-0
800.167	-0.24
800.34	-0.17
800.514	-0
800.687	-0.15
800.86	-0.14
801.033	0.11
801.206	-0.02
801.379	-0.25
801.551	0.29
801.724	0.27
801.897	0.18
802.07	-0.26
802.243	-0.53
802.416	-0.14
802.589	-0.28
802.762	0.14
802.935	0.17
803.107	0.02
803.28	-0.05
803.453	0.09
803.626	-0.05
803.798	0.05
803.971	-0.32
804.144	-0
804.317	0.05
804.489	0.24
804.662	-0.16
804.835	-0.17
805.007	-0.19
805.18	0.18
805.353	0.1
805.525	-0.28
805.698	-0.19
805.87	0.22
806.043	0.32
806.215	-0.39
806.388	-0.28
806.56	0.32
806.733	0.47
806.905	0.03
807.078	-0.38
807.25	-0.2
807.423	0.18
807.595	-0.07
807.768	0.03
807.94	0.26
808.112	0.01
808.285	-0.05
808.457	-0.18
808.629	-0.3
808.802	0.08
808.974	-0.11
809.146	-0.05
809.318	-0.45
809.491	-0.13
809.663	0.14
809.835	-0.24
810.007	0.09
810.18	0.06
810.352	-0.2
810.524	-0.01
810.696	-0.07
810.868	0.31
811.04	-0.17
811.212	-0.13
811.384	0.28
811.556	0.2
811.728	-0.14
811.901	0.34
812.073	-0.2
812.245	0.14
812.417	0.14
812.589	-0.54
812.76	-0.01
812.932	0.24
813.104	0.36
813.276	-0.01
813.448	0.47
813.62	-0.31
813.792	-0.02
813.964	0.05
814.136	0.24
814.307	-0.07
814.479	-0.44
814.651	-0.11
814.823	0.59
814.995	-0.2
815.166	0.03
815.338	-0.22
815.51	-0.68
815.681	0.25
815.853	-0.02
816.025	-0.38
816.196	0.94
816.368	0.1
816.54	-0.69
816.711	-0.42
816.883	0.27
817.054	0.73
817.226	-0.87
817.398	-0.23
817.569	-0.61
817.741	-0.2
817.912	-0.01
818.084	-0.15
818.255	0.41
818.426	-0.35
818.598	-0.04
818.769	-0.23
818.941	0.15
819.112	0.49
819.283	-0.19
819.455	-0.71
819.626	0.23
819.798	-0.09
819.969	0.13
820.14	-0.31
820.311	-0.42
820.483	0.17
820.654	-0.08
820.825	-0.53
820.996	0.02
821.168	-0.39
821.339	-0.09
821.51	-0.62
821.681	0.95
821.852	0.09
822.023	-0.48
822.195	-0.51
822.366	0.45
822.537	-0.24
822.708	-0.05
822.879	-0.38
823.05	0.37
823.221	0.01
823.392	0.36
823.563	0.08
823.734	0.22
823.905	-0.32
824.076	-0.26
824.247	-0.23
824.418	-0.1
824.589	0.56
824.759	0.47
824.93	0.02
825.101	-0.59
825.272	0.89
825.443	0.35
825.614	0.73
825.784	-1.31
825.955	0.99
826.126	0.41
826.297	0.01
826.467	0.53
826.638	0.86
826.809	-1.26
826.98	-0.31
827.15	0.82
827.321	-0.02
827.492	0.25
827.662	0.22
827.833	1.47
828.003	0.05
828.174	-0.14
828.345	-0.48
828.515	0.69
828.686	0.48
828.856	-0.58
829.027	0.25
829.197	0.19
829.368	0.01
829.538	-0.23
829.709	-0.3
829.879	0.49
830.049	0.11
830.22	-0.46
830.39	-0.42
830.56	0.89
830.731	-0.33
830.901	-0.77
831.072	-0.07
831.242	-0.15
831.412	-0.17
831.582	-0.25
831.753	-1.18
831.923	0.06
832.093	0.12
832.263	-0.28
832.434	-0.59
832.604	-0.37
832.774	0.87
832.944	-0.61
833.114	-0.3
833.284	0.54
833.454	-0.43
833.624	-0.39
833.795	-0.23
833.965	0.22
834.135	0.34
834.305	-0.57
834.475	-0.65
834.645	-0.22
834.815	0.03
834.985	-0.69
835.155	-0.39
835.325	0.17
835.494	0.75
835.664	-0.73
835.834	-0.6
836.004	-0.37
836.174	0.55
836.344	-0.24
836.514	-0.92
836.684	-0.66
836.853	0.32
837.023	-0.2
837.193	-0.65
837.363	0.47
837.532	0.4
837.702	0.35
837.872	-0.49
838.041	0.73
838.211	1.13
838.381	-0.58
838.55	0.43
838.72	1.45
838.89	1.23
839.059	0.14
839.229	-0.34
839.398	1.11
839.568	0.61
839.738	0.06
839.907	1.24
840.077	0.11
840.246	-0.62
840.416	-0.95
840.585	-1.18
840.755	0.73
840.924	0.54
841.093	-0.8
841.263	-0.19
841.432	0.26
841.602	-0.89
841.771	-1
841.94	0.4
842.11	2.28
842.279	1.68
842.448	-1.68
842.617	-1.31
842.787	0.79
842.956	-1.11
843.125	0.29
843.294	-0.12
843.464	0.68
843.633	0.31
843.802	-1.43
843.971	-0.09
844.14	0.25
844.309	0.68
844.479	-0.97
844.648	-0.36
844.817	-0.83
844.986	-0.2
845.155	-0.29
845.324	-0.55
845.493	-0.73
845.662	-0.52
845.831	0.48
846	0.11
846.169	-0.63
846.338	0.94
846.507	0.35
846.676	0.13
846.844	-0.1
847.013	0.22
847.182	0.58
847.351	-0.41
847.52	-0.84
847.689	0.4
847.858	-0.93
848.026	-1.61
848.195	0.43
848.364	-0.55
848.533	-0.86
848.701	-0.75
848.87	-0.31
849.039	0.4
849.207	1
849.376	1.57
849.545	0.47
849.713	-0.6
849.882	0.54
850.051	-0.05
850.219	1.01
850.388	0.21
850.556	-1.07
850.725	-0.4
850.893	-0.23
851.062	-0.71
851.23	0.45
851.399	-0.8
851.567	-0.49
851.736	-0.06
851.904	-0.33
852.073	0.09
852.241	0.3
852.41	0.08
852.578	0.39
852.746	-0.62
852.915	-0.09
853.083	-0.45
853.251	-1.46
853.42	-1.03
853.588	-0.02
853.756	0.59
853.924	-0.45
854.093	0.16
854.261	-0.57
854.429	-1.39
854.597	0.56
854.765	-1.19
854.934	1.18
855.102	-0.01
855.27	0.49
855.438	0.01
855.606	0.88
855.774	0.49
855.942	-2.25
856.11	-1.21
856.278	-0.1
856.446	0.6
856.614	-0.21
856.782	-0.49
856.95	0.23
857.118	0.87
857.286	0.36
857.454	-0.58
857.622	2.25
857.79	0.24
857.958	-0.33
858.126	-0.68
858.294	-1.79
858.462	-0.16
858.629	-1.15
858.797	-0.43
858.965	0.33
859.133	0.26
859.301	-0.1
859.468	0.06
859.636	-1.95
859.804	1.68
859.971	0.95
860.139	-1.28
860.307	0.74
860.474	-0.23
860.642	-1.43
860.81	-1.03
860.977	-0.69
861.145	1.77
861.313	-0.45
861.48	-0.76
861.648	1.39
861.815	-1.02
861.983	-1.32
862.15	-0.7
862.318	0.8
862.485	-0.08
862.653	-0.78
862.82	-1.74
862.988	2.29
863.155	-1.67
863.322	-1.09
863.49	-2.08
863.657	-1.18
863.824	1.71
863.992	0.24
864.159	0.62
864.326	0.92
864.494	-1.35
864.661	2.28
864.828	-1.87
864.996	0.7
865.163	1.17
865.33	-1.26
865.497	-1.53
865.664	-0.41
865.832	-2.28
865.999	-0.63
866.166	-2.04
866.333	-1.06
866.5	-0.9
866.667	-0.57
866.834	-0.34
867.001	1.96
867.168	-2.94
867.335	-0.5
867.502	-1.35
867.669	0.14
867.836	2.37
868.003	0.8
868.17	0.64
868.337	-0.81
868.504	2.12
868.671	-1.27
868.838	0.09
869.005	0.9
869.172	0.36
869.339	0.66
869.505	0.93
869.672	-0.41
869.839	2.06
870.006	1.25
870.173	-2.85
870.339	-0.25
870.506	3.03
870.673	-2.64
870.84	-0.31
871.006	-0.04
871.173	0.16
871.34	-0.43
871.506	-2.05
871.673	1.06
871.839	-1.6
872.006	0.36
872.173	-2.02
872.339	-1.53
872.506	1.89
872.672	-1.38
872.839	-2.81
873.005	-0.53
873.172	3.52
873.338	0.42
873.505	-1.19
873.671	-1.55
873.838	0.73
874.004	-1.03
874.171	-1.01
874.337	0.55
874.503	0.42
874.67	-0.43
874.836	-0.64
875.002	0.37
875.169	0.12
875.335	0.02
875.501	-1
875.668	1.45
875.834	-2.48
876	-1.76
876.166	1.4
876.332	1.83
876.499	1.48
876.665	0.04
876.831	0.77
876.997	4.47
877.163	1.23
877.329	-1.11
877.495	1.39
877.662	0.52
877.828	-0.27
877.994	0.54
878.16	-3.16
878.326	-1.29
878.492	0.5
878.658	-0.76
878.824	0.6
878.99	1.53
879.156	-1.45
879.322	1.29
879.487	-1.96
879.653	0.86
879.819	0.26
879.985	-2.45
880.151	-0.28
880.317	0.6
880.483	2.17
880.648	2.69
880.814	-2.96
880.98	-1.29
881.146	-3.56
881.312	-2
881.477	-0.3
881.643	0.02
881.809	1.94
881.974	1.53
882.14	-2.21
882.306	-0.34
882.471	4.41
882.637	-1.67
882.803	1.71
882.968	0.4
883.134	3.05
883.299	-0.3
883.465	0.84
883.63	0.06
883.796	0.25
883.961	0.08
884.127	1.53
884.292	-5.4
884.458	-1.97
884.623	-1.97
