Data from Apollo_Calib_20240827__AbsoluteIrradiance__111__01-00-02-416.txt Node

Date: Wed Aug 28 01:00:02 BST 2024
User: biology
Spectrometer: FLMT08252
Trigger mode: 0
Integration Time (sec): 5.000000E-1
Scans to average: 5
Electric dark correction enabled: true
Nonlinearity correction enabled: false
Boxcar width: 0
XAxis mode: Wavelengths
Number of Pixels in Spectrum: 3648
>>>>>Begin Spectral Data<<<<<
179.588	-0
179.809	-0
180.03	-0
180.251	-0
180.473	-0
180.694	0
180.915	0
181.136	-0
181.357	0
181.578	-0
181.799	-0
182.02	-0
182.241	0
182.462	-0
182.683	0
182.904	-0
183.125	-0
183.346	-0
183.567	-0
183.788	-0
184.009	-0
184.23	0
184.451	0
184.672	-0
184.892	-0
185.113	-0
185.334	0
185.555	-0
185.776	-0
185.996	0
186.217	0
186.438	0
186.659	-0
186.879	0
187.1	-0
187.321	-0
187.541	-0
187.762	-0
187.983	-0
188.203	-0
188.424	-0
188.644	-0
188.865	-0
189.086	-0
189.306	0
189.527	-0
189.747	0
189.968	-0
190.188	-0
190.409	0
190.629	0
190.849	-0
191.07	-0
191.29	0
191.511	-0
191.731	-0
191.951	-0
192.172	-0
192.392	-0
192.612	-0
192.833	0
193.053	0
193.273	0
193.493	-0
193.714	-0
193.934	0
194.154	0
194.374	-0
194.594	0
194.815	-0
195.035	-0
195.255	-0
195.475	-0
195.695	0
195.915	0
196.135	-0
196.355	0
196.575	0
196.795	-0
197.015	-0
197.235	-0
197.455	-0
197.675	0
197.895	-0
198.115	-0
198.335	0
198.555	-0
198.775	0
198.995	-0
199.214	0
199.434	-0
199.654	-0
199.874	-0
200.094	0.82
200.313	-0.89
200.533	-0.38
200.753	-1.07
200.973	0.21
201.192	0.3
201.412	-1.18
201.632	-0.42
201.851	0.42
202.071	-0.32
202.291	-0.93
202.51	-0.75
202.73	0.25
202.95	-0.12
203.169	-0.67
203.389	0.38
203.608	0.08
203.828	-0.74
204.047	-0.36
204.267	0.16
204.486	-0.36
204.706	0.08
204.925	-0.21
205.145	-0.39
205.364	0.27
205.583	0.32
205.803	-0.58
206.022	-0.47
206.242	0.05
206.461	-0.01
206.68	-0.59
206.9	-0.14
207.119	0.33
207.338	0.64
207.557	-0.26
207.777	-0.33
207.996	-0.23
208.215	0.1
208.434	-0.45
208.654	-0.53
208.873	-0.29
209.092	0.29
209.311	-0.23
209.53	-0.29
209.749	-0.23
209.968	-0.38
210.187	-0.2
210.407	-0.6
210.626	-0.33
210.845	0
211.064	0
211.283	-0.53
211.502	0.15
211.721	-0.04
211.94	-0.2
212.159	0.13
212.377	0.18
212.596	0.16
212.815	-0.09
213.034	0.08
213.253	0.16
213.472	-0.06
213.691	-0.11
213.91	-0.27
214.128	-0.19
214.347	0.14
214.566	-0.38
214.785	-0.4
215.003	0.06
215.222	-0.16
215.441	-0.02
215.66	-0.27
215.878	-0.12
216.097	0.16
216.316	-0.27
216.534	-0.29
216.753	-0.06
216.972	-0.24
217.19	-0.08
217.409	-0.22
217.627	-0.16
217.846	-0.12
218.064	-0.05
218.283	-0.34
218.501	0.13
218.72	0.16
218.938	-0.38
219.157	-0.09
219.375	-0.01
219.594	-0.28
219.812	-0.19
220.031	-0.1
220.249	0.05
220.467	-0.05
220.686	-0.12
220.904	-0.37
221.122	-0.17
221.341	0.29
221.559	-0.1
221.777	-0.26
221.995	-0.05
222.214	0.05
222.432	-0.11
222.65	-0.04
222.868	-0.07
223.086	-0.05
223.305	0.11
223.523	-0.04
223.741	0.27
223.959	-0.06
224.177	-0.26
224.395	-0.07
224.613	-0.01
224.831	0.15
225.049	-0.24
225.267	-0.03
225.485	-0.05
225.703	-0.06
225.921	-0.12
226.139	-0.15
226.357	0.09
226.575	-0.01
226.793	-0.16
227.011	0.39
227.229	0.08
227.447	-0
227.665	-0.31
227.883	-0.31
228.1	0.03
228.318	-0.05
228.536	-0.19
228.754	-0.19
228.972	0.03
229.189	0.06
229.407	-0.09
229.625	-0.16
229.843	-0.07
230.06	0.02
230.278	-0.05
230.496	-0.07
230.713	-0.06
230.931	0.13
231.149	-0.1
231.366	-0.19
231.584	-0.13
231.801	0.24
232.019	0
232.236	-0.3
232.454	-0.1
232.671	-0.07
232.889	-0.08
233.106	-0.18
233.324	-0.04
233.541	-0.02
233.759	-0.05
233.976	-0.09
234.194	-0
234.411	-0.05
234.628	-0.35
234.846	-0.06
235.063	-0.11
235.28	-0
235.498	-0.04
235.715	-0.27
235.932	0.02
236.149	0.03
236.367	-0.22
236.584	-0
236.801	-0.13
237.018	-0.03
237.236	-0.03
237.453	-0.16
237.67	0.05
237.887	-0.04
238.104	-0.08
238.321	-0.19
238.538	-0.14
238.755	0.01
238.973	-0.19
239.19	-0.05
239.407	0.08
239.624	0.05
239.841	-0.13
240.058	-0.12
240.275	0.01
240.492	-0.15
240.709	-0.1
240.925	-0.05
241.142	0.01
241.359	-0.1
241.576	-0.13
241.793	-0.07
242.01	-0
242.227	-0
242.444	0.04
242.66	0.08
242.877	-0.11
243.094	-0.14
243.311	0.07
243.527	-0.14
243.744	-0.05
243.961	0.03
244.178	-0.15
244.394	-0.1
244.611	0.03
244.828	0.1
245.044	-0.13
245.261	-0.13
245.477	-0.06
245.694	0.04
245.911	-0.12
246.127	-0.03
246.344	0.07
246.56	-0
246.777	-0.02
246.993	0.05
247.21	-0.03
247.426	0.04
247.643	-0.14
247.859	-0.19
248.076	0.03
248.292	0.05
248.508	-0.1
248.725	0.03
248.941	-0.02
249.157	0.12
249.374	-0.03
249.59	-0.1
249.806	0.05
250.023	0.04
250.239	-0.08
250.455	-0.12
250.671	0.02
250.888	0.04
251.104	-0.02
251.32	-0.07
251.536	-0.07
251.752	-0.07
251.969	-0.04
252.185	0.04
252.401	0.06
252.617	0.01
252.833	-0.11
253.049	-0.09
253.265	-0.01
253.481	0.03
253.697	-0
253.913	-0.12
254.129	-0
254.345	0.03
254.561	-0.11
254.777	-0.03
254.993	0.11
255.209	0.02
255.425	-0.08
255.641	-0.02
255.857	0.06
256.073	-0.01
256.288	-0.09
256.504	-0.13
256.72	0.04
256.936	0.12
257.152	-0.03
257.367	-0.08
257.583	0.03
257.799	-0.01
258.015	-0.09
258.23	-0.01
258.446	0.11
258.662	0.02
258.877	-0.14
259.093	-0.07
259.309	-0.04
259.524	-0.08
259.74	-0.09
259.955	-0.11
260.171	0.01
260.387	-0.05
260.602	0.06
260.818	0.02
261.033	-0.1
261.249	-0.11
261.464	-0.06
261.68	-0.08
261.895	-0.05
262.11	0.07
262.326	0.01
262.541	-0.14
262.757	0.01
262.972	-0.06
263.187	-0.03
263.403	-0.08
263.618	0.06
263.833	0.01
264.049	-0.1
264.264	-0.05
264.479	0.04
264.694	0.07
264.91	-0.03
265.125	-0.04
265.34	-0.03
265.555	0.13
265.77	-0.03
265.986	-0.03
266.201	-0.01
266.416	0.08
266.631	-0
266.846	-0.03
267.061	0.01
267.276	0
267.491	-0.14
267.706	-0.01
267.921	0.04
268.136	0
268.351	0.02
268.566	-0.14
268.781	0.08
268.996	0.04
269.211	-0.02
269.426	-0.11
269.641	-0.08
269.856	0.01
270.071	-0.07
270.285	-0.14
270.5	0.02
270.715	-0.01
270.93	-0.02
271.145	-0.01
271.359	0.01
271.574	-0.08
271.789	0.03
272.004	-0.04
272.218	-0.05
272.433	0.07
272.648	-0.04
272.862	0.05
273.077	-0.05
273.292	-0.03
273.506	-0.06
273.721	-0.06
273.936	-0.06
274.15	0.04
274.365	0
274.579	-0.01
274.794	0
275.008	0.08
275.223	-0.11
275.437	-0
275.652	-0.02
275.866	0.03
276.081	0
276.295	0.02
276.509	-0.05
276.724	-0.04
276.938	-0.01
277.153	0.03
277.367	0.04
277.581	-0.03
277.796	-0
278.01	-0.07
278.224	0.05
278.438	0.06
278.653	-0.03
278.867	-0.05
279.081	0.05
279.295	-0.01
279.51	-0.01
279.724	-0.1
279.938	0.03
280.152	-0.03
280.366	-0.06
280.58	-0.02
280.794	0.04
281.008	0.05
281.222	0.03
281.437	0.07
281.651	-0.01
281.865	0.06
282.079	-0.05
282.293	-0.15
282.507	-0.04
282.721	-0.03
282.935	-0.03
283.148	-0.06
283.362	-0.02
283.576	-0.09
283.79	-0.03
284.004	-0.01
284.218	0.02
284.432	-0.04
284.646	-0.02
284.859	-0.05
285.073	-0.03
285.287	-0
285.501	0
285.714	-0.01
285.928	-0.02
286.142	-0.03
286.356	-0.03
286.569	0.03
286.783	0.09
286.997	0.02
287.21	0
287.424	-0.01
287.637	-0.04
287.851	-0.03
288.065	0.01
288.278	-0.06
288.492	-0.01
288.705	-0.04
288.919	0
289.132	-0.11
289.346	0.02
289.559	-0.04
289.773	-0.05
289.986	0.01
290.2	0
290.413	0.04
290.626	-0.03
290.84	0
291.053	-0.05
291.267	0.09
291.48	-0.02
291.693	0.01
291.906	-0.04
292.12	-0.01
292.333	-0.08
292.546	-0.01
292.76	0.05
292.973	0.02
293.186	-0
293.399	-0.03
293.612	0.03
293.826	-0.05
294.039	0
294.252	-0.02
294.465	0.01
294.678	0.06
294.891	-0.03
295.104	-0.05
295.317	-0
295.53	-0.01
295.743	-0.06
295.956	-0.03
296.169	0.04
296.382	0
296.595	-0
296.808	-0.04
297.021	0.01
297.234	0.01
297.447	-0
297.66	0.01
297.873	0.01
298.086	0.01
298.299	-0.06
298.511	-0.03
298.724	0.02
298.937	-0.01
299.15	-0
299.363	-0.02
299.575	-0.04
299.788	0.01
300.001	-0.03
300.213	-0.04
300.426	-0.03
300.639	-0.02
300.852	-0.05
301.064	0.04
301.277	0.07
301.489	0.02
301.702	0.03
301.915	0.01
302.127	-0.01
302.34	-0
302.552	0.02
302.765	-0.06
302.977	0.02
303.19	-0.02
303.402	0.01
303.615	-0.02
303.827	-0.06
304.04	-0.02
304.252	0.02
304.464	-0
304.677	0.1
304.889	0.02
305.102	-0.03
305.314	-0.02
305.526	0.04
305.739	0.01
305.951	-0.02
306.163	-0
306.375	0.04
306.588	-0.03
306.8	0.01
307.012	-0.06
307.224	0.02
307.436	0.05
307.649	-0.1
307.861	0.03
308.073	0.04
308.285	-0.06
308.497	-0.02
308.709	-0.04
308.921	0
309.133	0.03
309.346	-0.02
309.558	-0.04
309.77	0.04
309.982	0.05
310.194	0.01
310.406	-0.03
310.617	0.04
310.829	0.01
311.041	-0
311.253	-0.03
311.465	-0.03
311.677	-0.02
311.889	-0.02
312.101	-0.04
312.313	0.02
312.524	0.03
312.736	-0.08
312.948	-0.03
313.16	0.09
313.372	0.03
313.583	0.04
313.795	-0.04
314.007	-0.09
314.218	0.02
314.43	-0.04
314.642	-0.05
314.853	-0.06
315.065	0.04
315.277	-0.02
315.488	0.02
315.7	0.05
315.912	-0.01
316.123	-0.04
316.335	0.01
316.546	0.1
316.758	-0.01
316.969	-0.01
317.181	-0.01
317.392	-0.01
317.604	0.06
317.815	-0.04
318.026	-0.06
318.238	-0
318.449	0.01
318.661	-0.05
318.872	-0.03
319.083	-0.02
319.295	0.02
319.506	-0.05
319.717	-0.01
319.929	0.01
320.14	-0.02
320.351	0.01
320.562	-0.02
320.774	-0.04
320.985	-0.01
321.196	-0.06
321.407	-0.03
321.618	0.03
321.829	0.02
322.041	0.01
322.252	-0
322.463	0.02
322.674	0.02
322.885	-0.06
323.096	-0.01
323.307	-0.01
323.518	0.01
323.729	-0.04
323.94	-0.04
324.151	-0.06
324.362	0.05
324.573	-0.01
324.784	-0.07
324.995	0.07
325.206	-0.01
325.417	-0.01
325.628	-0.04
325.838	-0.02
326.049	-0
326.26	0.02
326.471	-0.03
326.682	0
326.892	-0.02
327.103	-0.07
327.314	-0.08
327.525	0.04
327.735	0
327.946	-0.02
328.157	-0.03
328.368	0.01
328.578	-0.03
328.789	0.01
328.999	0.01
329.21	-0.04
329.421	0.02
329.631	-0.08
329.842	-0.08
330.052	-0.01
330.263	0.01
330.473	0.03
330.684	-0.01
330.894	-0.05
331.105	-0.01
331.315	0.01
331.526	-0.06
331.736	0.05
331.947	0.01
332.157	-0.01
332.367	-0.02
332.578	0.01
332.788	0.06
332.999	0.04
333.209	-0.01
333.419	-0
333.629	-0.02
333.84	0.05
334.05	-0.03
334.26	0.08
334.47	0
334.681	0.07
334.891	0.01
335.101	0.02
335.311	0.07
335.521	0
335.732	-0.07
335.942	0.02
336.152	0.04
336.362	-0.01
336.572	-0
336.782	0
336.992	-0.04
337.202	-0.04
337.412	-0.02
337.622	0
337.832	0.02
338.042	0.04
338.252	-0.01
338.462	-0.02
338.672	0.04
338.882	-0.07
339.092	-0.04
339.302	0.02
339.511	0.06
339.721	-0.01
339.931	-0.02
340.141	0.04
340.351	0.06
340.561	0
340.77	0.02
340.98	0
341.19	0
341.4	-0.05
341.609	-0.03
341.819	-0.03
342.029	-0.04
342.238	-0.01
342.448	-0.05
342.658	0.01
342.867	0.04
343.077	0.01
343.286	0.02
343.496	-0.03
343.706	0.03
343.915	-0.06
344.125	-0
344.334	-0
344.544	-0.07
344.753	-0.01
344.963	0
345.172	-0.03
345.381	-0.07
345.591	-0.06
345.8	0.02
346.01	0.06
346.219	0.05
346.428	-0.14
346.638	-0.02
346.847	-0.01
347.056	0.03
347.266	-0
347.475	0.04
347.684	0.01
347.893	0.02
348.103	0.06
348.312	0.01
348.521	-0.02
348.73	0.01
348.94	-0.01
349.149	-0.02
349.358	-0.01
349.567	-0.03
349.776	-0.06
349.985	-0.03
350.194	0.01
350.403	-0.01
350.612	-0.03
350.821	-0.02
351.03	-0.04
351.239	-0.03
351.448	0
351.657	-0.03
351.866	0.03
352.075	-0
352.284	0.05
352.493	-0.04
352.702	0.06
352.911	0.02
353.12	0.04
353.329	-0
353.538	0.04
353.746	0.02
353.955	-0.02
354.164	0.01
354.373	-0.01
354.582	0.03
354.79	0.01
354.999	0.06
355.208	-0
355.416	0.09
355.625	-0.04
355.834	-0.05
356.042	-0.01
356.251	0
356.46	-0.02
356.668	0.04
356.877	0.11
357.085	0.04
357.294	-0.12
357.503	0.05
357.711	0
357.92	0.16
358.128	0.05
358.337	-0.02
358.545	0.02
358.754	-0.02
358.962	0.03
359.17	0.01
359.379	0
359.587	0.09
359.796	-0.02
360.004	0.02
360.212	0.04
360.421	0.04
360.629	-0.03
360.837	-0.01
361.046	0.04
361.254	0.04
361.462	-0.02
361.67	-0.01
361.879	-0.01
362.087	0.09
362.295	0.01
362.503	0.02
362.711	-0.02
362.92	-0.02
363.128	0.01
363.336	0.01
363.544	-0.03
363.752	-0.02
363.96	-0.03
364.168	0.02
364.376	-0.03
364.584	-0.02
364.792	0.09
365	0.03
365.208	0.02
365.416	-0.01
365.624	0.04
365.832	-0.03
366.04	0.07
366.248	0.07
366.456	0.07
366.664	0.02
366.872	0.07
367.079	0.04
367.287	0.07
367.495	0.06
367.703	0.02
367.911	0
368.118	0.03
368.326	0.02
368.534	0
368.742	0.08
368.949	0.03
369.157	0.05
369.365	0.14
369.572	0.14
369.78	0.08
369.988	0.19
370.195	0.16
370.403	0.19
370.61	0.12
370.818	0.18
371.026	0.25
371.233	0.19
371.441	0.26
371.648	0.23
371.856	0.31
372.063	0.28
372.271	0.35
372.478	0.31
372.685	0.34
372.893	0.48
373.1	0.39
373.308	0.45
373.515	0.54
373.722	0.58
373.93	0.52
374.137	0.63
374.344	0.71
374.552	0.67
374.759	0.74
374.966	0.77
375.173	0.78
375.381	0.93
375.588	0.87
375.795	0.84
376.002	0.92
376.209	0.96
376.417	1.08
376.624	1.09
376.831	1.16
377.038	1.18
377.245	1.23
377.452	1.38
377.659	1.43
377.866	1.46
378.073	1.59
378.28	1.65
378.487	1.75
378.694	1.78
378.901	1.95
379.108	1.95
379.315	2.09
379.522	2.24
379.729	2.21
379.936	2.3
380.143	2.45
380.35	2.55
380.557	2.64
380.763	2.72
380.97	2.77
381.177	2.88
381.384	3
381.591	3.08
381.797	3.16
382.004	3.22
382.211	3.39
382.418	3.45
382.624	3.57
382.831	3.5
383.038	3.57
383.244	3.55
383.451	3.55
383.658	3.48
383.864	3.61
384.071	3.49
384.277	3.55
384.484	3.5
384.69	3.38
384.897	3.26
385.103	3.23
385.31	3.18
385.516	3.11
385.723	2.99
385.929	2.9
386.136	2.78
386.342	2.77
386.549	2.63
386.755	2.5
386.961	2.42
387.168	2.37
387.374	2.26
387.58	2.21
387.787	2.08
387.993	2.01
388.199	1.83
388.406	1.81
388.612	1.7
388.818	1.63
389.024	1.53
389.231	1.48
389.437	1.56
389.643	1.5
389.849	1.38
390.055	1.36
390.261	1.31
390.467	1.28
390.674	1.19
390.88	1.2
391.086	1.18
391.292	1.11
391.498	1.12
391.704	1.07
391.91	1
392.116	0.99
392.322	0.88
392.528	0.94
392.734	0.87
392.94	0.87
393.146	0.86
393.352	0.83
393.557	0.77
393.763	0.74
393.969	0.78
394.175	0.69
394.381	0.65
394.587	0.61
394.792	0.61
394.998	0.67
395.204	0.65
395.41	0.53
395.615	0.59
395.821	0.56
396.027	0.55
396.233	0.47
396.438	0.47
396.644	0.56
396.85	0.48
397.055	0.38
397.261	0.42
397.466	0.37
397.672	0.4
397.878	0.4
398.083	0.42
398.289	0.31
398.494	0.37
398.7	0.33
398.905	0.27
399.111	0.37
399.316	0.26
399.522	0.26
399.727	0.24
399.932	0.23
400.138	0.27
400.343	0.29
400.549	0.24
400.754	0.25
400.959	0.25
401.165	0.22
401.37	0.22
401.575	0.31
401.78	0.18
401.986	0.18
402.191	0.18
402.396	0.16
402.601	0.2
402.807	0.19
403.012	0.21
403.217	0.22
403.422	0.19
403.627	0.13
403.832	0.17
404.037	0.18
404.243	0.22
404.448	0.16
404.653	0.14
404.858	0.18
405.063	0.17
405.268	0.11
405.473	0.06
405.678	0.11
405.883	0.21
406.088	0.17
406.293	0.11
406.498	0.09
406.703	0.13
406.907	0.12
407.112	0.11
407.317	0.11
407.522	0.14
407.727	0.05
407.932	0.09
408.136	0.19
408.341	0.11
408.546	0.12
408.751	0.08
408.956	0.09
409.16	0.12
409.365	0.09
409.57	0.1
409.774	0.1
409.979	0.11
410.184	0.09
410.388	0.03
410.593	0.16
410.798	0.08
411.002	0.04
411.207	0.08
411.411	0.09
411.616	0.04
411.82	0.08
412.025	0.11
412.229	0.03
412.434	0.13
412.638	0.13
412.843	0.06
413.047	0.13
413.252	0.02
413.456	0.02
413.66	0.08
413.865	0.05
414.069	0.11
414.273	0.03
414.478	0.02
414.682	0
414.886	0.02
415.091	0.01
415.295	-0.03
415.499	0.07
415.703	0.01
415.908	0.05
416.112	-0.01
416.316	0.06
416.52	0.02
416.724	-0.02
416.929	0.04
417.133	0.1
417.337	-0.03
417.541	0.01
417.745	0.04
417.949	0.06
418.153	0.08
418.357	-0.06
418.561	0.12
418.765	0.05
418.969	0.13
419.173	0.05
419.377	0.01
419.581	0.15
419.785	-0.01
419.989	-0.02
420.193	-0.02
420.397	0.03
420.601	0.05
420.804	0.09
421.008	0.07
421.212	0.03
421.416	0.04
421.62	-0.03
421.823	0.07
422.027	0.1
422.231	0.06
422.435	0.03
422.638	0.04
422.842	0.03
423.046	-0.04
423.249	0.08
423.453	0.08
423.657	0.07
423.86	-0.01
424.064	0.01
424.268	0.1
424.471	0.01
424.675	0.07
424.878	0.11
425.082	0.07
425.285	0.05
425.489	-0.01
425.692	0.04
425.896	0.02
426.099	0.06
426.303	0
426.506	-0.06
426.71	0.05
426.913	0.08
427.116	0.1
427.32	0.05
427.523	0.04
427.726	0.08
427.93	-0.05
428.133	0.06
428.336	-0.03
428.54	-0.03
428.743	0.11
428.946	0.06
429.149	0.03
429.353	0.08
429.556	0
429.759	-0.01
429.962	0.03
430.165	0.05
430.368	0.06
430.571	0.01
430.775	0.07
430.978	0.01
431.181	0.05
431.384	0.03
431.587	-0
431.79	0.01
431.993	0
432.196	0.04
432.399	0.01
432.602	0.1
432.805	0.01
433.008	0.05
433.211	-0.03
433.414	0.05
433.616	-0.01
433.819	0.02
434.022	-0.05
434.225	0.08
434.428	0.04
434.631	0.09
434.833	-0
435.036	0.07
435.239	0.1
435.442	0.03
435.645	0.04
435.847	0.05
436.05	0.12
436.253	0.08
436.455	0.02
436.658	0.02
436.861	0.13
437.063	0
437.266	0.02
437.468	0.04
437.671	0.15
437.874	0.07
438.076	0
438.279	-0.01
438.481	0
438.684	-0.01
438.886	0.01
439.089	0
439.291	0.05
439.494	0.06
439.696	0.02
439.899	0.04
440.101	0.06
440.303	-0.03
440.506	0.13
440.708	0.11
440.91	0.1
441.113	-0.02
441.315	0.08
441.517	0
441.72	0.06
441.922	0.03
442.124	0.01
442.326	0.07
442.529	0.13
442.731	0.05
442.933	0.15
443.135	0.06
443.337	0.03
443.539	0.03
443.742	0.05
443.944	0.04
444.146	0.02
444.348	0.05
444.55	0.04
444.752	0.03
444.954	-0.01
445.156	0.09
445.358	0.01
445.56	0.11
445.762	0.07
445.964	0.07
446.166	0.05
446.368	0.03
446.57	0.16
446.772	0.09
446.974	0.03
447.175	0.06
447.377	0.03
447.579	0.07
447.781	0.02
447.983	0.14
448.184	0.08
448.386	0.08
448.588	0.03
448.79	0.04
448.991	0.02
449.193	0.01
449.395	0.09
449.597	0.09
449.798	0.07
450	0.1
450.202	0.04
450.403	0.12
450.605	0.08
450.806	0.02
451.008	0.01
451.21	0.05
451.411	0.1
451.613	0.06
451.814	0.04
452.016	0.08
452.217	0.04
452.419	0.08
452.62	0.07
452.821	0.1
453.023	0.12
453.224	0.12
453.426	0.05
453.627	0.07
453.828	0.1
454.03	0.09
454.231	0.11
454.432	0.01
454.634	0.16
454.835	0.06
455.036	-0.03
455.238	0.07
455.439	0.08
455.64	-0.04
455.841	-0.03
456.042	0.12
456.244	0.09
456.445	0.02
456.646	-0.03
456.847	0.03
457.048	0.06
457.249	0.1
457.45	0.18
457.651	-0.04
457.852	0.09
458.054	0
458.255	0.05
458.456	0.1
458.657	0.06
458.858	0.03
459.058	0.03
459.259	0.07
459.46	0.02
459.661	0.01
459.862	0.14
460.063	0.02
460.264	0.05
460.465	-0.05
460.666	0.14
460.866	0.01
461.067	-0.01
461.268	0.03
461.469	0.01
461.67	0.04
461.87	0.03
462.071	0.02
462.272	-0.02
462.473	0.03
462.673	0.05
462.874	-0
463.075	0.05
463.275	0.02
463.476	0.03
463.676	0.03
463.877	0.02
464.078	-0.03
464.278	0.06
464.479	0.03
464.679	-0.01
464.88	0.03
465.08	0.03
465.281	0
465.481	-0.01
465.682	0.06
465.882	0.03
466.083	0.01
466.283	0
466.483	0.02
466.684	-0.06
466.884	-0.03
467.085	0.03
467.285	0.06
467.485	0.01
467.686	0.02
467.886	-0.05
468.086	0.02
468.286	0.04
468.487	0.05
468.687	-0.01
468.887	-0.01
469.087	0
469.287	0.05
469.488	-0.04
469.688	0
469.888	0.07
470.088	0.06
470.288	0.08
470.488	0.05
470.688	-0.05
470.888	-0.01
471.088	-0.02
471.288	0.07
471.488	0.02
471.688	0.05
471.888	-0.02
472.088	0.05
472.288	0.03
472.488	0.01
472.688	-0.04
472.888	-0.03
473.088	0
473.288	0.01
473.488	0.02
473.688	0.08
473.887	0.03
474.087	-0.02
474.287	0.02
474.487	-0.03
474.687	0.04
474.886	-0.01
475.086	0.02
475.286	0
475.486	0.06
475.685	-0
475.885	-0.06
476.085	-0.03
476.284	0.05
476.484	0.01
476.684	-0.01
476.883	0.06
477.083	0.03
477.282	-0.03
477.482	0
477.681	0.04
477.881	0.02
478.08	-0.05
478.28	-0.05
478.479	0.05
478.679	0.05
478.878	-0.01
479.078	0.01
479.277	0.01
479.477	0.02
479.676	0.04
479.875	-0
480.075	-0.06
480.274	0.04
480.473	0.02
480.673	-0.02
480.872	0.05
481.071	0.01
481.271	0.02
481.47	0.01
481.669	-0.01
481.868	-0.01
482.067	-0
482.267	-0.01
482.466	-0.03
482.665	-0.04
482.864	-0.03
483.063	-0.03
483.262	0.05
483.461	0.04
483.661	0.05
483.86	-0.01
484.059	0.02
484.258	0.01
484.457	-0.01
484.656	0.02
484.855	0.01
485.054	-0.04
485.253	0.01
485.452	-0.03
485.651	-0
485.849	0.01
486.048	-0.01
486.247	-0.03
486.446	0
486.645	-0.01
486.844	-0.01
487.043	-0.03
487.241	0.02
487.44	-0.05
487.639	-0
487.838	0.03
488.037	-0
488.235	0.01
488.434	0.01
488.633	-0.01
488.831	0.01
489.03	0.03
489.229	-0
489.427	-0.02
489.626	0.01
489.825	0.04
490.023	0
490.222	-0.01
490.42	0.02
490.619	0.02
490.817	-0
491.016	-0.03
491.214	0.02
491.413	-0.01
491.611	-0.01
491.81	0.01
492.008	0
492.207	0
492.405	0.01
492.604	-0.05
492.802	-0.02
493	-0.02
493.199	-0.01
493.397	-0.01
493.595	-0.03
493.794	-0.02
493.992	0.06
494.19	-0.01
494.388	0.01
494.587	-0.03
494.785	0.03
494.983	-0.03
495.181	0
495.379	0.01
495.578	-0.02
495.776	0.02
495.974	-0
496.172	0
496.37	-0.02
496.568	-0.03
496.766	0.01
496.964	0.02
497.162	-0
497.36	-0.02
497.558	0.03
497.756	0.02
497.954	-0.02
498.152	-0.03
498.35	-0
498.548	-0.02
498.746	0.01
498.944	-0.04
499.142	-0.02
499.34	-0.02
499.538	-0.01
499.736	-0.02
499.933	0.02
500.131	0.02
500.329	0
500.527	0.04
500.725	0.02
500.922	0.01
501.12	0
501.318	0.02
501.516	-0.02
501.713	0.01
501.911	-0.01
502.109	-0.03
502.306	-0.01
502.504	-0.01
502.701	-0.01
502.899	0
503.097	0.03
503.294	0.01
503.492	-0.01
503.689	0.02
503.887	0.03
504.084	0.04
504.282	0.02
504.479	-0.03
504.677	0.01
504.874	-0.04
505.072	-0
505.269	-0.01
505.466	0.02
505.664	-0.01
505.861	-0.03
506.059	-0.03
506.256	0.01
506.453	-0.02
506.651	0.04
506.848	0
507.045	0
507.242	-0.01
507.44	-0
507.637	0.01
507.834	-0
508.031	-0
508.229	-0.03
508.426	-0.02
508.623	0.02
508.82	-0.02
509.017	-0.04
509.214	-0.01
509.411	-0
509.608	-0.04
509.805	-0.03
510.003	-0.01
510.2	-0.01
510.397	0.01
510.594	-0.03
510.791	-0.02
510.988	0
511.184	0
511.381	0.01
511.578	-0.02
511.775	0.02
511.972	-0
512.169	0.01
512.366	-0.01
512.563	0.02
512.76	-0.01
512.956	0.01
513.153	-0.01
513.35	-0
513.547	-0.01
513.744	0.01
513.94	-0.04
514.137	-0
514.334	-0.01
514.53	0.01
514.727	-0
514.924	0.02
515.12	-0.02
515.317	-0.05
515.514	-0.02
515.71	-0.03
515.907	-0.01
516.103	-0.01
516.3	0.02
516.497	0.02
516.693	0.02
516.89	0.01
517.086	-0.02
517.283	0.01
517.479	-0.01
517.676	-0
517.872	0
518.068	-0.02
518.265	-0.01
518.461	-0.01
518.658	-0.02
518.854	0.01
519.05	-0.01
519.247	-0.02
519.443	0.02
519.639	0.01
519.836	0
520.032	-0.01
520.228	-0
520.424	0.03
520.621	0.02
520.817	-0.01
521.013	-0
521.209	-0
521.405	0.01
521.601	0
521.798	0.01
521.994	0.02
522.19	-0.02
522.386	-0.04
522.582	0.01
522.778	-0.01
522.974	-0.01
523.17	0.01
523.366	0.01
523.562	0.03
523.758	-0.01
523.954	-0.01
524.15	-0.01
524.346	0.02
524.542	-0
524.738	-0.03
524.934	-0.01
525.129	0.01
525.325	-0
525.521	-0.02
525.717	0.01
525.913	-0.01
526.109	-0
526.304	-0.01
526.5	0.01
526.696	0.03
526.892	0.01
527.087	0
527.283	-0.03
527.479	0.02
527.674	-0.01
527.87	0
528.066	-0.01
528.261	0.01
528.457	-0.01
528.653	-0.01
528.848	-0.02
529.044	0.02
529.239	-0
529.435	0.04
529.63	0.02
529.826	0.02
530.021	-0
530.217	0
530.412	-0.01
530.608	-0.02
530.803	0
530.999	0
531.194	-0.04
531.389	0
531.585	-0.04
531.78	-0.02
531.975	0
532.171	0.01
532.366	0
532.561	-0.01
532.757	-0
532.952	0.01
533.147	0.02
533.342	-0
533.538	0
533.733	0.02
533.928	-0.02
534.123	-0.01
534.318	-0.02
534.513	-0.02
534.709	-0
534.904	-0.02
535.099	-0.01
535.294	0.01
535.489	-0
535.684	-0.02
535.879	-0.03
536.074	0.01
536.269	-0.04
536.464	0
536.659	-0
536.854	0
537.049	-0.02
537.244	-0
537.439	-0.01
537.634	0.01
537.828	-0.01
538.023	-0.01
538.218	-0.03
538.413	0.01
538.608	-0.04
538.803	0.01
538.997	-0.06
539.192	0.02
539.387	-0
539.582	0.01
539.776	-0
539.971	-0.02
540.166	0
540.36	-0.03
540.555	0.01
540.75	-0.01
540.944	-0
541.139	-0.02
541.334	-0.01
541.528	-0
541.723	0
541.917	-0.02
542.112	-0.04
542.306	-0.02
542.501	-0.03
542.695	0
542.89	-0.02
543.084	-0
543.279	-0.02
543.473	-0.01
543.668	-0.01
543.862	-0.01
544.056	0.01
544.251	0.01
544.445	0
544.64	-0.01
544.834	-0.03
545.028	0.01
545.222	0.01
545.417	0.01
545.611	0.01
545.805	-0.02
546	-0.02
546.194	0.01
546.388	-0.04
546.582	0.02
546.776	0.01
546.97	-0.01
547.165	-0
547.359	0.02
547.553	-0.01
547.747	0.01
547.941	-0.02
548.135	0
548.329	0.01
548.523	0.02
548.717	0.01
548.911	-0.03
549.105	0.01
549.299	-0.01
549.493	0.01
549.687	0.01
549.881	0.01
550.075	-0.02
550.269	-0.02
550.463	0.01
550.657	-0.01
550.85	-0.03
551.044	-0.02
551.238	0.01
551.432	-0.02
551.626	-0.04
551.82	-0.01
552.013	-0.02
552.207	-0.01
552.401	0
552.594	-0
552.788	-0.02
552.982	0.02
553.176	-0.01
553.369	0.02
553.563	-0.02
553.756	-0.05
553.95	-0.02
554.144	0.01
554.337	0.01
554.531	0.01
554.724	0.01
554.918	-0.01
555.111	0.02
555.305	-0.01
555.498	0.05
555.692	0.03
555.885	-0.01
556.079	0.01
556.272	-0.03
556.466	0.03
556.659	0.01
556.852	-0.01
557.046	-0.02
557.239	0.01
557.432	-0.06
557.626	-0
557.819	0.02
558.012	0
558.206	0.01
558.399	0.01
558.592	-0
558.785	-0.02
558.979	0
559.172	0
559.365	0
559.558	-0
559.751	0.01
559.944	-0
560.138	-0.04
560.331	-0.01
560.524	-0.01
560.717	-0.01
560.91	-0
561.103	0.02
561.296	0.01
561.489	0.02
561.682	-0
561.875	0.02
562.068	-0.01
562.261	0.01
562.454	0.03
562.647	0.01
562.84	0.01
563.032	-0
563.225	0.01
563.418	-0.02
563.611	0.01
563.804	0
563.997	-0.02
564.19	-0.03
564.382	0
564.575	0.01
564.768	-0
564.961	-0.01
565.153	-0.01
565.346	0.02
565.539	0.02
565.731	0.02
565.924	0.02
566.117	-0.01
566.309	0
566.502	-0.01
566.695	-0.01
566.887	0.01
567.08	-0
567.272	-0
567.465	-0.02
567.657	-0
567.85	0.01
568.042	0
568.235	0.01
568.427	-0.02
568.62	-0
568.812	0.02
569.005	-0
569.197	-0.02
569.389	0.01
569.582	-0
569.774	0.01
569.966	-0.05
570.159	-0.02
570.351	0.02
570.543	-0.01
570.736	-0.01
570.928	-0.05
571.12	-0.01
571.312	-0.03
571.505	-0.03
571.697	0.02
571.889	-0.04
572.081	-0
572.273	-0.04
572.465	0.01
572.658	-0.01
572.85	-0.01
573.042	-0.01
573.234	-0.01
573.426	0.02
573.618	-0.02
573.81	0
574.002	0.02
574.194	0.02
574.386	-0.05
574.578	-0.06
574.77	-0.02
574.962	-0
575.154	-0.04
575.346	-0.01
575.538	0.01
575.729	-0.02
575.921	-0.01
576.113	-0.02
576.305	0.03
576.497	-0
576.689	-0.02
576.88	-0.02
577.072	0.02
577.264	-0
577.456	-0.01
577.647	-0.08
577.839	-0.01
578.031	0.01
578.223	-0.04
578.414	-0.06
578.606	0.01
578.798	-0
578.989	-0.01
579.181	-0.01
579.372	-0.01
579.564	-0.01
579.755	0.01
579.947	0.01
580.139	0.01
580.33	-0.07
580.522	-0.02
580.713	-0.07
580.905	-0.04
581.096	0.01
581.287	-0.01
581.479	-0.02
581.67	0.02
581.862	-0.02
582.053	-0.02
582.244	-0.03
582.436	-0.01
582.627	-0.01
582.818	0
583.01	-0.05
583.201	0.01
583.392	0.01
583.583	-0.01
583.775	-0.01
583.966	-0.03
584.157	-0.04
584.348	-0.03
584.54	-0.03
584.731	0.02
584.922	-0
585.113	-0.03
585.304	0
585.495	0.02
585.686	0.02
585.877	-0.01
586.068	-0
586.259	0.02
586.45	-0.01
586.641	-0.03
586.832	-0.06
587.023	0
587.214	-0.04
587.405	-0.03
587.596	-0.05
587.787	0.01
587.978	-0.01
588.169	-0.01
588.36	-0.03
588.551	0
588.742	-0.03
588.932	0.02
589.123	0.01
589.314	0.03
589.505	0.01
589.696	0.01
589.886	-0
590.077	-0.06
590.268	-0.01
590.458	-0.04
590.649	-0.04
590.84	0
591.03	-0.02
591.221	-0.05
591.412	-0.04
591.602	0.01
591.793	0.02
591.984	-0.04
592.174	0
592.365	0.02
592.555	-0.03
592.746	-0.01
592.936	0
593.127	0
593.317	0.01
593.508	-0.03
593.698	-0.03
593.889	-0.01
594.079	-0
594.269	-0.02
594.46	-0.01
594.65	-0.02
594.84	-0.01
595.031	-0.04
595.221	-0.04
595.411	-0.04
595.602	-0
595.792	-0.03
595.982	-0.05
596.172	0.05
596.363	0.01
596.553	-0.01
596.743	-0.03
596.933	-0.02
597.123	-0
597.314	-0.04
597.504	-0.04
597.694	0.03
597.884	-0.01
598.074	-0.02
598.264	-0.04
598.454	-0.01
598.644	-0.02
598.834	-0.03
599.024	-0.05
599.214	-0.03
599.404	0.02
599.594	-0.01
599.784	-0.02
599.974	0.02
600.164	0.01
600.354	-0.03
600.544	-0.04
600.734	-0.01
600.924	0.04
601.114	-0.02
601.303	-0
601.493	-0.04
601.683	0
601.873	-0
602.063	-0.06
602.252	-0.01
602.442	-0.09
602.632	-0.04
602.821	-0.04
603.011	-0.01
603.201	-0
603.39	-0.02
603.58	-0.01
603.77	-0
603.959	0.02
604.149	-0.02
604.339	-0.04
604.528	0.02
604.718	0.01
604.907	-0.01
605.097	-0.03
605.286	-0.08
605.476	0.03
605.665	0.03
605.855	-0.02
606.044	0.03
606.234	0.02
606.423	-0.03
606.612	-0.04
606.802	-0.02
606.991	-0.01
607.181	0.02
607.37	-0.05
607.559	-0.01
607.749	-0.05
607.938	-0.01
608.127	-0.02
608.316	-0.04
608.506	-0
608.695	-0.03
608.884	-0.02
609.073	-0.02
609.263	0.02
609.452	0
609.641	0
609.83	-0.05
610.019	0.01
610.208	-0.04
610.397	-0.01
610.586	-0.01
610.775	-0.05
610.965	-0.01
611.154	-0.05
611.343	0.01
611.532	0.01
611.721	-0.01
611.91	-0.01
612.099	-0.01
612.287	-0.03
612.476	-0.05
612.665	-0.02
612.854	-0.03
613.043	0.02
613.232	0.01
613.421	-0.04
613.61	-0
613.798	-0.01
613.987	-0
614.176	-0
614.365	0.01
614.554	-0.02
614.742	-0
614.931	-0.01
615.12	0.02
615.309	-0.03
615.497	0.01
615.686	-0.05
615.875	-0.04
616.063	-0
616.252	-0.03
616.44	-0.03
616.629	-0.02
616.818	0.03
617.006	0.01
617.195	0.01
617.383	0.01
617.572	0.02
617.76	-0.04
617.949	-0.03
618.137	-0.01
618.326	0.01
618.514	-0.02
618.703	-0.03
618.891	0.01
619.079	-0.06
619.268	-0.01
619.456	-0.01
619.644	0.03
619.833	-0.02
620.021	-0.05
620.209	-0.06
620.398	-0
620.586	-0.01
620.774	0.04
620.962	-0
621.151	0.04
621.339	0.01
621.527	-0.06
621.715	-0.04
621.903	-0.06
622.092	-0.06
622.28	-0.01
622.468	-0.01
622.656	-0.03
622.844	0.02
623.032	-0.02
623.22	-0.04
623.408	0.01
623.596	-0.01
623.784	-0.01
623.972	-0.05
624.16	-0.05
624.348	0.03
624.536	-0.02
624.724	-0.05
624.912	0.03
625.1	-0
625.288	-0.05
625.476	-0.04
625.664	0.03
625.851	-0.06
626.039	-0.04
626.227	0
626.415	-0.02
626.603	-0.05
626.79	0
626.978	-0.03
627.166	0.02
627.354	0.02
627.541	-0.04
627.729	-0.09
627.917	-0.01
628.104	0.02
628.292	-0
628.48	-0.02
628.667	0.03
628.855	-0
629.042	-0.02
629.23	-0.03
629.418	-0.06
629.605	-0.02
629.793	-0.06
629.98	-0.03
630.168	-0
630.355	-0.04
630.543	0.03
630.73	-0.02
630.917	-0.01
631.105	0.04
631.292	-0.01
631.48	0.01
631.667	0.04
631.854	-0
632.042	-0.02
632.229	-0.04
632.416	-0.02
632.604	0.02
632.791	-0.04
632.978	0.02
633.165	0.01
633.353	0.05
633.54	-0.02
633.727	-0.06
633.914	-0.03
634.101	-0.08
634.289	0.04
634.476	0
634.663	-0.04
634.85	0.01
635.037	-0.02
635.224	-0.05
635.411	0.04
635.598	0.03
635.785	0.03
635.972	-0.01
636.159	0.04
636.346	-0.03
636.533	-0
636.72	0.01
636.907	0
637.094	0.03
637.281	0.01
637.468	0.01
637.655	0.01
637.842	-0.01
638.029	-0.01
638.215	0.06
638.402	0.02
638.589	-0.04
638.776	-0.03
638.963	-0.01
639.149	0.06
639.336	0.05
639.523	0
639.709	0.01
639.896	0
640.083	0.07
640.27	0.05
640.456	-0.01
640.643	0.04
640.829	-0.03
641.016	0.01
641.203	-0.02
641.389	0.02
641.576	0.03
641.762	0
641.949	0.01
642.135	0.01
642.322	0.02
642.508	-0.03
642.695	0.02
642.881	-0.01
643.068	0
643.254	0.01
643.441	0.08
643.627	0.01
643.813	-0.02
644	0.07
644.186	-0.02
644.372	0.04
644.559	0.05
644.745	0.02
644.931	0.01
645.118	0.03
645.304	0.01
645.49	0.01
645.676	0.02
645.862	0.05
646.049	0.05
646.235	0.02
646.421	0.1
646.607	0.1
646.793	0.01
646.979	0.01
647.165	0.05
647.352	0.06
647.538	0.07
647.724	0.03
647.91	0.05
648.096	0.06
648.282	0.05
648.468	0.05
648.654	0.03
648.84	0.07
649.026	0.06
649.212	0.02
649.397	0.03
649.583	0.01
649.769	0.05
649.955	0.03
650.141	0.06
650.327	0.1
650.513	0.02
650.698	0.07
650.884	-0.01
651.07	0.04
651.256	0.07
651.442	0.06
651.627	0.04
651.813	0.05
651.999	0.06
652.184	0.07
652.37	0.04
652.556	0.01
652.741	0.1
652.927	-0.01
653.113	0.05
653.298	0.07
653.484	0.06
653.669	0.01
653.855	0.06
654.04	0.07
654.226	0.07
654.412	0.05
654.597	0.01
654.782	0.07
654.968	0.06
655.153	0.1
655.339	0.07
655.524	0.04
655.71	0.1
655.895	0.08
656.08	0.08
656.266	0.09
656.451	0.1
656.636	0.05
656.822	0.09
657.007	0.04
657.192	0.07
657.378	0.04
657.563	0.06
657.748	0.09
657.933	0.12
658.118	0.06
658.304	0.04
658.489	0.1
658.674	0.09
658.859	0.04
659.044	0.14
659.229	0.1
659.414	0.07
659.599	0.06
659.785	0.07
659.97	0.05
660.155	0.11
660.34	0.11
660.525	0.09
660.71	0.06
660.895	0.08
661.08	0.07
661.264	0.09
661.449	0.08
661.634	0.1
661.819	0.09
662.004	0.09
662.189	0.01
662.374	0.04
662.559	0.05
662.743	-0.01
662.928	0.05
663.113	0.04
663.298	0.01
663.483	0.05
663.667	0.1
663.852	0.01
664.037	0.09
664.221	0.01
664.406	0.1
664.591	0.04
664.775	0.05
664.96	0.01
665.145	0.03
665.329	0.03
665.514	0.02
665.698	0.08
665.883	0.03
666.068	0.08
666.252	0
666.437	-0.01
666.621	0.04
666.806	0.05
666.99	0.03
667.174	-0.01
667.359	0.07
667.543	-0.01
667.728	0.02
667.912	-0.07
668.096	0.05
668.281	0.01
668.465	-0.04
668.649	0.01
668.834	-0.01
669.018	0
669.202	0.01
669.387	-0.02
669.571	0.04
669.755	-0.02
669.939	-0.02
670.124	-0.01
670.308	0.02
670.492	0.03
670.676	0.01
670.86	-0.03
671.044	-0.02
671.228	0.02
671.413	-0.03
671.597	-0.05
671.781	-0.05
671.965	0.03
672.149	-0.03
672.333	-0
672.517	-0.04
672.701	0
672.885	-0.01
673.069	-0.06
673.253	0.02
673.437	-0
673.621	-0.04
673.804	0
673.988	-0.02
674.172	-0.05
674.356	-0.07
674.54	0.01
674.724	0.09
674.908	-0.03
675.091	0.01
675.275	-0.01
675.459	0.03
675.643	0.01
675.826	0.03
676.01	-0.04
676.194	-0.01
676.377	0
676.561	0
676.745	-0
676.928	0
677.112	0.03
677.296	-0.03
677.479	-0.05
677.663	-0.06
677.846	0
678.03	-0.03
678.213	-0.04
678.397	0.05
678.58	-0.04
678.764	-0.02
678.947	-0.02
679.131	-0.04
679.314	-0.01
679.498	-0.03
679.681	0.01
679.865	0.06
680.048	0.03
680.231	0
680.415	-0.01
680.598	-0.04
680.781	-0.02
680.965	-0
681.148	-0
681.331	-0.02
681.514	0
681.698	-0.03
681.881	0.02
682.064	-0.02
682.247	-0.01
682.43	-0.09
682.614	0.04
682.797	0.01
682.98	0.01
683.163	-0.02
683.346	0.01
683.529	-0.05
683.712	-0.04
683.895	0.01
684.078	-0.05
684.261	-0.06
684.444	0
684.627	0.03
684.81	-0.04
684.993	-0.06
685.176	0.03
685.359	-0.05
685.542	-0.04
685.725	0.05
685.908	-0.03
686.091	-0.06
686.274	0.02
686.457	-0
686.639	-0.03
686.822	0.03
687.005	-0
687.188	0
687.371	0.05
687.553	-0.03
687.736	-0.01
687.919	0.05
688.102	0.03
688.284	-0.05
688.467	-0.02
688.65	-0.06
688.832	-0.08
689.015	-0.05
689.197	-0.1
689.38	0.06
689.563	0.02
689.745	-0.04
689.928	-0.05
690.11	0.01
690.293	-0
690.475	-0.1
690.658	0
690.84	-0.04
691.023	-0.08
691.205	-0.08
691.388	-0
691.57	-0.02
691.752	0.04
691.935	-0.05
692.117	-0.06
692.3	-0.02
692.482	0.02
692.664	-0.07
692.847	0
693.029	0.03
693.211	-0.03
693.393	0.03
693.576	-0.05
693.758	-0.01
693.94	-0.03
694.122	-0.08
694.304	-0.03
694.487	-0.03
694.669	0.07
694.851	-0.04
695.033	-0.01
695.215	-0.04
695.397	-0
695.579	-0.01
695.761	-0.09
695.943	-0.09
696.125	0.02
696.308	-0.02
696.49	-0.15
696.671	0.1
696.853	-0.04
697.035	0.14
697.217	0.01
697.399	-0.02
697.581	-0.09
697.763	-0.03
697.945	-0.05
698.127	-0.01
698.309	-0.09
698.491	-0.04
698.672	0.01
698.854	0.03
699.036	0.03
699.218	-0.03
699.399	0.04
699.581	0.02
699.763	-0.03
699.945	-0.07
700.126	-0.05
700.308	0
700.49	-0.01
700.671	-0.06
700.853	-0.09
701.035	-0.05
701.216	-0.02
701.398	-0.08
701.579	-0.01
701.761	0.02
701.943	-0.07
702.124	-0.08
702.306	-0.06
702.487	0.08
702.669	0.01
702.85	-0.02
703.031	-0.07
703.213	-0
703.394	0.04
703.576	0.02
703.757	0.03
703.938	-0
704.12	0.12
704.301	-0.01
704.483	-0.08
704.664	-0.01
704.845	0.02
705.026	-0.03
705.208	-0.06
705.389	-0.01
705.57	-0.01
705.751	-0.05
705.933	0.02
706.114	0.04
706.295	-0.04
706.476	-0.07
706.657	0.04
706.838	-0.02
707.02	0.04
707.201	-0.04
707.382	-0.05
707.563	-0
707.744	-0.04
707.925	-0.03
708.106	-0.08
708.287	0.02
708.468	0.05
708.649	0.04
708.83	0.04
709.011	-0.08
709.192	0.02
709.373	-0.1
709.554	-0.07
709.734	0.1
709.915	-0.03
710.096	0
710.277	-0.09
710.458	-0.02
710.639	-0.04
710.819	-0.1
711	-0.04
711.181	0.01
711.362	-0
711.542	-0.04
711.723	-0.04
711.904	0.04
712.085	-0.02
712.265	0
712.446	-0.03
712.627	-0.01
712.807	-0.03
712.988	-0.01
713.168	-0.07
713.349	0
713.53	-0.15
713.71	-0.08
713.891	-0.07
714.071	0.01
714.252	-0.05
714.432	-0.04
714.613	-0.11
714.793	-0.02
714.974	0.05
715.154	0.03
715.334	0.02
715.515	0.05
715.695	-0.05
715.876	-0.01
716.056	0.01
716.236	0.03
716.417	0
716.597	0.01
716.777	0.13
716.957	0.01
717.138	-0.04
717.318	0.01
717.498	-0.04
717.678	0.07
717.859	-0
718.039	-0.09
718.219	0.01
718.399	0.04
718.579	-0.01
718.759	-0.02
718.939	0.07
719.12	0.06
719.3	0.01
719.48	-0.17
719.66	-0.07
719.84	0.16
720.02	0.02
720.2	-0.05
720.38	0.01
720.56	0.01
720.74	-0.01
720.92	0.07
721.1	0.03
721.279	0.1
721.459	-0.01
721.639	-0.07
721.819	0.08
721.999	-0.02
722.179	0.02
722.359	-0.06
722.538	-0.04
722.718	0.05
722.898	0.04
723.078	-0.02
723.257	0.01
723.437	0.01
723.617	0.07
723.797	0.01
723.976	0.03
724.156	0.05
724.336	0.05
724.515	0.12
724.695	-0.09
724.874	0.04
725.054	0.1
725.234	-0.07
725.413	0.03
725.593	0.01
725.772	0.08
725.952	0.02
726.131	-0.01
726.311	0.01
726.49	-0.01
726.67	-0.02
726.849	-0.04
727.028	0
727.208	0.12
727.387	0
727.567	-0.07
727.746	0.06
727.925	-0.04
728.105	-0.02
728.284	-0.03
728.463	-0.03
728.643	0.09
728.822	-0.04
729.001	0.05
729.18	0.03
729.359	0.1
729.539	0.04
729.718	0.04
729.897	0.04
730.076	-0.01
730.255	-0.01
730.434	0.02
730.614	0.07
730.793	0.06
730.972	0.04
731.151	-0.03
731.33	0.13
731.509	0.11
731.688	0.08
731.867	0.04
732.046	-0.11
732.225	0.25
732.404	-0.02
732.583	-0
732.762	0.11
732.941	0.11
733.12	0.04
733.298	0.03
733.477	0.11
733.656	0.03
733.835	-0.03
734.014	0.17
734.193	-0.01
734.371	0.1
734.55	0.07
734.729	0.01
734.908	0.1
735.086	0.06
735.265	0.23
735.444	-0.05
735.623	0.04
735.801	-0.05
735.98	0.05
736.159	-0.01
736.337	-0.04
736.516	-0.01
736.694	0.08
736.873	-0.04
737.052	0.12
737.23	0.17
737.409	-0
737.587	0.15
737.766	-0.07
737.944	-0.09
738.123	0.1
738.301	0.18
738.479	-0.01
738.658	0.08
738.836	-0.12
739.015	0.07
739.193	0.14
739.371	-0.05
739.55	-0.01
739.728	-0.03
739.906	0.22
740.085	0.25
740.263	0.05
740.441	-0.01
740.62	0.3
740.798	0.18
740.976	0.03
741.154	-0.04
741.332	0.17
741.511	-0.07
741.689	0.04
741.867	0.15
742.045	0.02
742.223	-0.03
742.401	-0.07
742.579	0.01
742.757	0.09
742.935	-0
743.114	0.02
743.292	-0.08
743.47	0.08
743.648	0.04
743.826	-0.01
744.004	0.06
744.181	0.1
744.359	0.04
744.537	0.02
744.715	0
744.893	0.01
745.071	-0.02
745.249	-0.09
745.427	0.02
745.605	0.02
745.782	-0.08
745.96	0.07
746.138	0.07
746.316	0.1
746.493	-0.04
746.671	0.06
746.849	-0.02
747.027	0.07
747.204	-0.11
747.382	0.06
747.56	-0.2
747.737	-0.04
747.915	-0.07
748.093	-0.03
748.27	-0.06
748.448	-0.01
748.625	-0.11
748.803	-0.09
748.98	0.03
749.158	-0.05
749.335	-0.03
749.513	0.05
749.69	-0.11
749.868	-0.09
750.045	0.04
750.223	-0.08
750.4	-0.23
750.578	0.11
750.755	-0.05
750.932	-0.01
751.11	0.1
751.287	-0.2
751.464	0.18
751.642	-0.11
751.819	-0.09
751.996	-0.01
752.173	-0.09
752.351	-0.07
752.528	-0.08
752.705	-0.05
752.882	-0.07
753.06	-0.03
753.237	0.01
753.414	0.1
753.591	0.15
753.768	-0.09
753.945	-0.03
754.122	0.02
754.299	0.02
754.476	-0.06
754.654	-0.09
754.831	0.03
755.008	-0.07
755.185	-0.05
755.362	-0.24
755.539	-0.04
755.716	-0.09
755.892	-0.11
756.069	-0.05
756.246	-0.06
756.423	-0.09
756.6	0.03
756.777	-0.04
756.954	0.11
757.131	0.02
757.307	-0.09
757.484	-0.21
757.661	-0.02
757.838	-0.07
758.015	-0.17
758.191	0.08
758.368	-0.01
758.545	0.06
758.721	0.09
758.898	-0.17
759.075	0.02
759.251	0.03
759.428	-0.03
759.605	-0.24
759.781	-0.03
759.958	0.07
760.134	0.04
760.311	-0.16
760.488	0.01
760.664	-0.07
760.841	0.01
761.017	-0.11
761.194	0.06
761.37	-0.01
761.547	-0.06
761.723	-0.03
761.899	0
762.076	-0.08
762.252	-0.14
762.429	-0
762.605	0.02
762.781	-0
762.958	0.05
763.134	-0.05
763.31	-0.17
763.486	0.01
763.663	-0.2
763.839	-0.04
764.015	-0.24
764.191	-0.17
764.368	-0.12
764.544	-0.11
764.72	-0.01
764.896	0.01
765.072	-0.07
765.248	-0.18
765.425	-0.17
765.601	-0.01
765.777	0.03
765.953	-0.26
766.129	-0.04
766.305	-0.1
766.481	0.11
766.657	-0.06
766.833	0.18
767.009	-0.31
767.185	-0.02
767.361	-0.04
767.537	-0.17
767.713	0.09
767.889	-0.09
768.065	0.02
768.24	-0.27
768.416	0.04
768.592	-0.19
768.768	-0.07
768.944	0.01
769.12	-0.19
769.295	-0.02
769.471	-0.11
769.647	-0.17
769.823	0.1
769.998	-0.18
770.174	-0.07
770.35	0.17
770.525	0.2
770.701	0
770.877	-0.18
771.052	-0.11
771.228	0.08
771.403	0.03
771.579	0.14
771.755	0.1
771.93	-0.01
772.106	-0.12
772.281	-0.18
772.457	0.02
772.632	-0.17
772.808	-0.24
772.983	-0.03
773.159	-0.26
773.334	0.08
773.509	-0.07
773.685	-0
773.86	0.18
774.036	0.12
774.211	-0.01
774.386	-0.16
774.562	-0.06
774.737	-0.16
774.912	-0.04
775.087	0.07
775.263	-0.09
775.438	0.02
775.613	-0.11
775.788	-0.06
775.964	0.1
776.139	0.14
776.314	-0.23
776.489	-0.02
776.664	-0.17
776.839	-0.2
777.014	0
777.19	0.08
777.365	0.07
777.54	0.14
777.715	-0.31
777.89	-0.22
778.065	-0.01
778.24	-0.03
778.415	0.05
778.59	-0.2
778.765	-0.17
778.94	-0.01
779.115	-0.21
779.289	-0.04
779.464	-0.21
779.639	-0.22
779.814	-0.21
779.989	-0.33
780.164	-0.01
780.339	0.03
780.513	-0.28
780.688	-0.25
780.863	-0.11
781.038	-0.01
781.212	-0.09
781.387	-0.12
781.562	0.02
781.737	-0.07
781.911	0.1
782.086	-0.15
782.261	-0.03
782.435	0.2
782.61	-0.1
782.784	0.09
782.959	0.05
783.134	-0.27
783.308	-0.26
783.483	-0.29
783.657	0.18
783.832	-0.14
784.006	-0.49
784.181	-0.07
784.355	0.11
784.53	-0.08
784.704	-0.26
784.878	0.37
785.053	-0.17
785.227	0.03
785.402	0.19
785.576	-0.4
785.75	-0.1
785.925	-0.1
786.099	0.1
786.273	-0.04
786.448	0.2
786.622	-0.01
786.796	-0.07
786.97	-0.27
787.145	0.18
787.319	-0.12
787.493	-0.28
787.667	-0.43
787.841	-0.31
788.015	0.11
788.19	-0.28
788.364	0.02
788.538	-0.01
788.712	0.08
788.886	-0.21
789.06	0.21
789.234	0.02
789.408	-0.22
789.582	-0.18
789.756	-0.06
789.93	-0.29
790.104	-0.15
790.278	-0.26
790.452	-0.2
790.626	0.21
790.8	-0.3
790.973	0.38
791.147	0.13
791.321	0.19
791.495	-0.04
791.669	-0.12
791.843	0.15
792.016	0.03
792.19	0.34
792.364	-0.38
792.538	0.23
792.711	0.14
792.885	-0.07
793.059	-0.33
793.233	-0.5
793.406	0.19
793.58	0.03
793.754	0.03
793.927	-0.01
794.101	0.08
794.274	-0.11
794.448	0.12
794.622	-0.16
794.795	-0
794.969	-0.15
795.142	0.08
795.316	-0.27
795.489	-0.1
795.663	0.2
795.836	-0.02
796.009	-0.29
796.183	0.28
796.356	0.09
796.53	-0.28
796.703	0.04
796.876	0.39
797.05	0.06
797.223	-0.1
797.396	0.07
797.57	-0.13
797.743	0.18
797.916	-0.1
798.09	-0.11
798.263	0.18
798.436	0.09
798.609	-0.19
798.782	-0.05
798.956	-0.1
799.129	-0.05
799.302	-0.22
799.475	-0.33
799.648	-0.17
799.821	-0.35
799.994	-0.06
800.167	-0.32
800.34	-0.17
800.514	0.06
800.687	-0.32
800.86	-0.05
801.033	-0.38
801.206	-0.18
801.379	-0.46
801.551	0.2
801.724	0.13
801.897	0.22
802.07	-0.08
802.243	-0.49
802.416	0.06
802.589	-0.32
802.762	0.04
802.935	-0.29
803.107	0.09
803.28	0.09
803.453	0.28
803.626	-0.45
803.798	-0.19
803.971	-0.55
804.144	-0.02
804.317	0.07
804.489	0.2
804.662	-0.48
804.835	0.07
805.007	-0.25
805.18	0.13
805.353	0.08
805.525	-0.3
805.698	-0.24
805.87	-0.09
806.043	-0
806.215	-0.38
806.388	-0.36
806.56	0.18
806.733	0.4
806.905	0.1
807.078	-0.34
807.25	-0.28
807.423	0.05
807.595	-0.17
807.768	0.03
807.94	0.31
808.112	-0.16
808.285	0.12
808.457	-0
808.629	0.02
808.802	-0.14
808.974	0.01
809.146	-0.02
809.318	-0.47
809.491	-0
809.663	0.17
809.835	-0.19
810.007	0.13
810.18	-0.33
810.352	-0.34
810.524	-0.12
810.696	-0.17
810.868	0.28
811.04	-0.02
811.212	-0.12
811.384	0.2
811.556	-0.41
811.728	-0.26
811.901	0.32
812.073	-0.38
812.245	-0.02
812.417	0.08
812.589	-1.03
812.76	-0.17
812.932	-0.04
813.104	0.14
813.276	0.27
813.448	0.08
813.62	-0.25
813.792	-0.06
813.964	-0.03
814.136	0.34
814.307	-0.12
814.479	-0.03
814.651	-0.07
814.823	0.49
814.995	-0.14
815.166	0.01
815.338	-0.6
815.51	-1.01
815.681	0.65
815.853	-0.17
816.025	-0.5
816.196	0.13
816.368	0.11
816.54	-0.42
816.711	-0.25
816.883	-0.1
817.054	0.72
817.226	-0.94
817.398	0.18
817.569	-0.23
817.741	-0.33
817.912	-0.2
818.084	-0.19
818.255	0.1
818.426	-0.38
818.598	-0
818.769	-0.31
818.941	-0.08
819.112	-0.04
819.283	0.37
819.455	-0.51
819.626	-0.13
819.798	0.14
819.969	-0.1
820.14	-0.32
820.311	-0.42
820.483	0.14
820.654	-0.14
820.825	-0.05
820.996	-0.23
821.168	-0.45
821.339	-0.22
821.51	-0.41
821.681	-0.48
821.852	-0.36
822.023	-0.39
822.195	-0.65
822.366	0.44
822.537	0.15
822.708	0.13
822.879	-0.09
823.05	0.13
823.221	0.04
823.392	0.07
823.563	-0.06
823.734	0.2
823.905	-0.32
824.076	-0.17
824.247	-0.65
824.418	-0.32
824.589	0.22
824.759	0.27
824.93	-0.35
825.101	-0.67
825.272	-0.11
825.443	0.21
825.614	0.4
825.784	-1.12
825.955	0.65
826.126	0.54
826.297	0.24
826.467	0.63
826.638	0.89
826.809	-1.31
826.98	0.01
827.15	-0.82
827.321	-0.07
827.492	0.31
827.662	0.09
827.833	0.59
828.003	0.1
828.174	-0.01
828.345	-0.86
828.515	0.13
828.686	0.01
828.856	0
829.027	-0.51
829.197	-0.35
829.368	0.01
829.538	-0.29
829.709	-0.22
829.879	0.08
830.049	-0.39
830.22	-0.16
830.39	-0.14
830.56	0.51
830.731	-0.27
830.901	-0.91
831.072	-0.32
831.242	0.22
831.412	-0.35
831.582	-0.43
831.753	-0.6
831.923	0.63
832.093	-0.46
832.263	-0.37
832.434	-0.47
832.604	-0.53
832.774	0.29
832.944	0.24
833.114	-0.48
833.284	0.28
833.454	-0.91
833.624	-0.49
833.795	-0.25
833.965	0.08
834.135	0.46
834.305	-0.77
834.475	-1.01
834.645	0
834.815	-0.59
834.985	-0.77
835.155	-0.04
835.325	-0.29
835.494	-0.06
835.664	0.26
835.834	-0.67
836.004	0.3
836.174	0.37
836.344	-0.29
836.514	-0.54
836.684	-0.52
836.853	-0.41
837.023	-0.03
837.193	-0.5
837.363	0.1
837.532	0.57
837.702	-0.73
837.872	-0.91
838.041	0.26
838.211	0.72
838.381	-1.03
838.55	-0.41
838.72	1.39
838.89	0.54
839.059	-0.04
839.229	-0.68
839.398	0.23
839.568	-0.62
839.738	0
839.907	0.33
840.077	0.33
840.246	-0.64
840.416	-0.55
840.585	-0.88
840.755	0.78
840.924	0.27
841.093	-0.83
841.263	-0.52
841.432	0.29
841.602	-1.39
841.771	-1.13
841.94	0.26
842.11	1.63
842.279	1
842.448	-0.24
842.617	-0.78
842.787	0.12
842.956	-0.96
843.125	0.37
843.294	0.24
843.464	0.71
843.633	-0.51
843.802	-1.19
843.971	-0.12
844.14	0.25
844.309	0.07
844.479	-0.76
844.648	-0.91
844.817	-0.41
844.986	0.24
845.155	-1.03
845.324	0.06
845.493	-0.39
845.662	-1.29
845.831	-0.34
846	0.76
846.169	0.3
846.338	0.29
846.507	0.29
846.676	0.48
846.844	-1.19
847.013	0.09
847.182	-0.2
847.351	-1.31
847.52	-0.2
847.689	0.31
847.858	-0.01
848.026	-0.93
848.195	-0.73
848.364	-0.31
848.533	-0.96
848.701	-1
848.87	-0.18
849.039	-0.21
849.207	-0.45
849.376	1.26
849.545	0.55
849.713	-1.27
849.882	-0.31
850.051	-0.48
850.219	-0.78
850.388	0.43
850.556	-0.95
850.725	-0.6
850.893	-0.21
851.062	-0.73
851.23	0.45
851.399	-1.08
851.567	-1.96
851.736	0.02
851.904	-1.03
852.073	-0.31
852.241	0.96
852.41	-0.8
852.578	-0.34
852.746	-1.34
852.915	0.88
853.083	-0.27
853.251	-1.77
853.42	-0.64
853.588	0.24
853.756	0.92
853.924	-1.14
854.093	-0.59
854.261	0.04
854.429	-1.82
854.597	-0.27
854.765	-1.17
854.934	0.13
855.102	0.09
855.27	-0.46
855.438	-0.31
855.606	0.23
855.774	-0.45
855.942	-1.5
856.11	-2.52
856.278	0.71
856.446	0.82
856.614	-0.97
856.782	-0.83
856.95	0.54
857.118	0.37
857.286	0.08
857.454	-1.5
857.622	0.19
857.79	-0.33
857.958	-1.92
858.126	-0.82
858.294	-1.72
858.462	-0.17
858.629	-0.94
858.797	-0.93
858.965	-0.56
859.133	0.2
859.301	-0.22
859.468	0.53
859.636	-1.54
859.804	0.3
859.971	0.09
860.139	-0.3
860.307	0.19
860.474	0.8
860.642	-1.31
860.81	-0.66
860.977	-0.96
861.145	0.15
861.313	-1.65
861.48	-0.58
861.648	0.65
861.815	-0.88
861.983	-1.1
862.15	0.18
862.318	-0.11
862.485	0.86
862.653	-0.31
862.82	-1.03
862.988	1.22
863.155	-0.14
863.322	-1.38
863.49	-1.74
863.657	-0.82
863.824	0.48
863.992	-0.37
864.159	-1.31
864.326	1.81
864.494	-0.66
864.661	1.72
864.828	-1.8
864.996	1.01
865.163	1.41
865.33	-0.07
865.497	-1.6
865.664	-1.33
865.832	-1.72
865.999	-1.69
866.166	-2.42
866.333	-1.32
866.5	-1.38
866.667	-1.63
866.834	-2.54
867.001	1.55
867.168	-1.49
867.335	-1.54
867.502	-1.08
867.669	1.14
867.836	1.4
868.003	-0.04
868.17	0.24
868.337	0.63
868.504	2.53
868.671	-0.56
868.838	-1.45
869.005	-1.08
869.172	-0.04
869.339	-0.56
869.505	0.02
869.672	-0.74
869.839	0.03
870.006	-1.93
870.173	-3.23
870.339	0.54
870.506	1.77
870.673	-1.97
870.84	-1.29
871.006	-0.04
871.173	0.42
871.34	-1.5
871.506	-0.94
871.673	0.34
871.839	-1.96
872.006	-0.73
872.173	-0.33
872.339	-1.98
872.506	0.37
872.672	-0.48
872.839	-1.84
873.005	0.2
873.172	2.47
873.338	-0.41
873.505	-0.78
873.671	-2.1
873.838	-0.08
874.004	-2.84
874.171	-1.33
874.337	-1.9
874.503	0.71
874.67	-1.24
874.836	-1.41
875.002	0.92
875.169	1.24
875.335	0.04
875.501	-1.38
875.668	0.97
875.834	-0.78
876	-1.01
876.166	0.43
876.332	0.29
876.499	2.17
876.665	-2.12
876.831	-0.47
876.997	1.67
877.163	-0.07
877.329	-1.72
877.495	-0.71
877.662	-0.45
877.828	1.32
877.994	-2.37
878.16	-2.86
878.326	-0.38
878.492	-2.18
878.658	-0.76
878.824	1.41
878.99	1.25
879.156	-2.25
879.322	0.77
879.487	-2.07
879.653	-0.88
879.819	-0.78
879.985	-1.2
880.151	1.05
880.317	-2.24
880.483	-0.99
880.648	0.04
880.814	-1.68
880.98	-0.35
881.146	-2.68
881.312	-1.57
881.477	0.44
881.643	1.19
881.809	2.62
881.974	-0.18
882.14	-0.97
882.306	-0.43
882.471	1.43
882.637	-2.25
882.803	-0.69
882.968	1.72
883.134	2.38
883.299	0.02
883.465	-1.49
883.63	0.51
883.796	1.61
883.961	0.17
884.127	0.54
884.292	-3.32
884.458	-2.56
884.623	-2.56
