Data from Apollo_Calib_20240827__AbsoluteIrradiance__629__09-38-00-128.txt Node

Date: Wed Aug 28 09:38:00 BST 2024
User: biology
Spectrometer: FLMT08252
Trigger mode: 0
Integration Time (sec): 5.000000E-1
Scans to average: 5
Electric dark correction enabled: true
Nonlinearity correction enabled: false
Boxcar width: 0
XAxis mode: Wavelengths
Number of Pixels in Spectrum: 3648
>>>>>Begin Spectral Data<<<<<
179.588	-0
179.809	-0
180.03	-0
180.251	-0
180.473	-0
180.694	0
180.915	0
181.136	-0
181.357	0
181.578	0
181.799	-0
182.02	-0
182.241	0
182.462	-0
182.683	0
182.904	-0
183.125	-0
183.346	0
183.567	0
183.788	-0
184.009	-0
184.23	0
184.451	0
184.672	-0
184.892	-0
185.113	0
185.334	0
185.555	-0
185.776	-0
185.996	0
186.217	-0
186.438	-0
186.659	-0
186.879	-0
187.1	-0
187.321	-0
187.541	-0
187.762	0
187.983	-0
188.203	-0
188.424	-0
188.644	-0
188.865	-0
189.086	-0
189.306	-0
189.527	0
189.747	0
189.968	-0
190.188	0
190.409	-0
190.629	0
190.849	-0
191.07	-0
191.29	0
191.511	-0
191.731	-0
191.951	-0
192.172	-0
192.392	-0
192.612	-0
192.833	-0
193.053	0
193.273	0
193.493	-0
193.714	0
193.934	-0
194.154	0
194.374	-0
194.594	0
194.815	-0
195.035	-0
195.255	-0
195.475	-0
195.695	0
195.915	-0
196.135	-0
196.355	0
196.575	0
196.795	0
197.015	-0
197.235	-0
197.455	-0
197.675	0
197.895	-0
198.115	-0
198.335	0
198.555	-0
198.775	0
198.995	0
199.214	0
199.434	-0
199.654	-0
199.874	-0
200.094	0.43
200.313	-0.49
200.533	-0.4
200.753	-1.42
200.973	0.66
201.192	0.11
201.412	-1.02
201.632	-0.66
201.851	0.39
202.071	-0.68
202.291	-0.62
202.51	-0.75
202.73	0.17
202.95	-0.53
203.169	-0.52
203.389	-0.23
203.608	-0.27
203.828	-0.73
204.047	-0.42
204.267	0.24
204.486	0.03
204.706	-0.15
204.925	-0.34
205.145	-0.34
205.364	0.16
205.583	0.54
205.803	-0.39
206.022	-0.58
206.242	-0.17
206.461	0.04
206.68	-0.36
206.9	0.05
207.119	0.06
207.338	0.6
207.557	-0.27
207.777	-0.12
207.996	-0.27
208.215	0.42
208.434	-0.12
208.654	-0.53
208.873	-0.09
209.092	0.46
209.311	-0.19
209.53	-0.46
209.749	-0.25
209.968	-0.17
210.187	-0.36
210.407	-0.55
210.626	-0.28
210.845	-0.27
211.064	-0.13
211.283	-0.23
211.502	0.14
211.721	-0.03
211.94	0.02
212.159	-0.03
212.377	0.07
212.596	0.35
212.815	-0
213.034	-0.05
213.253	0.14
213.472	0.28
213.691	-0.15
213.91	-0.12
214.128	-0.07
214.347	0.32
214.566	-0.36
214.785	-0.22
215.003	0.1
215.222	0.2
215.441	-0.02
215.66	-0.29
215.878	0.11
216.097	0.08
216.316	-0.42
216.534	-0.13
216.753	0.04
216.972	-0.18
217.19	-0.04
217.409	-0.11
217.627	-0.22
217.846	-0.16
218.064	-0.08
218.283	-0.16
218.501	0.33
218.72	0.25
218.938	-0.19
219.157	-0.1
219.375	0.13
219.594	0.15
219.812	-0.2
220.031	-0.19
220.249	0.21
220.467	0.2
220.686	-0.07
220.904	-0.15
221.122	-0.11
221.341	0.13
221.559	-0.15
221.777	-0.21
221.995	-0.01
222.214	0.05
222.432	-0.13
222.65	-0.06
222.868	-0.15
223.086	0.01
223.305	0.07
223.523	-0.13
223.741	0.23
223.959	-0.03
224.177	-0.19
224.395	-0.05
224.613	-0.03
224.831	0.01
225.049	-0.25
225.267	-0.1
225.485	-0.09
225.703	-0.03
225.921	-0.09
226.139	-0.06
226.357	0.15
226.575	-0.03
226.793	-0.18
227.011	0.18
227.229	0.08
227.447	0.13
227.665	-0.15
227.883	-0.23
228.1	0.02
228.318	-0.11
228.536	-0.23
228.754	-0.24
228.972	0.06
229.189	0.07
229.407	0.01
229.625	-0.13
229.843	0.02
230.06	0.14
230.278	-0.17
230.496	-0.08
230.713	-0
230.931	0.13
231.149	-0.06
231.366	-0.23
231.584	-0.07
231.801	0.25
232.019	-0.1
232.236	-0.25
232.454	-0.15
232.671	0.01
232.889	-0.01
233.106	-0.12
233.324	-0.12
233.541	-0
233.759	-0.09
233.976	-0.14
234.194	-0
234.411	0.02
234.628	-0.23
234.846	-0.09
235.063	-0.07
235.28	-0
235.498	-0.05
235.715	-0.06
235.932	-0.03
236.149	0.03
236.367	-0.11
236.584	0.06
236.801	-0.17
237.018	0.13
237.236	0.05
237.453	-0.19
237.67	0.12
237.887	-0
238.104	-0.09
238.321	-0.16
238.538	-0.15
238.755	0.14
238.973	-0.25
239.19	-0.07
239.407	0.03
239.624	-0.15
239.841	-0.18
240.058	-0.15
240.275	-0.04
240.492	-0.02
240.709	0
240.925	-0.17
241.142	0.01
241.359	-0.13
241.576	-0.09
241.793	-0.11
242.01	-0.09
242.227	0.06
242.444	-0.01
242.66	0.09
242.877	0.05
243.094	-0.12
243.311	-0.04
243.527	-0.13
243.744	0.02
243.961	0.07
244.178	-0.09
244.394	-0.04
244.611	0.09
244.828	0.06
245.044	-0.16
245.261	-0.12
245.477	0.08
245.694	-0.04
245.911	-0.02
246.127	-0
246.344	0.14
246.56	0.03
246.777	-0.1
246.993	-0.04
247.21	0.1
247.426	0.01
247.643	-0.16
247.859	-0.15
248.076	-0.06
248.292	0.09
248.508	-0.07
248.725	-0.04
248.941	-0.03
249.157	0.12
249.374	-0.09
249.59	-0.06
249.806	0.04
250.023	0
250.239	-0.08
250.455	-0.12
250.671	0.05
250.888	0.04
251.104	0.03
251.32	0.03
251.536	0
251.752	-0.02
251.969	0.03
252.185	0
252.401	0.1
252.617	-0
252.833	-0.07
253.049	-0.04
253.265	-0.07
253.481	-0.05
253.697	-0.05
253.913	-0.11
254.129	-0.01
254.345	0.04
254.561	-0.03
254.777	-0.05
254.993	0.06
255.209	-0.02
255.425	-0
255.641	-0.05
255.857	0.08
256.073	0
256.288	-0.1
256.504	-0.05
256.72	-0.03
256.936	0.04
257.152	-0.02
257.367	-0.07
257.583	-0.11
257.799	0.01
258.015	-0.09
258.23	-0.06
258.446	0.04
258.662	-0.03
258.877	-0.08
259.093	-0.06
259.309	-0
259.524	0.04
259.74	-0.09
259.955	-0.09
260.171	-0.01
260.387	-0.1
260.602	0.05
260.818	-0.02
261.033	-0.03
261.249	-0.06
261.464	-0.04
261.68	-0.1
261.895	0.02
262.11	0.01
262.326	-0.06
262.541	-0.15
262.757	0.02
262.972	-0.03
263.187	-0.02
263.403	-0.13
263.618	0.02
263.833	-0.08
264.049	-0.08
264.264	-0.03
264.479	0.05
264.694	0.05
264.91	-0.09
265.125	-0.06
265.34	0.04
265.555	0.14
265.77	0.05
265.986	-0
266.201	0.01
266.416	0.1
266.631	0.01
266.846	-0.03
267.061	-0.04
267.276	-0.02
267.491	-0.17
267.706	-0.03
267.921	0.04
268.136	-0.02
268.351	0
268.566	-0.07
268.781	0.01
268.996	0.04
269.211	0.01
269.426	-0.09
269.641	-0.03
269.856	-0
270.071	-0.06
270.285	-0.09
270.5	0.09
270.715	0.03
270.93	-0.04
271.145	0.01
271.359	0.03
271.574	-0.05
271.789	-0.01
272.004	-0.04
272.218	-0.04
272.433	0.04
272.648	-0.08
272.862	-0
273.077	-0.03
273.292	0.06
273.506	-0.07
273.721	-0.09
273.936	0.04
274.15	0.01
274.365	-0.06
274.579	0.03
274.794	0
275.008	0.01
275.223	-0.04
275.437	-0.06
275.652	0.03
275.866	0.01
276.081	-0.06
276.295	0.02
276.509	-0.05
276.724	-0.01
276.938	0.02
277.153	0.02
277.367	0.03
277.581	-0.06
277.796	-0.05
278.01	-0.09
278.224	-0.05
278.438	0.09
278.653	-0.08
278.867	-0.08
279.081	0.02
279.295	-0.04
279.51	-0.03
279.724	-0.08
279.938	0.04
280.152	-0.02
280.366	-0.01
280.58	-0.02
280.794	0.1
281.008	-0.06
281.222	0
281.437	0.1
281.651	0.05
281.865	0.06
282.079	-0.05
282.293	-0.08
282.507	-0.05
282.721	-0.01
282.935	-0.03
283.148	-0.04
283.362	-0.05
283.576	-0.06
283.79	-0.05
284.004	-0.04
284.218	0.08
284.432	-0.06
284.646	-0.04
284.859	-0.04
285.073	-0.05
285.287	-0.04
285.501	-0.04
285.714	-0.03
285.928	-0.03
286.142	-0.01
286.356	-0.01
286.569	-0.01
286.783	0.08
286.997	0.06
287.21	0
287.424	0.01
287.637	-0.03
287.851	-0.02
288.065	0.07
288.278	-0.02
288.492	0.04
288.705	-0
288.919	0
289.132	-0.05
289.346	0.04
289.559	-0.13
289.773	-0.09
289.986	-0.02
290.2	-0.03
290.413	0.05
290.626	-0.04
290.84	-0.07
291.053	-0.01
291.267	0.04
291.48	-0.02
291.693	-0.01
291.906	-0.05
292.12	-0.06
292.333	-0.04
292.546	-0.03
292.76	0.09
292.973	-0.03
293.186	0.03
293.399	-0.02
293.612	0.06
293.826	0.01
294.039	-0.04
294.252	0.06
294.465	0.06
294.678	0.02
294.891	0.04
295.104	-0.07
295.317	-0.05
295.53	-0.02
295.743	-0.06
295.956	-0.02
296.169	0.06
296.382	0.03
296.595	-0.03
296.808	-0.05
297.021	0.02
297.234	0.02
297.447	-0.06
297.66	-0.02
297.873	0.07
298.086	0.03
298.299	-0.06
298.511	-0.05
298.724	-0.01
298.937	-0.06
299.15	-0.04
299.363	-0
299.575	0.05
299.788	0.03
300.001	-0.01
300.213	-0.08
300.426	0.01
300.639	-0.06
300.852	-0.04
301.064	-0
301.277	-0
301.489	-0.01
301.702	0.02
301.915	-0.04
302.127	-0.03
302.34	0.01
302.552	-0.01
302.765	0.01
302.977	0.01
303.19	-0.06
303.402	-0.04
303.615	0.01
303.827	-0.05
304.04	-0.08
304.252	0
304.464	-0.01
304.677	0.09
304.889	0.06
305.102	-0.08
305.314	-0.05
305.526	0.01
305.739	0.03
305.951	-0.04
306.163	-0.02
306.375	0.06
306.588	-0.05
306.8	-0.03
307.012	-0.04
307.224	0.02
307.436	0.1
307.649	-0.07
307.861	-0
308.073	0.02
308.285	-0.01
308.497	-0.1
308.709	-0.04
308.921	0.05
309.133	0.02
309.346	-0.02
309.558	-0.03
309.77	0.04
309.982	0.07
310.194	0.04
310.406	-0.05
310.617	0.06
310.829	0.02
311.041	0.01
311.253	-0.07
311.465	-0.03
311.677	-0.01
311.889	-0
312.101	-0.04
312.313	0.01
312.524	0
312.736	-0.04
312.948	-0.05
313.16	0.09
313.372	0.06
313.583	0.02
313.795	-0.02
314.007	-0.02
314.218	0.02
314.43	-0
314.642	-0.02
314.853	-0.05
315.065	0
315.277	-0.03
315.488	-0
315.7	0.05
315.912	0.04
316.123	-0.01
316.335	0.02
316.546	0.08
316.758	-0.04
316.969	-0.05
317.181	-0.04
317.392	-0.03
317.604	0.04
317.815	-0.05
318.026	-0.05
318.238	-0.04
318.449	-0.01
318.661	-0.05
318.872	-0.04
319.083	-0.08
319.295	0.01
319.506	-0
319.717	-0.01
319.929	-0.02
320.14	-0.01
320.351	-0.02
320.562	-0.04
320.774	0.01
320.985	0.02
321.196	-0.09
321.407	-0.1
321.618	0.01
321.829	-0.02
322.041	0.03
322.252	0.01
322.463	0.03
322.674	0.03
322.885	-0.04
323.096	-0.01
323.307	-0.03
323.518	0
323.729	-0.03
323.94	-0.05
324.151	-0.04
324.362	-0.02
324.573	0.01
324.784	-0.07
324.995	0.04
325.206	0.01
325.417	-0.01
325.628	0
325.838	-0.02
326.049	-0.03
326.26	-0
326.471	-0.03
326.682	0.01
326.892	-0.01
327.103	-0.07
327.314	-0.03
327.525	0.03
327.735	-0.03
327.946	-0.01
328.157	-0.04
328.368	-0
328.578	-0.05
328.789	0.02
328.999	-0.05
329.21	-0.01
329.421	0.03
329.631	-0.08
329.842	-0.05
330.052	0.03
330.263	0.01
330.473	0.02
330.684	0.02
330.894	-0.08
331.105	-0.03
331.315	-0.04
331.526	-0.07
331.736	0.04
331.947	0.03
332.157	-0.01
332.367	-0.03
332.578	0.02
332.788	0.03
332.999	0.06
333.209	-0
333.419	-0.05
333.629	0.01
333.84	-0.01
334.05	-0.01
334.26	0.04
334.47	0.01
334.681	0.05
334.891	-0.03
335.101	-0.02
335.311	0.05
335.521	-0.02
335.732	-0.06
335.942	0.06
336.152	0.01
336.362	-0.02
336.572	0.02
336.782	0.03
336.992	-0.04
337.202	-0.05
337.412	-0.08
337.622	-0
337.832	-0.04
338.042	0
338.252	-0.03
338.462	-0.06
338.672	-0.02
338.882	-0.03
339.092	-0.05
339.302	0.1
339.511	0.01
339.721	-0.01
339.931	-0.05
340.141	0.06
340.351	0.02
340.561	-0.01
340.77	-0.04
340.98	0.02
341.19	0.02
341.4	-0.07
341.609	-0.05
341.819	-0.02
342.029	-0.1
342.238	-0.01
342.448	-0.06
342.658	0
342.867	-0.01
343.077	0.02
343.286	-0
343.496	-0.01
343.706	0.01
343.915	-0.04
344.125	-0.03
344.334	0.03
344.544	-0.09
344.753	-0.01
344.963	-0.04
345.172	-0.01
345.381	-0.03
345.591	-0.1
345.8	-0
346.01	0.04
346.219	0.02
346.428	-0.15
346.638	-0.01
346.847	-0.01
347.056	0.08
347.266	-0.08
347.475	-0.01
347.684	0.02
347.893	0.02
348.103	0.01
348.312	-0.04
348.521	-0.05
348.73	-0.02
348.94	0.02
349.149	-0.04
349.358	-0.04
349.567	-0.05
349.776	0.01
349.985	-0.01
350.194	-0.01
350.403	0.05
350.612	-0.08
350.821	-0.03
351.03	-0.02
351.239	-0.05
351.448	-0
351.657	-0.03
351.866	0.07
352.075	-0.01
352.284	0.04
352.493	-0.06
352.702	0.06
352.911	-0
353.12	0.01
353.329	-0.06
353.538	0.01
353.746	-0
353.955	-0.03
354.164	0.03
354.373	-0.03
354.582	0.01
354.79	-0.05
354.999	0.04
355.208	-0.04
355.416	0.05
355.625	-0.04
355.834	-0.04
356.042	-0.01
356.251	-0.06
356.46	-0.04
356.668	0
356.877	0.03
357.085	0
357.294	-0.11
357.503	0.02
357.711	-0.02
357.92	0.1
358.128	-0.01
358.337	-0.02
358.545	0.01
358.754	-0.02
358.962	0.01
359.17	-0.02
359.379	0.03
359.587	0.02
359.796	-0.01
360.004	0.04
360.212	0.01
360.421	0
360.629	-0.02
360.837	-0.03
361.046	0.03
361.254	0.08
361.462	-0.03
361.67	-0
361.879	-0
362.087	0.06
362.295	-0.03
362.503	-0.02
362.711	-0.03
362.92	0.02
363.128	-0.03
363.336	-0.09
363.544	-0.06
363.752	-0.06
363.96	-0.04
364.168	-0
364.376	-0.01
364.584	0
364.792	0.03
365	-0
365.208	-0.02
365.416	0.02
365.624	0.04
365.832	-0.02
366.04	0.05
366.248	0.01
366.456	0.03
366.664	0.04
366.872	-0.01
367.079	-0
367.287	0.01
367.495	-0
367.703	-0.03
367.911	-0.02
368.118	-0.01
368.326	-0
368.534	-0.03
368.742	0.03
368.949	-0.05
369.157	-0.05
369.365	0.04
369.572	-0.05
369.78	-0.03
369.988	0.03
370.195	0.02
370.403	-0.01
370.61	-0.05
370.818	0
371.026	0.03
371.233	-0.08
371.441	-0
371.648	-0.04
371.856	0.02
372.063	0.07
372.271	-0.01
372.478	-0.03
372.685	-0.04
372.893	0
373.1	0.01
373.308	-0.02
373.515	0.07
373.722	0.05
373.93	-0.05
374.137	0
374.344	0.01
374.552	0
374.759	0.04
374.966	0.02
375.173	-0.05
375.381	0.05
375.588	-0.01
375.795	-0.07
376.002	0.01
376.209	-0.02
376.417	-0.02
376.624	-0.05
376.831	0.01
377.038	-0.07
377.245	-0.12
377.452	-0.03
377.659	-0.02
377.866	-0.05
378.073	0.01
378.28	-0.02
378.487	0.04
378.694	0.03
378.901	-0.05
379.108	0
379.315	-0.01
379.522	0.07
379.729	0.01
379.936	0
380.143	-0.03
380.35	-0.02
380.557	-0.05
380.763	-0
380.97	-0.02
381.177	0.01
381.384	0.04
381.591	-0.05
381.797	0.02
382.004	0
382.211	0.01
382.418	-0.05
382.624	0.05
382.831	0.04
383.038	-0.04
383.244	0.01
383.451	0
383.658	0.01
383.864	-0.04
384.071	-0.03
384.277	0.07
384.484	-0.02
384.69	0.01
384.897	-0.03
385.103	-0.02
385.31	-0.02
385.516	-0.03
385.723	-0.05
385.929	-0.03
386.136	-0.04
386.342	-0
386.549	-0
386.755	0.03
386.961	0.01
387.168	-0.04
387.374	-0.01
387.58	0.03
387.787	-0
387.993	-0
388.199	-0.02
388.406	-0.01
388.612	-0.02
388.818	-0
389.024	-0.07
389.231	-0
389.437	0.05
389.643	-0.05
389.849	-0.03
390.055	0.05
390.261	0.02
390.467	0.01
390.674	-0.02
390.88	-0.01
391.086	-0.02
391.292	-0.04
391.498	0.04
391.704	-0.04
391.91	-0.04
392.116	-0.03
392.322	-0.08
392.528	0.01
392.734	-0.03
392.94	0.02
393.146	-0.03
393.352	0.04
393.557	-0.03
393.763	-0.03
393.969	0
394.175	-0.01
394.381	0.01
394.587	-0.04
394.792	-0.01
394.998	-0.03
395.204	0.08
395.41	-0.06
395.615	0.01
395.821	-0
396.027	-0.03
396.233	-0.07
396.438	-0.04
396.644	0.04
396.85	-0.02
397.055	-0.06
397.261	0.01
397.466	-0.03
397.672	0.03
397.878	0.01
398.083	-0.02
398.289	-0.04
398.494	0.06
398.7	-0.02
398.905	-0.1
399.111	0.06
399.316	-0.05
399.522	-0.01
399.727	-0.02
399.932	0.01
400.138	-0.09
400.343	-0
400.549	-0
400.754	0.02
400.959	0.01
401.165	0.01
401.37	-0.03
401.575	0.08
401.78	-0.05
401.986	-0.04
402.191	-0.04
402.396	-0.04
402.601	0.04
402.807	0
403.012	-0
403.217	0.02
403.422	0.01
403.627	-0.01
403.832	-0.03
404.037	0.01
404.243	-0.02
404.448	-0.06
404.653	-0.05
404.858	0.01
405.063	0.02
405.268	-0.06
405.473	-0.07
405.678	-0.06
405.883	0.13
406.088	0.03
406.293	-0
406.498	-0.03
406.703	-0.02
406.907	0
407.112	-0.08
407.317	-0.02
407.522	0.02
407.727	-0.11
407.932	-0.08
408.136	0.06
408.341	-0.01
408.546	0
408.751	-0.03
408.956	-0.02
409.16	0.02
409.365	-0.04
409.57	-0.04
409.774	0.01
409.979	0.02
410.184	0.02
410.388	-0.01
410.593	0.03
410.798	-0.04
411.002	-0.06
411.207	-0.01
411.411	0.04
411.616	-0.12
411.82	-0.04
412.025	0.02
412.229	-0.08
412.434	0.05
412.638	-0.02
412.843	-0.03
413.047	-0.02
413.252	-0.12
413.456	-0.05
413.66	0
413.865	-0.02
414.069	0.06
414.273	-0.01
414.478	-0.03
414.682	-0.07
414.886	-0.05
415.091	-0.1
415.295	-0.07
415.499	0.02
415.703	-0.04
415.908	0.04
416.112	-0.08
416.316	0
416.52	-0.02
416.724	-0.03
416.929	-0.05
417.133	0.1
417.337	-0.02
417.541	-0.05
417.745	-0
417.949	-0.04
418.153	0
418.357	-0.03
418.561	0.03
418.765	0.01
418.969	0.11
419.173	-0.01
419.377	-0.02
419.581	0.07
419.785	-0.05
419.989	-0.05
420.193	-0.07
420.397	-0.04
420.601	0.05
420.804	0
421.008	-0.01
421.212	0.02
421.416	-0
421.62	-0.07
421.823	-0.04
422.027	0.05
422.231	0.02
422.435	-0.02
422.638	-0.02
422.842	-0.01
423.046	-0.06
423.249	0.02
423.453	0
423.657	-0.02
423.86	-0.05
424.064	-0.01
424.268	0.06
424.471	-0.02
424.675	0.01
424.878	0.03
425.082	-0.01
425.285	0.02
425.489	-0.02
425.692	0.02
425.896	-0.06
426.099	-0.01
426.303	-0.06
426.506	-0.06
426.71	-0.01
426.913	0.02
427.116	0.02
427.32	0.01
427.523	0
427.726	0.04
427.93	-0.07
428.133	-0.06
428.336	-0.03
428.54	-0.03
428.743	-0.01
428.946	0.01
429.149	-0.04
429.353	-0.02
429.556	-0.01
429.759	-0.05
429.962	-0.05
430.165	-0.03
430.368	-0.01
430.571	-0.07
430.775	-0
430.978	-0.03
431.181	0.01
431.384	-0.01
431.587	-0.08
431.79	0.01
431.993	-0.02
432.196	-0.01
432.399	-0.07
432.602	0.08
432.805	-0.01
433.008	-0.05
433.211	-0.08
433.414	0.04
433.616	0.01
433.819	0.01
434.022	-0.09
434.225	0.06
434.428	0.02
434.631	0.07
434.833	0.01
435.036	-0.03
435.239	0.05
435.442	-0.01
435.645	-0.01
435.847	-0.04
436.05	0.02
436.253	0.02
436.455	-0.01
436.658	-0.02
436.861	0
437.063	-0.02
437.266	-0.02
437.468	0.04
437.671	0.08
437.874	-0.07
438.076	-0.04
438.279	-0.1
438.481	0.02
438.684	-0.09
438.886	0.03
439.089	-0.13
439.291	-0.06
439.494	0.03
439.696	-0.07
439.899	-0.09
440.101	-0
440.303	-0.1
440.506	0.01
440.708	-0.02
440.91	0.02
441.113	-0.08
441.315	-0.01
441.517	-0.08
441.72	0.04
441.922	-0.03
442.124	-0.05
442.326	-0.01
442.529	0.03
442.731	-0.06
442.933	0.1
443.135	-0.04
443.337	-0.09
443.539	-0.01
443.742	-0.01
443.944	-0.02
444.146	-0.01
444.348	-0.05
444.55	-0.05
444.752	-0.03
444.954	-0.04
445.156	-0.02
445.358	-0.07
445.56	-0.01
445.762	-0.03
445.964	0
446.166	-0.07
446.368	-0.08
446.57	0.03
446.772	0.01
446.974	-0.04
447.175	-0.03
447.377	-0.01
447.579	-0.02
447.781	-0.12
447.983	0.01
448.184	-0.06
448.386	-0.04
448.588	-0.07
448.79	-0.08
448.991	0.01
449.193	-0.04
449.395	-0
449.597	0.02
449.798	-0.03
450	0.03
450.202	-0.04
450.403	-0.07
450.605	-0
450.806	-0.02
451.008	-0.07
451.21	0.03
451.411	0.02
451.613	-0.04
451.814	-0.01
452.016	-0.01
452.217	0.03
452.419	0.03
452.62	-0.03
452.821	0.02
453.023	0.08
453.224	0.02
453.426	-0.05
453.627	-0.03
453.828	0.03
454.03	0
454.231	0.03
454.432	-0.03
454.634	0.06
454.835	-0.06
455.036	-0.08
455.238	0.05
455.439	0.05
455.64	-0.1
455.841	-0.06
456.042	0.07
456.244	0.02
456.445	-0.05
456.646	-0.07
456.847	-0.07
457.048	-0.01
457.249	0.01
457.45	0.11
457.651	-0.06
457.852	-0.06
458.054	0.01
458.255	0.01
458.456	0.01
458.657	0.02
458.858	-0.03
459.058	-0.01
459.259	0.06
459.46	-0.06
459.661	-0.02
459.862	0.09
460.063	-0.03
460.264	-0
460.465	-0.05
460.666	0.07
460.866	-0.09
461.067	0.01
461.268	-0.01
461.469	-0.05
461.67	-0.01
461.87	-0.03
462.071	-0.09
462.272	0
462.473	-0.01
462.673	0
462.874	-0.06
463.075	0.01
463.275	-0.05
463.476	0.06
463.676	-0
463.877	0
464.078	-0.03
464.278	0.02
464.479	-0
464.679	-0.04
464.88	0.01
465.08	0.07
465.281	-0.05
465.481	-0.01
465.682	-0.02
465.882	0.01
466.083	0.01
466.283	-0.05
466.483	-0.03
466.684	-0.06
466.884	-0.06
467.085	-0.04
467.285	0.05
467.485	-0.07
467.686	-0.01
467.886	-0.05
468.086	-0.02
468.286	-0.02
468.487	0.01
468.687	-0.07
468.887	-0.06
469.087	0.03
469.287	-0.01
469.488	-0.03
469.688	0.02
469.888	0.03
470.088	0.03
470.288	0.01
470.488	0.02
470.688	-0.04
470.888	-0.02
471.088	-0.06
471.288	0.04
471.488	0.02
471.688	-0
471.888	-0.04
472.088	0.03
472.288	0.01
472.488	-0.06
472.688	-0.04
472.888	-0.03
473.088	-0.01
473.288	-0.03
473.488	-0.03
473.688	0.03
473.887	-0.03
474.087	-0.03
474.287	0.03
474.487	-0.05
474.687	0
474.886	-0.01
475.086	-0.02
475.286	-0.03
475.486	-0.03
475.685	-0.02
475.885	-0.04
476.085	-0.01
476.284	-0.02
476.484	-0.05
476.684	0.01
476.883	0.04
477.083	-0
477.282	-0.03
477.482	0.05
477.681	0.04
477.881	-0
478.08	-0.02
478.28	-0.04
478.479	-0.02
478.679	0.06
478.878	-0.01
479.078	-0.05
479.277	-0.02
479.477	0.02
479.676	0.02
479.875	-0.01
480.075	-0.08
480.274	0.03
480.473	-0
480.673	-0.04
480.872	0.02
481.071	-0.01
481.271	0
481.47	-0
481.669	0.01
481.868	-0.01
482.067	-0.05
482.267	-0.03
482.466	-0.05
482.665	-0.03
482.864	-0.04
483.063	-0.03
483.262	0.01
483.461	0.05
483.661	0.04
483.86	-0.01
484.059	0
484.258	-0.01
484.457	-0.03
484.656	-0.01
484.855	0.05
485.054	-0.06
485.253	-0.03
485.452	-0.02
485.651	-0.01
485.849	-0.02
486.048	-0.04
486.247	-0.03
486.446	-0.01
486.645	-0.04
486.844	-0.03
487.043	-0.03
487.241	0.01
487.44	-0.04
487.639	-0.02
487.838	0
488.037	-0
488.235	0.03
488.434	-0
488.633	-0.02
488.831	0
489.03	0.01
489.229	0.01
489.427	-0.02
489.626	0.03
489.825	0.05
490.023	-0.03
490.222	-0.02
490.42	0.02
490.619	-0
490.817	-0.01
491.016	-0.03
491.214	0.02
491.413	-0.01
491.611	-0.01
491.81	-0.03
492.008	-0
492.207	0.02
492.405	-0.01
492.604	-0.04
492.802	-0.02
493	-0.02
493.199	-0.03
493.397	-0.02
493.595	-0.04
493.794	-0.03
493.992	0.02
494.19	0
494.388	-0.01
494.587	-0.01
494.785	-0.02
494.983	-0.04
495.181	-0
495.379	0.01
495.578	0.01
495.776	0.01
495.974	0.02
496.172	-0.03
496.37	-0.02
496.568	-0.05
496.766	-0.05
496.964	-0
497.162	-0.03
497.36	-0.05
497.558	-0
497.756	0.01
497.954	-0.01
498.152	-0.04
498.35	-0.01
498.548	-0.02
498.746	-0.01
498.944	-0.01
499.142	-0.03
499.34	-0.03
499.538	0.01
499.736	-0.05
499.933	0.01
500.131	0.02
500.329	-0.03
500.527	0.01
500.725	0.03
500.922	0.02
501.12	-0.01
501.318	0.02
501.516	-0.02
501.713	0.01
501.911	-0.01
502.109	-0.02
502.306	0.02
502.504	-0.04
502.701	-0.03
502.899	-0.01
503.097	0.04
503.294	-0
503.492	-0.02
503.689	-0.02
503.887	0.01
504.084	0.03
504.282	0.01
504.479	-0.04
504.677	-0
504.874	-0.02
505.072	-0.01
505.269	-0.01
505.466	-0.01
505.664	-0.01
505.861	-0.03
506.059	-0.04
506.256	0.01
506.453	-0.04
506.651	0.03
506.848	-0
507.045	-0
507.242	0.01
507.44	-0.01
507.637	0
507.834	-0.03
508.031	0.01
508.229	-0.03
508.426	-0.01
508.623	0.01
508.82	-0.02
509.017	-0.04
509.214	-0.02
509.411	-0.01
509.608	-0.03
509.805	-0.01
510.003	-0.04
510.2	-0.02
510.397	0.03
510.594	-0.02
510.791	-0.04
510.988	-0.03
511.184	0.03
511.381	-0
511.578	-0.03
511.775	0.01
511.972	-0.03
512.169	-0.02
512.366	-0
512.563	0.02
512.76	-0.02
512.956	0.03
513.153	-0.02
513.35	0
513.547	-0.03
513.744	-0.02
513.94	-0.04
514.137	0.02
514.334	0.01
514.53	-0.02
514.727	0.01
514.924	0.03
515.12	-0
515.317	-0.04
515.514	-0.01
515.71	-0.02
515.907	-0.01
516.103	-0.01
516.3	0.03
516.497	0.02
516.693	0.02
516.89	-0.01
517.086	-0.02
517.283	0.04
517.479	-0.01
517.676	-0.03
517.872	-0
518.068	-0.01
518.265	-0.01
518.461	-0.01
518.658	-0.03
518.854	-0.02
519.05	-0.02
519.247	-0.03
519.443	0
519.639	-0
519.836	-0.02
520.032	-0
520.228	-0
520.424	0.03
520.621	0.01
520.817	-0.01
521.013	-0.01
521.209	-0.01
521.405	0.05
521.601	-0
521.798	-0.02
521.994	0.04
522.19	-0.03
522.386	-0.05
522.582	-0.01
522.778	-0.02
522.974	-0.02
523.17	0.01
523.366	-0.02
523.562	0.02
523.758	0
523.954	-0.03
524.15	-0.02
524.346	0.02
524.542	-0.02
524.738	-0.02
524.934	-0
525.129	-0.02
525.325	0.01
525.521	-0.02
525.717	-0.01
525.913	-0
526.109	-0.03
526.304	-0.02
526.5	-0.01
526.696	0.01
526.892	-0.02
527.087	-0.01
527.283	-0.03
527.479	0.02
527.674	-0.01
527.87	-0.02
528.066	-0.01
528.261	-0.01
528.457	-0.02
528.653	-0
528.848	-0.01
529.044	-0
529.239	-0.01
529.435	0.01
529.63	-0
529.826	0.04
530.021	0
530.217	0
530.412	-0.04
530.608	-0.02
530.803	0.01
530.999	-0.01
531.194	-0.05
531.389	-0.01
531.585	-0.05
531.78	-0.01
531.975	-0.01
532.171	0.01
532.366	-0.02
532.561	0
532.757	-0.05
532.952	-0
533.147	0.01
533.342	0
533.538	-0.02
533.733	0.01
533.928	-0.01
534.123	-0.01
534.318	-0.04
534.513	-0.01
534.709	-0.01
534.904	-0.01
535.099	-0.01
535.294	-0.01
535.489	-0.02
535.684	-0.01
535.879	-0.04
536.074	0
536.269	-0.03
536.464	-0
536.659	-0.01
536.854	-0.02
537.049	-0.01
537.244	-0.01
537.439	-0.04
537.634	0.01
537.828	-0.02
538.023	-0.01
538.218	-0.05
538.413	-0
538.608	-0.03
538.803	0.01
538.997	-0.03
539.192	0.04
539.387	0.01
539.582	-0.01
539.776	0.01
539.971	-0.02
540.166	-0.02
540.36	-0.01
540.555	-0.01
540.75	-0.02
540.944	-0
541.139	-0.03
541.334	-0.01
541.528	-0.01
541.723	0
541.917	-0.02
542.112	-0.03
542.306	-0.03
542.501	-0.03
542.695	0.01
542.89	-0.03
543.084	-0.01
543.279	-0.02
543.473	-0.03
543.668	-0.01
543.862	0
544.056	0.02
544.251	0
544.445	0.02
544.64	-0
544.834	-0.03
545.028	-0
545.222	-0.01
545.417	0.03
545.611	-0.01
545.805	-0.01
546	-0.01
546.194	-0.03
546.388	-0.02
546.582	-0
546.776	-0.03
546.97	-0.01
547.165	0.01
547.359	0.02
547.553	-0.04
547.747	0
547.941	0.01
548.135	-0.01
548.329	0.02
548.523	-0
548.717	-0.01
548.911	-0.01
549.105	0
549.299	-0.01
549.493	0.02
549.687	0.01
549.881	-0
550.075	-0
550.269	-0.06
550.463	0.01
550.657	-0.03
550.85	-0.02
551.044	-0.03
551.238	-0.01
551.432	-0.01
551.626	-0.03
551.82	-0.02
552.013	-0.04
552.207	-0
552.401	-0
552.594	-0.01
552.788	-0.03
552.982	-0.01
553.176	-0.04
553.369	0.01
553.563	0.02
553.756	-0.04
553.95	-0.04
554.144	-0.02
554.337	0.01
554.531	0.02
554.724	-0.01
554.918	-0.02
555.111	0.02
555.305	-0.02
555.498	0.04
555.692	0.01
555.885	-0.03
556.079	-0
556.272	-0.02
556.466	0.03
556.659	-0
556.852	-0.02
557.046	-0
557.239	0.03
557.432	-0.03
557.626	-0.03
557.819	-0
558.012	0.01
558.206	0.02
558.399	0
558.592	-0
558.785	-0.02
558.979	0.01
559.172	0.01
559.365	-0
559.558	0.01
559.751	-0
559.944	0
560.138	-0.02
560.331	-0.02
560.524	-0.03
560.717	-0.01
560.91	-0.02
561.103	-0
561.296	0.01
561.489	-0.01
561.682	0.01
561.875	0.02
562.068	0.01
562.261	-0.01
562.454	0.04
562.647	0
562.84	-0.02
563.032	-0.02
563.225	0
563.418	-0.01
563.611	-0.01
563.804	-0.02
563.997	-0.02
564.19	-0.02
564.382	-0.06
564.575	-0.01
564.768	-0.03
564.961	-0
565.153	-0.04
565.346	0
565.539	0.02
565.731	0.02
565.924	0.02
566.117	0.01
566.309	0.01
566.502	-0.02
566.695	-0.03
566.887	0
567.08	-0.04
567.272	-0.03
567.465	-0.04
567.657	-0.01
567.85	0
568.042	-0
568.235	0.03
568.427	-0.01
568.62	-0.01
568.812	0
569.005	-0.02
569.197	-0.04
569.389	-0.01
569.582	-0
569.774	0.02
569.966	-0.07
570.159	-0.06
570.351	-0.02
570.543	-0.02
570.736	-0
570.928	-0.03
571.12	0.01
571.312	-0
571.505	-0.03
571.697	0.02
571.889	-0.05
572.081	-0.02
572.273	-0.04
572.465	0.03
572.658	0
572.85	0.01
573.042	-0.03
573.234	-0.01
573.426	0.02
573.618	-0.05
573.81	0.03
574.002	0.01
574.194	0.05
574.386	-0.07
574.578	-0.1
574.77	-0.03
574.962	-0.02
575.154	-0.06
575.346	-0.01
575.538	-0.02
575.729	-0.01
575.921	-0.02
576.113	-0.02
576.305	0.01
576.497	-0
576.689	-0.02
576.88	-0.03
577.072	0
577.264	-0.01
577.456	-0.02
577.647	-0.08
577.839	-0.02
578.031	0.03
578.223	-0.04
578.414	-0.05
578.606	-0.01
578.798	0
578.989	-0.02
579.181	-0.03
579.372	0
579.564	-0
579.755	0
579.947	0.01
580.139	0.01
580.33	-0.07
580.522	-0.04
580.713	-0.08
580.905	-0.01
581.096	-0.01
581.287	-0.01
581.479	-0.02
581.67	-0.02
581.862	0
582.053	-0.03
582.244	-0.04
582.436	0.01
582.627	-0.03
582.818	-0.04
583.01	-0.06
583.201	-0
583.392	0.02
583.583	0
583.775	-0.02
583.966	-0.02
584.157	-0.04
584.348	-0.03
584.54	-0.06
584.731	-0
584.922	-0.02
585.113	-0.04
585.304	-0.01
585.495	0.02
585.686	-0.02
585.877	0.01
586.068	-0.01
586.259	0.01
586.45	-0.01
586.641	-0.03
586.832	-0.06
587.023	-0
587.214	-0.02
587.405	-0.02
587.596	-0.04
587.787	0.01
587.978	0
588.169	-0.05
588.36	-0.04
588.551	-0
588.742	-0.05
588.932	-0.01
589.123	-0.03
589.314	-0.01
589.505	0.01
589.696	-0.01
589.886	-0.03
590.077	-0.05
590.268	-0
590.458	-0.05
590.649	-0.05
590.84	-0.01
591.03	-0.04
591.221	-0.05
591.412	-0.05
591.602	0.01
591.793	0.02
591.984	-0.03
592.174	-0.02
592.365	0.02
592.555	-0.05
592.746	0.02
592.936	-0
593.127	0.01
593.317	0.04
593.508	-0.03
593.698	-0.05
593.889	-0.01
594.079	-0.02
594.269	-0.03
594.46	-0
594.65	-0.02
594.84	-0.02
595.031	-0.04
595.221	-0.01
595.411	-0.05
595.602	0.01
595.792	0.01
595.982	-0.02
596.172	0.03
596.363	0.01
596.553	-0.02
596.743	-0.04
596.933	-0.01
597.123	0.03
597.314	-0.04
597.504	-0.04
597.694	0.04
597.884	-0.01
598.074	-0.01
598.264	-0.04
598.454	-0
598.644	-0.03
598.834	0
599.024	-0.05
599.214	-0.01
599.404	0
599.594	-0.02
599.784	-0.01
599.974	0.04
600.164	0.02
600.354	-0.05
600.544	-0.05
600.734	0
600.924	0
601.114	-0.04
601.303	-0.01
601.493	-0.03
601.683	-0.02
601.873	0.01
602.063	-0.05
602.252	0.01
602.442	-0.08
602.632	-0.03
602.821	-0.03
603.011	-0.01
603.201	-0.03
603.39	-0.05
603.58	-0.06
603.77	-0.01
603.959	0.01
604.149	-0.02
604.339	-0.04
604.528	0.04
604.718	0.02
604.907	-0.03
605.097	-0.02
605.286	-0.04
605.476	0
605.665	0.01
605.855	-0
606.044	0.04
606.234	0.01
606.423	-0.02
606.612	-0.03
606.802	0.01
606.991	-0.01
607.181	-0.02
607.37	-0.03
607.559	-0.02
607.749	-0.07
607.938	-0.03
608.127	-0
608.316	-0.03
608.506	0.01
608.695	-0.03
608.884	-0.02
609.073	-0.01
609.263	-0.01
609.452	0.02
609.641	-0.02
609.83	-0.07
610.019	-0.01
610.208	-0.03
610.397	0.01
610.586	0.06
610.775	-0.04
610.965	-0.05
611.154	-0.05
611.343	-0.01
611.532	-0.03
611.721	-0.07
611.91	-0.06
612.099	0.02
612.287	-0.04
612.476	-0.05
612.665	-0.02
612.854	-0.03
613.043	0.02
613.232	-0.01
613.421	-0.04
613.61	-0.01
613.798	-0.05
613.987	0
614.176	-0
614.365	0.01
614.554	-0.01
614.742	0.02
614.931	-0.04
615.12	0.02
615.309	-0
615.497	-0.01
615.686	-0.06
615.875	-0.02
616.063	0.01
616.252	-0.02
616.44	-0.01
616.629	0
616.818	0.03
617.006	-0.03
617.195	-0.03
617.383	0.02
617.572	-0.03
617.76	-0.04
617.949	-0.02
618.137	0
618.326	-0
618.514	-0.05
618.703	-0.01
618.891	0.01
619.079	-0.02
619.268	0.04
619.456	-0.02
619.644	0.01
619.833	-0.02
620.021	-0.02
620.209	-0.07
620.398	-0.01
620.586	-0.02
620.774	0.01
620.962	0.01
621.151	0.02
621.339	-0.01
621.527	-0.06
621.715	-0.05
621.903	-0.01
622.092	-0.06
622.28	-0
622.468	0.01
622.656	-0.01
622.844	0.05
623.032	-0
623.22	-0.07
623.408	-0.02
623.596	0.01
623.784	-0.03
623.972	-0.06
624.16	0.02
624.348	0.07
624.536	-0.03
624.724	-0.04
624.912	0.02
625.1	-0.02
625.288	-0.06
625.476	-0.03
625.664	0.06
625.851	-0.05
626.039	-0.02
626.227	0.01
626.415	-0.04
626.603	-0.06
626.79	-0.02
626.978	0.01
627.166	0.01
627.354	0
627.541	-0.05
627.729	-0.07
627.917	0.03
628.104	0.02
628.292	-0.01
628.48	-0.04
628.667	-0.02
628.855	0.02
629.042	0.01
629.23	-0.05
629.418	-0.02
629.605	-0.02
629.793	-0.05
629.98	-0.03
630.168	-0.01
630.355	-0
630.543	0.02
630.73	-0.04
630.917	0
631.105	0.03
631.292	-0.04
631.48	-0.02
631.667	0.01
631.854	0.01
632.042	-0.01
632.229	-0.09
632.416	-0.01
632.604	-0.01
632.791	-0.05
632.978	-0
633.165	-0
633.353	0.07
633.54	0.02
633.727	-0.08
633.914	-0.03
634.101	-0.07
634.289	-0.01
634.476	-0.03
634.663	-0.06
634.85	-0.01
635.037	-0.07
635.224	-0.11
635.411	-0.01
635.598	0.01
635.785	-0.02
635.972	-0.02
636.159	0.02
636.346	-0.06
636.533	-0.01
636.72	-0.01
636.907	-0.01
637.094	-0
637.281	-0
637.468	-0.01
637.655	0
637.842	-0.04
638.029	-0.03
638.215	0
638.402	-0.01
638.589	-0.05
638.776	-0.04
638.963	-0.05
639.149	0.04
639.336	0.04
639.523	-0
639.709	-0.03
639.896	-0.02
640.083	0.02
640.27	0.01
640.456	-0.06
640.643	0.01
640.829	-0.06
641.016	-0.04
641.203	-0.02
641.389	0.01
641.576	0.01
641.762	-0.01
641.949	-0.04
642.135	-0.02
642.322	-0.02
642.508	-0.06
642.695	-0.01
642.881	-0.03
643.068	-0.02
643.254	0
643.441	0.04
643.627	-0.01
643.813	-0.06
644	-0
644.186	-0.07
644.372	-0.02
644.559	0.02
644.745	-0.01
644.931	-0.05
645.118	-0.02
645.304	-0.01
645.49	-0.05
645.676	-0.02
645.862	0.01
646.049	0.04
646.235	0.02
646.421	0.04
646.607	0.02
646.793	-0
646.979	-0.06
647.165	0.01
647.352	-0.01
647.538	0.04
647.724	-0.02
647.91	-0.04
648.096	0.03
648.282	-0.01
648.468	-0.04
648.654	-0.01
648.84	-0.01
649.026	-0.01
649.212	-0.03
649.397	-0.05
649.583	-0.07
649.769	0.02
649.955	-0.02
650.141	0.01
650.327	-0.01
650.513	-0.05
650.698	0.02
650.884	-0.09
651.07	-0.01
651.256	0
651.442	-0.02
651.627	-0.02
651.813	0.02
651.999	-0.06
652.184	0
652.37	-0.03
652.556	-0.05
652.741	0.03
652.927	-0.09
653.113	-0.03
653.298	-0.02
653.484	-0.03
653.669	-0.09
653.855	-0.01
654.04	0.03
654.226	0.01
654.412	-0.03
654.597	-0.04
654.782	-0.02
654.968	0.03
655.153	0.01
655.339	-0.03
655.524	-0.05
655.71	0.01
655.895	-0.01
656.08	-0.02
656.266	0.03
656.451	-0.01
656.636	-0.04
656.822	-0.03
657.007	-0.05
657.192	-0.05
657.378	-0.06
657.563	-0.02
657.748	0.03
657.933	0.01
658.118	-0.06
658.304	-0.03
658.489	0.02
658.674	-0
658.859	-0.06
659.044	-0
659.229	-0.02
659.414	-0.02
659.599	-0.03
659.785	-0.08
659.97	-0.02
660.155	-0.02
660.34	-0.03
660.525	-0.05
660.71	-0.03
660.895	-0
661.08	-0.03
661.264	-0.04
661.449	0.02
661.634	0.04
661.819	0.02
662.004	-0.03
662.189	-0.07
662.374	-0.06
662.559	-0.04
662.743	-0.07
662.928	-0.05
663.113	-0.03
663.298	-0.11
663.483	-0.02
663.667	-0.01
663.852	-0.07
664.037	0.05
664.221	-0.01
664.406	0.03
664.591	-0
664.775	0
664.96	-0.01
665.145	-0.02
665.329	-0
665.514	-0.03
665.698	-0.05
665.883	-0.1
666.068	0.05
666.252	-0.02
666.437	-0.02
666.621	-0.05
666.806	0.01
666.99	-0.03
667.174	-0.06
667.359	0.05
667.543	-0.03
667.728	-0.06
667.912	-0.1
668.096	0.05
668.281	-0.04
668.465	-0
668.649	-0.02
668.834	-0.08
669.018	0.01
669.202	-0.06
669.387	-0.05
669.571	0.03
669.755	-0.06
669.939	-0.02
670.124	-0.02
670.308	0.05
670.492	0
670.676	-0.02
670.86	-0.03
671.044	-0.08
671.228	0.05
671.413	-0.04
671.597	-0.04
671.781	-0.01
671.965	0.03
672.149	-0.03
672.333	-0.02
672.517	-0.03
672.701	0.02
672.885	-0.04
673.069	-0.07
673.253	0.05
673.437	-0.03
673.621	-0.04
673.804	0.02
673.988	-0.04
674.172	-0.01
674.356	-0.01
674.54	-0.07
674.724	0.06
674.908	-0.03
675.091	0.02
675.275	0.01
675.459	0
675.643	0.04
675.826	-0.01
676.01	-0.01
676.194	-0.04
676.377	0.05
676.561	0.07
676.745	0.01
676.928	0.03
677.112	0.03
677.296	-0.08
677.479	-0.04
677.663	-0.04
677.846	-0.01
678.03	-0.04
678.213	-0.04
678.397	0.01
678.58	-0.01
678.764	-0.01
678.947	-0.08
679.131	-0.03
679.314	0.06
679.498	-0.03
679.681	0.02
679.865	0.06
680.048	-0
680.231	-0.03
680.415	-0.04
680.598	-0.03
680.781	-0.02
680.965	-0.04
681.148	-0.03
681.331	-0.03
681.514	0.02
681.698	-0.01
681.881	-0.02
682.064	-0.01
682.247	-0.01
682.43	-0.1
682.614	-0.02
682.797	0.04
682.98	-0.01
683.163	-0.08
683.346	0.01
683.529	-0.02
683.712	-0.03
683.895	0
684.078	-0.06
684.261	-0.03
684.444	0.01
684.627	0.02
684.81	-0.01
684.993	0.01
685.176	0
685.359	-0.06
685.542	-0.03
685.725	0.03
685.908	-0.02
686.091	-0.01
686.274	0.01
686.457	0.01
686.639	-0.05
686.822	0.04
687.005	-0.02
687.188	0.02
687.371	0.08
687.553	-0.02
687.736	0.02
687.919	0.1
688.102	0.04
688.284	-0.02
688.467	0.03
688.65	-0.02
688.832	0.01
689.015	-0.03
689.197	-0.04
689.38	0.11
689.563	0.04
689.745	-0.02
689.928	-0.04
690.11	-0.02
690.293	0.02
690.475	-0.06
690.658	0.02
690.84	-0.05
691.023	0.01
691.205	-0.03
691.388	0.01
691.57	0.05
691.752	0.01
691.935	-0.04
692.117	-0.08
692.3	-0.04
692.482	-0.01
692.664	-0
692.847	0.01
693.029	0.05
693.211	0.02
693.393	-0.02
693.576	0.01
693.758	0.02
693.94	-0.05
694.122	-0.05
694.304	-0.04
694.487	-0.03
694.669	0.06
694.851	-0.06
695.033	-0
695.215	-0.04
695.397	-0.03
695.579	0.04
695.761	-0.06
695.943	-0.06
696.125	0.11
696.308	0.03
696.49	-0.1
696.671	0.15
696.853	-0.01
697.035	0.13
697.217	-0.02
697.399	0.07
697.581	-0.02
697.763	0.02
697.945	-0.06
698.127	-0.03
698.309	0.08
698.491	0.02
698.672	0.07
698.854	0.05
699.036	0.13
699.218	-0.05
699.399	0.06
699.581	0.04
699.763	0.04
699.945	-0.07
700.126	-0
700.308	0.04
700.49	0.03
700.671	-0.09
700.853	-0.04
701.035	0.01
701.216	-0.02
701.398	-0.05
701.579	-0.04
701.761	0.09
701.943	-0.01
702.124	0.01
702.306	0.05
702.487	0.12
702.669	-0.02
702.85	-0.02
703.031	-0.03
703.213	0.07
703.394	0.09
703.576	-0.03
703.757	0.05
703.938	0.09
704.12	0.19
704.301	0.02
704.483	-0.03
704.664	0.09
704.845	0.1
705.026	0.13
705.208	0.01
705.389	0.05
705.57	0.02
705.751	-0.01
705.933	0.03
706.114	0.11
706.295	0.05
706.476	-0.05
706.657	0.11
706.838	0.1
707.02	0.13
707.201	0.03
707.382	0
707.563	0.07
707.744	0.02
707.925	-0.06
708.106	0.04
708.287	0.07
708.468	0.11
708.649	0.01
708.83	0.08
709.011	0.05
709.192	0.07
709.373	-0.05
709.554	0.07
709.734	0.07
709.915	0.03
710.096	-0
710.277	-0.02
710.458	0.1
710.639	0.14
710.819	0.01
711	0.08
711.181	0.1
711.362	0.07
711.542	0.01
711.723	0.03
711.904	0.09
712.085	0.1
712.265	0.06
712.446	-0.02
712.627	0.07
712.807	0.05
712.988	0.07
713.168	-0.03
713.349	0.13
713.53	-0.04
713.71	0.04
713.891	-0.02
714.071	0.1
714.252	0.01
714.432	0.03
714.613	0.04
714.793	0.11
714.974	0.1
715.154	0.1
715.334	0.17
715.515	0.13
715.695	0.01
715.876	0.06
716.056	0.07
716.236	0.07
716.417	0.11
716.597	0.05
716.777	0.2
716.957	0.01
717.138	0.07
717.318	0.11
717.498	-0.02
717.678	0.06
717.859	0.14
718.039	0.07
718.219	0.13
718.399	0.2
718.579	0.07
718.759	0.03
718.939	0.14
719.12	0.11
719.3	0.17
719.48	0.06
719.66	0.06
719.84	0.19
720.02	0.12
720.2	0.05
720.38	0.16
720.56	0.29
720.74	0.1
720.92	0.18
721.1	0.19
721.279	0.24
721.459	0.16
721.639	0.06
721.819	0.14
721.999	0.11
722.179	0.27
722.359	0.05
722.538	0.28
722.718	0.2
722.898	0.18
723.078	0.19
723.257	0.14
723.437	0.2
723.617	0.17
723.797	0.17
723.976	0.15
724.156	0.2
724.336	0.33
724.515	0.29
724.695	0.08
724.874	0.15
725.054	0.25
725.234	0.15
725.413	0.3
725.593	0.21
725.772	0.2
725.952	0.19
726.131	0.21
726.311	0.2
726.49	0.24
726.67	0.13
726.849	0.18
727.028	0.38
727.208	0.22
727.387	0.25
727.567	0.11
727.746	0.21
727.925	0.09
728.105	0.18
728.284	0.23
728.463	0.21
728.643	0.33
728.822	0.1
729.001	0.2
729.18	0.33
729.359	0.3
729.539	0.29
729.718	0.3
729.897	0.31
730.076	0.3
730.255	0.15
730.434	0.32
730.614	0.31
730.793	0.38
730.972	0.35
731.151	0.34
731.33	0.4
731.509	0.35
731.688	0.35
731.867	0.36
732.046	0.22
732.225	0.55
732.404	0.35
732.583	0.29
732.762	0.44
732.941	0.48
733.12	0.39
733.298	0.35
733.477	0.47
733.656	0.33
733.835	0.34
734.014	0.42
734.193	0.38
734.371	0.44
734.55	0.53
734.729	0.25
734.908	0.54
735.086	0.47
735.265	0.46
735.444	0.23
735.623	0.31
735.801	0.27
735.98	0.39
736.159	0.37
736.337	0.49
736.516	0.35
736.694	0.36
736.873	0.29
737.052	0.53
737.23	0.45
737.409	0.24
737.587	0.57
737.766	0.29
737.944	0.33
738.123	0.39
738.301	0.34
738.479	0.24
738.658	0.35
738.836	0.14
739.015	0.33
739.193	0.35
739.371	0.19
739.55	0.26
739.728	0.3
739.906	0.37
740.085	0.52
740.263	0.32
740.441	0.06
740.62	0.46
740.798	0.29
740.976	0.2
741.154	0.06
741.332	0.39
741.511	0.26
741.689	0.24
741.867	0.24
742.045	0.15
742.223	0.08
742.401	0.14
742.579	0.1
742.757	0.27
742.935	0.05
743.114	0.16
743.292	0.19
743.47	0.07
743.648	0.1
743.826	-0.08
744.004	0.26
744.181	0.27
744.359	0.14
744.537	0.22
744.715	0.03
744.893	0.09
745.071	0.12
745.249	0.07
745.427	0.06
745.605	0.16
745.782	0.19
745.96	0.07
746.138	0.09
746.316	0.15
746.493	0.16
746.671	0.15
746.849	0
747.027	0.23
747.204	0.06
747.382	0.02
747.56	0.05
747.737	-0.04
747.915	0
748.093	0.13
748.27	-0.03
748.448	-0.01
748.625	-0.04
748.803	-0.05
748.98	-0.07
749.158	0.1
749.335	0.14
749.513	0.11
749.69	0.07
749.868	0.04
750.045	0.09
750.223	-0.04
750.4	-0.19
750.578	0.23
750.755	0.04
750.932	-0.1
751.11	0.2
751.287	-0.15
751.464	0.12
751.642	-0.07
751.819	-0.05
751.996	-0.03
752.173	0.01
752.351	-0.12
752.528	0.01
752.705	-0.05
752.882	-0
753.06	0.05
753.237	0.1
753.414	0.2
753.591	0.05
753.768	0.01
753.945	-0.08
754.122	-0.13
754.299	0.03
754.476	-0.12
754.654	-0.04
754.831	0.03
755.008	0.01
755.185	-0.06
755.362	-0.08
755.539	0.03
755.716	-0
755.892	-0.08
756.069	0.01
756.246	0.02
756.423	-0.08
756.6	0.04
756.777	0.01
756.954	0.09
757.131	-0.07
757.307	-0.21
757.484	-0.1
757.661	-0.03
757.838	-0.01
758.015	-0.18
758.191	0.1
758.368	0.17
758.545	0.22
758.721	-0.05
758.898	-0.1
759.075	0.03
759.251	0.04
759.428	-0
759.605	-0.14
759.781	-0.04
759.958	-0.02
760.134	-0.06
760.311	-0.08
760.488	0.14
760.664	0.15
760.841	-0.09
761.017	-0.15
761.194	0.08
761.37	0.01
761.547	0.02
761.723	-0.04
761.899	0.12
762.076	-0.15
762.252	-0.06
762.429	0.01
762.605	0.1
762.781	-0.18
762.958	0.03
763.134	-0.15
763.31	-0.07
763.486	0.03
763.663	-0.15
763.839	-0.02
764.015	-0.21
764.191	-0.19
764.368	-0
764.544	-0.06
764.72	-0.03
764.896	0.1
765.072	-0.01
765.248	-0.07
765.425	-0.03
765.601	-0.05
765.777	-0.03
765.953	-0.11
766.129	0.02
766.305	-0.11
766.481	0.06
766.657	-0.06
766.833	0.28
767.009	-0.12
767.185	-0.07
767.361	-0
767.537	-0.14
767.713	0.04
767.889	-0.09
768.065	-0.18
768.24	-0.01
768.416	0.03
768.592	-0.1
768.768	-0.04
768.944	0.03
769.12	-0.14
769.295	-0.1
769.471	-0.04
769.647	-0.07
769.823	0.03
769.998	-0.08
770.174	-0.11
770.35	0.3
770.525	0.12
770.701	-0.1
770.877	-0.06
771.052	-0.04
771.228	0.08
771.403	-0.04
771.579	-0.01
771.755	0.27
771.93	-0.2
772.106	-0.28
772.281	-0.23
772.457	-0.16
772.632	0.05
772.808	-0.19
772.983	-0.05
773.159	-0.18
773.334	0.04
773.509	-0.14
773.685	-0.17
773.86	0.29
774.036	0.26
774.211	-0.01
774.386	-0.02
774.562	0.01
774.737	0.11
774.912	-0.25
775.087	0.13
775.263	0.06
775.438	0.05
775.613	-0.11
775.788	0.03
775.964	0.12
776.139	0.3
776.314	-0.25
776.489	-0.03
776.664	-0.08
776.839	-0.16
777.014	0.16
777.19	-0.03
777.365	0.05
777.54	0.09
777.715	-0.12
777.89	0.04
778.065	-0.33
778.24	-0.04
778.415	0.1
778.59	-0.18
778.765	-0.12
778.94	0.02
779.115	-0.12
779.289	0.02
779.464	-0.07
779.639	-0.2
779.814	-0.27
779.989	-0.22
780.164	0.11
780.339	0.02
780.513	-0.24
780.688	-0.07
780.863	-0.14
781.038	0.24
781.212	-0.17
781.387	-0.06
781.562	0.3
781.737	-0.14
781.911	0.17
782.086	-0
782.261	-0.05
782.435	0.13
782.61	-0.07
782.784	0.04
782.959	0.25
783.134	-0.07
783.308	-0.29
783.483	-0.03
783.657	0.24
783.832	0.17
784.006	-0.31
784.181	0.03
784.355	0.1
784.53	-0.5
784.704	-0.3
784.878	0.3
785.053	-0.02
785.227	-0.03
785.402	0.24
785.576	-0.37
785.75	-0.24
785.925	-0.25
786.099	0.01
786.273	-0.11
786.448	0.09
786.622	0.28
786.796	-0.15
786.97	-0.12
787.145	0.43
787.319	-0.47
787.493	-0.14
787.667	-0.44
787.841	-0.08
788.015	0.17
788.19	-0.04
788.364	0.06
788.538	0.05
788.712	0.19
788.886	0.02
789.06	0.2
789.234	0.02
789.408	-0.24
789.582	-0.14
789.756	-0.1
789.93	-0.24
790.104	-0.07
790.278	-0.13
790.452	-0.14
790.626	0.09
790.8	-0.18
790.973	0.02
791.147	0.11
791.321	0.28
791.495	0.29
791.669	0.07
791.843	0.1
792.016	-0.12
792.19	0.5
792.364	-0.19
792.538	0.52
792.711	0.14
792.885	-0.16
793.059	-0.34
793.233	-0.72
793.406	0.13
793.58	0.01
793.754	0.2
793.927	-0.1
794.101	0.14
794.274	-0.04
794.448	0.06
794.622	-0.17
794.795	0.21
794.969	-0.31
795.142	0.25
795.316	-0.14
795.489	-0.1
795.663	0.22
795.836	-0.13
796.009	-0.1
796.183	0.3
796.356	0.19
796.53	-0.07
796.703	0.03
796.876	0.51
797.05	-0.12
797.223	0.03
797.396	0.07
797.57	0.21
797.743	0.1
797.916	-0.05
798.09	-0.05
798.263	0.02
798.436	0.14
798.609	-0.22
798.782	-0.32
798.956	-0.05
799.129	-0.2
799.302	-0.4
799.475	-0.22
799.648	-0.13
799.821	-0.14
799.994	-0.04
800.167	-0.44
800.34	0.02
800.514	-0.09
800.687	-0.18
800.86	-0.17
801.033	0
801.206	0.14
801.379	-0.21
801.551	0.13
801.724	-0.08
801.897	0.15
802.07	-0.04
802.243	-0.61
802.416	-0.02
802.589	0.02
802.762	0.08
802.935	-0.05
803.107	-0
803.28	0.39
803.453	0.25
803.626	-0.46
803.798	0.11
803.971	-0.27
804.144	0
804.317	0.15
804.489	0.11
804.662	-0.13
804.835	-0.18
805.007	-0.39
805.18	0.58
805.353	0.01
805.525	-0.26
805.698	-0.25
805.87	0.15
806.043	0.17
806.215	-0.02
806.388	-0.24
806.56	0.24
806.733	-0.01
806.905	-0.15
807.078	-0.1
807.25	-0.54
807.423	-0.17
807.595	-0.33
807.768	-0.09
807.94	0.22
808.112	0.19
808.285	-0
808.457	-0.35
808.629	-0.07
808.802	-0.12
808.974	-0.4
809.146	-0.17
809.318	-0.77
809.491	0.08
809.663	0.21
809.835	-0.34
810.007	0.08
810.18	0.08
810.352	-0.43
810.524	-0.16
810.696	-0.39
810.868	0.2
811.04	0.08
811.212	-0.15
811.384	-0.17
811.556	-0.19
811.728	-0.11
811.901	0.39
812.073	0.04
812.245	0.35
812.417	0.18
812.589	-0.71
812.76	-0
812.932	-0.04
813.104	0.01
813.276	-0.17
813.448	0.41
813.62	-0.37
813.792	0.16
813.964	-0.12
814.136	-0.04
814.307	-0.32
814.479	-0.45
814.651	-0.32
814.823	0.5
814.995	-0.44
815.166	-0.15
815.338	-0.18
815.51	-0.61
815.681	0.64
815.853	-0.4
816.025	0.47
816.196	0.5
816.368	-0.07
816.54	-0.6
816.711	-0.2
816.883	-0.31
817.054	0.7
817.226	-0.76
817.398	0.06
817.569	-0.24
817.741	-0.03
817.912	-0.03
818.084	-0.03
818.255	0.3
818.426	-0.45
818.598	0.06
818.769	-0.17
818.941	0.08
819.112	0.33
819.283	0.13
819.455	-0.42
819.626	-0.05
819.798	-0
819.969	0.09
820.14	-0.01
820.311	-0.18
820.483	-0.08
820.654	0.17
820.825	-0.1
820.996	-0.59
821.168	-0.53
821.339	-0.43
821.51	-0.41
821.681	-0.04
821.852	0.08
822.023	-0.65
822.195	-0.66
822.366	0.44
822.537	-0
822.708	0.13
822.879	-0.29
823.05	0.59
823.221	-0.45
823.392	0.12
823.563	-0.24
823.734	0.05
823.905	-0.19
824.076	-0.77
824.247	-0.54
824.418	-0.38
824.589	0.76
824.759	0.09
824.93	-0.52
825.101	-1.29
825.272	0.02
825.443	0.29
825.614	0.24
825.784	-1.61
825.955	0.75
826.126	-0.08
826.297	-0.13
826.467	0.86
826.638	0.75
826.809	-1.07
826.98	-0.18
827.15	-0.19
827.321	-0.17
827.492	0.48
827.662	0.11
827.833	0.17
828.003	0.02
828.174	-0.39
828.345	-0.78
828.515	0.49
828.686	0.08
828.856	-0.39
829.027	-0.49
829.197	0
829.368	0.27
829.538	-0.6
829.709	-0.66
829.879	0.02
830.049	-0.03
830.22	0.3
830.39	-0.22
830.56	0.09
830.731	-0.38
830.901	-0.48
831.072	0.11
831.242	-0.25
831.412	-0.16
831.582	-0.5
831.753	-1.14
831.923	0.55
832.093	-0.28
832.263	-0.67
832.434	-0.17
832.604	-0.42
832.774	0.05
832.944	-0.26
833.114	-0.57
833.284	0
833.454	-0.27
833.624	-0.42
833.795	-0.29
833.965	0.36
834.135	0.34
834.305	-0.66
834.475	-1.02
834.645	-0.82
834.815	-0.87
834.985	-0.62
835.155	-0.27
835.325	0.31
835.494	-0
835.664	0.02
835.834	-0.52
836.004	-0.03
836.174	-0.09
836.344	0.59
836.514	-1.06
836.684	-0.32
836.853	0.01
837.023	-0.12
837.193	-0.58
837.363	0.54
837.532	1.06
837.702	-0.04
837.872	-0.63
838.041	0
838.211	1.19
838.381	-0.57
838.55	-0.09
838.72	1.45
838.89	0.75
839.059	-0.22
839.229	-0.22
839.398	0.99
839.568	-0.38
839.738	-0.3
839.907	0.67
840.077	0.06
840.246	-0.75
840.416	-0.92
840.585	-0.96
840.755	1.18
840.924	0.15
841.093	-0.8
841.263	-0.78
841.432	-0.67
841.602	-0.51
841.771	-0.37
841.94	-0.52
842.11	1.8
842.279	1.18
842.448	-1.15
842.617	-1.35
842.787	1.45
842.956	-0.49
843.125	-0.24
843.294	0.61
843.464	0.7
843.633	-0.06
843.802	-1.25
843.971	-0.68
844.14	0.49
844.309	0.51
844.479	-0.58
844.648	-1.41
844.817	-0.9
844.986	0.38
845.155	-1.12
845.324	-0.02
845.493	0.38
845.662	-0.85
845.831	0.37
846	0.69
846.169	-0.2
846.338	1.35
846.507	-0.56
846.676	0.17
846.844	-0.13
847.013	-0.1
847.182	-0.88
847.351	-0.37
847.52	-0.77
847.689	-0.02
847.858	0.18
848.026	-0.47
848.195	-0.49
848.364	0.18
848.533	-0.3
848.701	-0.32
848.87	-0.39
849.039	1.04
849.207	1.04
849.376	0.68
849.545	0.78
849.713	-0.67
849.882	0.67
850.051	-0.46
850.219	-0.39
850.388	0.79
850.556	-0.78
850.725	-0.7
850.893	0.5
851.062	0.04
851.23	0.4
851.399	-1.04
851.567	-1.18
851.736	-0.9
851.904	-1.07
852.073	-0.25
852.241	0.01
852.41	0.09
852.578	-0.93
852.746	-0.97
852.915	-0.55
853.083	-0.22
853.251	-1.15
853.42	-0.73
853.588	0.13
853.756	1.64
853.924	-1
854.093	0.09
854.261	-0.95
854.429	-0.8
854.597	-0.16
854.765	-1.6
854.934	0.13
855.102	0.19
855.27	0.18
855.438	-0.12
855.606	0.51
855.774	1.6
855.942	-2.24
856.11	-0.81
856.278	-0
856.446	-0.39
856.614	-0.84
856.782	-0.64
856.95	0.3
857.118	-0.29
857.286	0.65
857.454	-1.8
857.622	1.76
857.79	-0.01
857.958	-0.81
858.126	0.11
858.294	-3.89
858.462	-0.72
858.629	-0.62
858.797	-1.17
858.965	1.3
859.133	-0.19
859.301	-0.37
859.468	0.64
859.636	-0.35
859.804	1.95
859.971	0.44
860.139	-0.56
860.307	0.32
860.474	0.64
860.642	-1.4
860.81	-2.23
860.977	-0.94
861.145	0.17
861.313	-0.53
861.48	-0.47
861.648	-0.26
861.815	-0.11
861.983	-2.17
862.15	-1.12
862.318	1.19
862.485	-0.3
862.653	-1.01
862.82	-2.07
862.988	2.19
863.155	-0.29
863.322	-1.05
863.49	-0.64
863.657	-0.18
863.824	1.59
863.992	0.39
864.159	0.12
864.326	-0.29
864.494	-0.77
864.661	1.92
864.828	-1.71
864.996	0.8
865.163	0.24
865.33	-1.25
865.497	-1.64
865.664	-0.6
865.832	-2.26
865.999	-1.42
866.166	-1.52
866.333	0.6
866.5	-2.02
866.667	-0.17
866.834	-0.21
867.001	1.19
867.168	-0.25
867.335	0.36
867.502	-0.46
867.669	0.5
867.836	2.56
868.003	-2.01
868.17	0.22
868.337	-0.73
868.504	1.79
868.671	-1.3
868.838	-1.6
869.005	-0.19
869.172	0.67
869.339	-0.6
869.505	0.36
869.672	-0.05
869.839	0.57
870.006	0.61
870.173	-1.06
870.339	-0.55
870.506	3.39
870.673	-0.98
870.84	-0.46
871.006	0.36
871.173	0.73
871.34	-0.45
871.506	-1.99
871.673	-0.97
871.839	-0.85
872.006	-1.69
872.173	-0.59
872.339	0.07
872.506	0.38
872.672	-0.4
872.839	-0.97
873.005	0.7
873.172	4.2
873.338	1.65
873.505	0.45
873.671	0.59
873.838	0.93
874.004	-2.04
874.171	-1.83
874.337	0.45
874.503	0.33
874.67	-1.5
874.836	-1.05
875.002	0.38
875.169	0.69
875.335	0.44
875.501	0.26
875.668	1.06
875.834	0.23
876	1.55
876.166	1.41
876.332	0.84
876.499	2.76
876.665	-3.81
876.831	0.27
876.997	3.88
877.163	0.4
877.329	-0.48
877.495	0.13
877.662	1.03
877.828	-0.82
877.994	-1.4
878.16	-3.33
878.326	-2.05
878.492	0.74
878.658	-0.48
878.824	-0.19
878.99	0.5
879.156	-1.71
879.322	2.86
879.487	-0.69
879.653	1.89
879.819	1.53
879.985	-1.65
880.151	1.81
880.317	1.65
880.483	-2.33
880.648	1.05
880.814	-1.85
880.98	0.22
881.146	-2.67
881.312	-0.54
881.477	0.11
881.643	-0.41
881.809	0.7
881.974	1.41
882.14	-2.69
882.306	3.07
882.471	2.64
882.637	-0.9
882.803	0.96
882.968	2.47
883.134	3.38
883.299	0.86
883.465	-0.26
883.63	0.91
883.796	0.28
883.961	0.88
884.127	0.13
884.292	-2.56
884.458	-3.66
884.623	-3.65
