Data from Apollo_Calib_20240827__AbsoluteIrradiance__726__11-15-00-706.txt Node

Date: Wed Aug 28 11:15:00 BST 2024
User: biology
Spectrometer: FLMT08252
Trigger mode: 0
Integration Time (sec): 5.000000E-1
Scans to average: 5
Electric dark correction enabled: true
Nonlinearity correction enabled: false
Boxcar width: 0
XAxis mode: Wavelengths
Number of Pixels in Spectrum: 3648
>>>>>Begin Spectral Data<<<<<
179.588	-0
179.809	-0
180.03	-0
180.251	-0
180.473	-0
180.694	0
180.915	0
181.136	-0
181.357	-0
181.578	-0
181.799	-0
182.02	-0
182.241	0
182.462	-0
182.683	0
182.904	-0
183.125	-0
183.346	0
183.567	0
183.788	-0
184.009	-0
184.23	0
184.451	0
184.672	0
184.892	-0
185.113	0
185.334	0
185.555	-0
185.776	0
185.996	0
186.217	0
186.438	0
186.659	-0
186.879	0
187.1	0
187.321	0
187.541	-0
187.762	0
187.983	0
188.203	0
188.424	0
188.644	0
188.865	0
189.086	-0
189.306	0
189.527	-0
189.747	0
189.968	-0
190.188	0
190.409	0
190.629	0
190.849	-0
191.07	0
191.29	0
191.511	0
191.731	0
191.951	0
192.172	0
192.392	-0
192.612	0
192.833	0
193.053	0
193.273	0
193.493	0
193.714	0
193.934	0
194.154	0
194.374	0
194.594	0
194.815	0
195.035	0
195.255	0
195.475	0
195.695	0
195.915	0
196.135	0
196.355	0
196.575	0
196.795	0
197.015	-0
197.235	-0
197.455	0
197.675	0
197.895	0
198.115	-0
198.335	0
198.555	0
198.775	0
198.995	0
199.214	0
199.434	0
199.654	-0
199.874	0
200.094	1.4
200.313	-0.21
200.533	0.17
200.753	-0.47
200.973	1.17
201.192	0.92
201.412	-1.03
201.632	-0.23
201.851	1.09
202.071	0
202.291	-0.08
202.51	-0.77
202.73	0.89
202.95	0.43
203.169	-0.04
203.389	-0
203.608	0.68
203.828	-0.04
204.047	-0.01
204.267	0.79
204.486	0.63
204.706	0.27
204.925	0.29
205.145	0.25
205.364	0.73
205.583	0.89
205.803	0.11
206.022	-0.23
206.242	0.17
206.461	0.1
206.68	-0.18
206.9	0.3
207.119	0.82
207.338	0.82
207.557	-0.28
207.777	0.3
207.996	0.09
208.215	0.89
208.434	-0.15
208.654	-0.31
208.873	0.11
209.092	1.14
209.311	-0.12
209.53	0.21
209.749	0.31
209.968	0.1
210.187	0.11
210.407	-0.36
210.626	0.4
210.845	0.58
211.064	0.31
211.283	-0.15
211.502	0.19
211.721	0.25
211.94	0.3
212.159	0.32
212.377	0.35
212.596	0.41
212.815	0.21
213.034	0.2
213.253	0.49
213.472	0.44
213.691	0.27
213.91	-0.04
214.128	-0.02
214.347	0.58
214.566	-0.02
214.785	-0.18
215.003	0.38
215.222	0.25
215.441	0.21
215.66	-0.2
215.878	0.22
216.097	0.3
216.316	-0.22
216.534	0.01
216.753	0.33
216.972	0.09
217.19	-0.05
217.409	0.05
217.627	-0.13
217.846	-0.05
218.064	0.03
218.283	-0.02
218.501	0.59
218.72	0.35
218.938	-0.13
219.157	-0.06
219.375	0.5
219.594	0.31
219.812	-0.08
220.031	0.02
220.249	0.53
220.467	0.29
220.686	-0.09
220.904	0.02
221.122	0.06
221.341	0.51
221.559	0.12
221.777	-0.09
221.995	0.24
222.214	0.15
222.432	0.03
222.65	0.22
222.868	0.21
223.086	0.23
223.305	0.42
223.523	0.01
223.741	0.22
223.959	-0.04
224.177	-0.07
224.395	0.02
224.613	0.22
224.831	0.36
225.049	0.04
225.267	-0.02
225.485	0.18
225.703	-0.02
225.921	0.13
226.139	-0.05
226.357	0.26
226.575	0.22
226.793	-0.02
227.011	0.67
227.229	0.27
227.447	0.29
227.665	0.19
227.883	0.01
228.1	0.1
228.318	0.22
228.536	-0.27
228.754	-0.08
228.972	0.18
229.189	0.25
229.407	0.04
229.625	0.18
229.843	0.22
230.06	0.19
230.278	-0.03
230.496	0.12
230.713	0.23
230.931	0.28
231.149	0.05
231.366	-0.12
231.584	0.12
231.801	0.39
232.019	0.07
232.236	-0.03
232.454	0.09
232.671	0.09
232.889	0.08
233.106	-0.06
233.324	0.13
233.541	0.01
233.759	0.12
233.976	0.05
234.194	0.07
234.411	-0.02
234.628	-0.01
234.846	0.14
235.063	0.16
235.28	0.1
235.498	0.08
235.715	-0.04
235.932	0.15
236.149	0.07
236.367	-0.04
236.584	0.15
236.801	0.05
237.018	0.21
237.236	0.08
237.453	-0.09
237.67	0.1
237.887	0.05
238.104	0.05
238.321	-0.01
238.538	-0.02
238.755	0.17
238.973	-0.05
239.19	0.06
239.407	0.05
239.624	0.13
239.841	-0.07
240.058	0.03
240.275	0.17
240.492	0.02
240.709	0.01
240.925	0.07
241.142	0.08
241.359	-0.03
241.576	-0
241.793	-0.03
242.01	0.1
242.227	0.18
242.444	0.17
242.66	0.12
242.877	0.1
243.094	0.02
243.311	0.11
243.527	0.15
243.744	-0.02
243.961	0.17
244.178	0.06
244.394	-0.02
244.611	0.21
244.828	0.26
245.044	0.03
245.261	0.04
245.477	0.07
245.694	0.12
245.911	0.01
246.127	0.11
246.344	0.33
246.56	0.19
246.777	0.04
246.993	0.03
247.21	0.1
247.426	0.15
247.643	-0.03
247.859	0.1
248.076	0.05
248.292	0.3
248.508	0.12
248.725	0.14
248.941	0.18
249.157	0.18
249.374	0.05
249.59	0.01
249.806	0.11
250.023	0.22
250.239	-0.01
250.455	-0.04
250.671	0.05
250.888	0.1
251.104	0.08
251.32	0.03
251.536	0.1
251.752	0.01
251.969	0.04
252.185	0.02
252.401	0.3
252.617	0.08
252.833	0
253.049	0.09
253.265	0.01
253.481	0.03
253.697	0.05
253.913	-0.03
254.129	0.09
254.345	0.01
254.561	0.02
254.777	-0.04
254.993	0.15
255.209	0.11
255.425	0.01
255.641	0.07
255.857	0.11
256.073	0.08
256.288	-0.04
256.504	-0.04
256.72	0.05
256.936	0.14
257.152	0.1
257.367	0.03
257.583	0.03
257.799	0.12
258.015	0.01
258.23	0.03
258.446	0.17
258.662	0.09
258.877	-0.01
259.093	-0
259.309	0.14
259.524	0.11
259.74	0.05
259.955	-0.04
260.171	0.05
260.387	0.06
260.602	0.12
260.818	0.16
261.033	0.01
261.249	0.07
261.464	0.01
261.68	-0.04
261.895	0.11
262.11	0.12
262.326	0.03
262.541	-0.01
262.757	0.15
262.972	0.13
263.187	0.13
263.403	0.11
263.618	0.16
263.833	0.09
264.049	-0
264.264	0.03
264.479	0.05
264.694	0.18
264.91	-0.03
265.125	0.04
265.34	0.16
265.555	0.24
265.77	0.1
265.986	0.05
266.201	0.13
266.416	0.19
266.631	0.03
266.846	0.06
267.061	0.17
267.276	0.11
267.491	-0.12
267.706	0.04
267.921	0.11
268.136	0.09
268.351	0.04
268.566	-0
268.781	0.14
268.996	0.16
269.211	0.06
269.426	0.05
269.641	0.04
269.856	0.11
270.071	0.01
270.285	-0.04
270.5	0.13
270.715	0.14
270.93	0.07
271.145	0.1
271.359	0.14
271.574	0.02
271.789	-0
272.004	0.01
272.218	0.02
272.433	0.1
272.648	-0.01
272.862	0.14
273.077	0.07
273.292	0.02
273.506	-0.02
273.721	0.08
273.936	0.11
274.15	0.17
274.365	0.05
274.579	0.09
274.794	0.12
275.008	0.15
275.223	-0.03
275.437	0.06
275.652	0.15
275.866	0.09
276.081	0.11
276.295	0.13
276.509	0.01
276.724	0.13
276.938	0.07
277.153	0.04
277.367	0.12
277.581	0
277.796	0.06
278.01	-0.06
278.224	0.1
278.438	0.18
278.653	0.02
278.867	-0.01
279.081	-0.06
279.295	0.01
279.51	0.05
279.724	-0.03
279.938	0.06
280.152	0.11
280.366	0.07
280.58	0.05
280.794	0.15
281.008	0.03
281.222	0.1
281.437	0.17
281.651	0.06
281.865	0.12
282.079	-0
282.293	-0.02
282.507	0.04
282.721	0.01
282.935	0.09
283.148	-0.06
283.362	0.05
283.576	-0
283.79	0.06
284.004	0.04
284.218	0.09
284.432	-0.02
284.646	0.09
284.859	0.07
285.073	0.04
285.287	0.08
285.501	0.05
285.714	0.08
285.928	0.08
286.142	0.06
286.356	0.04
286.569	0.05
286.783	0.12
286.997	0.09
287.21	0.07
287.424	0.08
287.637	0.05
287.851	0.06
288.065	0.09
288.278	0.04
288.492	0.1
288.705	0.05
288.919	0.08
289.132	-0
289.346	0.06
289.559	-0
289.773	-0.01
289.986	0.06
290.2	0.1
290.413	0.09
290.626	0.02
290.84	0.04
291.053	0.08
291.267	0.16
291.48	0.06
291.693	0.07
291.906	0.02
292.12	0.07
292.333	0.01
292.546	0
292.76	0.15
292.973	0.08
293.186	0.09
293.399	0.02
293.612	0.11
293.826	0.04
294.039	0.05
294.252	0.03
294.465	0.07
294.678	0.08
294.891	0.08
295.104	-0.04
295.317	0.05
295.53	0.07
295.743	0.04
295.956	0.05
296.169	0.16
296.382	0.08
296.595	0.03
296.808	0.02
297.021	0.11
297.234	0.07
297.447	0.06
297.66	0.06
297.873	0.15
298.086	0.07
298.299	0
298.511	-0.01
298.724	-0.01
298.937	-0.03
299.15	0.05
299.363	0.01
299.575	0.07
299.788	0.04
300.001	0.05
300.213	0.08
300.426	0.01
300.639	0.05
300.852	0
301.064	0.08
301.277	0.12
301.489	0.13
301.702	0.06
301.915	0.03
302.127	0.03
302.34	0.04
302.552	0.09
302.765	0.05
302.977	0.12
303.19	0.02
303.402	0.02
303.615	0.05
303.827	0.04
304.04	0.04
304.252	0.1
304.464	0.05
304.677	0.16
304.889	0.1
305.102	0
305.314	0.03
305.526	0.13
305.739	0.09
305.951	0.02
306.163	0.04
306.375	0.12
306.588	0.03
306.8	0.02
307.012	-0.02
307.224	0.1
307.436	0.11
307.649	0.01
307.861	0.06
308.073	0.06
308.285	0.04
308.497	-0.02
308.709	0.06
308.921	0.04
309.133	0.09
309.346	0.04
309.558	0.07
309.77	0.12
309.982	0.12
310.194	0.11
310.406	0.05
310.617	0.15
310.829	0.08
311.041	0.07
311.253	-0
311.465	0.04
311.677	0.07
311.889	0.04
312.101	0.02
312.313	0.05
312.524	0.14
312.736	0.02
312.948	0.06
313.16	0.17
313.372	0.11
313.583	0.12
313.795	0.04
314.007	-0.01
314.218	0.08
314.43	-0.02
314.642	0.04
314.853	-0
315.065	0.05
315.277	0.06
315.488	0.09
315.7	0.09
315.912	0.09
316.123	0.04
316.335	0.03
316.546	0.13
316.758	0.06
316.969	0.03
317.181	0.06
317.392	0.04
317.604	0.09
317.815	0.01
318.026	0.01
318.238	0.03
318.449	0.11
318.661	-0.05
318.872	0
319.083	0.01
319.295	0.05
319.506	0
319.717	0.07
319.929	0.08
320.14	0.03
320.351	0.04
320.562	0.03
320.774	0.07
320.985	0.04
321.196	0.01
321.407	-0.03
321.618	0.04
321.829	0.09
322.041	0.05
322.252	0.03
322.463	0.07
322.674	0.08
322.885	0.02
323.096	0.04
323.307	0.07
323.518	0.06
323.729	0.06
323.94	0.02
324.151	0.04
324.362	0.1
324.573	0.05
324.784	0.02
324.995	0.1
325.206	0.05
325.417	-0
325.628	0.01
325.838	0.05
326.049	0.05
326.26	0.08
326.471	0.02
326.682	0.1
326.892	0.04
327.103	-0.01
327.314	0.01
327.525	0.1
327.735	0.05
327.946	0.03
328.157	-0
328.368	0.05
328.578	0.03
328.789	0.08
328.999	0.05
329.21	0.06
329.421	0.02
329.631	-0
329.842	-0.03
330.052	0.08
330.263	0.07
330.473	0.07
330.684	0.04
330.894	0.08
331.105	0.04
331.315	0.08
331.526	-0.03
331.736	0.11
331.947	0.07
332.157	0.06
332.367	0.03
332.578	0.1
332.788	0.1
332.999	0.07
333.209	0.04
333.419	-0
333.629	0.07
333.84	0.08
334.05	0.07
334.26	0.1
334.47	0.03
334.681	0.09
334.891	0.02
335.101	0.07
335.311	0.19
335.521	0.02
335.732	-0.01
335.942	0.1
336.152	0.07
336.362	0.05
336.572	0.06
336.782	0.1
336.992	0.05
337.202	0.07
337.412	0
337.622	0.08
337.832	0.07
338.042	0.06
338.252	0.05
338.462	0.05
338.672	0.04
338.882	0.06
339.092	-0.02
339.302	0.06
339.511	0.09
339.721	0.04
339.931	-0.01
340.141	0.07
340.351	0.08
340.561	0.06
340.77	0.06
340.98	0.05
341.19	0.06
341.4	0.03
341.609	-0.03
341.819	0.05
342.029	-0.04
342.238	0.06
342.448	0.03
342.658	0.09
342.867	0.07
343.077	0.05
343.286	0.06
343.496	0.04
343.706	0.1
343.915	0.01
344.125	0.07
344.334	0.11
344.544	-0.01
344.753	0.01
344.963	-0.01
345.172	0
345.381	0.1
345.591	0.01
345.8	0.03
346.01	0.12
346.219	0.11
346.428	-0.09
346.638	0.08
346.847	0.04
347.056	0.11
347.266	0.04
347.475	0.03
347.684	0.06
347.893	0.07
348.103	0.06
348.312	0.01
348.521	0.04
348.73	0.03
348.94	0.06
349.149	0.03
349.358	0.04
349.567	0.03
349.776	0.01
349.985	-0
350.194	0.07
350.403	0.11
350.612	0.01
350.821	0.05
351.03	0.05
351.239	-0.01
351.448	0.05
351.657	0.01
351.866	0.11
352.075	0.03
352.284	0.09
352.493	-0.01
352.702	0.12
352.911	0.07
353.12	0.02
353.329	0.03
353.538	0.06
353.746	0.08
353.955	-0.03
354.164	0.07
354.373	0.03
354.582	0.09
354.79	0.04
354.999	0.07
355.208	0.06
355.416	0.12
355.625	-0.01
355.834	0.04
356.042	0.05
356.251	0
356.46	0.01
356.668	0.07
356.877	0.15
357.085	0.1
357.294	-0.01
357.503	0.07
357.711	0.06
357.92	0.14
358.128	0.08
358.337	0.06
358.545	0.05
358.754	0.02
358.962	0.09
359.17	0.06
359.379	0.08
359.587	0.09
359.796	0.03
360.004	0.08
360.212	0.1
360.421	0.12
360.629	0.03
360.837	0.05
361.046	0.1
361.254	0.11
361.462	0.02
361.67	0.07
361.879	0.06
362.087	0.12
362.295	0.05
362.503	0.02
362.711	-0.03
362.92	0.05
363.128	0.05
363.336	0.02
363.544	0.04
363.752	0.02
363.96	-0
364.168	0.02
364.376	0.04
364.584	0.07
364.792	0.07
365	0.08
365.208	0.08
365.416	0.08
365.624	0.07
365.832	0.04
366.04	0.15
366.248	0.07
366.456	0.06
366.664	0.05
366.872	0.03
367.079	0.04
367.287	0.02
367.495	0.05
367.703	0.05
367.911	0.06
368.118	0.04
368.326	0.06
368.534	0.04
368.742	0.12
368.949	0.02
369.157	0.04
369.365	0.08
369.572	0.05
369.78	0
369.988	0.08
370.195	0.11
370.403	0.09
370.61	0.01
370.818	0.08
371.026	0.11
371.233	0.02
371.441	0.07
371.648	0.04
371.856	0.05
372.063	0.06
372.271	0.04
372.478	0.08
372.685	0.02
372.893	0.1
373.1	0.04
373.308	0.03
373.515	0.14
373.722	0.11
373.93	0.03
374.137	0.07
374.344	0.12
374.552	0.09
374.759	0.12
374.966	0.04
375.173	0.05
375.381	0.08
375.588	0.04
375.795	-0
376.002	0.05
376.209	0.02
376.417	0.06
376.624	0.08
376.831	0.09
377.038	0.07
377.245	-0.01
377.452	0.03
377.659	0.06
377.866	-0.01
378.073	0.05
378.28	0.06
378.487	0.09
378.694	0.07
378.901	0.05
379.108	0.04
379.315	0.09
379.522	0.13
379.729	0.05
379.936	0.02
380.143	0.06
380.35	0.04
380.557	0.04
380.763	0.05
380.97	0.06
381.177	0.08
381.384	0.07
381.591	-0
381.797	0.05
382.004	0.07
382.211	0.04
382.418	0.04
382.624	0.08
382.831	0.1
383.038	0.05
383.244	0.06
383.451	0.04
383.658	0.06
383.864	0.04
384.071	0
384.277	0.11
384.484	0.03
384.69	0.1
384.897	0.03
385.103	0.02
385.31	0.01
385.516	0.01
385.723	0.04
385.929	0.05
386.136	0.06
386.342	0.09
386.549	0.03
386.755	0.08
386.961	0.06
387.168	0.03
387.374	0.04
387.58	0.1
387.787	0.04
387.993	0.09
388.199	0.05
388.406	0.07
388.612	0.06
388.818	0.03
389.024	0.03
389.231	0.08
389.437	0.14
389.643	0.1
389.849	0.08
390.055	0.05
390.261	0.09
390.467	0.04
390.674	0.01
390.88	0.06
391.086	0.07
391.292	-0
391.498	0.09
391.704	0.07
391.91	0.05
392.116	0.03
392.322	-0.05
392.528	0.11
392.734	0.07
392.94	0.03
393.146	0.03
393.352	0.06
393.557	0.02
393.763	0.04
393.969	0.09
394.175	0.09
394.381	0.09
394.587	0.01
394.792	0.06
394.998	0.12
395.204	0.12
395.41	0.07
395.615	0.1
395.821	0.05
396.027	0.04
396.233	0.02
396.438	0.04
396.644	0.09
396.85	0.07
397.055	0.07
397.261	0.06
397.466	0.06
397.672	0.11
397.878	0.06
398.083	0.11
398.289	0.06
398.494	0.09
398.7	0.06
398.905	0
399.111	0.12
399.316	0.02
399.522	0.07
399.727	0.07
399.932	0.09
400.138	0.01
400.343	0.12
400.549	0.05
400.754	0.07
400.959	0.06
401.165	0.05
401.37	0.1
401.575	0.16
401.78	0.09
401.986	-0
402.191	0.08
402.396	0.06
402.601	0.08
402.807	0.09
403.012	0.05
403.217	0.15
403.422	0.09
403.627	0.08
403.832	0.05
404.037	0.09
404.243	0.08
404.448	0.06
404.653	0.08
404.858	0.1
405.063	0.14
405.268	0.08
405.473	0.04
405.678	0.07
405.883	0.2
406.088	0.11
406.293	0.05
406.498	0.05
406.703	0.12
406.907	0.09
407.112	0.05
407.317	0.11
407.522	0.14
407.727	0.07
407.932	0.14
408.136	0.18
408.341	0.05
408.546	0.18
408.751	0.16
408.956	0.12
409.16	0.19
409.365	0.12
409.57	0.14
409.774	0.14
409.979	0.18
410.184	0.21
410.388	0.11
410.593	0.22
410.798	0.18
411.002	0.12
411.207	0.2
411.411	0.17
411.616	0.1
411.82	0.14
412.025	0.22
412.229	0.15
412.434	0.25
412.638	0.21
412.843	0.2
413.047	0.24
413.252	0.18
413.456	0.2
413.66	0.24
413.865	0.2
414.069	0.29
414.273	0.22
414.478	0.24
414.682	0.24
414.886	0.24
415.091	0.2
415.295	0.18
415.499	0.33
415.703	0.26
415.908	0.32
416.112	0.24
416.316	0.34
416.52	0.31
416.724	0.29
416.929	0.3
417.133	0.5
417.337	0.38
417.541	0.38
417.745	0.39
417.949	0.48
418.153	0.44
418.357	0.35
418.561	0.56
418.765	0.45
418.969	0.56
419.173	0.58
419.377	0.49
419.581	0.62
419.785	0.56
419.989	0.57
420.193	0.58
420.397	0.61
420.601	0.66
420.804	0.72
421.008	0.74
421.212	0.74
421.416	0.79
421.62	0.64
421.823	0.73
422.027	0.86
422.231	0.77
422.435	0.8
422.638	0.84
422.842	0.82
423.046	0.84
423.249	0.92
423.453	0.95
423.657	0.95
423.86	1.02
424.064	1
424.268	1.11
424.471	1.03
424.675	1.15
424.878	1.15
425.082	1.13
425.285	1.26
425.489	1.2
425.692	1.22
425.896	1.2
426.099	1.31
426.303	1.26
426.506	1.29
426.71	1.37
426.913	1.41
427.116	1.48
427.32	1.45
427.523	1.47
427.726	1.6
427.93	1.56
428.133	1.63
428.336	1.62
428.54	1.7
428.743	1.74
428.946	1.82
429.149	1.82
429.353	1.84
429.556	1.84
429.759	1.81
429.962	1.89
430.165	1.95
430.368	1.87
430.571	1.82
430.775	1.93
430.978	1.93
431.181	1.9
431.384	1.89
431.587	1.9
431.79	1.99
431.993	1.93
432.196	2.04
432.399	2.13
432.602	2.25
432.805	2.21
433.008	2.36
433.211	2.2
433.414	2.44
433.616	2.42
433.819	2.42
434.022	2.33
434.225	2.54
434.428	2.48
434.631	2.66
434.833	2.42
435.036	2.61
435.239	2.66
435.442	2.6
435.645	2.67
435.847	2.72
436.05	2.8
436.253	2.83
436.455	2.85
436.658	2.83
436.861	2.97
437.063	2.9
437.266	2.96
437.468	3.05
437.671	3.32
437.874	3.14
438.076	3.1
438.279	3.24
438.481	3.32
438.684	3.45
438.886	3.39
439.089	3.42
439.291	3.5
439.494	3.58
439.696	3.63
439.899	3.77
440.101	3.92
440.303	3.97
440.506	4.29
440.708	4.09
440.91	4.19
441.113	4.23
441.315	4.36
441.517	4.3
441.72	4.51
441.922	4.31
442.124	4.38
442.326	4.48
442.529	4.65
442.731	4.56
442.933	4.78
443.135	4.61
443.337	4.67
443.539	4.89
443.742	4.81
443.944	4.91
444.146	4.9
444.348	4.9
444.55	4.9
444.752	5.05
444.954	5
445.156	5.05
445.358	5.22
445.56	5.32
445.762	5.13
445.964	5.41
446.166	5.18
446.368	5.27
446.57	5.32
446.772	5.19
446.974	5.11
447.175	5.17
447.377	5.15
447.579	5.3
447.781	5.21
447.983	5.25
448.184	4.99
448.386	5.29
448.588	5.03
448.79	5.09
448.991	5.22
449.193	5.23
449.395	5.03
449.597	4.99
449.798	4.94
450	4.8
450.202	4.73
450.403	4.72
450.605	4.82
450.806	4.6
451.008	4.47
451.21	4.41
451.411	4.34
451.613	4.12
451.814	4.24
452.016	4.19
452.217	3.98
452.419	4.1
452.62	3.85
452.821	3.81
453.023	3.81
453.224	3.6
453.426	3.52
453.627	3.23
453.828	3.3
454.03	3.39
454.231	3.37
454.432	3.19
454.634	3.14
454.835	3.06
455.036	3.01
455.238	2.92
455.439	2.96
455.64	2.7
455.841	2.62
456.042	2.78
456.244	2.64
456.445	2.58
456.646	2.36
456.847	2.37
457.048	2.46
457.249	2.4
457.45	2.47
457.651	2.1
457.852	2.08
458.054	2
458.255	1.99
458.456	1.96
458.657	1.98
458.858	1.85
459.058	1.81
459.259	1.89
459.46	1.78
459.661	1.71
459.862	1.87
460.063	1.75
460.264	1.72
460.465	1.55
460.666	1.68
460.866	1.58
461.067	1.52
461.268	1.51
461.469	1.46
461.67	1.48
461.87	1.38
462.071	1.44
462.272	1.36
462.473	1.42
462.673	1.5
462.874	1.41
463.075	1.38
463.275	1.38
463.476	1.42
463.676	1.4
463.877	1.33
464.078	1.31
464.278	1.4
464.479	1.32
464.679	1.31
464.88	1.26
465.08	1.27
465.281	1.21
465.481	1.1
465.682	1.1
465.882	1.19
466.083	1.14
466.283	1.07
466.483	1.01
466.684	1.02
466.884	0.92
467.085	0.97
467.285	1.02
467.485	0.91
467.686	0.92
467.886	0.89
468.086	0.89
468.286	0.83
468.487	0.97
468.687	0.81
468.887	0.88
469.087	0.95
469.287	0.86
469.488	0.77
469.688	0.86
469.888	0.9
470.088	0.84
470.288	0.82
470.488	0.82
470.688	0.71
470.888	0.7
471.088	0.66
471.288	0.74
471.488	0.75
471.688	0.77
471.888	0.7
472.088	0.79
472.288	0.7
472.488	0.65
472.688	0.63
472.888	0.65
473.088	0.67
473.288	0.66
473.488	0.64
473.688	0.74
473.887	0.59
474.087	0.6
474.287	0.61
474.487	0.59
474.687	0.66
474.886	0.64
475.086	0.57
475.286	0.61
475.486	0.6
475.685	0.58
475.885	0.58
476.085	0.55
476.284	0.56
476.484	0.61
476.684	0.6
476.883	0.62
477.083	0.56
477.282	0.49
477.482	0.59
477.681	0.64
477.881	0.52
478.08	0.53
478.28	0.51
478.479	0.53
478.679	0.61
478.878	0.49
479.078	0.48
479.277	0.53
479.477	0.52
479.676	0.57
479.875	0.5
480.075	0.45
480.274	0.51
480.473	0.53
480.673	0.49
480.872	0.53
481.071	0.53
481.271	0.53
481.47	0.49
481.669	0.5
481.868	0.49
482.067	0.51
482.267	0.44
482.466	0.49
482.665	0.48
482.864	0.44
483.063	0.49
483.262	0.52
483.461	0.56
483.661	0.56
483.86	0.53
484.059	0.52
484.258	0.52
484.457	0.5
484.656	0.53
484.855	0.57
485.054	0.44
485.253	0.48
485.452	0.48
485.651	0.52
485.849	0.53
486.048	0.51
486.247	0.52
486.446	0.55
486.645	0.46
486.844	0.54
487.043	0.5
487.241	0.55
487.44	0.51
487.639	0.53
487.838	0.56
488.037	0.55
488.235	0.61
488.434	0.55
488.633	0.49
488.831	0.57
489.03	0.61
489.229	0.57
489.427	0.57
489.626	0.61
489.825	0.64
490.023	0.61
490.222	0.58
490.42	0.63
490.619	0.63
490.817	0.61
491.016	0.58
491.214	0.66
491.413	0.62
491.611	0.62
491.81	0.62
492.008	0.7
492.207	0.68
492.405	0.69
492.604	0.62
492.802	0.66
493	0.69
493.199	0.68
493.397	0.7
493.595	0.72
493.794	0.66
493.992	0.77
494.19	0.76
494.388	0.72
494.587	0.7
494.785	0.74
494.983	0.74
495.181	0.77
495.379	0.79
495.578	0.77
495.776	0.8
495.974	0.8
496.172	0.76
496.37	0.83
496.568	0.83
496.766	0.81
496.964	0.89
497.162	0.86
497.36	0.84
497.558	0.89
497.756	0.9
497.954	0.89
498.152	0.89
498.35	0.92
498.548	0.91
498.746	0.92
498.944	0.91
499.142	0.94
499.34	0.95
499.538	1
499.736	0.93
499.933	1.02
500.131	1.05
500.329	1.03
500.527	1.05
500.725	1.09
500.922	1.09
501.12	1.06
501.318	1.08
501.516	1.05
501.713	1.13
501.911	1.09
502.109	1.08
502.306	1.16
502.504	1.13
502.701	1.13
502.899	1.14
503.097	1.24
503.294	1.2
503.492	1.21
503.689	1.2
503.887	1.25
504.084	1.27
504.282	1.24
504.479	1.21
504.677	1.29
504.874	1.26
505.072	1.28
505.269	1.34
505.466	1.33
505.664	1.35
505.861	1.3
506.059	1.3
506.256	1.35
506.453	1.36
506.651	1.4
506.848	1.47
507.045	1.43
507.242	1.41
507.44	1.43
507.637	1.45
507.834	1.42
508.031	1.53
508.229	1.46
508.426	1.44
508.623	1.54
508.82	1.5
509.017	1.47
509.214	1.5
509.411	1.54
509.608	1.52
509.805	1.56
510.003	1.56
510.2	1.56
510.397	1.62
510.594	1.57
510.791	1.61
510.988	1.65
511.184	1.63
511.381	1.58
511.578	1.63
511.775	1.7
511.972	1.67
512.169	1.68
512.366	1.69
512.563	1.69
512.76	1.72
512.956	1.73
513.153	1.68
513.35	1.7
513.547	1.7
513.744	1.71
513.94	1.69
514.137	1.76
514.334	1.76
514.53	1.75
514.727	1.81
514.924	1.83
515.12	1.78
515.317	1.76
515.514	1.78
515.71	1.77
515.907	1.85
516.103	1.87
516.3	1.82
516.497	1.89
516.693	1.9
516.89	1.89
517.086	1.84
517.283	1.97
517.479	1.88
517.676	1.93
517.872	1.94
518.068	1.92
518.265	1.86
518.461	1.88
518.658	1.91
518.854	1.96
519.05	1.94
519.247	1.97
519.443	1.97
519.639	2.03
519.836	1.97
520.032	1.97
520.228	2.02
520.424	2.03
520.621	2
520.817	2.02
521.013	2.01
521.209	2.07
521.405	2.09
521.601	2.04
521.798	2.04
521.994	2.1
522.19	1.95
522.386	2
522.582	2.06
522.778	2.12
522.974	2.05
523.17	2.06
523.366	2.02
523.562	2.09
523.758	2.07
523.954	2.02
524.15	2.1
524.346	2.15
524.542	2.09
524.738	2.07
524.934	2.13
525.129	2.16
525.325	2.12
525.521	2.09
525.717	2.19
525.913	2.1
526.109	2.11
526.304	2.18
526.5	2.17
526.696	2.13
526.892	2.12
527.087	2.24
527.283	2.15
527.479	2.19
527.674	2.1
527.87	2.17
528.066	2.19
528.261	2.19
528.457	2.14
528.653	2.2
528.848	2.15
529.044	2.2
529.239	2.16
529.435	2.21
529.63	2.2
529.826	2.23
530.021	2.19
530.217	2.21
530.412	2.19
530.608	2.19
530.803	2.2
530.999	2.15
531.194	2.16
531.389	2.25
531.585	2.2
531.78	2.27
531.975	2.22
532.171	2.27
532.366	2.23
532.561	2.26
532.757	2.2
532.952	2.3
533.147	2.22
533.342	2.28
533.538	2.19
533.733	2.33
533.928	2.17
534.123	2.27
534.318	2.25
534.513	2.22
534.709	2.28
534.904	2.26
535.099	2.26
535.294	2.26
535.489	2.29
535.684	2.29
535.879	2.24
536.074	2.3
536.269	2.28
536.464	2.32
536.659	2.29
536.854	2.27
537.049	2.29
537.244	2.31
537.439	2.26
537.634	2.25
537.828	2.27
538.023	2.31
538.218	2.25
538.413	2.25
538.608	2.27
538.803	2.3
538.997	2.23
539.192	2.34
539.387	2.26
539.582	2.29
539.776	2.25
539.971	2.3
540.166	2.33
540.36	2.25
540.555	2.33
540.75	2.3
540.944	2.31
541.139	2.3
541.334	2.28
541.528	2.32
541.723	2.31
541.917	2.32
542.112	2.25
542.306	2.22
542.501	2.3
542.695	2.31
542.89	2.27
543.084	2.32
543.279	2.33
543.473	2.32
543.668	2.32
543.862	2.25
544.056	2.3
544.251	2.29
544.445	2.35
544.64	2.32
544.834	2.25
545.028	2.19
545.222	2.34
545.417	2.36
545.611	2.37
545.805	2.32
546	2.29
546.194	2.34
546.388	2.28
546.582	2.31
546.776	2.28
546.97	2.32
547.165	2.29
547.359	2.31
547.553	2.27
547.747	2.3
547.941	2.37
548.135	2.29
548.329	2.34
548.523	2.32
548.717	2.29
548.911	2.27
549.105	2.28
549.299	2.33
549.493	2.35
549.687	2.31
549.881	2.32
550.075	2.31
550.269	2.19
550.463	2.35
550.657	2.32
550.85	2.32
551.044	2.28
551.238	2.32
551.432	2.3
551.626	2.31
551.82	2.3
552.013	2.27
552.207	2.32
552.401	2.37
552.594	2.29
552.788	2.33
552.982	2.33
553.176	2.28
553.369	2.37
553.563	2.38
553.756	2.32
553.95	2.32
554.144	2.34
554.337	2.35
554.531	2.27
554.724	2.35
554.918	2.32
555.111	2.31
555.305	2.34
555.498	2.32
555.692	2.34
555.885	2.35
556.079	2.35
556.272	2.3
556.466	2.32
556.659	2.32
556.852	2.34
557.046	2.3
557.239	2.31
557.432	2.28
557.626	2.34
557.819	2.38
558.012	2.34
558.206	2.38
558.399	2.32
558.592	2.36
558.785	2.3
558.979	2.33
559.172	2.3
559.365	2.33
559.558	2.3
559.751	2.3
559.944	2.32
560.138	2.26
560.331	2.34
560.524	2.31
560.717	2.32
560.91	2.32
561.103	2.35
561.296	2.26
561.489	2.35
561.682	2.37
561.875	2.39
562.068	2.37
562.261	2.31
562.454	2.37
562.647	2.29
562.84	2.33
563.032	2.31
563.225	2.32
563.418	2.29
563.611	2.36
563.804	2.34
563.997	2.26
564.19	2.22
564.382	2.3
564.575	2.34
564.768	2.33
564.961	2.37
565.153	2.3
565.346	2.31
565.539	2.37
565.731	2.34
565.924	2.31
566.117	2.39
566.309	2.33
566.502	2.32
566.695	2.3
566.887	2.33
567.08	2.28
567.272	2.31
567.465	2.25
567.657	2.34
567.85	2.31
568.042	2.33
568.235	2.32
568.427	2.3
568.62	2.3
568.812	2.29
569.005	2.34
569.197	2.27
569.389	2.34
569.582	2.32
569.774	2.31
569.966	2.25
570.159	2.25
570.351	2.29
570.543	2.31
570.736	2.3
570.928	2.23
571.12	2.32
571.312	2.3
571.505	2.25
571.697	2.35
571.889	2.29
572.081	2.28
572.273	2.25
572.465	2.38
572.658	2.3
572.85	2.34
573.042	2.24
573.234	2.3
573.426	2.29
573.618	2.24
573.81	2.31
574.002	2.31
574.194	2.3
574.386	2.3
574.578	2.2
574.77	2.24
574.962	2.31
575.154	2.2
575.346	2.27
575.538	2.25
575.729	2.24
575.921	2.26
576.113	2.26
576.305	2.32
576.497	2.29
576.689	2.23
576.88	2.24
577.072	2.33
577.264	2.25
577.456	2.24
577.647	2.2
577.839	2.27
578.031	2.27
578.223	2.22
578.414	2.19
578.606	2.28
578.798	2.25
578.989	2.18
579.181	2.27
579.372	2.3
579.564	2.26
579.755	2.26
579.947	2.24
580.139	2.26
580.33	2.16
580.522	2.2
580.713	2.19
580.905	2.18
581.096	2.26
581.287	2.22
581.479	2.17
581.67	2.25
581.862	2.23
582.053	2.2
582.244	2.1
582.436	2.2
582.627	2.17
582.818	2.16
583.01	2.16
583.201	2.21
583.392	2.15
583.583	2.21
583.775	2.12
583.966	2.18
584.157	2.18
584.348	2.19
584.54	2.13
584.731	2.23
584.922	2.14
585.113	2.16
585.304	2.21
585.495	2.2
585.686	2.2
585.877	2.2
586.068	2.2
586.259	2.16
586.45	2.17
586.641	2.13
586.832	2.13
587.023	2.19
587.214	2.14
587.405	2.2
587.596	2.12
587.787	2.18
587.978	2.15
588.169	2.11
588.36	2.09
588.551	2.15
588.742	2.14
588.932	2.17
589.123	2.1
589.314	2.16
589.505	2.1
589.696	2.1
589.886	2.07
590.077	2.07
590.268	2.11
590.458	2.07
590.649	1.98
590.84	2.13
591.03	2.07
591.221	2.05
591.412	2.06
591.602	2.15
591.793	2.1
591.984	2.08
592.174	2.06
592.365	2.15
592.555	2.04
592.746	2.02
592.936	2.05
593.127	2.06
593.317	2.06
593.508	2.04
593.698	2.05
593.889	2.06
594.079	2.01
594.269	2.02
594.46	2
594.65	2.06
594.84	2.02
595.031	1.97
595.221	2.01
595.411	2
595.602	2.02
595.792	2
595.982	1.98
596.172	2.06
596.363	2
596.553	1.99
596.743	2.01
596.933	1.99
597.123	2.01
597.314	1.92
597.504	1.92
597.694	2.02
597.884	1.95
598.074	1.96
598.264	1.94
598.454	1.98
598.644	1.94
598.834	1.96
599.024	1.85
599.214	1.92
599.404	1.96
599.594	1.9
599.784	1.89
599.974	1.94
600.164	1.97
600.354	1.87
600.544	1.85
600.734	1.95
600.924	1.9
601.114	1.85
601.303	1.85
601.493	1.88
601.683	1.91
601.873	1.9
602.063	1.81
602.252	1.88
602.442	1.8
602.632	1.82
602.821	1.81
603.011	1.84
603.201	1.81
603.39	1.81
603.58	1.75
603.77	1.84
603.959	1.82
604.149	1.84
604.339	1.79
604.528	1.92
604.718	1.82
604.907	1.79
605.097	1.76
605.286	1.76
605.476	1.79
605.665	1.86
605.855	1.77
606.044	1.82
606.234	1.81
606.423	1.8
606.612	1.75
606.802	1.76
606.991	1.78
607.181	1.78
607.37	1.72
607.559	1.7
607.749	1.69
607.938	1.71
608.127	1.7
608.316	1.68
608.506	1.73
608.695	1.72
608.884	1.7
609.073	1.71
609.263	1.76
609.452	1.75
609.641	1.73
609.83	1.66
610.019	1.68
610.208	1.65
610.397	1.68
610.586	1.71
610.775	1.61
610.965	1.64
611.154	1.6
611.343	1.65
611.532	1.64
611.721	1.66
611.91	1.63
612.099	1.61
612.287	1.58
612.476	1.58
612.665	1.64
612.854	1.57
613.043	1.62
613.232	1.61
613.421	1.56
613.61	1.58
613.798	1.57
613.987	1.61
614.176	1.56
614.365	1.59
614.554	1.6
614.742	1.6
614.931	1.53
615.12	1.6
615.309	1.54
615.497	1.56
615.686	1.49
615.875	1.53
616.063	1.52
616.252	1.49
616.44	1.5
616.629	1.5
616.818	1.46
617.006	1.49
617.195	1.48
617.383	1.53
617.572	1.43
617.76	1.44
617.949	1.46
618.137	1.5
618.326	1.51
618.514	1.39
618.703	1.38
618.891	1.5
619.079	1.39
619.268	1.45
619.456	1.4
619.644	1.49
619.833	1.38
620.021	1.42
620.209	1.33
620.398	1.45
620.586	1.43
620.774	1.43
620.962	1.37
621.151	1.43
621.339	1.38
621.527	1.36
621.715	1.36
621.903	1.34
622.092	1.28
622.28	1.36
622.468	1.33
622.656	1.32
622.844	1.34
623.032	1.37
623.22	1.25
623.408	1.37
623.596	1.33
623.784	1.34
623.972	1.29
624.16	1.31
624.348	1.33
624.536	1.33
624.724	1.21
624.912	1.34
625.1	1.29
625.288	1.28
625.476	1.21
625.664	1.28
625.851	1.23
626.039	1.3
626.227	1.24
626.415	1.25
626.603	1.18
626.79	1.26
626.978	1.23
627.166	1.27
627.354	1.22
627.541	1.2
627.729	1.15
627.917	1.27
628.104	1.2
628.292	1.19
628.48	1.17
628.667	1.18
628.855	1.21
629.042	1.24
629.23	1.17
629.418	1.18
629.605	1.16
629.793	1.17
629.98	1.14
630.168	1.17
630.355	1.15
630.543	1.17
630.73	1.07
630.917	1.17
631.105	1.21
631.292	1.13
631.48	1.16
631.667	1.2
631.854	1.12
632.042	1.13
632.229	1.04
632.416	1.11
632.604	1.1
632.791	1.01
632.978	1.11
633.165	1.12
633.353	1.14
633.54	1.18
633.727	1.02
633.914	1.08
634.101	0.99
634.289	1.13
634.476	1
634.663	1.05
634.85	1.08
635.037	1
635.224	1.01
635.411	1.04
635.598	1.04
635.785	0.99
635.972	1.01
636.159	1.05
636.346	0.96
636.533	0.99
636.72	1.04
636.907	0.98
637.094	1.03
637.281	1.01
637.468	1
637.655	0.99
637.842	1
638.029	0.96
638.215	0.99
638.402	0.99
638.589	0.94
638.776	0.96
638.963	0.9
639.149	0.98
639.336	1.02
639.523	0.99
639.709	0.93
639.896	0.95
640.083	1
640.27	0.97
640.456	0.91
640.643	0.94
640.829	0.86
641.016	0.92
641.203	0.89
641.389	0.94
641.576	0.9
641.762	0.88
641.949	0.84
642.135	0.9
642.322	0.89
642.508	0.81
642.695	0.88
642.881	0.84
643.068	0.84
643.254	0.88
643.441	0.9
643.627	0.88
643.813	0.79
644	0.9
644.186	0.75
644.372	0.9
644.559	0.83
644.745	0.84
644.931	0.76
645.118	0.84
645.304	0.82
645.49	0.78
645.676	0.8
645.862	0.8
646.049	0.83
646.235	0.8
646.421	0.86
646.607	0.82
646.793	0.78
646.979	0.76
647.165	0.77
647.352	0.79
647.538	0.8
647.724	0.73
647.91	0.77
648.096	0.76
648.282	0.76
648.468	0.75
648.654	0.76
648.84	0.76
649.026	0.73
649.212	0.75
649.397	0.7
649.583	0.68
649.769	0.77
649.955	0.75
650.141	0.74
650.327	0.8
650.513	0.63
650.698	0.76
650.884	0.64
651.07	0.76
651.256	0.73
651.442	0.71
651.627	0.68
651.813	0.71
651.999	0.7
652.184	0.74
652.37	0.66
652.556	0.67
652.741	0.74
652.927	0.58
653.113	0.67
653.298	0.67
653.484	0.64
653.669	0.61
653.855	0.66
654.04	0.68
654.226	0.66
654.412	0.62
654.597	0.6
654.782	0.65
654.968	0.65
655.153	0.63
655.339	0.63
655.524	0.59
655.71	0.64
655.895	0.65
656.08	0.63
656.266	0.63
656.451	0.62
656.636	0.59
656.822	0.57
657.007	0.61
657.192	0.59
657.378	0.56
657.563	0.63
657.748	0.57
657.933	0.6
658.118	0.56
658.304	0.52
658.489	0.61
658.674	0.6
658.859	0.53
659.044	0.58
659.229	0.63
659.414	0.56
659.599	0.52
659.785	0.45
659.97	0.58
660.155	0.58
660.34	0.54
660.525	0.54
660.71	0.57
660.895	0.58
661.08	0.51
661.264	0.5
661.449	0.57
661.634	0.6
661.819	0.58
662.004	0.53
662.189	0.48
662.374	0.53
662.559	0.51
662.743	0.45
662.928	0.54
663.113	0.5
663.298	0.46
663.483	0.47
663.667	0.53
663.852	0.45
664.037	0.55
664.221	0.51
664.406	0.5
664.591	0.49
664.775	0.51
664.96	0.46
665.145	0.5
665.329	0.49
665.514	0.5
665.698	0.49
665.883	0.37
666.068	0.51
666.252	0.47
666.437	0.4
666.621	0.46
666.806	0.51
666.99	0.48
667.174	0.42
667.359	0.51
667.543	0.42
667.728	0.42
667.912	0.4
668.096	0.44
668.281	0.4
668.465	0.44
668.649	0.42
668.834	0.39
669.018	0.44
669.202	0.44
669.387	0.41
669.571	0.49
669.755	0.4
669.939	0.43
670.124	0.42
670.308	0.44
670.492	0.44
670.676	0.39
670.86	0.42
671.044	0.36
671.228	0.44
671.413	0.36
671.597	0.39
671.781	0.37
671.965	0.46
672.149	0.39
672.333	0.39
672.517	0.33
672.701	0.43
672.885	0.34
673.069	0.32
673.253	0.42
673.437	0.39
673.621	0.34
673.804	0.4
673.988	0.32
674.172	0.38
674.356	0.34
674.54	0.39
674.724	0.48
674.908	0.39
675.091	0.39
675.275	0.37
675.459	0.36
675.643	0.41
675.826	0.37
676.01	0.35
676.194	0.37
676.377	0.38
676.561	0.4
676.745	0.34
676.928	0.38
677.112	0.39
677.296	0.32
677.479	0.3
677.663	0.34
677.846	0.42
678.03	0.33
678.213	0.33
678.397	0.37
678.58	0.31
678.764	0.32
678.947	0.26
679.131	0.3
679.314	0.38
679.498	0.36
679.681	0.4
679.865	0.38
680.048	0.31
680.231	0.32
680.415	0.27
680.598	0.33
680.781	0.29
680.965	0.32
681.148	0.32
681.331	0.29
681.514	0.35
681.698	0.29
681.881	0.36
682.064	0.32
682.247	0.3
682.43	0.2
682.614	0.31
682.797	0.35
682.98	0.32
683.163	0.24
683.346	0.35
683.529	0.27
683.712	0.28
683.895	0.32
684.078	0.24
684.261	0.27
684.444	0.38
684.627	0.3
684.81	0.25
684.993	0.29
685.176	0.29
685.359	0.26
685.542	0.22
685.725	0.38
685.908	0.31
686.091	0.29
686.274	0.3
686.457	0.3
686.639	0.29
686.822	0.33
687.005	0.31
687.188	0.34
687.371	0.34
687.553	0.3
687.736	0.32
687.919	0.33
688.102	0.35
688.284	0.19
688.467	0.24
688.65	0.25
688.832	0.2
689.015	0.26
689.197	0.19
689.38	0.34
689.563	0.32
689.745	0.2
689.928	0.2
690.11	0.26
690.293	0.25
690.475	0.24
690.658	0.29
690.84	0.26
691.023	0.28
691.205	0.24
691.388	0.29
691.57	0.3
691.752	0.27
691.935	0.14
692.117	0.16
692.3	0.22
692.482	0.26
692.664	0.23
692.847	0.3
693.029	0.32
693.211	0.26
693.393	0.21
693.576	0.2
693.758	0.23
693.94	0.25
694.122	0.22
694.304	0.18
694.487	0.22
694.669	0.31
694.851	0.17
695.033	0.22
695.215	0.23
695.397	0.17
695.579	0.25
695.761	0.21
695.943	0.15
696.125	0.3
696.308	0.24
696.49	0.13
696.671	0.34
696.853	0.19
697.035	0.39
697.217	0.19
697.399	0.25
697.581	0.17
697.763	0.22
697.945	0.19
698.127	0.2
698.309	0.24
698.491	0.21
698.672	0.27
698.854	0.28
699.036	0.28
699.218	0.19
699.399	0.29
699.581	0.27
699.763	0.21
699.945	0.18
700.126	0.16
700.308	0.22
700.49	0.17
700.671	0.13
700.853	0.14
701.035	0.2
701.216	0.23
701.398	0.15
701.579	0.19
701.761	0.25
701.943	0.12
702.124	0.14
702.306	0.15
702.487	0.3
702.669	0.13
702.85	0.11
703.031	0.09
703.213	0.29
703.394	0.28
703.576	0.13
703.757	0.25
703.938	0.26
704.12	0.31
704.301	0.19
704.483	0.11
704.664	0.22
704.845	0.29
705.026	0.21
705.208	0.19
705.389	0.19
705.57	0.15
705.751	0.14
705.933	0.16
706.114	0.25
706.295	0.22
706.476	0.12
706.657	0.25
706.838	0.18
707.02	0.17
707.201	0.16
707.382	0.14
707.563	0.24
707.744	0.17
707.925	0.14
708.106	0.15
708.287	0.19
708.468	0.22
708.649	0.14
708.83	0.21
709.011	0.16
709.192	0.25
709.373	0.08
709.554	0.16
709.734	0.18
709.915	0.23
710.096	0.2
710.277	0.03
710.458	0.15
710.639	0.23
710.819	0.05
711	0.1
711.181	0.18
711.362	0.22
711.542	0.17
711.723	0.2
711.904	0.16
712.085	0.18
712.265	0.2
712.446	0.04
712.627	0.14
712.807	0.17
712.988	0.16
713.168	0.07
713.349	0.21
713.53	0.06
713.71	0.09
713.891	0.04
714.071	0.1
714.252	0.09
714.432	0.08
714.613	0.03
714.793	0.13
714.974	0.23
715.154	0.23
715.334	0.19
715.515	0.22
715.695	0.03
715.876	0.08
716.056	0.08
716.236	0.05
716.417	0.18
716.597	0.09
716.777	0.27
716.957	0.16
717.138	0.12
717.318	0.14
717.498	0.06
717.678	0.1
717.859	0.09
718.039	0.03
718.219	0.13
718.399	0.12
718.579	0.09
718.759	0.05
718.939	0.21
719.12	0.11
719.3	0.12
719.48	-0.01
719.66	0.01
719.84	0.2
720.02	0.18
720.2	0.04
720.38	0.13
720.56	0.19
720.74	0.01
720.92	0.17
721.1	0.27
721.279	0.18
721.459	0.1
721.639	0.08
721.819	0.14
721.999	0.12
722.179	0.2
722.359	0.02
722.538	0.13
722.718	0.12
722.898	0.1
723.078	0.07
723.257	0.11
723.437	0.17
723.617	0.1
723.797	0.07
723.976	0.08
724.156	0.2
724.336	0.23
724.515	0.23
724.695	-0.06
724.874	0.12
725.054	0.11
725.234	0.07
725.413	0.13
725.593	0.07
725.772	0.13
725.952	0.07
726.131	0.17
726.311	0.11
726.49	0.16
726.67	-0.02
726.849	0.15
727.028	0.17
727.208	0.12
727.387	0.1
727.567	-0.01
727.746	0.06
727.925	0.04
728.105	0.04
728.284	0.11
728.463	0.07
728.643	0.19
728.822	-0.05
729.001	0.01
729.18	0.06
729.359	0.15
729.539	0.16
729.718	0.11
729.897	0.12
730.076	0.09
730.255	0.02
730.434	0.04
730.614	0.09
730.793	0.13
730.972	0.05
731.151	0.09
731.33	0.25
731.509	0.06
731.688	0.07
731.867	0.09
732.046	-0.08
732.225	0.31
732.404	0.08
732.583	-0.02
732.762	0.1
732.941	0.18
733.12	0.08
733.298	0.06
733.477	0.18
733.656	0.04
733.835	-0.06
734.014	0.2
734.193	0.09
734.371	0.1
734.55	0.04
734.729	-0.04
734.908	0.1
735.086	0.2
735.265	0.18
735.444	-0.01
735.623	-0.04
735.801	0.07
735.98	0.05
736.159	0.08
736.337	0.17
736.516	0.08
736.694	0.16
736.873	0.11
737.052	0.29
737.23	0.2
737.409	-0.1
737.587	0.24
737.766	0
737.944	0.02
738.123	0.11
738.301	0.11
738.479	0.06
738.658	0.17
738.836	-0.02
739.015	0.09
739.193	0.2
739.371	-0.05
739.55	0.08
739.728	-0.04
739.906	0.15
740.085	0.29
740.263	0.09
740.441	-0.07
740.62	0.24
740.798	0.17
740.976	0.09
741.154	-0.06
741.332	0.22
741.511	0.09
741.689	0.12
741.867	0.19
742.045	0.07
742.223	0.12
742.401	-0.02
742.579	0.03
742.757	0.15
742.935	-0.02
743.114	0.01
743.292	0.06
743.47	0.09
743.648	0.04
743.826	-0.05
744.004	0.15
744.181	0.03
744.359	0.06
744.537	0.15
744.715	0.08
744.893	0.04
745.071	0.07
745.249	0.04
745.427	0.1
745.605	0.22
745.782	0.02
745.96	0.15
746.138	0.17
746.316	0.16
746.493	0.07
746.671	0.11
746.849	-0.03
747.027	0.25
747.204	0.12
747.382	0.09
747.56	-0.03
747.737	0.09
747.915	-0.02
748.093	0.1
748.27	0.01
748.448	0.05
748.625	-0.08
748.803	-0.03
748.98	0.01
749.158	0.18
749.335	0.15
749.513	0
749.69	-0
749.868	0.05
750.045	0.14
750.223	0.12
750.4	-0.27
750.578	0.29
750.755	0.04
750.932	0.01
751.11	0.19
751.287	-0.09
751.464	0.2
751.642	-0.08
751.819	0.21
751.996	0.03
752.173	0.06
752.351	0.04
752.528	0.11
752.705	0.02
752.882	-0
753.06	0.03
753.237	0.12
753.414	0.3
753.591	0.18
753.768	0.09
753.945	-0.05
754.122	-0.07
754.299	0.02
754.476	-0.03
754.654	0.13
754.831	0.16
755.008	0.09
755.185	-0.03
755.362	-0.03
755.539	0.11
755.716	0.02
755.892	-0.05
756.069	0.05
756.246	0.06
756.423	0.04
756.6	0.19
756.777	0.01
756.954	0.19
757.131	-0.01
757.307	-0
757.484	-0.02
757.661	0.05
757.838	0.02
758.015	-0.13
758.191	0.13
758.368	-0.03
758.545	0.17
758.721	0.13
758.898	-0.11
759.075	0.1
759.251	0.08
759.428	0.13
759.605	-0.06
759.781	0.07
759.958	0.08
760.134	0.14
760.311	-0
760.488	0.26
760.664	0.29
760.841	0.08
761.017	-0
761.194	0.01
761.37	0.1
761.547	0.02
761.723	-0.03
761.899	0.25
762.076	0.03
762.252	0.02
762.429	-0
762.605	0.22
762.781	-0.01
762.958	0.12
763.134	0.13
763.31	-0.02
763.486	0.22
763.663	-0.16
763.839	0.06
764.015	-0.08
764.191	-0.06
764.368	0.01
764.544	-0.01
764.72	0.13
764.896	0.2
765.072	0.06
765.248	0.04
765.425	0.01
765.601	0.05
765.777	0.16
765.953	-0.14
766.129	-0.04
766.305	-0
766.481	0.08
766.657	0
766.833	0.24
767.009	-0.11
767.185	-0.16
767.361	0.1
767.537	-0.03
767.713	0.08
767.889	-0.02
768.065	0.04
768.24	0.09
768.416	0.13
768.592	-0.02
768.768	0.05
768.944	0.09
769.12	-0
769.295	-0.04
769.471	-0.08
769.647	0.06
769.823	0.21
769.998	-0.02
770.174	-0.09
770.35	0.35
770.525	0.21
770.701	0.15
770.877	-0.06
771.052	-0.04
771.228	0.2
771.403	0.1
771.579	0.1
771.755	0.31
771.93	-0.16
772.106	0.01
772.281	-0.12
772.457	0.18
772.632	0.07
772.808	-0.15
772.983	-0.1
773.159	-0.12
773.334	0.2
773.509	-0.03
773.685	0.02
773.86	0.33
774.036	0.32
774.211	0.02
774.386	-0.11
774.562	0.01
774.737	0.24
774.912	-0.02
775.087	0.09
775.263	0.03
775.438	0.1
775.613	-0.12
775.788	0.02
775.964	0.13
776.139	0.28
776.314	-0.13
776.489	0.04
776.664	0.06
776.839	-0.08
777.014	0.19
777.19	0.06
777.365	0.3
777.54	0.24
777.715	-0.02
777.89	0.03
778.065	-0.02
778.24	0.1
778.415	0.23
778.59	-0.2
778.765	-0.06
778.94	0.12
779.115	0.08
779.289	0.1
779.464	0.21
779.639	-0.05
779.814	-0.08
779.989	-0.18
780.164	0.33
780.339	0.14
780.513	0.01
780.688	-0.14
780.863	0.22
781.038	0.14
781.212	-0.05
781.387	-0.02
781.562	0.34
781.737	-0.06
781.911	0.31
782.086	0.01
782.261	0.04
782.435	0.35
782.61	-0.03
782.784	-0.06
782.959	0.32
783.134	-0.13
783.308	-0.06
783.483	0.05
783.657	0.32
783.832	0.1
784.006	-0.33
784.181	0.07
784.355	0.11
784.53	-0.12
784.704	-0.13
784.878	0.34
785.053	0.05
785.227	0.21
785.402	0.22
785.576	-0.35
785.75	-0.04
785.925	-0.04
786.099	0.05
786.273	0.36
786.448	0.11
786.622	0.1
786.796	-0.03
786.97	-0.09
787.145	0.5
787.319	-0.29
787.493	-0.15
787.667	-0.34
787.841	-0.02
788.015	0.01
788.19	-0.04
788.364	0.25
788.538	0.17
788.712	0.23
788.886	-0.09
789.06	0.46
789.234	0.28
789.408	-0.13
789.582	-0.1
789.756	-0.01
789.93	-0.25
790.104	-0.16
790.278	0.04
790.452	-0.13
790.626	0.19
790.8	-0.15
790.973	0.21
791.147	0.21
791.321	0.38
791.495	0.28
791.669	0.19
791.843	0.17
792.016	-0.11
792.19	0.21
792.364	-0.17
792.538	0.51
792.711	0.2
792.885	-0.18
793.059	-0.09
793.233	-0.43
793.406	0.03
793.58	0.1
793.754	0.27
793.927	0.11
794.101	0.29
794.274	-0.15
794.448	0.3
794.622	-0.27
794.795	0.22
794.969	-0.28
795.142	0.44
795.316	0.21
795.489	-0.2
795.663	0.56
795.836	0.04
796.009	-0.02
796.183	0.4
796.356	0.05
796.53	0.1
796.703	-0.13
796.876	0.42
797.05	0.02
797.223	-0.08
797.396	-0.04
797.57	0.09
797.743	0.52
797.916	0.17
798.09	-0.02
798.263	0.32
798.436	0.37
798.609	-0.05
798.782	0.05
798.956	-0.01
799.129	-0.12
799.302	0.21
799.475	-0.3
799.648	-0.3
799.821	0.1
799.994	0.02
800.167	-0.21
800.34	-0.09
800.514	-0.01
800.687	-0.16
800.86	0.03
801.033	0.09
801.206	-0.1
801.379	-0.19
801.551	0
801.724	0.19
801.897	0.3
802.07	0.04
802.243	-0.35
802.416	-0.01
802.589	0.08
802.762	0.19
802.935	0.18
803.107	0.2
803.28	0.19
803.453	0.4
803.626	-0.21
803.798	0.08
803.971	0.21
804.144	0.17
804.317	0.09
804.489	0.38
804.662	-0.09
804.835	0.15
805.007	-0.1
805.18	0.25
805.353	0.03
805.525	-0.19
805.698	0.07
805.87	0.18
806.043	0.12
806.215	-0.58
806.388	-0.38
806.56	0.14
806.733	0.39
806.905	0.21
807.078	-0.09
807.25	0.02
807.423	0.57
807.595	0.06
807.768	0.2
807.94	0.47
808.112	0.18
808.285	-0.13
808.457	0.1
808.629	0.06
808.802	0.44
808.974	0.16
809.146	-0.17
809.318	-0.05
809.491	-0.03
809.663	0.26
809.835	-0.13
810.007	0.18
810.18	0.05
810.352	-0.31
810.524	-0.13
810.696	0.16
810.868	0.5
811.04	-0.03
811.212	0.02
811.384	0.17
811.556	-0.07
811.728	0.02
811.901	0.71
812.073	-0.03
812.245	0.18
812.417	0.01
812.589	-0.41
812.76	0.28
812.932	0.15
813.104	0.37
813.276	-0.19
813.448	0.51
813.62	0.41
813.792	0.09
813.964	-0.07
814.136	-0.05
814.307	0.11
814.479	-0.56
814.651	0.09
814.823	0.82
814.995	-0.02
815.166	0.29
815.338	-0.38
815.51	-0.51
815.681	0.67
815.853	0.03
816.025	-0.36
816.196	0.27
816.368	0.68
816.54	-0.48
816.711	-0.6
816.883	0.63
817.054	0.96
817.226	-0.26
817.398	0.38
817.569	-0.32
817.741	0.08
817.912	-0
818.084	-0.14
818.255	0.62
818.426	-0.21
818.598	0.06
818.769	-0.47
818.941	0.27
819.112	0.97
819.283	0.33
819.455	-0.51
819.626	0.28
819.798	0.48
819.969	0.19
820.14	-0.16
820.311	-0.2
820.483	0.07
820.654	0.48
820.825	0.06
820.996	-0.16
821.168	-0.22
821.339	-0.03
821.51	-0.55
821.681	-0.23
821.852	0.04
822.023	-0.56
822.195	-0.75
822.366	0.61
822.537	0.38
822.708	-0.19
822.879	-0.34
823.05	0.26
823.221	-0.38
823.392	0.26
823.563	0.37
823.734	-0.14
823.905	0.06
824.076	-0.76
824.247	-0.71
824.418	-0.08
824.589	0.57
824.759	0.02
824.93	0.21
825.101	-0.19
825.272	0.78
825.443	0.64
825.614	0.64
825.784	-0.94
825.955	0.93
826.126	0.71
826.297	-0.39
826.467	1.12
826.638	0.15
826.809	-0.54
826.98	0.32
827.15	0.2
827.321	0.26
827.492	0.26
827.662	0.16
827.833	0.7
828.003	0.54
828.174	-0.02
828.345	-0.71
828.515	1.22
828.686	0.16
828.856	-0.43
829.027	-0.13
829.197	0.37
829.368	-0.06
829.538	-0.4
829.709	-0.27
829.879	-0.34
830.049	0.1
830.22	-0.31
830.39	0.08
830.56	0.47
830.731	-0.05
830.901	-0.57
831.072	-0.06
831.242	0.71
831.412	0.28
831.582	-0.11
831.753	-0.39
831.923	0.44
832.093	-0.28
832.263	-0.17
832.434	-0.35
832.604	-0.23
832.774	-0.06
832.944	-0.35
833.114	-0.16
833.284	0.38
833.454	0.02
833.624	-0.28
833.795	-0.04
833.965	0.12
834.135	0.34
834.305	-0.83
834.475	-0.16
834.645	0.05
834.815	-0.08
834.985	-1.02
835.155	-0.27
835.325	-0.11
835.494	-0.02
835.664	-0.23
835.834	-0.18
836.004	0.2
836.174	0.26
836.344	0.31
836.514	-1.07
836.684	-0.1
836.853	0.1
837.023	0.05
837.193	-0.46
837.363	0.54
837.532	0.6
837.702	0.12
837.872	-0.31
838.041	0.39
838.211	0.77
838.381	-1.07
838.55	0.26
838.72	1.46
838.89	0.5
839.059	-0.38
839.229	-0.83
839.398	1.27
839.568	-0.06
839.738	-0.01
839.907	0.84
840.077	0.35
840.246	-0.43
840.416	-0.52
840.585	-0.66
840.755	0.68
840.924	0.6
841.093	-0.3
841.263	0.02
841.432	-0.15
841.602	-0.14
841.771	-1.35
841.94	-0.16
842.11	1.99
842.279	1.72
842.448	-0.36
842.617	0.01
842.787	0.72
842.956	-1.36
843.125	-0.32
843.294	-0.12
843.464	1.02
843.633	-0.01
843.802	-0.41
843.971	-0.4
844.14	0.78
844.309	0.5
844.479	-1.84
844.648	-0.45
844.817	-0.16
844.986	0.71
845.155	-0.03
845.324	-0.24
845.493	0.67
845.662	-1.15
845.831	-0.03
846	0.85
846.169	0.86
846.338	1.38
846.507	0.89
846.676	0.3
846.844	-0.71
847.013	0.76
847.182	-0.25
847.351	0.02
847.52	-0.38
847.689	0.83
847.858	-0.67
848.026	-0.97
848.195	0.25
848.364	-0.52
848.533	0.11
848.701	-0.77
848.87	0.07
849.039	1.39
849.207	1.47
849.376	1.08
849.545	1.87
849.713	0.07
849.882	-0.37
850.051	-0.31
850.219	-0.42
850.388	1.57
850.556	-0.79
850.725	-0.74
850.893	-0.66
851.062	-0.97
851.23	1
851.399	-1.49
851.567	-0.62
851.736	-0
851.904	-1.1
852.073	0.53
852.241	0.84
852.41	0.28
852.578	0.18
852.746	-0.49
852.915	0.39
853.083	0.35
853.251	-1.72
853.42	0.12
853.588	0.02
853.756	0.89
853.924	-0.02
854.093	-0.6
854.261	-0.6
854.429	-1.92
854.597	0.26
854.765	-1.04
854.934	0.32
855.102	0.45
855.27	-0.15
855.438	0.82
855.606	0.57
855.774	0.35
855.942	-2.34
856.11	-1.31
856.278	-0.25
856.446	0.72
856.614	0.28
856.782	-0.8
856.95	-0.01
857.118	0.28
857.286	-0.17
857.454	-1.48
857.622	1.41
857.79	0.7
857.958	-0.39
858.126	0.06
858.294	-2.53
858.462	-0.3
858.629	-0.88
858.797	-0.72
858.965	0.12
859.133	1.09
859.301	0.16
859.468	0.58
859.636	-1.27
859.804	1.81
859.971	0.87
860.139	-0.31
860.307	0.06
860.474	0.42
860.642	-0.54
860.81	-0.7
860.977	-0.11
861.145	2.17
861.313	-0.26
861.48	0.42
861.648	1.23
861.815	0.29
861.983	-0.98
862.15	-0.55
862.318	1.57
862.485	1.05
862.653	-1.87
862.82	-1
862.988	1.71
863.155	0.13
863.322	-0.35
863.49	-2.5
863.657	-0.71
863.824	1.48
863.992	0.58
864.159	0.81
864.326	-0.06
864.494	-0.76
864.661	3.21
864.828	-1.81
864.996	1.41
865.163	-0.23
865.33	-0.82
865.497	-2.42
865.664	-0.63
865.832	-3.07
865.999	-0.44
866.166	-1.91
866.333	0.04
866.5	-0.02
866.667	-0.38
866.834	-0.81
867.001	1.21
867.168	-1.89
867.335	0.37
867.502	-1.94
867.669	0.3
867.836	3.53
868.003	-1.26
868.17	1.22
868.337	-1.11
868.504	2.48
868.671	-1.56
868.838	-1.94
869.005	-0.85
869.172	0.45
869.339	-1.15
869.505	0.49
869.672	0.06
869.839	0.66
870.006	-0.35
870.173	-1.96
870.339	0.36
870.506	3.54
870.673	-2.13
870.84	0.39
871.006	0.47
871.173	-1.58
871.34	-0.1
871.506	-0.74
871.673	2.13
871.839	-1.13
872.006	0.51
872.173	-0.02
872.339	0.43
872.506	2.22
872.672	-0.58
872.839	-3.05
873.005	-0.68
873.172	1.82
873.338	1.63
873.505	0.3
873.671	0.13
873.838	0.25
874.004	-2.31
874.171	-1.42
874.337	1.03
874.503	1.29
874.67	-0.02
874.836	0.22
875.002	3.42
875.169	1.09
875.335	-1
875.501	0.63
875.668	0.42
875.834	-0.02
876	-1.21
876.166	0.68
876.332	0.77
876.499	3.28
876.665	-1.74
876.831	0.78
876.997	4.43
877.163	0.62
877.329	0.11
877.495	0.62
877.662	1.19
877.828	-0.04
877.994	-0.04
878.16	-3.11
878.326	-1.9
878.492	0.59
878.658	-0.33
878.824	0.91
878.99	2.47
879.156	-0.17
879.322	2.39
879.487	-1.55
879.653	2.33
879.819	1.17
879.985	-0.91
880.151	0.54
880.317	0.73
880.483	-0.73
880.648	0.88
880.814	-2.52
880.98	-0.3
881.146	-1.97
881.312	-2.7
881.477	-1.33
881.643	0.66
881.809	2.14
881.974	1.54
882.14	-1.71
882.306	-0.55
882.471	1.71
882.637	-0
882.803	1.12
882.968	2.92
883.134	3.72
883.299	0.8
883.465	-0.6
883.63	1.85
883.796	2.44
883.961	0.09
884.127	2.73
884.292	-3.1
884.458	-1.05
884.623	-1.05
