Data from Apollo_Calib_20240827__AbsoluteIrradiance__710__10-59-00-741.txt Node

Date: Wed Aug 28 10:59:00 BST 2024
User: biology
Spectrometer: FLMT08252
Trigger mode: 0
Integration Time (sec): 5.000000E-1
Scans to average: 5
Electric dark correction enabled: true
Nonlinearity correction enabled: false
Boxcar width: 0
XAxis mode: Wavelengths
Number of Pixels in Spectrum: 3648
>>>>>Begin Spectral Data<<<<<
179.588	-0
179.809	-0
180.03	-0
180.251	-0
180.473	-0
180.694	0
180.915	0
181.136	-0
181.357	0
181.578	0
181.799	-0
182.02	-0
182.241	-0
182.462	-0
182.683	0
182.904	-0
183.125	-0
183.346	0
183.567	0
183.788	-0
184.009	-0
184.23	0
184.451	0
184.672	-0
184.892	-0
185.113	0
185.334	0
185.555	-0
185.776	-0
185.996	0
186.217	-0
186.438	-0
186.659	-0
186.879	-0
187.1	-0
187.321	-0
187.541	-0
187.762	-0
187.983	-0
188.203	0
188.424	-0
188.644	-0
188.865	-0
189.086	-0
189.306	-0
189.527	-0
189.747	-0
189.968	-0
190.188	-0
190.409	-0
190.629	0
190.849	-0
191.07	-0
191.29	0
191.511	-0
191.731	-0
191.951	-0
192.172	-0
192.392	-0
192.612	-0
192.833	-0
193.053	0
193.273	0
193.493	-0
193.714	-0
193.934	0
194.154	0
194.374	0
194.594	0
194.815	0
195.035	-0
195.255	-0
195.475	-0
195.695	0
195.915	0
196.135	0
196.355	0
196.575	0
196.795	-0
197.015	-0
197.235	-0
197.455	-0
197.675	0
197.895	-0
198.115	-0
198.335	0
198.555	-0
198.775	-0
198.995	0
199.214	0
199.434	0
199.654	-0
199.874	-0
200.094	0.83
200.313	-0.04
200.533	-0.38
200.753	-1.06
200.973	0.59
201.192	0.12
201.412	-0.92
201.632	-0.58
201.851	0.46
202.071	-0.81
202.291	-0.56
202.51	-0.65
202.73	0.49
202.95	-0.65
203.169	-0.33
203.389	0.03
203.608	0.13
203.828	-0.53
204.047	-0.15
204.267	0.07
204.486	-0.53
204.706	0.14
204.925	-0.18
205.145	-0.21
205.364	0.08
205.583	0.41
205.803	-0.24
206.022	-0.74
206.242	0.01
206.461	-0.43
206.68	-0.42
206.9	-0.09
207.119	0.18
207.338	0.37
207.557	-0.37
207.777	-0.08
207.996	-0.28
208.215	0.54
208.434	-0.53
208.654	-0.62
208.873	0
209.092	0.2
209.311	0.03
209.53	-0.03
209.749	-0.21
209.968	-0.46
210.187	-0.47
210.407	-0.48
210.626	-0.22
210.845	-0
211.064	-0.19
211.283	-0.46
211.502	0.26
211.721	-0.16
211.94	-0.25
212.159	0.07
212.377	0.2
212.596	0.25
212.815	0.04
213.034	0.12
213.253	0.38
213.472	0.19
213.691	-0.12
213.91	-0.26
214.128	-0.18
214.347	0.11
214.566	-0.38
214.785	-0.44
215.003	0.09
215.222	0.07
215.441	-0.13
215.66	-0.35
215.878	0.04
216.097	-0
216.316	-0.28
216.534	-0.09
216.753	-0.18
216.972	-0.16
217.19	-0.3
217.409	-0.07
217.627	-0.13
217.846	-0.14
218.064	-0.03
218.283	-0.31
218.501	0.32
218.72	0.19
218.938	-0.2
219.157	-0.03
219.375	0.11
219.594	0.1
219.812	-0.27
220.031	-0.23
220.249	0.24
220.467	0.23
220.686	-0.17
220.904	-0.35
221.122	-0.22
221.341	0.35
221.559	-0.13
221.777	-0.19
221.995	-0.11
222.214	-0.1
222.432	-0.25
222.65	0.04
222.868	-0.01
223.086	0.06
223.305	0.02
223.523	-0.15
223.741	0.27
223.959	-0.3
224.177	-0.19
224.395	-0.09
224.613	-0.08
224.831	0.12
225.049	-0.26
225.267	-0.09
225.485	-0.11
225.703	-0.05
225.921	-0.08
226.139	-0.13
226.357	0.17
226.575	-0.1
226.793	-0.21
227.011	0.52
227.229	-0.02
227.447	0.21
227.665	-0.09
227.883	-0.23
228.1	-0.03
228.318	-0.07
228.536	-0.32
228.754	-0.2
228.972	0.05
229.189	-0.01
229.407	-0.13
229.625	-0.08
229.843	0.26
230.06	0.13
230.278	-0.05
230.496	0.05
230.713	-0.03
230.931	0.18
231.149	-0.2
231.366	-0.24
231.584	-0.05
231.801	0.27
232.019	-0.21
232.236	-0.26
232.454	-0.18
232.671	-0.08
232.889	-0.01
233.106	-0.2
233.324	-0.06
233.541	0.03
233.759	-0.02
233.976	-0.11
234.194	0.02
234.411	0.01
234.628	-0.21
234.846	-0.05
235.063	0.03
235.28	-0.08
235.498	-0
235.715	-0.16
235.932	0.06
236.149	-0.02
236.367	-0.11
236.584	-0
236.801	-0.12
237.018	0.05
237.236	-0.07
237.453	-0.14
237.67	0.04
237.887	-0.04
238.104	-0.08
238.321	-0.1
238.538	-0.12
238.755	0.1
238.973	-0.26
239.19	-0.07
239.407	0.04
239.624	0.02
239.841	-0.13
240.058	-0.12
240.275	0.05
240.492	-0.05
240.709	-0
240.925	-0.09
241.142	0.07
241.359	-0.14
241.576	-0.14
241.793	-0.11
242.01	-0.07
242.227	0.04
242.444	-0.03
242.66	0.07
242.877	0.04
243.094	-0.11
243.311	-0.05
243.527	-0
243.744	-0.04
243.961	-0.04
244.178	-0.08
244.394	-0.03
244.611	0.18
244.828	0.1
245.044	-0.08
245.261	-0.01
245.477	-0.06
245.694	0.06
245.911	-0.09
246.127	-0.05
246.344	0.07
246.56	0.05
246.777	-0.11
246.993	-0.02
247.21	-0.01
247.426	0.1
247.643	-0.01
247.859	-0.15
248.076	-0.08
248.292	0.06
248.508	-0.11
248.725	-0.02
248.941	0.06
249.157	0.07
249.374	-0.11
249.59	-0.07
249.806	-0.05
250.023	0
250.239	-0.14
250.455	-0.07
250.671	-0.03
250.888	0.01
251.104	0.04
251.32	-0.06
251.536	-0.02
251.752	-0.1
251.969	-0.02
252.185	-0.03
252.401	0.18
252.617	-0.01
252.833	-0.07
253.049	-0
253.265	-0.04
253.481	0.03
253.697	-0.1
253.913	-0.13
254.129	0.07
254.345	-0.01
254.561	-0.05
254.777	-0.01
254.993	0
255.209	-0.04
255.425	-0.03
255.641	-0.09
255.857	0.02
256.073	-0.08
256.288	-0.2
256.504	0
256.72	-0.05
256.936	0.05
257.152	0.04
257.367	-0.07
257.583	0.01
257.799	-0.01
258.015	-0.18
258.23	-0.05
258.446	0.11
258.662	-0.07
258.877	-0.11
259.093	-0.09
259.309	-0.04
259.524	-0.03
259.74	-0.09
259.955	-0.11
260.171	-0.01
260.387	-0.01
260.602	0.02
260.818	0.03
261.033	-0.12
261.249	-0.03
261.464	-0.02
261.68	-0.08
261.895	-0.01
262.11	0.05
262.326	-0.09
262.541	-0.12
262.757	-0.02
262.972	0.05
263.187	-0.03
263.403	-0.03
263.618	0
263.833	-0.04
264.049	-0.07
264.264	-0.01
264.479	-0.05
264.694	0.11
264.91	-0.13
265.125	-0.02
265.34	0.03
265.555	0.12
265.77	0.02
265.986	-0.03
266.201	0.06
266.416	0.02
266.631	-0.03
266.846	-0.02
267.061	0
267.276	0.03
267.491	-0.16
267.706	0.04
267.921	-0.02
268.136	-0.01
268.351	-0.02
268.566	-0.1
268.781	0.05
268.996	-0.03
269.211	0.01
269.426	-0.1
269.641	-0.05
269.856	0.02
270.071	-0.08
270.285	-0.08
270.5	0.06
270.715	0.03
270.93	0.01
271.145	-0.04
271.359	-0
271.574	-0.08
271.789	-0.05
272.004	-0.05
272.218	0.02
272.433	0.07
272.648	-0.07
272.862	0.09
273.077	0
273.292	0.03
273.506	-0.07
273.721	-0.03
273.936	0.03
274.15	0.09
274.365	-0.01
274.579	0.05
274.794	0.04
275.008	0.08
275.223	-0.13
275.437	-0.05
275.652	0.05
275.866	0.01
276.081	0
276.295	-0.02
276.509	-0.06
276.724	-0.01
276.938	-0.06
277.153	0.01
277.367	-0.02
277.581	-0.13
277.796	-0.04
278.01	-0.06
278.224	0.05
278.438	0.09
278.653	-0.04
278.867	-0.03
279.081	-0.17
279.295	0.01
279.51	0.01
279.724	-0.08
279.938	-0.01
280.152	0.02
280.366	-0.1
280.58	-0.01
280.794	0.06
281.008	0.01
281.222	0.05
281.437	0.04
281.651	0.02
281.865	0.02
282.079	-0.04
282.293	-0.1
282.507	-0.05
282.721	-0.02
282.935	-0.01
283.148	-0.1
283.362	-0.05
283.576	-0.03
283.79	0
284.004	-0.03
284.218	0.09
284.432	-0.06
284.646	0.01
284.859	-0.02
285.073	-0.03
285.287	-0.02
285.501	-0.02
285.714	-0.01
285.928	-0
286.142	0.01
286.356	-0.08
286.569	-0.02
286.783	0.03
286.997	0.01
287.21	-0.04
287.424	-0.03
287.637	-0.01
287.851	-0.03
288.065	0.02
288.278	-0.02
288.492	-0.01
288.705	-0.04
288.919	0.01
289.132	-0.07
289.346	0.05
289.559	-0.08
289.773	-0.09
289.986	0
290.2	-0.04
290.413	0.07
290.626	-0.08
290.84	-0.01
291.053	0
291.267	0.04
291.48	-0.03
291.693	-0.03
291.906	-0.05
292.12	-0.08
292.333	-0.06
292.546	-0.05
292.76	0.06
292.973	0.03
293.186	0.05
293.399	-0.05
293.612	0.01
293.826	-0.01
294.039	-0.02
294.252	-0.02
294.465	0.04
294.678	-0
294.891	0.01
295.104	-0.03
295.317	-0.03
295.53	-0.02
295.743	-0.03
295.956	-0.04
296.169	0.08
296.382	0.01
296.595	0.03
296.808	-0.09
297.021	0.03
297.234	0.04
297.447	-0.02
297.66	0.02
297.873	0.03
298.086	-0.01
298.299	-0.05
298.511	-0.12
298.724	0.01
298.937	-0.11
299.15	-0.02
299.363	0.05
299.575	0.03
299.788	0.06
300.001	0.03
300.213	-0.09
300.426	-0.02
300.639	-0.03
300.852	-0.03
301.064	0.02
301.277	0.06
301.489	0.02
301.702	0.03
301.915	-0.04
302.127	-0.01
302.34	0.04
302.552	0.03
302.765	-0.05
302.977	0.05
303.19	-0.03
303.402	-0.04
303.615	0
303.827	-0.04
304.04	-0.03
304.252	0.01
304.464	-0.03
304.677	0.11
304.889	0
305.102	-0.02
305.314	0.03
305.526	0.04
305.739	0.03
305.951	-0.03
306.163	-0.04
306.375	0.08
306.588	0.03
306.8	-0.08
307.012	-0.04
307.224	0.06
307.436	0.11
307.649	-0.06
307.861	0.02
308.073	0.01
308.285	-0
308.497	-0.02
308.709	-0.03
308.921	0.01
309.133	0.06
309.346	0.02
309.558	-0.02
309.77	0.06
309.982	0.08
310.194	-0
310.406	-0.03
310.617	0.07
310.829	-0.03
311.041	0.01
311.253	-0.06
311.465	-0.02
311.677	0.03
311.889	-0.04
312.101	-0.06
312.313	0.05
312.524	0.05
312.736	-0.05
312.948	0
313.16	0.06
313.372	0.04
313.583	-0.04
313.795	-0.05
314.007	-0.07
314.218	0.02
314.43	-0
314.642	-0.05
314.853	-0.07
315.065	0.05
315.277	-0.04
315.488	0.03
315.7	0.04
315.912	0
316.123	0.02
316.335	0.02
316.546	0.06
316.758	-0.02
316.969	-0.04
317.181	-0.02
317.392	-0.01
317.604	0.05
317.815	-0.06
318.026	-0.05
318.238	-0.05
318.449	-0.01
318.661	-0.06
318.872	-0.04
319.083	-0.03
319.295	-0.03
319.506	-0.04
319.717	-0
319.929	0.06
320.14	-0.01
320.351	-0.02
320.562	0
320.774	-0.02
320.985	-0.02
321.196	-0.04
321.407	-0.1
321.618	0.03
321.829	0
322.041	0.01
322.252	-0
322.463	0.02
322.674	0.02
322.885	-0.05
323.096	0.04
323.307	-0
323.518	-0.03
323.729	-0.04
323.94	-0.08
324.151	-0.05
324.362	-0.03
324.573	-0.02
324.784	-0.04
324.995	0.03
325.206	-0
325.417	0.01
325.628	-0.04
325.838	0.02
326.049	0.02
326.26	-0
326.471	-0.01
326.682	-0
326.892	-0.03
327.103	-0.08
327.314	-0.05
327.525	0.04
327.735	0.05
327.946	-0.05
328.157	-0.04
328.368	0.03
328.578	0.03
328.789	-0.01
328.999	0.02
329.21	-0.05
329.421	0.04
329.631	-0.04
329.842	-0.04
330.052	0.03
330.263	0.04
330.473	0.04
330.684	-0.01
330.894	-0.02
331.105	0.03
331.315	-0
331.526	-0.06
331.736	0.04
331.947	0.02
332.157	-0.03
332.367	-0.04
332.578	0.04
332.788	0.02
332.999	0.03
333.209	-0.05
333.419	-0.03
333.629	0.04
333.84	0.04
334.05	0.01
334.26	0.01
334.47	0.01
334.681	0.05
334.891	-0.02
335.101	0.06
335.311	0.07
335.521	0
335.732	-0.04
335.942	0.08
336.152	0.06
336.362	0.02
336.572	0.02
336.782	0.05
336.992	-0.02
337.202	-0.03
337.412	-0.04
337.622	0.04
337.832	-0.02
338.042	0.01
338.252	-0.03
338.462	-0.03
338.672	-0.03
338.882	-0.08
339.092	-0.05
339.302	0.04
339.511	0.02
339.721	-0.06
339.931	-0.05
340.141	0.04
340.351	0.02
340.561	-0.03
340.77	-0.01
340.98	0.01
341.19	0.03
341.4	-0.02
341.609	-0.07
341.819	0.02
342.029	-0.06
342.238	0.04
342.448	-0.02
342.658	0.03
342.867	0.02
343.077	-0.01
343.286	0.02
343.496	0.02
343.706	0.04
343.915	-0.02
344.125	-0.01
344.334	0
344.544	-0.07
344.753	-0.04
344.963	-0.05
345.172	-0.02
345.381	-0.03
345.591	-0.03
345.8	0.01
346.01	0.04
346.219	0.03
346.428	-0.12
346.638	0.01
346.847	-0.02
347.056	0.03
347.266	-0.04
347.475	-0.04
347.684	0.01
347.893	0.01
348.103	0.01
348.312	-0.02
348.521	-0.06
348.73	0.01
348.94	-0.03
349.149	-0.02
349.358	-0.05
349.567	-0.03
349.776	-0.05
349.985	-0.05
350.194	0.02
350.403	0.01
350.612	-0.04
350.821	0.01
351.03	-0.04
351.239	-0.08
351.448	0
351.657	-0.03
351.866	0.09
352.075	0.01
352.284	-0.04
352.493	-0.04
352.702	0.02
352.911	0.01
353.12	0
353.329	-0.04
353.538	0.03
353.746	-0.02
353.955	-0.03
354.164	-0.03
354.373	0.02
354.582	0.01
354.79	-0
354.999	0.03
355.208	-0.02
355.416	0.04
355.625	-0.07
355.834	0.02
356.042	0.03
356.251	0.01
356.46	-0.06
356.668	0.04
356.877	0.08
357.085	0.02
357.294	-0.07
357.503	0.03
357.711	0.02
357.92	0.08
358.128	-0
358.337	0
358.545	0
358.754	-0.02
358.962	0.02
359.17	-0.03
359.379	-0.01
359.587	-0
359.796	0.04
360.004	0.03
360.212	0.04
360.421	0.03
360.629	-0.06
360.837	-0.04
361.046	0.04
361.254	0.06
361.462	0.01
361.67	-0.04
361.879	-0.02
362.087	0.02
362.295	-0
362.503	-0.02
362.711	-0.08
362.92	-0
363.128	-0.05
363.336	-0.05
363.544	-0.07
363.752	-0.05
363.96	-0.02
364.168	-0.01
364.376	-0.03
364.584	0.04
364.792	-0
365	-0
365.208	-0.02
365.416	0.01
365.624	0.02
365.832	-0.02
366.04	0.04
366.248	0.03
366.456	-0
366.664	0.03
366.872	0.03
367.079	-0.01
367.287	-0.03
367.495	-0.02
367.703	0.01
367.911	-0.03
368.118	0.01
368.326	-0.03
368.534	-0.06
368.742	0.07
368.949	-0.06
369.157	-0.03
369.365	-0.02
369.572	-0.06
369.78	-0.05
369.988	0.02
370.195	0.01
370.403	0.04
370.61	-0.04
370.818	0.01
371.026	0.04
371.233	-0.05
371.441	-0
371.648	-0.01
371.856	-0.01
372.063	0.01
372.271	-0.04
372.478	-0.07
372.685	0
372.893	0.02
373.1	-0.03
373.308	-0.04
373.515	0.06
373.722	0.05
373.93	-0.01
374.137	0.03
374.344	0.04
374.552	0.01
374.759	0.03
374.966	-0.03
375.173	-0.03
375.381	0.04
375.588	-0.02
375.795	-0.07
376.002	-0.03
376.209	-0.02
376.417	-0.03
376.624	-0
376.831	0.01
377.038	0.04
377.245	-0.04
377.452	-0.02
377.659	0.02
377.866	-0.05
378.073	-0.02
378.28	0.02
378.487	0.01
378.694	0.03
378.901	-0.04
379.108	0.05
379.315	-0.03
379.522	0.07
379.729	0.03
379.936	0
380.143	0.01
380.35	0.01
380.557	-0.05
380.763	-0
380.97	-0.01
381.177	-0.02
381.384	0.02
381.591	-0.03
381.797	0.03
382.004	-0.01
382.211	-0.01
382.418	-0.07
382.624	0.06
382.831	0.05
383.038	-0.01
383.244	-0.01
383.451	-0.02
383.658	-0
383.864	-0.03
384.071	-0.04
384.277	0.03
384.484	-0.05
384.69	0.02
384.897	-0.02
385.103	-0.03
385.31	-0.03
385.516	-0
385.723	-0.04
385.929	-0.03
386.136	-0.04
386.342	-0.01
386.549	-0.03
386.755	0.05
386.961	0.04
387.168	-0.01
387.374	0.01
387.58	0.02
387.787	-0.05
387.993	0.01
388.199	-0.05
388.406	-0.03
388.612	-0
388.818	-0.07
389.024	-0.06
389.231	-0
389.437	0.04
389.643	0.06
389.849	-0.02
390.055	-0.01
390.261	-0.05
390.467	-0.02
390.674	-0.04
390.88	-0
391.086	0.04
391.292	-0.03
391.498	0.01
391.704	0.01
391.91	-0.03
392.116	-0.06
392.322	-0.1
392.528	-0
392.734	0
392.94	-0.03
393.146	0.01
393.352	-0.04
393.557	0
393.763	-0.02
393.969	-0.01
394.175	-0.03
394.381	-0.01
394.587	-0.07
394.792	0.01
394.998	-0.01
395.204	0.03
395.41	-0.04
395.615	0.01
395.821	0.02
396.027	0
396.233	-0.03
396.438	0.01
396.644	-0
396.85	-0
397.055	-0.04
397.261	-0.02
397.466	0.01
397.672	0.01
397.878	0.04
398.083	0.02
398.289	-0.04
398.494	0.07
398.7	-0
398.905	-0.07
399.111	0.1
399.316	-0.09
399.522	-0
399.727	-0.02
399.932	-0.02
400.138	-0.06
400.343	0.01
400.549	-0.01
400.754	-0
400.959	0.01
401.165	-0.04
401.37	-0
401.575	0.04
401.78	0.01
401.986	-0.02
402.191	-0.02
402.396	-0.04
402.601	0.04
402.807	0.01
403.012	-0.03
403.217	0.03
403.422	-0.03
403.627	0.01
403.832	-0.03
404.037	0.04
404.243	0.01
404.448	-0.03
404.653	-0.03
404.858	0
405.063	-0.01
405.268	-0.06
405.473	-0.05
405.678	-0.03
405.883	0.1
406.088	0.04
406.293	-0.04
406.498	-0.06
406.703	0.06
406.907	-0.01
407.112	-0.05
407.317	-0.01
407.522	0.04
407.727	-0.1
407.932	-0.04
408.136	0.07
408.341	0.01
408.546	-0.01
408.751	-0.05
408.956	-0.03
409.16	0
409.365	0.01
409.57	-0.03
409.774	0.01
409.979	0.04
410.184	0.03
410.388	-0.04
410.593	0.05
410.798	0.01
411.002	-0.01
411.207	0
411.411	-0.01
411.616	-0.01
411.82	0.02
412.025	0.04
412.229	-0.04
412.434	0.1
412.638	0.02
412.843	-0.02
413.047	0.02
413.252	-0.02
413.456	-0
413.66	0.02
413.865	-0.03
414.069	0.08
414.273	-0.02
414.478	-0.04
414.682	0.04
414.886	-0.04
415.091	-0.03
415.295	-0.07
415.499	-0.01
415.703	0
415.908	0.05
416.112	-0.08
416.316	0.05
416.52	0.04
416.724	-0.07
416.929	0.04
417.133	0.08
417.337	0
417.541	0.03
417.745	0.04
417.949	0.02
418.153	-0
418.357	-0.03
418.561	0.1
418.765	0
418.969	0.14
419.173	0.05
419.377	0.06
419.581	0.12
419.785	0
419.989	0.02
420.193	0.01
420.397	0.04
420.601	0.07
420.804	0.09
421.008	0.05
421.212	0.09
421.416	0.08
421.62	0.01
421.823	0.08
422.027	0.14
422.231	0.06
422.435	0.05
422.638	0.04
422.842	0.05
423.046	0.04
423.249	0.13
423.453	0.07
423.657	0.07
423.86	0.07
424.064	0.06
424.268	0.15
424.471	0.06
424.675	0.16
424.878	0.18
425.082	0.09
425.285	0.16
425.489	0.12
425.692	0.12
425.896	0.08
426.099	0.16
426.303	0.08
426.506	0
426.71	0.16
426.913	0.17
427.116	0.18
427.32	0.08
427.523	0.1
427.726	0.22
427.93	0.09
428.133	0.15
428.336	0.12
428.54	0.13
428.743	0.2
428.946	0.2
429.149	0.11
429.353	0.19
429.556	0.13
429.759	0.2
429.962	0.14
430.165	0.15
430.368	0.07
430.571	0.11
430.775	0.17
430.978	0.16
431.181	0.17
431.384	0.21
431.587	0.15
431.79	0.17
431.993	0.08
432.196	0.14
432.399	0.19
432.602	0.26
432.805	0.12
433.008	0.17
433.211	0.13
433.414	0.26
433.616	0.25
433.819	0.18
434.022	0.12
434.225	0.31
434.428	0.22
434.631	0.33
434.833	0.2
435.036	0.2
435.239	0.27
435.442	0.22
435.645	0.19
435.847	0.24
436.05	0.28
436.253	0.28
436.455	0.17
436.658	0.27
436.861	0.35
437.063	0.25
437.266	0.28
437.468	0.31
437.671	0.4
437.874	0.3
438.076	0.25
438.279	0.21
438.481	0.29
438.684	0.29
438.886	0.33
439.089	0.22
439.291	0.27
439.494	0.3
439.696	0.31
439.899	0.34
440.101	0.39
440.303	0.27
440.506	0.41
440.708	0.36
440.91	0.47
441.113	0.3
441.315	0.43
441.517	0.33
441.72	0.41
441.922	0.37
442.124	0.33
442.326	0.45
442.529	0.5
442.731	0.38
442.933	0.5
443.135	0.44
443.337	0.4
443.539	0.45
443.742	0.42
443.944	0.47
444.146	0.41
444.348	0.44
444.55	0.45
444.752	0.43
444.954	0.39
445.156	0.47
445.358	0.44
445.56	0.5
445.762	0.45
445.964	0.43
446.166	0.44
446.368	0.41
446.57	0.57
446.772	0.42
446.974	0.48
447.175	0.48
447.377	0.48
447.579	0.39
447.781	0.41
447.983	0.5
448.184	0.46
448.386	0.43
448.588	0.39
448.79	0.47
448.991	0.47
449.193	0.49
449.395	0.48
449.597	0.52
449.798	0.49
450	0.48
450.202	0.44
450.403	0.43
450.605	0.47
450.806	0.4
451.008	0.34
451.21	0.42
451.411	0.39
451.613	0.32
451.814	0.35
452.016	0.44
452.217	0.36
452.419	0.39
452.62	0.34
452.821	0.33
453.023	0.39
453.224	0.35
453.426	0.29
453.627	0.3
453.828	0.29
454.03	0.3
454.231	0.29
454.432	0.22
454.634	0.31
454.835	0.22
455.036	0.17
455.238	0.31
455.439	0.35
455.64	0.16
455.841	0.22
456.042	0.36
456.244	0.22
456.445	0.16
456.646	0.15
456.847	0.17
457.048	0.22
457.249	0.27
457.45	0.5
457.651	0.12
457.852	0.19
458.054	0.17
458.255	0.15
458.456	0.19
458.657	0.18
458.858	0.1
459.058	0.16
459.259	0.19
459.46	0.16
459.661	0.11
459.862	0.23
460.063	0.09
460.264	0.16
460.465	0.06
460.666	0.21
460.866	0.1
461.067	0.13
461.268	0.12
461.469	0.07
461.67	0.1
461.87	0.09
462.071	0.08
462.272	0.06
462.473	0.1
462.673	0.14
462.874	0.05
463.075	0.07
463.275	0.06
463.476	0.11
463.676	0.14
463.877	0.09
464.078	0.11
464.278	0.13
464.479	0.05
464.679	0.09
464.88	0.09
465.08	0.16
465.281	0.1
465.481	0.1
465.682	0.13
465.882	0.13
466.083	0.09
466.283	0.07
466.483	0.07
466.684	0.03
466.884	0.05
467.085	0.1
467.285	0.08
467.485	0.05
467.686	0.04
467.886	0.03
468.086	0.04
468.286	0.05
468.487	0.06
468.687	0.03
468.887	0.06
469.087	0.08
469.287	0.03
469.488	-0.02
469.688	0.08
469.888	0.07
470.088	0.11
470.288	0.08
470.488	0.09
470.688	-0.04
470.888	0.01
471.088	0.01
471.288	0.13
471.488	0.11
471.688	0.08
471.888	0.02
472.088	0.1
472.288	0.1
472.488	-0
472.688	0.08
472.888	0.04
473.088	0.05
473.288	0.07
473.488	0.04
473.688	0.12
473.887	0.04
474.087	0.03
474.287	0.07
474.487	0.01
474.687	0.06
474.886	-0
475.086	0.03
475.286	0.04
475.486	0.01
475.685	0.01
475.885	0.03
476.085	0.05
476.284	0.06
476.484	0.05
476.684	0.04
476.883	0.1
477.083	0.06
477.282	0.04
477.482	0.08
477.681	0.1
477.881	0.08
478.08	0.03
478.28	0.03
478.479	0.05
478.679	0.1
478.878	0.01
479.078	0.04
479.277	0.05
479.477	0.05
479.676	0.07
479.875	0.05
480.075	-0.02
480.274	0.07
480.473	0.05
480.673	0.02
480.872	0.08
481.071	0.04
481.271	0.02
481.47	0.01
481.669	0.01
481.868	0.02
482.067	0.02
482.267	-0
482.466	0.01
482.665	-0
482.864	-0.01
483.063	0.02
483.262	0.09
483.461	0.08
483.661	0.08
483.86	0.03
484.059	0.07
484.258	0.04
484.457	0.02
484.656	0.05
484.855	0.08
485.054	0
485.253	0.03
485.452	0.01
485.651	0.02
485.849	0.06
486.048	0.02
486.247	-0
486.446	0.06
486.645	0
486.844	0.02
487.043	0.01
487.241	0.05
487.44	0.01
487.639	0.02
487.838	0.06
488.037	0.05
488.235	0.1
488.434	0.05
488.633	0
488.831	0.06
489.03	0.07
489.229	0.05
489.427	0.05
489.626	0.06
489.825	0.11
490.023	0.04
490.222	0.03
490.42	0.07
490.619	0.06
490.817	0.08
491.016	0.03
491.214	0.06
491.413	0.03
491.611	0.04
491.81	0.05
492.008	0.07
492.207	0.06
492.405	0.06
492.604	-0
492.802	0.04
493	0.07
493.199	0.05
493.397	0.05
493.595	0.05
493.794	0.05
493.992	0.09
494.19	0.07
494.388	0.08
494.587	0.03
494.785	0.08
494.983	0.06
495.181	0.07
495.379	0.08
495.578	0.06
495.776	0.09
495.974	0.09
496.172	0.05
496.37	0.07
496.568	0.02
496.766	0.07
496.964	0.1
497.162	0.1
497.36	0.05
497.558	0.05
497.756	0.12
497.954	0.07
498.152	0.08
498.35	0.08
498.548	0.07
498.746	0.09
498.944	0.04
499.142	0.06
499.34	0.07
499.538	0.08
499.736	0.07
499.933	0.11
500.131	0.11
500.329	0.08
500.527	0.12
500.725	0.1
500.922	0.12
501.12	0.1
501.318	0.09
501.516	0.09
501.713	0.11
501.911	0.09
502.109	0.08
502.306	0.1
502.504	0.08
502.701	0.09
502.899	0.09
503.097	0.14
503.294	0.11
503.492	0.09
503.689	0.13
503.887	0.15
504.084	0.16
504.282	0.12
504.479	0.08
504.677	0.14
504.874	0.06
505.072	0.12
505.269	0.11
505.466	0.11
505.664	0.13
505.861	0.08
506.059	0.07
506.256	0.16
506.453	0.09
506.651	0.16
506.848	0.14
507.045	0.15
507.242	0.12
507.44	0.1
507.637	0.13
507.834	0.12
508.031	0.15
508.229	0.11
508.426	0.14
508.623	0.15
508.82	0.12
509.017	0.11
509.214	0.12
509.411	0.14
509.608	0.12
509.805	0.14
510.003	0.13
510.2	0.12
510.397	0.17
510.594	0.14
510.791	0.11
510.988	0.13
511.184	0.16
511.381	0.14
511.578	0.13
511.775	0.18
511.972	0.15
512.169	0.13
512.366	0.14
512.563	0.14
512.76	0.13
512.956	0.19
513.153	0.15
513.35	0.17
513.547	0.15
513.744	0.15
513.94	0.13
514.137	0.18
514.334	0.16
514.53	0.15
514.727	0.17
514.924	0.21
515.12	0.16
515.317	0.14
515.514	0.15
515.71	0.14
515.907	0.15
516.103	0.18
516.3	0.19
516.497	0.18
516.693	0.2
516.89	0.15
517.086	0.16
517.283	0.17
517.479	0.19
517.676	0.16
517.872	0.18
518.068	0.15
518.265	0.17
518.461	0.18
518.658	0.16
518.854	0.17
519.05	0.17
519.247	0.16
519.443	0.15
519.639	0.2
519.836	0.17
520.032	0.19
520.228	0.19
520.424	0.25
520.621	0.19
520.817	0.19
521.013	0.2
521.209	0.18
521.405	0.23
521.601	0.2
521.798	0.18
521.994	0.23
522.19	0.17
522.386	0.16
522.582	0.18
522.778	0.2
522.974	0.19
523.17	0.18
523.366	0.18
523.562	0.22
523.758	0.19
523.954	0.14
524.15	0.18
524.346	0.19
524.542	0.19
524.738	0.17
524.934	0.2
525.129	0.21
525.325	0.2
525.521	0.19
525.717	0.21
525.913	0.2
526.109	0.19
526.304	0.2
526.5	0.21
526.696	0.22
526.892	0.18
527.087	0.2
527.283	0.17
527.479	0.21
527.674	0.18
527.87	0.2
528.066	0.22
528.261	0.22
528.457	0.2
528.653	0.17
528.848	0.18
529.044	0.22
529.239	0.2
529.435	0.2
529.63	0.18
529.826	0.24
530.021	0.2
530.217	0.23
530.412	0.19
530.608	0.19
530.803	0.21
530.999	0.18
531.194	0.15
531.389	0.21
531.585	0.17
531.78	0.17
531.975	0.2
532.171	0.24
532.366	0.2
532.561	0.22
532.757	0.18
532.952	0.21
533.147	0.23
533.342	0.2
533.538	0.18
533.733	0.23
533.928	0.18
534.123	0.2
534.318	0.17
534.513	0.19
534.709	0.22
534.904	0.18
535.099	0.19
535.294	0.2
535.489	0.22
535.684	0.2
535.879	0.18
536.074	0.23
536.269	0.21
536.464	0.22
536.659	0.19
536.854	0.19
537.049	0.22
537.244	0.22
537.439	0.21
537.634	0.24
537.828	0.22
538.023	0.23
538.218	0.17
538.413	0.22
538.608	0.19
538.803	0.24
538.997	0.18
539.192	0.2
539.387	0.2
539.582	0.22
539.776	0.22
539.971	0.2
540.166	0.21
540.36	0.18
540.555	0.2
540.75	0.21
540.944	0.21
541.139	0.19
541.334	0.2
541.528	0.23
541.723	0.21
541.917	0.21
542.112	0.19
542.306	0.18
542.501	0.19
542.695	0.2
542.89	0.2
543.084	0.21
543.279	0.2
543.473	0.2
543.668	0.2
543.862	0.2
544.056	0.24
544.251	0.23
544.445	0.24
544.64	0.21
544.834	0.2
545.028	0.2
545.222	0.22
545.417	0.21
545.611	0.23
545.805	0.23
546	0.19
546.194	0.2
546.388	0.19
546.582	0.21
546.776	0.22
546.97	0.2
547.165	0.23
547.359	0.21
547.553	0.2
547.747	0.2
547.941	0.2
548.135	0.21
548.329	0.21
548.523	0.19
548.717	0.19
548.911	0.21
549.105	0.21
549.299	0.23
549.493	0.24
549.687	0.24
549.881	0.21
550.075	0.2
550.269	0.19
550.463	0.23
550.657	0.2
550.85	0.22
551.044	0.21
551.238	0.23
551.432	0.2
551.626	0.2
551.82	0.22
552.013	0.2
552.207	0.22
552.401	0.23
552.594	0.23
552.788	0.22
552.982	0.22
553.176	0.2
553.369	0.22
553.563	0.21
553.756	0.16
553.95	0.21
554.144	0.19
554.337	0.26
554.531	0.22
554.724	0.21
554.918	0.19
555.111	0.24
555.305	0.23
555.498	0.24
555.692	0.22
555.885	0.22
556.079	0.23
556.272	0.19
556.466	0.22
556.659	0.24
556.852	0.22
557.046	0.2
557.239	0.24
557.432	0.17
557.626	0.18
557.819	0.24
558.012	0.23
558.206	0.21
558.399	0.23
558.592	0.23
558.785	0.19
558.979	0.22
559.172	0.22
559.365	0.22
559.558	0.22
559.751	0.18
559.944	0.22
560.138	0.21
560.331	0.19
560.524	0.21
560.717	0.22
560.91	0.2
561.103	0.23
561.296	0.23
561.489	0.22
561.682	0.23
561.875	0.25
562.068	0.25
562.261	0.22
562.454	0.26
562.647	0.23
562.84	0.22
563.032	0.21
563.225	0.21
563.418	0.2
563.611	0.21
563.804	0.24
563.997	0.17
564.19	0.17
564.382	0.16
564.575	0.23
564.768	0.2
564.961	0.19
565.153	0.19
565.346	0.21
565.539	0.24
565.731	0.22
565.924	0.21
566.117	0.26
566.309	0.22
566.502	0.18
566.695	0.2
566.887	0.25
567.08	0.19
567.272	0.23
567.465	0.19
567.657	0.22
567.85	0.22
568.042	0.22
568.235	0.27
568.427	0.21
568.62	0.21
568.812	0.26
569.005	0.23
569.197	0.16
569.389	0.24
569.582	0.21
569.774	0.22
569.966	0.18
570.159	0.17
570.351	0.23
570.543	0.2
570.736	0.21
570.928	0.17
571.12	0.2
571.312	0.18
571.505	0.18
571.697	0.25
571.889	0.18
572.081	0.21
572.273	0.19
572.465	0.24
572.658	0.19
572.85	0.2
573.042	0.19
573.234	0.21
573.426	0.23
573.618	0.18
573.81	0.21
574.002	0.23
574.194	0.26
574.386	0.2
574.578	0.15
574.77	0.18
574.962	0.21
575.154	0.2
575.346	0.2
575.538	0.21
575.729	0.19
575.921	0.18
576.113	0.18
576.305	0.23
576.497	0.22
576.689	0.2
576.88	0.15
577.072	0.21
577.264	0.21
577.456	0.2
577.647	0.16
577.839	0.22
578.031	0.23
578.223	0.16
578.414	0.16
578.606	0.23
578.798	0.22
578.989	0.18
579.181	0.21
579.372	0.2
579.564	0.18
579.755	0.21
579.947	0.18
580.139	0.22
580.33	0.15
580.522	0.17
580.713	0.14
580.905	0.18
581.096	0.23
581.287	0.17
581.479	0.19
581.67	0.23
581.862	0.21
582.053	0.19
582.244	0.16
582.436	0.17
582.627	0.22
582.818	0.19
583.01	0.16
583.201	0.23
583.392	0.21
583.583	0.19
583.775	0.19
583.966	0.17
584.157	0.19
584.348	0.19
584.54	0.13
584.731	0.21
584.922	0.19
585.113	0.17
585.304	0.22
585.495	0.24
585.686	0.21
585.877	0.22
586.068	0.19
586.259	0.2
586.45	0.2
586.641	0.15
586.832	0.15
587.023	0.2
587.214	0.19
587.405	0.19
587.596	0.18
587.787	0.24
587.978	0.22
588.169	0.14
588.36	0.18
588.551	0.19
588.742	0.16
588.932	0.22
589.123	0.21
589.314	0.23
589.505	0.2
589.696	0.2
589.886	0.16
590.077	0.16
590.268	0.18
590.458	0.14
590.649	0.12
590.84	0.22
591.03	0.16
591.221	0.16
591.412	0.12
591.602	0.2
591.793	0.18
591.984	0.18
592.174	0.15
592.365	0.26
592.555	0.16
592.746	0.18
592.936	0.18
593.127	0.19
593.317	0.23
593.508	0.18
593.698	0.16
593.889	0.17
594.079	0.17
594.269	0.14
594.46	0.2
594.65	0.18
594.84	0.21
595.031	0.14
595.221	0.16
595.411	0.17
595.602	0.23
595.792	0.17
595.982	0.15
596.172	0.24
596.363	0.19
596.553	0.16
596.743	0.18
596.933	0.2
597.123	0.2
597.314	0.14
597.504	0.15
597.694	0.2
597.884	0.18
598.074	0.17
598.264	0.15
598.454	0.19
598.644	0.17
598.834	0.18
599.024	0.13
599.214	0.15
599.404	0.18
599.594	0.16
599.784	0.16
599.974	0.21
600.164	0.2
600.354	0.13
600.544	0.11
600.734	0.16
600.924	0.23
601.114	0.14
601.303	0.16
601.493	0.18
601.683	0.18
601.873	0.15
602.063	0.12
602.252	0.21
602.442	0.1
602.632	0.14
602.821	0.12
603.011	0.18
603.201	0.15
603.39	0.16
603.58	0.14
603.77	0.17
603.959	0.21
604.149	0.14
604.339	0.13
604.528	0.2
604.718	0.17
604.907	0.15
605.097	0.12
605.286	0.12
605.476	0.17
605.665	0.16
605.855	0.16
606.044	0.19
606.234	0.15
606.423	0.15
606.612	0.14
606.802	0.15
606.991	0.17
607.181	0.16
607.37	0.12
607.559	0.11
607.749	0.1
607.938	0.15
608.127	0.13
608.316	0.14
608.506	0.16
608.695	0.15
608.884	0.12
609.073	0.16
609.263	0.16
609.452	0.17
609.641	0.17
609.83	0.12
610.019	0.16
610.208	0.13
610.397	0.12
610.586	0.17
610.775	0.12
610.965	0.13
611.154	0.14
611.343	0.16
611.532	0.16
611.721	0.11
611.91	0.15
612.099	0.16
612.287	0.13
612.476	0.1
612.665	0.16
612.854	0.09
613.043	0.17
613.232	0.12
613.421	0.09
613.61	0.15
613.798	0.12
613.987	0.14
614.176	0.14
614.365	0.17
614.554	0.15
614.742	0.16
614.931	0.1
615.12	0.15
615.309	0.13
615.497	0.14
615.686	0.12
615.875	0.13
616.063	0.13
616.252	0.1
616.44	0.11
616.629	0.1
616.818	0.17
617.006	0.11
617.195	0.12
617.383	0.13
617.572	0.11
617.76	0.12
617.949	0.12
618.137	0.14
618.326	0.2
618.514	0.08
618.703	0.11
618.891	0.16
619.079	0.06
619.268	0.14
619.456	0.12
619.644	0.17
619.833	0.14
620.021	0.1
620.209	0.08
620.398	0.09
620.586	0.15
620.774	0.15
620.962	0.11
621.151	0.16
621.339	0.1
621.527	0.1
621.715	0.1
621.903	0.1
622.092	0.08
622.28	0.14
622.468	0.1
622.656	0.13
622.844	0.13
623.032	0.08
623.22	0.06
623.408	0.18
623.596	0.12
623.784	0.14
623.972	0.06
624.16	0.1
624.348	0.15
624.536	0.12
624.724	0.08
624.912	0.15
625.1	0.12
625.288	0.09
625.476	0.06
625.664	0.14
625.851	0.07
626.039	0.08
626.227	0.14
626.415	0.1
626.603	0.06
626.79	0.12
626.978	0.09
627.166	0.12
627.354	0.08
627.541	0.08
627.729	0.06
627.917	0.13
628.104	0.1
628.292	0.13
628.48	0.12
628.667	0.13
628.855	0.11
629.042	0.12
629.23	0.07
629.418	0.09
629.605	0.1
629.793	0.08
629.98	0.09
630.168	0.07
630.355	0.1
630.543	0.1
630.73	0.06
630.917	0.11
631.105	0.14
631.292	0.06
631.48	0.08
631.667	0.15
631.854	0.08
632.042	0.1
632.229	0.04
632.416	0.11
632.604	0.08
632.791	0.04
632.978	0.13
633.165	0.09
633.353	0.12
633.54	0.13
633.727	0.03
633.914	0.08
634.101	0.1
634.289	0.13
634.476	0.05
634.663	0.03
634.85	0.1
635.037	0.07
635.224	0.01
635.411	0.08
635.598	0.1
635.785	0.12
635.972	0.08
636.159	0.13
636.346	0.05
636.533	0.06
636.72	0.08
636.907	0.1
637.094	0.09
637.281	0.08
637.468	0.11
637.655	0.04
637.842	0.08
638.029	0.06
638.215	0.1
638.402	0.07
638.589	0.05
638.776	0.06
638.963	0.02
639.149	0.12
639.336	0.13
639.523	0.07
639.709	0.07
639.896	0.09
640.083	0.14
640.27	0.12
640.456	0.07
640.643	0.09
640.829	0.03
641.016	0.07
641.203	0.02
641.389	0.09
641.576	0.09
641.762	0.09
641.949	0.03
642.135	0.1
642.322	0.08
642.508	0.04
642.695	0.05
642.881	0.05
643.068	0.05
643.254	0.06
643.441	0.11
643.627	0.05
643.813	0.04
644	0.07
644.186	0
644.372	0.1
644.559	0.12
644.745	0.06
644.931	0.03
645.118	0.06
645.304	0.09
645.49	0.08
645.676	0.07
645.862	0.05
646.049	0.13
646.235	0.07
646.421	0.15
646.607	0.12
646.793	0.05
646.979	0.01
647.165	0.06
647.352	0.08
647.538	0.09
647.724	0.04
647.91	0.08
648.096	0.1
648.282	0.07
648.468	0.06
648.654	0.06
648.84	0.09
649.026	0.05
649.212	0.05
649.397	0.02
649.583	0.02
649.769	0.06
649.955	0.06
650.141	0.04
650.327	0.11
650.513	0.06
650.698	0.08
650.884	-0.03
651.07	0.06
651.256	0.06
651.442	0.03
651.627	0.03
651.813	0.09
651.999	0.05
652.184	0.08
652.37	0.03
652.556	0.02
652.741	0.1
652.927	-0.01
653.113	0.02
653.298	0.04
653.484	0.04
653.669	-0
653.855	0.03
654.04	0.07
654.226	0.03
654.412	0.01
654.597	0.01
654.782	0.07
654.968	0.08
655.153	0.07
655.339	0.04
655.524	-0
655.71	0.05
655.895	0.03
656.08	0.03
656.266	0.09
656.451	0.08
656.636	0.03
656.822	0.04
657.007	0.03
657.192	0.04
657.378	0
657.563	0.07
657.748	0.06
657.933	0.03
658.118	0.04
658.304	0.03
658.489	0.04
658.674	0.05
658.859	0.02
659.044	0.06
659.229	0.07
659.414	0.03
659.599	0.04
659.785	-0.04
659.97	-0
660.155	0.03
660.34	0.02
660.525	0.04
660.71	0.01
660.895	0.07
661.08	0.01
661.264	-0.01
661.449	0.08
661.634	0.07
661.819	0.05
662.004	0.07
662.189	-0.03
662.374	0
662.559	-0
662.743	-0
662.928	0.03
663.113	0.03
663.298	-0.01
663.483	-0.01
663.667	0.03
663.852	-0.03
664.037	0.09
664.221	-0.01
664.406	0.07
664.591	0.04
664.775	0.07
664.96	-0
665.145	0.04
665.329	0.04
665.514	0.03
665.698	0.02
665.883	-0.01
666.068	0.07
666.252	0.02
666.437	-0.04
666.621	0.01
666.806	0.07
666.99	0.06
667.174	0.01
667.359	0.09
667.543	0.01
667.728	-0
667.912	-0.02
668.096	0.05
668.281	-0.02
668.465	0.02
668.649	0.01
668.834	-0.04
669.018	-0.01
669.202	-0.01
669.387	-0.02
669.571	0.08
669.755	-0.01
669.939	0.03
670.124	0.01
670.308	0.07
670.492	0.07
670.676	0.01
670.86	0.05
671.044	-0.03
671.228	0.05
671.413	-0.03
671.597	-0.04
671.781	-0
671.965	0.05
672.149	0.01
672.333	0.02
672.517	-0
672.701	0.05
672.885	-0.01
673.069	-0.04
673.253	0.08
673.437	0.01
673.621	0
673.804	0.02
673.988	0.03
674.172	0.02
674.356	-0.01
674.54	0.01
674.724	0.12
674.908	-0.01
675.091	0.04
675.275	0.07
675.459	0.06
675.643	0.04
675.826	0.01
676.01	0.02
676.194	-0.02
676.377	0.08
676.561	0.03
676.745	0.05
676.928	0.05
677.112	0.06
677.296	-0
677.479	0.01
677.663	0.01
677.846	0.07
678.03	0.04
678.213	-0.04
678.397	0.02
678.58	-0
678.764	-0.01
678.947	0.01
679.131	-0.03
679.314	0.01
679.498	0.04
679.681	0.04
679.865	0.09
680.048	-0.01
680.231	0.03
680.415	0.02
680.598	0.03
680.781	0.02
680.965	0.02
681.148	0.03
681.331	-0.04
681.514	0.02
681.698	-0.02
681.881	-0
682.064	0.04
682.247	-0
682.43	-0.06
682.614	0.04
682.797	0.04
682.98	0.05
683.163	-0.06
683.346	0.03
683.529	-0.02
683.712	-0.04
683.895	0.07
684.078	-0.01
684.261	-0.01
684.444	0.01
684.627	0.04
684.81	-0.04
684.993	-0.04
685.176	0.06
685.359	-0.03
685.542	-0.03
685.725	0.06
685.908	0.01
686.091	-0.03
686.274	0.04
686.457	0.08
686.639	0
686.822	0.05
687.005	0.03
687.188	0.03
687.371	0.07
687.553	0.01
687.736	0.06
687.919	0.11
688.102	0.1
688.284	-0.07
688.467	0.04
688.65	-0.02
688.832	0.03
689.015	-0.01
689.197	-0.09
689.38	0.11
689.563	0.1
689.745	0
689.928	-0.02
690.11	-0.02
690.293	0.02
690.475	-0.05
690.658	0.01
690.84	-0.01
691.023	-0.01
691.205	0
691.388	-0.03
691.57	0.08
691.752	0.05
691.935	-0.06
692.117	-0.05
692.3	0.05
692.482	0.01
692.664	-0.06
692.847	0.08
693.029	0.09
693.211	0.02
693.393	0.02
693.576	-0.05
693.758	0.03
693.94	-0.01
694.122	-0.04
694.304	-0.05
694.487	0
694.669	0.07
694.851	-0.05
695.033	-0.03
695.215	-0.03
695.397	-0.04
695.579	0.04
695.761	-0.01
695.943	-0.06
696.125	0.08
696.308	0.07
696.49	-0.12
696.671	0.09
696.853	-0
697.035	0.11
697.217	0.05
697.399	0.08
697.581	-0.04
697.763	-0.05
697.945	-0.04
698.127	0.03
698.309	0.03
698.491	0.02
698.672	0.08
698.854	0.04
699.036	0.1
699.218	-0.02
699.399	0.04
699.581	0.05
699.763	0.06
699.945	-0.04
700.126	-0.05
700.308	0.01
700.49	0.01
700.671	-0.06
700.853	-0.06
701.035	-0.04
701.216	0.01
701.398	-0.05
701.579	-0.01
701.761	0.08
701.943	-0.04
702.124	-0
702.306	0.02
702.487	0.09
702.669	0.03
702.85	-0.02
703.031	-0.02
703.213	0.12
703.394	0.08
703.576	-0.02
703.757	0.04
703.938	-0
704.12	0.14
704.301	-0
704.483	-0.05
704.664	0
704.845	0.1
705.026	-0.02
705.208	-0.04
705.389	-0.01
705.57	-0.03
705.751	-0.03
705.933	-0.01
706.114	0.05
706.295	-0.03
706.476	-0.07
706.657	0.08
706.838	0.07
707.02	0.03
707.201	-0.02
707.382	-0.02
707.563	0
707.744	-0.04
707.925	-0.04
708.106	-0.06
708.287	-0.04
708.468	0.1
708.649	-0.03
708.83	0.01
709.011	-0.03
709.192	0.05
709.373	-0.05
709.554	-0.04
709.734	0.04
709.915	0.05
710.096	-0.03
710.277	-0.1
710.458	-0.01
710.639	0.01
710.819	-0.11
711	-0.02
711.181	0.06
711.362	0.04
711.542	-0.01
711.723	0.01
711.904	0.02
712.085	0.04
712.265	0
712.446	-0.06
712.627	-0.02
712.807	-0.01
712.988	-0.02
713.168	-0.07
713.349	0.03
713.53	-0.07
713.71	-0.06
713.891	-0.07
714.071	-0.05
714.252	-0.07
714.432	-0.06
714.613	-0.09
714.793	-0.03
714.974	0.08
715.154	0.1
715.334	-0.01
715.515	0.11
715.695	-0.12
715.876	-0.04
716.056	-0.01
716.236	-0.02
716.417	-0.06
716.597	-0.11
716.777	0.11
716.957	-0.04
717.138	-0.04
717.318	-0.02
717.498	-0.08
717.678	0.06
717.859	-0.04
718.039	-0.12
718.219	-0.09
718.399	0.11
718.579	-0.09
718.759	-0.11
718.939	0.09
719.12	0.03
719.3	-0.05
719.48	-0.17
719.66	-0.1
719.84	0.09
720.02	-0.1
720.2	-0.15
720.38	-0.05
720.56	0.06
720.74	-0.1
720.92	-0.02
721.1	0.03
721.279	0.05
721.459	0
721.639	-0.16
721.819	0.03
721.999	-0.03
722.179	0.03
722.359	-0.11
722.538	0.02
722.718	0.03
722.898	0.02
723.078	-0.07
723.257	-0.06
723.437	0.04
723.617	0.05
723.797	-0.06
723.976	-0.01
724.156	0.02
724.336	0.04
724.515	0.11
724.695	-0.13
724.874	-0.03
725.054	0.01
725.234	-0.04
725.413	-0.01
725.593	-0.04
725.772	0.03
725.952	-0.02
726.131	0.02
726.311	-0.03
726.49	-0.04
726.67	-0.05
726.849	-0.1
727.028	0.01
727.208	-0.02
727.387	0.07
727.567	-0.08
727.746	-0.05
727.925	-0.05
728.105	-0.11
728.284	-0.04
728.463	-0.08
728.643	0.07
728.822	-0.07
729.001	-0.1
729.18	-0.03
729.359	0
729.539	-0.04
729.718	-0.02
729.897	-0.04
730.076	-0.05
730.255	-0.11
730.434	-0.05
730.614	0.05
730.793	-0.02
730.972	-0.02
731.151	-0.04
731.33	0.11
731.509	0.09
731.688	0.02
731.867	-0.02
732.046	-0.13
732.225	0.06
732.404	-0.07
732.583	-0.13
732.762	-0.02
732.941	0.14
733.12	0.03
733.298	-0.08
733.477	0.02
733.656	-0.04
733.835	-0.13
734.014	0.07
734.193	-0.05
734.371	0.15
734.55	-0.03
734.729	-0.09
734.908	0.01
735.086	0.02
735.265	0.04
735.444	-0.14
735.623	-0.16
735.801	-0.11
735.98	-0.01
736.159	-0.07
736.337	0.03
736.516	-0.08
736.694	-0.07
736.873	-0.14
737.052	0.1
737.23	0.09
737.409	-0.06
737.587	0.07
737.766	-0.21
737.944	-0.09
738.123	0.09
738.301	0.04
738.479	-0.13
738.658	-0.02
738.836	-0.17
739.015	-0.03
739.193	0.06
739.371	-0.04
739.55	-0.02
739.728	-0.12
739.906	0.06
740.085	0.13
740.263	-0.01
740.441	-0.2
740.62	0.2
740.798	0.08
740.976	-0.04
741.154	-0.13
741.332	0.11
741.511	-0.08
741.689	-0.12
741.867	-0.04
742.045	-0.05
742.223	-0.01
742.401	-0.07
742.579	-0.04
742.757	0.1
742.935	-0.1
743.114	-0.13
743.292	-0.03
743.47	0
743.648	-0.05
743.826	-0.2
744.004	0.01
744.181	0.03
744.359	-0.09
744.537	-0.03
744.715	-0.08
744.893	0.02
745.071	-0.04
745.249	-0.11
745.427	-0.09
745.605	0.05
745.782	-0.09
745.96	0.06
746.138	-0.04
746.316	0.05
746.493	-0.03
746.671	0.05
746.849	-0.03
747.027	0.13
747.204	-0.05
747.382	0.08
747.56	-0.1
747.737	0.07
747.915	-0.15
748.093	0.08
748.27	-0.12
748.448	-0.13
748.625	-0.11
748.803	-0.18
748.98	-0.15
749.158	-0
749.335	0.07
749.513	-0.09
749.69	-0.12
749.868	-0.05
750.045	0.09
750.223	-0.13
750.4	-0.24
750.578	0.18
750.755	-0.01
750.932	-0.16
751.11	0.06
751.287	-0.09
751.464	0.12
751.642	-0.08
751.819	0.06
751.996	-0.02
752.173	-0.14
752.351	-0.12
752.528	-0.14
752.705	-0.01
752.882	-0.11
753.06	0.04
753.237	-0.05
753.414	0.27
753.591	0.18
753.768	-0.01
753.945	-0.07
754.122	-0.13
754.299	0.06
754.476	-0.13
754.654	0.05
754.831	-0.05
755.008	0.02
755.185	-0.02
755.362	-0.12
755.539	-0.01
755.716	-0.15
755.892	0.03
756.069	-0.04
756.246	-0.08
756.423	-0.12
756.6	0.03
756.777	-0.08
756.954	0.08
757.131	-0.03
757.307	-0.09
757.484	-0.08
757.661	-0.05
757.838	-0
758.015	-0.17
758.191	-0.04
758.368	0.05
758.545	0.18
758.721	0.05
758.898	-0.18
759.075	0.06
759.251	0.03
759.428	-0.04
759.605	-0.28
759.781	0.03
759.958	-0.09
760.134	0.06
760.311	-0.19
760.488	0.09
760.664	0.05
760.841	0.06
761.017	-0.11
761.194	-0.01
761.37	-0.04
761.547	-0.04
761.723	-0.12
761.899	0.09
762.076	-0.08
762.252	-0.16
762.429	-0.11
762.605	0.02
762.781	-0.21
762.958	0.02
763.134	-0.08
763.31	-0.04
763.486	0.15
763.663	-0.18
763.839	-0.05
764.015	-0.21
764.191	-0.12
764.368	-0.05
764.544	-0.06
764.72	0.03
764.896	0.01
765.072	-0.12
765.248	0.06
765.425	-0.02
765.601	-0.1
765.777	-0.07
765.953	-0.25
766.129	-0.12
766.305	-0.12
766.481	-0.02
766.657	-0.06
766.833	0.12
767.009	-0.23
767.185	-0.04
767.361	-0.1
767.537	-0.13
767.713	0.04
767.889	-0.1
768.065	-0.11
768.24	-0.21
768.416	0.01
768.592	-0.07
768.768	-0.08
768.944	-0.07
769.12	-0.19
769.295	-0.16
769.471	-0.05
769.647	-0.05
769.823	0.06
769.998	0.02
770.174	-0.18
770.35	0.23
770.525	0.24
770.701	-0.05
770.877	-0.05
771.052	-0.14
771.228	0.09
771.403	-0.04
771.579	0.03
771.755	0.3
771.93	-0.23
772.106	-0.11
772.281	-0.13
772.457	-0.1
772.632	-0.03
772.808	-0.21
772.983	-0.11
773.159	-0.21
773.334	0.04
773.509	0.01
773.685	-0.06
773.86	0.33
774.036	0.12
774.211	0.02
774.386	-0.2
774.562	0.02
774.737	-0
774.912	-0.16
775.087	0.06
775.263	0.13
775.438	-0
775.613	-0.08
775.788	-0.13
775.964	0.1
776.139	0.24
776.314	-0.13
776.489	0.09
776.664	-0.01
776.839	-0.1
777.014	0.15
777.19	-0
777.365	0.14
777.54	0.18
777.715	0.03
777.89	-0.11
778.065	-0.12
778.24	-0.04
778.415	0.05
778.59	-0.19
778.765	-0.14
778.94	-0.02
779.115	-0.15
779.289	-0.09
779.464	-0.09
779.639	-0.11
779.814	-0.32
779.989	-0.16
780.164	0.14
780.339	0.13
780.513	-0.2
780.688	-0.11
780.863	-0.02
781.038	0.07
781.212	-0.17
781.387	-0.03
781.562	0.21
781.737	-0.07
781.911	0.08
782.086	-0.2
782.261	-0.19
782.435	0.28
782.61	-0.27
782.784	-0.08
782.959	0.1
783.134	-0.05
783.308	-0.15
783.483	-0.12
783.657	0.29
783.832	0.19
784.006	-0.51
784.181	-0.2
784.355	0.04
784.53	-0.24
784.704	-0.11
784.878	0.3
785.053	0.13
785.227	0.06
785.402	0.27
785.576	-0.36
785.75	-0.17
785.925	-0.03
786.099	-0.02
786.273	-0.1
786.448	-0.16
786.622	0.23
786.796	-0.15
786.97	-0.19
787.145	0.37
787.319	-0.45
787.493	-0.17
787.667	-0.32
787.841	-0.08
788.015	0.05
788.19	-0.11
788.364	-0.06
788.538	0.04
788.712	0.18
788.886	0.01
789.06	0.01
789.234	0.13
789.408	-0.27
789.582	-0.24
789.756	-0.13
789.93	-0.35
790.104	-0.09
790.278	-0.24
790.452	-0.26
790.626	0.05
790.8	-0.26
790.973	0.11
791.147	0.14
791.321	0.2
791.495	-0.02
791.669	0.15
791.843	0.04
792.016	-0.2
792.19	0.44
792.364	-0.31
792.538	0.41
792.711	0.36
792.885	-0.08
793.059	-0.23
793.233	-0.31
793.406	0.11
793.58	-0.03
793.754	0.07
793.927	-0.11
794.101	0.27
794.274	0.01
794.448	0.12
794.622	-0.35
794.795	0.23
794.969	-0.23
795.142	0.34
795.316	-0.2
795.489	-0.22
795.663	0.42
795.836	-0.22
796.009	-0.19
796.183	0.36
796.356	-0.09
796.53	0.06
796.703	0.06
796.876	0.31
797.05	-0.32
797.223	-0.08
797.396	0.17
797.57	0.08
797.743	0.18
797.916	0.18
798.09	0.11
798.263	0.23
798.436	-0.14
798.609	-0.08
798.782	-0.03
798.956	0.03
799.129	-0.18
799.302	-0.2
799.475	-0.06
799.648	-0.34
799.821	-0.06
799.994	0.06
800.167	-0.43
800.34	-0.01
800.514	0.02
800.687	-0.35
800.86	0.03
801.033	-0.09
801.206	-0.05
801.379	-0.29
801.551	0.06
801.724	0.08
801.897	0.23
802.07	-0.17
802.243	-0.45
802.416	-0.11
802.589	-0.39
802.762	0.12
802.935	-0.31
803.107	0.05
803.28	0.19
803.453	0.28
803.626	-0.08
803.798	-0.27
803.971	-0.06
804.144	0.18
804.317	-0.07
804.489	0.18
804.662	-0.09
804.835	0.13
805.007	-0.29
805.18	0.25
805.353	0.18
805.525	-0.45
805.698	-0.3
805.87	0.09
806.043	0.57
806.215	-0.18
806.388	-0.48
806.56	0.19
806.733	0.29
806.905	-0.03
807.078	-0.17
807.25	-0.37
807.423	0.01
807.595	0.03
807.768	0.03
807.94	0.27
808.112	0.29
808.285	-0.11
808.457	-0.45
808.629	0.02
808.802	0.08
808.974	-0.17
809.146	-0.26
809.318	-0.44
809.491	0.37
809.663	0.16
809.835	-0.32
810.007	0.37
810.18	-0.07
810.352	-0.27
810.524	-0.32
810.696	-0.19
810.868	0.34
811.04	-0.32
811.212	-0.29
811.384	0.03
811.556	-0.29
811.728	0.06
811.901	0.68
812.073	-0.2
812.245	0.17
812.417	0.02
812.589	-0.7
812.76	-0.13
812.932	-0.1
813.104	0.26
813.276	-0.09
813.448	0.22
813.62	0.18
813.792	0.01
813.964	-0.44
814.136	0.11
814.307	-0.36
814.479	-0.29
814.651	-0.34
814.823	0.67
814.995	-0.27
815.166	-0.04
815.338	-0.45
815.51	-1.09
815.681	0.58
815.853	-0.08
816.025	-0.19
816.196	0.52
816.368	0.18
816.54	-0.87
816.711	-0.47
816.883	-0.08
817.054	0.99
817.226	-0.86
817.398	-0.27
817.569	-0.15
817.741	0.18
817.912	-0.36
818.084	-0.36
818.255	-0.09
818.426	-0.34
818.598	0.08
818.769	-0.5
818.941	-0.26
819.112	0.29
819.283	0.21
819.455	-0.22
819.626	0.13
819.798	0.21
819.969	-0.05
820.14	-0.27
820.311	-0.27
820.483	-0.03
820.654	-0.11
820.825	-0.24
820.996	-0.09
821.168	-0.66
821.339	0.16
821.51	-0.74
821.681	0.91
821.852	-0.14
822.023	-0.5
822.195	-0.25
822.366	0.61
822.537	-0.36
822.708	0.27
822.879	-0.62
823.05	0.27
823.221	0.06
823.392	0.51
823.563	-0.42
823.734	-0.5
823.905	-0.01
824.076	-0.4
824.247	-0.72
824.418	-0.17
824.589	0.37
824.759	-0.22
824.93	-0.41
825.101	-0.67
825.272	0.55
825.443	0.25
825.614	0.05
825.784	-1.48
825.955	0.16
826.126	0.36
826.297	-0.12
826.467	0.72
826.638	-0.09
826.809	-1.26
826.98	0.36
827.15	0.14
827.321	-0.55
827.492	0.63
827.662	0.2
827.833	1.05
828.003	0.07
828.174	-0.19
828.345	-0.74
828.515	0.24
828.686	0.25
828.856	-0.49
829.027	-0.33
829.197	-0.19
829.368	-0.37
829.538	-0.3
829.709	-0.19
829.879	-0.45
830.049	0.18
830.22	-0.67
830.39	-0.01
830.56	0.94
830.731	-0.41
830.901	-0.6
831.072	-0.27
831.242	-0.37
831.412	0.13
831.582	-0.25
831.753	-0.61
831.923	0.51
832.093	0.05
832.263	0.02
832.434	-0.72
832.604	-0.41
832.774	0.19
832.944	-0.18
833.114	-0.31
833.284	0.19
833.454	-0.87
833.624	-0.45
833.795	-0.17
833.965	0.46
834.135	0.61
834.305	-0.3
834.475	-0.69
834.645	0.03
834.815	-1
834.985	-0.61
835.155	-0.26
835.325	0.08
835.494	-0.17
835.664	0.06
835.834	-0.78
836.004	0.23
836.174	-0.27
836.344	-0.96
836.514	-1.12
836.684	-0.19
836.853	0.09
837.023	-0.3
837.193	-0.32
837.363	0.21
837.532	0.72
837.702	-0.83
837.872	-0.58
838.041	-0.1
838.211	1.74
838.381	-0.53
838.55	0.18
838.72	1.04
838.89	1.07
839.059	-0.63
839.229	-0.85
839.398	1.06
839.568	0.28
839.738	-0.33
839.907	0.79
840.077	-0.07
840.246	-0.46
840.416	-0.52
840.585	-0.49
840.755	1.1
840.924	1.29
841.093	-0.5
841.263	-0.6
841.432	0.51
841.602	-0.62
841.771	-0.96
841.94	-0.39
842.11	1.56
842.279	0.9
842.448	-0.81
842.617	-0.67
842.787	1.6
842.956	-1.28
843.125	-0.33
843.294	0.15
843.464	0.55
843.633	0.4
843.802	-0.86
843.971	0.33
844.14	0.66
844.309	0.34
844.479	-1.72
844.648	-1.19
844.817	-0.94
844.986	-0.47
845.155	-1.42
845.324	-0.39
845.493	-0.31
845.662	-0.26
845.831	-0.1
846	0.83
846.169	-0.61
846.338	0.34
846.507	-0.42
846.676	0.17
846.844	-1.2
847.013	1.17
847.182	-0.26
847.351	-1.35
847.52	-0.39
847.689	0.88
847.858	-0.56
848.026	-0.25
848.195	-0.41
848.364	-0.65
848.533	-0.97
848.701	-0.5
848.87	-0.4
849.039	0.4
849.207	0.89
849.376	1.29
849.545	0.79
849.713	-0.6
849.882	-1.26
850.051	-0.2
850.219	0.35
850.388	0.25
850.556	-0.23
850.725	-1.77
850.893	-0.39
851.062	-0.21
851.23	-0.31
851.399	-1.44
851.567	-0.93
851.736	-0.34
851.904	-1.71
852.073	0.18
852.241	1.15
852.41	-0.78
852.578	0.2
852.746	-0.74
852.915	0.93
853.083	0.08
853.251	-1.07
853.42	-1.03
853.588	-0.07
853.756	1.07
853.924	-0.53
854.093	-1.38
854.261	-0.08
854.429	-0.84
854.597	-1.12
854.765	-1
854.934	1.19
855.102	1.71
855.27	-1.08
855.438	0.69
855.606	1.23
855.774	0.87
855.942	-2
856.11	-1.84
856.278	-0
856.446	0.55
856.614	-0.39
856.782	-0.61
856.95	-0.19
857.118	-1.11
857.286	0.05
857.454	-1.31
857.622	1.14
857.79	1.09
857.958	-0.58
858.126	-0.96
858.294	-2.45
858.462	-0.34
858.629	-1.16
858.797	-1.01
858.965	0.38
859.133	-0.98
859.301	-1.4
859.468	0.24
859.636	-0.91
859.804	0.49
859.971	0.03
860.139	-1.06
860.307	-0.13
860.474	-1.06
860.642	-0.08
860.81	-0.66
860.977	-0.81
861.145	0.56
861.313	-0.2
861.48	-0
861.648	0.36
861.815	-0.09
861.983	-0.4
862.15	-0.28
862.318	-0.31
862.485	1.93
862.653	-1.08
862.82	-0.7
862.988	1.31
863.155	0.92
863.322	-0.34
863.49	-1.32
863.657	-1.71
863.824	2.24
863.992	1.61
864.159	0.31
864.326	2.22
864.494	-0.43
864.661	1.83
864.828	-1.6
864.996	0.43
865.163	1.31
865.33	-1.56
865.497	-2.31
865.664	-0.79
865.832	-2.59
865.999	-0.54
866.166	-2.1
866.333	-1.79
866.5	-0.47
866.667	-0.96
866.834	-1.49
867.001	2.29
867.168	-2.27
867.335	0.47
867.502	-1.87
867.669	0.5
867.836	2.66
868.003	-1.87
868.17	1.69
868.337	1.79
868.504	1.77
868.671	-2.4
868.838	-0.58
869.005	-0.11
869.172	0.37
869.339	-0.6
869.505	-0.62
869.672	0.72
869.839	1.18
870.006	-0.24
870.173	-1.33
870.339	1.01
870.506	2.47
870.673	-1.63
870.84	0.63
871.006	0.49
871.173	-0.26
871.34	-0.99
871.506	-1.61
871.673	-1.08
871.839	-2.85
872.006	-0.4
872.173	-1.65
872.339	-0.7
872.506	0.69
872.672	-0.85
872.839	-1.4
873.005	0.93
873.172	1.26
873.338	1.36
873.505	0.41
873.671	-0.54
873.838	0.27
874.004	-1.55
874.171	-1.27
874.337	0.66
874.503	-0.31
874.67	-0.49
874.836	-1.47
875.002	0.83
875.169	1.02
875.335	0.94
875.501	-0.6
875.668	0.17
875.834	0.56
876	-0.57
876.166	-0.29
876.332	0.12
876.499	2.09
876.665	-1.27
876.831	0.38
876.997	2.37
877.163	2.81
877.329	-1.69
877.495	1.13
877.662	0.47
877.828	-0.3
877.994	-0.43
878.16	-4.53
878.326	-0.56
878.492	-0.34
878.658	-2.56
878.824	-0.02
878.99	-0.13
879.156	-1.57
879.322	3.6
879.487	-0.83
879.653	-0.45
879.819	1.26
879.985	-1.96
880.151	2.12
880.317	1.34
880.483	0.37
880.648	0.37
880.814	-1.26
880.98	0.13
881.146	-1.81
881.312	-1.41
881.477	-0.91
881.643	0.24
881.809	0.39
881.974	2.7
882.14	-2.43
882.306	1.63
882.471	1.63
882.637	-1.04
882.803	-0.12
882.968	3.02
883.134	2.86
883.299	-0.6
883.465	0.87
883.63	0.65
883.796	1.56
883.961	1.39
884.127	0.57
884.292	-4.2
884.458	-2.79
884.623	-2.79
