Data from Apollo_Calib_20240827__AbsoluteIrradiance__656__10-05-02-466.txt Node

Date: Wed Aug 28 10:05:02 BST 2024
User: biology
Spectrometer: FLMT08252
Trigger mode: 0
Integration Time (sec): 5.000000E-1
Scans to average: 5
Electric dark correction enabled: true
Nonlinearity correction enabled: false
Boxcar width: 0
XAxis mode: Wavelengths
Number of Pixels in Spectrum: 3648
>>>>>Begin Spectral Data<<<<<
179.588	-0
179.809	-0
180.03	-0
180.251	-0
180.473	-0
180.694	0
180.915	0
181.136	-0
181.357	0
181.578	0
181.799	-0
182.02	-0
182.241	-0
182.462	-0
182.683	0
182.904	-0
183.125	-0
183.346	0
183.567	0
183.788	-0
184.009	-0
184.23	0
184.451	0
184.672	0
184.892	-0
185.113	0
185.334	0
185.555	-0
185.776	0
185.996	0
186.217	0
186.438	0
186.659	-0
186.879	0
187.1	-0
187.321	-0
187.541	-0
187.762	0
187.983	-0
188.203	-0
188.424	0
188.644	0
188.865	0
189.086	0
189.306	-0
189.527	0
189.747	0
189.968	-0
190.188	0
190.409	0
190.629	0
190.849	0
191.07	0
191.29	0
191.511	0
191.731	-0
191.951	-0
192.172	-0
192.392	0
192.612	0
192.833	-0
193.053	0
193.273	0
193.493	-0
193.714	-0
193.934	0
194.154	0
194.374	0
194.594	0
194.815	0
195.035	-0
195.255	0
195.475	-0
195.695	0
195.915	0
196.135	-0
196.355	0
196.575	0
196.795	0
197.015	-0
197.235	-0
197.455	-0
197.675	0
197.895	-0
198.115	-0
198.335	0
198.555	-0
198.775	0
198.995	0
199.214	0
199.434	-0
199.654	-0
199.874	-0
200.094	0.82
200.313	0.78
200.533	0.13
200.753	-0.09
200.973	0.92
201.192	0.95
201.412	-0.97
201.632	0.17
201.851	1.43
202.071	-0.64
202.291	-0.2
202.51	0.01
202.73	0.71
202.95	0.16
203.169	-0.49
203.389	0.23
203.608	0.66
203.828	-0.14
204.047	-0.07
204.267	0.1
204.486	0.2
204.706	0.37
204.925	-0.4
205.145	0.01
205.364	0.37
205.583	0.93
205.803	0.18
206.022	-0.16
206.242	0.37
206.461	-0.04
206.68	-0.24
206.9	0.4
207.119	0.32
207.338	0.52
207.557	0.05
207.777	0.17
207.996	0.31
208.215	0.56
208.434	0.14
208.654	-0.38
208.873	0.37
209.092	0.68
209.311	-0.1
209.53	-0.11
209.749	-0
209.968	-0.12
210.187	0.15
210.407	-0.34
210.626	0.17
210.845	0.25
211.064	-0.13
211.283	-0.04
211.502	0.37
211.721	0.14
211.94	0.04
212.159	0.45
212.377	0.35
212.596	0.38
212.815	0.3
213.034	0.2
213.253	0.37
213.472	0.21
213.691	-0.05
213.91	-0.11
214.128	0.05
214.347	0.24
214.566	-0.41
214.785	-0.21
215.003	0.19
215.222	0.41
215.441	-0.05
215.66	-0.22
215.878	-0.04
216.097	0.11
216.316	-0.28
216.534	-0.12
216.753	0.12
216.972	0.1
217.19	0.09
217.409	-0.07
217.627	0.06
217.846	0.1
218.064	0.06
218.283	-0.06
218.501	0.53
218.72	0.19
218.938	-0.12
219.157	-0.11
219.375	0.29
219.594	0.17
219.812	-0.15
220.031	0
220.249	0.28
220.467	0.24
220.686	0.1
220.904	-0.09
221.122	-0.11
221.341	0.28
221.559	0.1
221.777	0.06
221.995	0.09
222.214	0.23
222.432	-0.1
222.65	0.24
222.868	0
223.086	0.06
223.305	0.19
223.523	-0.04
223.741	0.42
223.959	-0.19
224.177	-0.15
224.395	-0.02
224.613	0.03
224.831	0.12
225.049	-0.08
225.267	0.02
225.485	0.03
225.703	0.04
225.921	-0.01
226.139	-0.1
226.357	0.26
226.575	0.09
226.793	-0.09
227.011	0.65
227.229	0.14
227.447	0.19
227.665	-0.07
227.883	-0.11
228.1	0.11
228.318	0.06
228.536	-0.16
228.754	-0.15
228.972	0.08
229.189	0.1
229.407	-0.06
229.625	-0.09
229.843	0.21
230.06	0.11
230.278	0.02
230.496	0.03
230.713	0.07
230.931	0.22
231.149	-0
231.366	-0.11
231.584	0.08
231.801	0.36
232.019	-0.07
232.236	-0.1
232.454	-0.17
232.671	0.06
232.889	0.08
233.106	-0.13
233.324	-0.01
233.541	0.04
233.759	0.09
233.976	-0.08
234.194	0.01
234.411	0.11
234.628	-0.02
234.846	-0.03
235.063	0.08
235.28	0
235.498	0.01
235.715	-0.09
235.932	0.15
236.149	-0.05
236.367	-0.02
236.584	0.08
236.801	-0.11
237.018	0.17
237.236	0.06
237.453	-0.13
237.67	0.17
237.887	0.01
238.104	-0.01
238.321	-0.07
238.538	0.05
238.755	0.19
238.973	-0.16
239.19	0.04
239.407	0.16
239.624	0.07
239.841	-0.07
240.058	-0.08
240.275	0.06
240.492	0.02
240.709	0.06
240.925	0.11
241.142	0.03
241.359	-0.08
241.576	-0.03
241.793	-0.11
242.01	0.01
242.227	0.13
242.444	0.04
242.66	0.21
242.877	0.1
243.094	-0.02
243.311	0.01
243.527	0.06
243.744	0.08
243.961	0.1
244.178	-0.1
244.394	0.02
244.611	0.2
244.828	0.13
245.044	-0.11
245.261	0.06
245.477	0.11
245.694	0.05
245.911	0.02
246.127	0.12
246.344	0.14
246.56	0.09
246.777	0.02
246.993	0.01
247.21	0.09
247.426	-0.02
247.643	-0.02
247.859	-0.05
248.076	-0.09
248.292	0.26
248.508	0.04
248.725	0.07
248.941	0.02
249.157	0.12
249.374	-0.01
249.59	-0.02
249.806	0.01
250.023	0.04
250.239	-0.02
250.455	-0.03
250.671	0.03
250.888	0.1
251.104	0.17
251.32	0.02
251.536	0.03
251.752	0.01
251.969	0.05
252.185	0.08
252.401	0.17
252.617	0.1
252.833	0.01
253.049	0.11
253.265	0.05
253.481	0.16
253.697	0.01
253.913	-0.08
254.129	-0.03
254.345	0.01
254.561	0.02
254.777	0.05
254.993	0.17
255.209	0.08
255.425	0
255.641	-0.06
255.857	0.09
256.073	0.03
256.288	-0.09
256.504	-0
256.72	0
256.936	0.14
257.152	0.06
257.367	-0.04
257.583	0.07
257.799	0.12
258.015	-0.03
258.23	0
258.446	0.14
258.662	0.04
258.877	-0.07
259.093	-0.02
259.309	0.06
259.524	0.06
259.74	-0
259.955	-0.06
260.171	0.09
260.387	0.07
260.602	0.11
260.818	-0.02
261.033	-0.05
261.249	0.01
261.464	0.04
261.68	-0.04
261.895	0.06
262.11	0.07
262.326	0.04
262.541	-0.07
262.757	0.09
262.972	0.11
263.187	0.07
263.403	-0.02
263.618	0.09
263.833	0.1
264.049	-0.06
264.264	0.01
264.479	0.06
264.694	0.15
264.91	-0.07
265.125	0.03
265.34	0.1
265.555	0.14
265.77	0.06
265.986	0.02
266.201	0.07
266.416	0.09
266.631	-0.03
266.846	-0.07
267.061	0.04
267.276	0.09
267.491	-0.15
267.706	0.04
267.921	0.08
268.136	0.03
268.351	0.01
268.566	-0.06
268.781	0.08
268.996	0.02
269.211	0.01
269.426	-0.04
269.641	-0.07
269.856	0.01
270.071	0.01
270.285	-0.04
270.5	0.07
270.715	0.1
270.93	-0.02
271.145	0
271.359	0.06
271.574	-0.01
271.789	0.03
272.004	-0.07
272.218	0.03
272.433	0.05
272.648	-0.02
272.862	0.1
273.077	0.02
273.292	0.02
273.506	-0.05
273.721	-0
273.936	0.07
274.15	0.1
274.365	-0.01
274.579	0.08
274.794	0.1
275.008	0.1
275.223	-0.03
275.437	-0.01
275.652	0.07
275.866	0.1
276.081	-0.01
276.295	0.07
276.509	0.03
276.724	0.03
276.938	0.02
277.153	0.05
277.367	0.1
277.581	-0.04
277.796	0.03
278.01	-0.05
278.224	0.1
278.438	0.14
278.653	-0.04
278.867	-0.06
279.081	-0.13
279.295	-0.01
279.51	0.01
279.724	-0.09
279.938	0.04
280.152	0.01
280.366	-0.03
280.58	0.03
280.794	0.08
281.008	0.05
281.222	0.06
281.437	0.1
281.651	0.02
281.865	0.11
282.079	0.01
282.293	-0.02
282.507	-0.02
282.721	0.04
282.935	0.03
283.148	-0.11
283.362	-0.05
283.576	-0.02
283.79	0.03
284.004	-0.05
284.218	0.09
284.432	0
284.646	0.04
284.859	0
285.073	-0
285.287	0.02
285.501	-0.01
285.714	0.03
285.928	-0.02
286.142	-0
286.356	-0
286.569	0.03
286.783	0.08
286.997	0.05
287.21	0.04
287.424	0.06
287.637	-0.01
287.851	0.05
288.065	0.04
288.278	0
288.492	0.02
288.705	-0.01
288.919	0.05
289.132	-0.03
289.346	0.07
289.559	-0.04
289.773	-0.04
289.986	0.01
290.2	0.07
290.413	0.08
290.626	-0.08
290.84	0.05
291.053	0.03
291.267	0.06
291.48	0.04
291.693	-0.03
291.906	0.01
292.12	-0.01
292.333	-0.05
292.546	0.01
292.76	0.1
292.973	0.05
293.186	0.02
293.399	-0.01
293.612	0.09
293.826	0.03
294.039	0.05
294.252	0.05
294.465	0.06
294.678	0.06
294.891	0.03
295.104	-0.02
295.317	0.05
295.53	0.03
295.743	0
295.956	0.01
296.169	0.08
296.382	0.03
296.595	0.01
296.808	-0.02
297.021	0.05
297.234	0.04
297.447	0
297.66	0.04
297.873	0.04
298.086	0.05
298.299	-0.01
298.511	0
298.724	-0.01
298.937	0.01
299.15	-0.02
299.363	0.03
299.575	0.04
299.788	0.06
300.001	-0.03
300.213	-0.04
300.426	0
300.639	0.03
300.852	-0.02
301.064	0.06
301.277	0.09
301.489	0.06
301.702	0.06
301.915	-0.01
302.127	-0.01
302.34	0.05
302.552	0.05
302.765	0.02
302.977	0.04
303.19	-0
303.402	-0.01
303.615	0.03
303.827	-0.02
304.04	0.01
304.252	0.04
304.464	-0.02
304.677	0.15
304.889	0.05
305.102	0.01
305.314	-0.02
305.526	0.08
305.739	0.09
305.951	-0
306.163	0.05
306.375	0.08
306.588	-0
306.8	-0.02
307.012	-0.03
307.224	0.07
307.436	0.06
307.649	-0.03
307.861	0.08
308.073	0.06
308.285	0.01
308.497	-0.01
308.709	0.03
308.921	0.03
309.133	0.05
309.346	0.04
309.558	0.03
309.77	0.04
309.982	0.03
310.194	0.08
310.406	0.01
310.617	0.08
310.829	0.03
311.041	0.07
311.253	0.01
311.465	-0
311.677	0.05
311.889	0.01
312.101	0.01
312.313	0.06
312.524	0.05
312.736	0.01
312.948	-0.01
313.16	0.09
313.372	0.06
313.583	0.02
313.795	0.04
314.007	0.01
314.218	0.07
314.43	0.02
314.642	-0.02
314.853	-0.04
315.065	0.06
315.277	0.04
315.488	0.05
315.7	0.06
315.912	0.04
316.123	0.04
316.335	-0.04
316.546	0.13
316.758	0.02
316.969	-0.03
317.181	0.01
317.392	0.07
317.604	0.04
317.815	-0.04
318.026	-0
318.238	0.04
318.449	0.01
318.661	-0.07
318.872	-0.02
319.083	-0.05
319.295	0.02
319.506	-0.02
319.717	0.01
319.929	0.06
320.14	0.02
320.351	0.05
320.562	0
320.774	0.02
320.985	0.03
321.196	-0.02
321.407	-0.06
321.618	0.05
321.829	0.04
322.041	0.04
322.252	0.03
322.463	0.03
322.674	0.04
322.885	-0
323.096	0
323.307	0.03
323.518	0.08
323.729	-0.02
323.94	-0.02
324.151	-0.02
324.362	0.03
324.573	0.03
324.784	-0
324.995	0.1
325.206	0.06
325.417	-0
325.628	-0.02
325.838	0.02
326.049	0.02
326.26	0.06
326.471	0.01
326.682	0.06
326.892	0.05
327.103	-0.07
327.314	-0.03
327.525	0.07
327.735	0.07
327.946	0
328.157	-0.04
328.368	0.03
328.578	-0.02
328.789	0.05
328.999	0.06
329.21	0.04
329.421	0.01
329.631	-0.02
329.842	-0
330.052	-0
330.263	0.04
330.473	0.06
330.684	0.03
330.894	0.01
331.105	0.03
331.315	-0
331.526	-0.02
331.736	0.08
331.947	0.04
332.157	0.04
332.367	-0.03
332.578	0.06
332.788	0.05
332.999	0.08
333.209	0.03
333.419	0.02
333.629	0.03
333.84	0
334.05	0.02
334.26	0.08
334.47	0.03
334.681	0.07
334.891	-0.01
335.101	0.06
335.311	0.09
335.521	0.01
335.732	-0.03
335.942	0.07
336.152	0.04
336.362	0.02
336.572	0.01
336.782	0.07
336.992	0.01
337.202	-0.03
337.412	-0
337.622	0.03
337.832	0.04
338.042	0.04
338.252	-0.04
338.462	0.02
338.672	0.03
338.882	0.01
339.092	-0.01
339.302	0.08
339.511	0.06
339.721	-0.03
339.931	-0.03
340.141	0.08
340.351	0.06
340.561	0.02
340.77	0.01
340.98	0.02
341.19	0.01
341.4	0.02
341.609	-0.02
341.819	0.01
342.029	-0.04
342.238	0.01
342.448	-0.04
342.658	0.09
342.867	0.03
343.077	0.01
343.286	0.05
343.496	0.02
343.706	0.06
343.915	-0.05
344.125	0.01
344.334	0.02
344.544	-0.03
344.753	-0.01
344.963	0
345.172	-0.01
345.381	0.01
345.591	-0.03
345.8	0.01
346.01	0.06
346.219	0.04
346.428	0.01
346.638	0.04
346.847	-0.03
347.056	0.05
347.266	-0.02
347.475	-0
347.684	0.04
347.893	0.02
348.103	0.02
348.312	-0.01
348.521	-0.01
348.73	0.02
348.94	0.05
349.149	-0.01
349.358	-0.01
349.567	-0.02
349.776	-0
349.985	0.01
350.194	0.06
350.403	0.05
350.612	-0.02
350.821	0.01
351.03	0.02
351.239	-0.02
351.448	0.01
351.657	-0.02
351.866	0.1
352.075	0
352.284	0.08
352.493	-0.04
352.702	0.1
352.911	0.01
353.12	0.03
353.329	0.03
353.538	0.04
353.746	0.02
353.955	-0.01
354.164	0.03
354.373	-0
354.582	0.05
354.79	0.03
354.999	0.03
355.208	0.01
355.416	0.09
355.625	-0
355.834	0.02
356.042	0.03
356.251	-0.02
356.46	-0.03
356.668	0.03
356.877	0.07
357.085	0.03
357.294	-0.09
357.503	0.07
357.711	0
357.92	0.13
358.128	0.04
358.337	0.01
358.545	-0.01
358.754	0.02
358.962	0.05
359.17	0.01
359.379	0.02
359.587	0.04
359.796	-0.01
360.004	0.05
360.212	-0
360.421	0.07
360.629	0.01
360.837	-0.03
361.046	0.09
361.254	0.07
361.462	0.04
361.67	-0
361.879	-0
362.087	0.06
362.295	0.03
362.503	0.01
362.711	-0.02
362.92	-0.01
363.128	-0.02
363.336	-0.03
363.544	-0.04
363.752	0
363.96	0.01
364.168	0.01
364.376	0.01
364.584	0.02
364.792	0.03
365	0.04
365.208	0.06
365.416	0.04
365.624	0.09
365.832	0
366.04	0.07
366.248	0.03
366.456	-0
366.664	0.02
366.872	-0.01
367.079	0.01
367.287	0
367.495	0.02
367.703	0.02
367.911	-0.03
368.118	-0.01
368.326	0.01
368.534	-0.02
368.742	0.07
368.949	-0.04
369.157	0.03
369.365	0.06
369.572	-0
369.78	-0.06
369.988	0.07
370.195	0.06
370.403	0.05
370.61	0.03
370.818	0.02
371.026	0.05
371.233	-0.02
371.441	0.01
371.648	-0.01
371.856	-0
372.063	0.05
372.271	-0.03
372.478	0.01
372.685	-0
372.893	-0.01
373.1	0.02
373.308	-0.02
373.515	0.06
373.722	0.03
373.93	0
374.137	0.03
374.344	0.07
374.552	0.08
374.759	0.07
374.966	0
375.173	0.01
375.381	0.06
375.588	-0
375.795	-0.02
376.002	-0.04
376.209	-0.06
376.417	0.01
376.624	0.03
376.831	0.03
377.038	0.01
377.245	-0.05
377.452	-0.01
377.659	-0.01
377.866	-0.04
378.073	-0.01
378.28	0.03
378.487	0.03
378.694	0
378.901	-0.01
379.108	0.03
379.315	0.05
379.522	0.11
379.729	0.06
379.936	0.03
380.143	0.01
380.35	0.09
380.557	0.02
380.763	0.04
380.97	0
381.177	0.02
381.384	0.04
381.591	0.01
381.797	-0.01
382.004	0.05
382.211	0.01
382.418	-0.04
382.624	0.07
382.831	0.04
383.038	-0.01
383.244	0.03
383.451	0.03
383.658	0.06
383.864	0.03
384.071	-0.01
384.277	0.1
384.484	-0.02
384.69	0.05
384.897	0
385.103	-0.01
385.31	-0.03
385.516	-0.01
385.723	-0.01
385.929	-0.01
386.136	-0.05
386.342	0.05
386.549	-0.01
386.755	0.05
386.961	0.04
387.168	-0.02
387.374	0.03
387.58	0.02
387.787	0.02
387.993	0.01
388.199	-0.02
388.406	0.01
388.612	0.01
388.818	-0.02
389.024	-0.01
389.231	0.03
389.437	0.06
389.643	0.05
389.849	0.01
390.055	0.03
390.261	0.02
390.467	0.04
390.674	-0.01
390.88	-0.03
391.086	0.04
391.292	0.01
391.498	0.06
391.704	0.05
391.91	0.03
392.116	-0.02
392.322	-0.04
392.528	0.03
392.734	0
392.94	0.04
393.146	0.02
393.352	0.03
393.557	0.02
393.763	-0.02
393.969	0.01
394.175	0.02
394.381	0.04
394.587	-0.03
394.792	-0
394.998	0.03
395.204	0.09
395.41	-0.04
395.615	0.02
395.821	0.02
396.027	0.06
396.233	-0.06
396.438	0.03
396.644	0.09
396.85	0.05
397.055	-0.01
397.261	0.06
397.466	0.11
397.672	-0.01
397.878	0.03
398.083	0.04
398.289	0.01
398.494	0.11
398.7	0.07
398.905	-0.04
399.111	0.07
399.316	-0.09
399.522	-0.01
399.727	0.05
399.932	0
400.138	0.03
400.343	0.02
400.549	-0
400.754	-0.01
400.959	-0
401.165	0.03
401.37	0.03
401.575	0.09
401.78	0.03
401.986	-0.02
402.191	-0.02
402.396	0.01
402.601	0.01
402.807	0.03
403.012	0.05
403.217	0.07
403.422	-0.02
403.627	0.01
403.832	-0.01
404.037	0.06
404.243	0.03
404.448	-0.02
404.653	-0.01
404.858	-0
405.063	0.09
405.268	0.01
405.473	-0.03
405.678	-0.03
405.883	0.15
406.088	0.02
406.293	-0.02
406.498	-0.02
406.703	0.05
406.907	-0.02
407.112	-0.03
407.317	0.04
407.522	0.05
407.727	-0.03
407.932	0.02
408.136	0.05
408.341	0.02
408.546	-0.01
408.751	0.01
408.956	-0
409.16	0.04
409.365	0.03
409.57	0.02
409.774	0.04
409.979	0.06
410.184	0.06
410.388	-0.05
410.593	-0.01
410.798	0.06
411.002	-0.03
411.207	0.04
411.411	0.06
411.616	-0.01
411.82	-0.03
412.025	0.04
412.229	-0.02
412.434	0.07
412.638	0.03
412.843	-0.02
413.047	0.02
413.252	-0.05
413.456	0.03
413.66	0.03
413.865	-0.05
414.069	0.08
414.273	-0.01
414.478	0
414.682	-0.01
414.886	0.01
415.091	-0.04
415.295	-0.03
415.499	0.04
415.703	0.03
415.908	0.04
416.112	-0.08
416.316	0.01
416.52	-0.03
416.724	-0.07
416.929	-0.04
417.133	0.12
417.337	-0.02
417.541	-0.01
417.745	0.01
417.949	0
418.153	0.02
418.357	-0.04
418.561	0.08
418.765	0.04
418.969	0.11
419.173	0.05
419.377	-0.02
419.581	0.08
419.785	-0.01
419.989	-0.04
420.193	-0.03
420.397	-0
420.601	0.06
420.804	-0.01
421.008	0.01
421.212	0.02
421.416	0.03
421.62	-0.02
421.823	0.01
422.027	0.11
422.231	0.07
422.435	0.01
422.638	0.01
422.842	0.01
423.046	-0.02
423.249	0.06
423.453	0.02
423.657	0.01
423.86	0.02
424.064	0.05
424.268	0.04
424.471	-0.01
424.675	0.05
424.878	0.07
425.082	0.01
425.285	0.09
425.489	0.04
425.692	0.05
425.896	-0.03
426.099	0.05
426.303	-0.06
426.506	-0.09
426.71	0
426.913	0.08
427.116	0.04
427.32	-0
427.523	0.02
427.726	0.12
427.93	-0.08
428.133	0.04
428.336	-0.08
428.54	-0.03
428.743	0.07
428.946	0.07
429.149	0
429.353	-0.01
429.556	0.02
429.759	0.04
429.962	-0.04
430.165	0.03
430.368	-0
430.571	0.02
430.775	0.06
430.978	-0.02
431.181	0.04
431.384	0.02
431.587	-0.03
431.79	0.02
431.993	-0.01
432.196	-0
432.399	0.02
432.602	0.08
432.805	-0.03
433.008	0.03
433.211	-0.05
433.414	0.05
433.616	0.02
433.819	0.04
434.022	-0.02
434.225	0.07
434.428	-0
434.631	0.11
434.833	0
435.036	0.02
435.239	0.09
435.442	0.01
435.645	0.02
435.847	0.03
436.05	0.09
436.253	-0
436.455	-0.03
436.658	0.02
436.861	0.14
437.063	-0.01
437.266	0.02
437.468	0.01
437.671	0.14
437.874	0
438.076	-0.02
438.279	-0.03
438.481	0.03
438.684	-0.03
438.886	0.04
439.089	-0.05
439.291	-0.02
439.494	0.01
439.696	0.02
439.899	-0.01
440.101	0.02
440.303	-0.03
440.506	0.03
440.708	-0.03
440.91	0.06
441.113	-0.05
441.315	0.1
441.517	0.02
441.72	0.05
441.922	0
442.124	-0.08
442.326	0.01
442.529	0.05
442.731	0.02
442.933	0.1
443.135	0.01
443.337	0.03
443.539	0.04
443.742	-0.04
443.944	0.03
444.146	-0.01
444.348	-0.03
444.55	-0.02
444.752	-0.03
444.954	-0
445.156	-0.02
445.358	-0.02
445.56	0.05
445.762	0.05
445.964	-0.01
446.166	-0.01
446.368	-0.05
446.57	0.07
446.772	0.03
446.974	-0.03
447.175	0.06
447.377	-0.03
447.579	-0.04
447.781	-0.07
447.983	0.1
448.184	-0.03
448.386	0.05
448.588	-0.04
448.79	-0.01
448.991	0.01
449.193	-0.02
449.395	0.01
449.597	0.06
449.798	0.06
450	0.06
450.202	-0.02
450.403	-0.04
450.605	0.08
450.806	0.02
451.008	-0.09
451.21	-0.03
451.411	0.02
451.613	0.02
451.814	-0.01
452.016	0.05
452.217	0.01
452.419	0.04
452.62	0.04
452.821	0.09
453.023	0.07
453.224	0.07
453.426	0.02
453.627	0.03
453.828	0.03
454.03	0.05
454.231	-0
454.432	-0.01
454.634	0.09
454.835	-0.01
455.036	-0.03
455.238	0.04
455.439	0.1
455.64	-0.02
455.841	0
456.042	0.13
456.244	0.07
456.445	-0.08
456.646	-0.08
456.847	0.01
457.048	0.06
457.249	0.07
457.45	0.23
457.651	-0.05
457.852	0.1
458.054	0.03
458.255	-0.01
458.456	0.04
458.657	0.03
458.858	0.01
459.058	0.03
459.259	0.07
459.46	-0.01
459.661	-0.04
459.862	0.12
460.063	-0.02
460.264	0.1
460.465	0.01
460.666	0.1
460.866	-0.01
461.067	0.03
461.268	0.01
461.469	-0.05
461.67	0.03
461.87	-0.01
462.071	0.03
462.272	-0.03
462.473	0.01
462.673	0.04
462.874	-0.06
463.075	0.02
463.275	-0
463.476	-0
463.676	0.02
463.877	-0
464.078	-0.01
464.278	0.02
464.479	0.01
464.679	-0.02
464.88	-0.02
465.08	0.06
465.281	-0.01
465.481	-0.01
465.682	-0.03
465.882	0.02
466.083	0
466.283	-0.02
466.483	-0.02
466.684	-0.05
466.884	-0.06
467.085	0.03
467.285	0.06
467.485	-0.01
467.686	0.04
467.886	-0.03
468.086	0.01
468.286	0.03
468.487	0.03
468.687	-0.04
468.887	0
469.087	0.02
469.287	0.01
469.488	-0.05
469.688	0.07
469.888	0.06
470.088	0.04
470.288	0.04
470.488	0.04
470.688	-0.04
470.888	-0.04
471.088	0.02
471.288	0.07
471.488	0.05
471.688	0.01
471.888	-0.03
472.088	0.06
472.288	0.02
472.488	-0.03
472.688	0.01
472.888	0.04
473.088	0.02
473.288	0.01
473.488	-0.02
473.688	0.05
473.887	0.04
474.087	0.03
474.287	-0.01
474.487	-0.02
474.687	0.05
474.886	-0.01
475.086	0.03
475.286	0.03
475.486	-0.01
475.685	0
475.885	0.01
476.085	0.01
476.284	0.01
476.484	-0.01
476.684	0.03
476.883	0.07
477.083	0.01
477.282	-0.04
477.482	0.06
477.681	0.04
477.881	0.02
478.08	-0.04
478.28	-0.05
478.479	0.07
478.679	0.09
478.878	-0.02
479.078	-0.02
479.277	-0.03
479.477	0.04
479.676	0.04
479.875	0.02
480.075	-0.04
480.274	0.01
480.473	0.01
480.673	-0.02
480.872	0.04
481.071	0
481.271	0
481.47	-0.01
481.669	-0
481.868	-0.03
482.067	-0.02
482.267	-0
482.466	-0.03
482.665	-0.01
482.864	-0.02
483.063	-0.01
483.262	0.04
483.461	0.05
483.661	0.05
483.86	0
484.059	0.01
484.258	0.01
484.457	-0.01
484.656	0.02
484.855	0.06
485.054	-0.04
485.253	-0.02
485.452	-0.03
485.651	-0.01
485.849	0.02
486.048	-0.01
486.247	-0.01
486.446	-0
486.645	-0.03
486.844	-0.03
487.043	-0.01
487.241	0.02
487.44	-0.01
487.639	0.01
487.838	0.02
488.037	-0
488.235	0.04
488.434	-0
488.633	-0.02
488.831	0.02
489.03	0.04
489.229	0.03
489.427	-0
489.626	0.02
489.825	0.06
490.023	0
490.222	-0.01
490.42	0.02
490.619	0.02
490.817	0.02
491.016	-0
491.214	0.05
491.413	-0
491.611	-0
491.81	-0.01
492.008	0.01
492.207	0.02
492.405	0.02
492.604	-0.02
492.802	0.02
493	-0
493.199	-0.01
493.397	-0
493.595	-0.01
493.794	-0.01
493.992	0.05
494.19	-0.02
494.388	0.03
494.587	-0.02
494.785	0.03
494.983	-0.01
495.181	0.01
495.379	-0.01
495.578	0.01
495.776	0.03
495.974	0.01
496.172	-0
496.37	-0.02
496.568	-0.01
496.766	-0.01
496.964	0.03
497.162	-0.01
497.36	-0.02
497.558	0
497.756	0.03
497.954	0
498.152	-0.01
498.35	0.01
498.548	-0.01
498.746	0.01
498.944	-0.02
499.142	-0.01
499.34	-0.02
499.538	0.02
499.736	-0.02
499.933	0.03
500.131	0.02
500.329	0.03
500.527	0.06
500.725	0.02
500.922	0.03
501.12	0.02
501.318	0
501.516	-0.02
501.713	0.04
501.911	0.01
502.109	-0.02
502.306	0.01
502.504	0
502.701	-0.01
502.899	-0
503.097	0.04
503.294	-0
503.492	0.01
503.689	0.01
503.887	0.03
504.084	0.03
504.282	-0
504.479	-0.02
504.677	0.02
504.874	-0.04
505.072	0.02
505.269	0
505.466	0.03
505.664	0.03
505.861	-0.03
506.059	-0.03
506.256	0.03
506.453	-0.01
506.651	0.04
506.848	0.03
507.045	0.03
507.242	0.01
507.44	0
507.637	0.03
507.834	-0.01
508.031	0.03
508.229	-0.02
508.426	0.02
508.623	0.01
508.82	-0.02
509.017	-0.02
509.214	0.01
509.411	-0
509.608	-0.03
509.805	-0.01
510.003	-0.03
510.2	-0.03
510.397	0.03
510.594	-0.01
510.791	0
510.988	0.01
511.184	0.04
511.381	0.01
511.578	0
511.775	0.04
511.972	-0.01
512.169	-0.03
512.366	0
512.563	0.02
512.76	-0.01
512.956	0.04
513.153	-0.02
513.35	0.03
513.547	-0.01
513.744	-0.01
513.94	-0
514.137	0.02
514.334	0.01
514.53	0
514.727	0.01
514.924	0.04
515.12	-0.01
515.317	-0.02
515.514	0
515.71	-0.03
515.907	-0
516.103	0.02
516.3	0.02
516.497	0.04
516.693	0.05
516.89	-0
517.086	-0.02
517.283	0.04
517.479	0.01
517.676	-0.01
517.872	0.01
518.068	-0.01
518.265	-0.02
518.461	0
518.658	-0.01
518.854	0.02
519.05	-0
519.247	-0.01
519.443	0.03
519.639	0.01
519.836	0.01
520.032	-0
520.228	0.01
520.424	0.04
520.621	0.01
520.817	0
521.013	0.02
521.209	0.01
521.405	0.03
521.601	-0
521.798	-0.01
521.994	0.05
522.19	-0.01
522.386	-0.02
522.582	0.02
522.778	-0
522.974	0
523.17	-0.01
523.366	-0.02
523.562	0.02
523.758	-0.01
523.954	0.01
524.15	-0.01
524.346	0.02
524.542	0
524.738	-0.01
524.934	0
525.129	-0.07
525.325	0.02
525.521	-0.02
525.717	0.03
525.913	0.03
526.109	0.02
526.304	-0.01
526.5	0.03
526.696	0.02
526.892	-0.02
527.087	0.02
527.283	-0.01
527.479	0.02
527.674	0.01
527.87	0.01
528.066	-0.01
528.261	0.03
528.457	0
528.653	0.02
528.848	-0.01
529.044	0.02
529.239	-0
529.435	0.03
529.63	0.02
529.826	0.05
530.021	0.02
530.217	0.01
530.412	-0
530.608	-0.02
530.803	0.02
530.999	-0
531.194	-0.03
531.389	0.02
531.585	-0.05
531.78	-0
531.975	-0.01
532.171	0.02
532.366	0.01
532.561	0.01
532.757	-0.02
532.952	0.01
533.147	0.02
533.342	0.02
533.538	0
533.733	0.03
533.928	0.02
534.123	-0.01
534.318	-0.02
534.513	0
534.709	0.01
534.904	-0.03
535.099	-0
535.294	-0.01
535.489	0.02
535.684	-0
535.879	-0.02
536.074	-0
536.269	-0.03
536.464	0.01
536.659	-0
536.854	-0.01
537.049	0.01
537.244	0.01
537.439	0
537.634	0.04
537.828	0.01
538.023	-0.01
538.218	-0.02
538.413	0.02
538.608	-0.01
538.803	0.02
538.997	-0.04
539.192	0.02
539.387	0.01
539.582	0
539.776	0.01
539.971	0.01
540.166	0.02
540.36	-0.04
540.555	-0
540.75	-0.02
540.944	0.01
541.139	-0.04
541.334	-0.01
541.528	0.02
541.723	0.03
541.917	0
542.112	-0.04
542.306	-0.01
542.501	0.01
542.695	0
542.89	0
543.084	0.01
543.279	-0.02
543.473	0.01
543.668	0
543.862	-0.01
544.056	0.02
544.251	-0
544.445	0
544.64	-0.02
544.834	-0.03
545.028	0.02
545.222	0
545.417	0.03
545.611	-0
545.805	0.01
546	-0.01
546.194	-0.02
546.388	-0.01
546.582	0.03
546.776	0.01
546.97	-0
547.165	0.02
547.359	0.03
547.553	-0.01
547.747	0.01
547.941	0.02
548.135	0.01
548.329	0.02
548.523	0
548.717	-0.02
548.911	-0
549.105	-0.02
549.299	-0
549.493	0.02
549.687	0.02
549.881	0.01
550.075	0.01
550.269	-0.04
550.463	0.03
550.657	0
550.85	0.01
551.044	-0.02
551.238	0.01
551.432	-0
551.626	-0.02
551.82	0.03
552.013	-0.01
552.207	0.03
552.401	0.04
552.594	0
552.788	-0.01
552.982	0
553.176	-0.02
553.369	0.01
553.563	0.01
553.756	-0.04
553.95	-0.03
554.144	0
554.337	0.02
554.531	-0
554.724	0.02
554.918	0.02
555.111	0.04
555.305	-0
555.498	0.03
555.692	0.04
555.885	-0.01
556.079	-0
556.272	-0
556.466	0.03
556.659	-0.01
556.852	-0
557.046	-0.01
557.239	0.02
557.432	-0.03
557.626	-0.02
557.819	-0
558.012	0.03
558.206	0.01
558.399	0.01
558.592	0.02
558.785	-0.01
558.979	0.02
559.172	0
559.365	0.01
559.558	-0.01
559.751	0.01
559.944	-0
560.138	-0.01
560.331	-0.01
560.524	0.01
560.717	-0.02
560.91	0.01
561.103	0.03
561.296	0.02
561.489	0.03
561.682	0.01
561.875	0.02
562.068	-0.02
562.261	0.01
562.454	0.05
562.647	0.04
562.84	0
563.032	-0.01
563.225	0.02
563.418	0.02
563.611	-0.01
563.804	-0.01
563.997	-0.03
564.19	-0.04
564.382	-0.05
564.575	0.01
564.768	-0.02
564.961	0.01
565.153	-0.01
565.346	0.05
565.539	0.04
565.731	0.03
565.924	0.02
566.117	0.01
566.309	-0
566.502	-0.03
566.695	-0
566.887	0
567.08	-0.02
567.272	-0.01
567.465	0
567.657	-0.02
567.85	-0
568.042	0.03
568.235	0.04
568.427	0.01
568.62	0
568.812	0.02
569.005	0.01
569.197	-0.02
569.389	-0.03
569.582	0.03
569.774	0.02
569.966	-0.02
570.159	-0.02
570.351	0.03
570.543	0.01
570.736	-0.01
570.928	-0.02
571.12	0.01
571.312	-0
571.505	-0.03
571.697	0.03
571.889	-0.02
572.081	-0
572.273	-0.03
572.465	0.05
572.658	0.01
572.85	-0.01
573.042	0.02
573.234	0.02
573.426	0.05
573.618	-0.04
573.81	0.03
574.002	0.02
574.194	0.06
574.386	-0.03
574.578	-0.04
574.77	0.01
574.962	-0
575.154	-0.03
575.346	-0.02
575.538	0.01
575.729	-0.03
575.921	0
576.113	-0.01
576.305	0.04
576.497	0.01
576.689	0.01
576.88	-0.03
577.072	0.03
577.264	-0
577.456	-0
577.647	-0.04
577.839	0.02
578.031	0.03
578.223	-0.02
578.414	-0.03
578.606	-0.01
578.798	0.01
578.989	-0.01
579.181	-0
579.372	-0.01
579.564	0.01
579.755	0
579.947	0.01
580.139	0.02
580.33	-0.05
580.522	-0.01
580.713	-0.07
580.905	-0.01
581.096	0.02
581.287	0.01
581.479	-0.03
581.67	0.03
581.862	0.01
582.053	-0.02
582.244	-0.03
582.436	-0.02
582.627	0.01
582.818	-0
583.01	-0.04
583.201	0
583.392	0.02
583.583	0.01
583.775	-0.01
583.966	-0.01
584.157	-0.03
584.348	-0.02
584.54	-0.03
584.731	0
584.922	-0.01
585.113	-0.03
585.304	0.01
585.495	0.04
585.686	0.01
585.877	-0.02
586.068	0.01
586.259	0.03
586.45	0
586.641	-0.02
586.832	-0.05
587.023	0.01
587.214	-0.02
587.405	0
587.596	-0.02
587.787	0.06
587.978	-0
588.169	-0.03
588.36	-0.01
588.551	0.03
588.742	0
588.932	0.01
589.123	0.01
589.314	0.02
589.505	0.02
589.696	0.03
589.886	-0.02
590.077	-0.03
590.268	-0.01
590.458	-0.03
590.649	-0.05
590.84	0.02
591.03	-0.03
591.221	-0.04
591.412	-0.02
591.602	0.02
591.793	0.03
591.984	-0.03
592.174	-0.01
592.365	0.07
592.555	-0
592.746	0.02
592.936	0.05
593.127	0.03
593.317	0.02
593.508	-0.01
593.698	-0.03
593.889	0.01
594.079	-0.01
594.269	-0.02
594.46	0.01
594.65	-0
594.84	0.01
595.031	-0.04
595.221	-0
595.411	-0.05
595.602	0.03
595.792	0.02
595.982	-0.01
596.172	0.05
596.363	-0
596.553	0.02
596.743	-0
596.933	0.02
597.123	0.02
597.314	-0.02
597.504	-0.04
597.694	0.02
597.884	0.02
598.074	0.02
598.264	-0.01
598.454	0
598.644	-0
598.834	0.03
599.024	-0.04
599.214	-0.02
599.404	0.03
599.594	-0
599.784	-0.06
599.974	0.03
600.164	0.01
600.354	-0.04
600.544	-0.05
600.734	0.02
600.924	0.01
601.114	-0.03
601.303	0.03
601.493	0
601.683	0.01
601.873	0.01
602.063	-0.03
602.252	0.04
602.442	-0.06
602.632	-0.02
602.821	-0.02
603.011	0.02
603.201	-0.01
603.39	-0.02
603.58	-0.02
603.77	0.02
603.959	0.03
604.149	-0.02
604.339	-0.03
604.528	0.02
604.718	0.05
604.907	-0.01
605.097	-0.01
605.286	-0.04
605.476	0.02
605.665	0.02
605.855	0
606.044	0.04
606.234	0.03
606.423	0.03
606.612	-0.04
606.802	0.02
606.991	0.03
607.181	0.01
607.37	-0.04
607.559	-0.01
607.749	-0.03
607.938	0.02
608.127	0.01
608.316	-0.02
608.506	0.01
608.695	-0
608.884	-0.04
609.073	0.02
609.263	0.01
609.452	0.02
609.641	0.02
609.83	-0.01
610.019	-0
610.208	-0.01
610.397	-0.01
610.586	0.01
610.775	-0.02
610.965	0.01
611.154	-0.01
611.343	0.01
611.532	0.02
611.721	-0.03
611.91	0
612.099	0.03
612.287	-0.03
612.476	-0.02
612.665	-0
612.854	-0.01
613.043	0.01
613.232	-0.03
613.421	-0.03
613.61	0.02
613.798	-0.03
613.987	0.02
614.176	0.01
614.365	0.02
614.554	0.01
614.742	0.04
614.931	0
615.12	0.02
615.309	-0.02
615.497	-0
615.686	-0.03
615.875	0.01
616.063	-0
616.252	-0.02
616.44	-0.01
616.629	0.01
616.818	0.04
617.006	-0.01
617.195	0.01
617.383	0.01
617.572	-0
617.76	-0.04
617.949	-0.03
618.137	0.02
618.326	0.02
618.514	-0.03
618.703	-0.03
618.891	0.04
619.079	-0.04
619.268	0.01
619.456	-0.02
619.644	0.03
619.833	-0.02
620.021	0.01
620.209	-0.04
620.398	0.02
620.586	0
620.774	0.02
620.962	0.01
621.151	0.05
621.339	-0.01
621.527	0
621.715	-0.03
621.903	-0.04
622.092	-0.02
622.28	0.01
622.468	0.02
622.656	-0.01
622.844	0.02
623.032	-0.02
623.22	-0.06
623.408	-0.01
623.596	0.01
623.784	0.02
623.972	-0.02
624.16	-0.02
624.348	0.02
624.536	-0.03
624.724	-0.02
624.912	0.03
625.1	0.06
625.288	0
625.476	-0.01
625.664	0.04
625.851	-0.02
626.039	-0.01
626.227	0.02
626.415	-0.01
626.603	-0.06
626.79	0.03
626.978	0.04
627.166	0.01
627.354	-0.04
627.541	0.01
627.729	-0.05
627.917	0.01
628.104	0.04
628.292	-0.01
628.48	0.01
628.667	0.03
628.855	0.01
629.042	0.01
629.23	-0.02
629.418	-0.02
629.605	0.01
629.793	-0.01
629.98	-0.02
630.168	-0.01
630.355	0.01
630.543	-0
630.73	-0.01
630.917	0.02
631.105	0.06
631.292	0
631.48	0.01
631.667	0.06
631.854	0.02
632.042	0
632.229	-0.06
632.416	0.02
632.604	0.01
632.791	-0.01
632.978	-0.01
633.165	-0.01
633.353	0.06
633.54	0.03
633.727	-0.07
633.914	-0.01
634.101	0.04
634.289	0.02
634.476	-0.02
634.663	-0.03
634.85	0.01
635.037	-0.02
635.224	-0.02
635.411	-0.01
635.598	0.04
635.785	-0.03
635.972	0.01
636.159	0.01
636.346	-0.03
636.533	-0.02
636.72	-0.02
636.907	0
637.094	0.03
637.281	0.02
637.468	0.04
637.655	0.01
637.842	0.02
638.029	-0.03
638.215	0.01
638.402	0.05
638.589	-0.02
638.776	-0.01
638.963	-0.01
639.149	0.03
639.336	0.08
639.523	-0
639.709	-0
639.896	0.01
640.083	0.04
640.27	0.02
640.456	-0.01
640.643	0.03
640.829	-0.05
641.016	-0.01
641.203	-0.04
641.389	0.04
641.576	0.02
641.762	0.01
641.949	-0.02
642.135	0.01
642.322	0.06
642.508	-0.05
642.695	-0.01
642.881	-0.04
643.068	-0
643.254	0.01
643.441	0.03
643.627	0.02
643.813	0
644	0.04
644.186	-0.02
644.372	-0.01
644.559	0.04
644.745	0.03
644.931	-0.01
645.118	-0.01
645.304	-0.01
645.49	-0.03
645.676	-0
645.862	0
646.049	0.06
646.235	0
646.421	0.09
646.607	0.06
646.793	0.01
646.979	0
647.165	0.03
647.352	0.01
647.538	0.05
647.724	0.02
647.91	0.03
648.096	0.04
648.282	0.05
648.468	0.02
648.654	0.01
648.84	0.02
649.026	0.01
649.212	0
649.397	0.02
649.583	-0.03
649.769	0.03
649.955	0.01
650.141	0.04
650.327	0.05
650.513	-0.01
650.698	0.02
650.884	-0.08
651.07	0.02
651.256	0.03
651.442	0.01
651.627	0.05
651.813	0.01
651.999	0.01
652.184	0.03
652.37	-0.01
652.556	-0.01
652.741	0.05
652.927	-0.05
653.113	-0.03
653.298	-0.01
653.484	-0
653.669	-0.07
653.855	-0.01
654.04	0
654.226	0
654.412	-0.03
654.597	-0.02
654.782	0.01
654.968	0.05
655.153	0.01
655.339	-0
655.524	0.02
655.71	0.05
655.895	-0.01
656.08	-0.01
656.266	0.04
656.451	0.04
656.636	-0.02
656.822	0.04
657.007	-0.04
657.192	0.01
657.378	-0.04
657.563	-0
657.748	0.04
657.933	0.06
658.118	0.02
658.304	0
658.489	0.06
658.674	0.04
658.859	-0.02
659.044	0.01
659.229	0.04
659.414	-0.01
659.599	0.01
659.785	-0.04
659.97	-0.03
660.155	0.05
660.34	0.03
660.525	-0.02
660.71	0.03
660.895	0.05
661.08	0
661.264	0.02
661.449	0.08
661.634	0.06
661.819	0.04
662.004	0.03
662.189	-0.04
662.374	0.01
662.559	0.02
662.743	-0.04
662.928	0.03
663.113	-0.02
663.298	-0
663.483	0.05
663.667	0.02
663.852	-0.02
664.037	0.09
664.221	-0.02
664.406	0.06
664.591	0.05
664.775	0.03
664.96	0.06
665.145	0.06
665.329	0.05
665.514	0.02
665.698	0.01
665.883	-0.03
666.068	0.07
666.252	0.07
666.437	-0.01
666.621	0.01
666.806	0.08
666.99	0.03
667.174	-0.01
667.359	0.1
667.543	0.03
667.728	0.02
667.912	-0.04
668.096	0.09
668.281	-0
668.465	0.02
668.649	0.02
668.834	-0.03
669.018	0.04
669.202	0.04
669.387	0.01
669.571	0.07
669.755	-0.02
669.939	0.04
670.124	0.03
670.308	0.1
670.492	0.07
670.676	0.04
670.86	0.04
671.044	0.01
671.228	0.07
671.413	0
671.597	0.04
671.781	0.04
671.965	0.1
672.149	0.06
672.333	0.04
672.517	0.04
672.701	0.06
672.885	0.04
673.069	0.01
673.253	0.09
673.437	0.03
673.621	-0.02
673.804	0.01
673.988	0.09
674.172	0.03
674.356	0.01
674.54	-0.01
674.724	0.17
674.908	0.03
675.091	0.05
675.275	0.04
675.459	0.09
675.643	0.04
675.826	0.06
676.01	0.1
676.194	0.11
676.377	0.06
676.561	0.07
676.745	0.06
676.928	0.01
677.112	0.1
677.296	0.02
677.479	0.08
677.663	0.07
677.846	0.12
678.03	0.11
678.213	0.03
678.397	0.14
678.58	0.06
678.764	0.07
678.947	0.07
679.131	0.05
679.314	0.07
679.498	0.09
679.681	0.12
679.865	0.12
680.048	0.07
680.231	0.08
680.415	0.11
680.598	0.1
680.781	0.06
680.965	0.03
681.148	0.09
681.331	0.1
681.514	0.09
681.698	0.08
681.881	0.1
682.064	0.11
682.247	0.13
682.43	0.02
682.614	0.1
682.797	0.18
682.98	0.11
683.163	0.1
683.346	0.13
683.529	0.11
683.712	0.06
683.895	0.16
684.078	0.1
684.261	0.11
684.444	0.11
684.627	0.16
684.81	0.05
684.993	0.12
685.176	0.15
685.359	0.12
685.542	0.14
685.725	0.14
685.908	0.16
686.091	0.12
686.274	0.12
686.457	0.18
686.639	0.17
686.822	0.18
687.005	0.13
687.188	0.21
687.371	0.27
687.553	0.16
687.736	0.21
687.919	0.21
688.102	0.25
688.284	0.13
688.467	0.15
688.65	0.13
688.832	0.14
689.015	0.21
689.197	0.17
689.38	0.29
689.563	0.27
689.745	0.14
689.928	0.17
690.11	0.22
690.293	0.19
690.475	0.17
690.658	0.25
690.84	0.18
691.023	0.22
691.205	0.18
691.388	0.23
691.57	0.23
691.752	0.22
691.935	0.15
692.117	0.17
692.3	0.25
692.482	0.25
692.664	0.24
692.847	0.25
693.029	0.32
693.211	0.29
693.393	0.22
693.576	0.25
693.758	0.23
693.94	0.28
694.122	0.26
694.304	0.26
694.487	0.31
694.669	0.37
694.851	0.26
695.033	0.28
695.215	0.27
695.397	0.27
695.579	0.34
695.761	0.33
695.943	0.25
696.125	0.39
696.308	0.33
696.49	0.24
696.671	0.44
696.853	0.28
697.035	0.49
697.217	0.32
697.399	0.37
697.581	0.36
697.763	0.41
697.945	0.32
698.127	0.37
698.309	0.48
698.491	0.4
698.672	0.45
698.854	0.45
699.036	0.5
699.218	0.4
699.399	0.47
699.581	0.49
699.763	0.41
699.945	0.42
700.126	0.39
700.308	0.49
700.49	0.47
700.671	0.42
700.853	0.49
701.035	0.46
701.216	0.52
701.398	0.47
701.579	0.53
701.761	0.57
701.943	0.45
702.124	0.51
702.306	0.58
702.487	0.67
702.669	0.58
702.85	0.58
703.031	0.55
703.213	0.7
703.394	0.67
703.576	0.56
703.757	0.71
703.938	0.72
704.12	0.76
704.301	0.65
704.483	0.65
704.664	0.72
704.845	0.83
705.026	0.73
705.208	0.76
705.389	0.77
705.57	0.78
705.751	0.75
705.933	0.79
706.114	0.86
706.295	0.73
706.476	0.8
706.657	0.9
706.838	0.92
707.02	0.82
707.201	0.88
707.382	0.87
707.563	0.96
707.744	0.91
707.925	0.88
708.106	0.88
708.287	1
708.468	1.02
708.649	0.99
708.83	1.14
709.011	1.01
709.192	1.15
709.373	1.03
709.554	1.03
709.734	1.22
709.915	1.1
710.096	1.15
710.277	0.99
710.458	1.26
710.639	1.16
710.819	1.17
711	1.24
711.181	1.36
711.362	1.32
711.542	1.28
711.723	1.29
711.904	1.39
712.085	1.47
712.265	1.45
712.446	1.35
712.627	1.41
712.807	1.39
712.988	1.52
713.168	1.41
713.349	1.58
713.53	1.36
713.71	1.47
713.891	1.54
714.071	1.56
714.252	1.67
714.432	1.66
714.613	1.62
714.793	1.74
714.974	1.84
715.154	1.9
715.334	1.81
715.515	1.96
715.695	1.78
715.876	1.91
716.056	1.9
716.236	1.88
716.417	2.07
716.597	1.84
716.777	2.23
716.957	2.04
717.138	2.2
717.318	2.13
717.498	2.14
717.678	2.28
717.859	2.27
718.039	2.25
718.219	2.36
718.399	2.37
718.579	2.41
718.759	2.45
718.939	2.55
719.12	2.7
719.3	2.56
719.48	2.51
719.66	2.43
719.84	2.71
720.02	2.81
720.2	2.67
720.38	2.85
720.56	2.98
720.74	2.87
720.92	3.01
721.1	3.15
721.279	3.22
721.459	3.16
721.639	3.04
721.819	3.28
721.999	3.29
722.179	3.43
722.359	3.13
722.538	3.39
722.718	3.39
722.898	3.56
723.078	3.61
723.257	3.64
723.437	3.69
723.617	3.72
723.797	3.68
723.976	3.72
724.156	4
724.336	4.03
724.515	4.18
724.695	4.02
724.874	4.1
725.054	4.13
725.234	4.16
725.413	4.32
725.593	4.29
725.772	4.36
725.952	4.53
726.131	4.52
726.311	4.51
726.49	4.54
726.67	4.53
726.849	4.62
727.028	4.85
727.208	4.76
727.387	4.89
727.567	4.96
727.746	5.03
727.925	4.96
728.105	5.06
728.284	5.08
728.463	5.22
728.643	5.27
728.822	5.22
729.001	5.35
729.18	5.51
729.359	5.56
729.539	5.77
729.718	5.56
729.897	5.87
730.076	5.8
730.255	5.89
730.434	6.06
730.614	6.06
730.793	6.23
730.972	6.22
731.151	6.29
731.33	6.3
731.509	6.47
731.688	6.52
731.867	6.6
732.046	6.47
732.225	6.91
732.404	6.64
732.583	6.8
732.762	7.01
732.941	7.07
733.12	7.07
733.298	7.23
733.477	7.15
733.656	7.32
733.835	7.2
734.014	7.45
734.193	7.29
734.371	7.58
734.55	7.49
734.729	7.5
734.908	7.67
735.086	7.71
735.265	7.76
735.444	7.44
735.623	7.77
735.801	7.72
735.98	7.95
736.159	7.7
736.337	7.76
736.516	7.91
736.694	7.84
736.873	7.69
737.052	8.1
737.23	7.76
737.409	7.71
737.587	7.86
737.766	7.48
737.944	7.36
738.123	7.62
738.301	7.5
738.479	7.56
738.658	7.32
738.836	7.09
739.015	7.13
739.193	7.18
739.371	6.91
739.55	6.78
739.728	6.59
739.906	6.76
740.085	6.63
740.263	6.45
740.441	5.92
740.62	6.26
740.798	5.9
740.976	5.61
741.154	5.48
741.332	5.68
741.511	5.34
741.689	5.2
741.867	5.22
742.045	4.87
742.223	4.7
742.401	4.62
742.579	4.42
742.757	4.44
742.935	4.23
743.114	4.05
743.292	3.91
743.47	3.96
743.648	3.82
743.826	3.61
744.004	3.64
744.181	3.37
744.359	3.22
744.537	3.16
744.715	3.02
744.893	2.92
745.071	2.8
745.249	2.79
745.427	2.58
745.605	2.78
745.782	2.41
745.96	2.45
746.138	2.46
746.316	2.3
746.493	2.23
746.671	2.16
746.849	2.01
747.027	2.2
747.204	1.92
747.382	1.95
747.56	1.66
747.737	1.73
747.915	1.59
748.093	1.79
748.27	1.68
748.448	1.57
748.625	1.41
748.803	1.47
748.98	1.33
749.158	1.37
749.335	1.31
749.513	1.26
749.69	1.13
749.868	1.21
750.045	1.28
750.223	1.1
750.4	0.87
750.578	1.2
750.755	0.93
750.932	0.86
751.11	1.03
751.287	0.68
751.464	0.94
751.642	0.86
751.819	0.8
751.996	0.77
752.173	0.74
752.351	0.67
752.528	0.77
752.705	0.55
752.882	0.7
753.06	0.67
753.237	0.71
753.414	0.89
753.591	0.89
753.768	0.72
753.945	0.52
754.122	0.56
754.299	0.63
754.476	0.45
754.654	0.55
754.831	0.56
755.008	0.58
755.185	0.52
755.362	0.4
755.539	0.48
755.716	0.39
755.892	0.5
756.069	0.34
756.246	0.32
756.423	0.5
756.6	0.45
756.777	0.38
756.954	0.4
757.131	0.31
757.307	0.3
757.484	0.14
757.661	0.34
757.838	0.39
758.015	0.19
758.191	0.37
758.368	0.27
758.545	0.46
758.721	0.4
758.898	0.2
759.075	0.38
759.251	0.38
759.428	0.43
759.605	0.16
759.781	0.15
759.958	0.15
760.134	0.25
760.311	0.22
760.488	0.31
760.664	0.38
760.841	0.23
761.017	0.08
761.194	0.24
761.37	0.36
761.547	0.24
761.723	0.11
761.899	0.37
762.076	0.09
762.252	0.01
762.429	0.1
762.605	0.29
762.781	0.04
762.958	0.36
763.134	0.17
763.31	0.07
763.486	0.31
763.663	0.04
763.839	0.23
764.015	0.07
764.191	0.05
764.368	0.26
764.544	0.11
764.72	0.19
764.896	0.14
765.072	0.16
765.248	0.14
765.425	0.09
765.601	0.19
765.777	0.19
765.953	-0
766.129	-0
766.305	0.01
766.481	0.17
766.657	0.14
766.833	0.3
767.009	0.08
767.185	0.14
767.361	0.06
767.537	0.05
767.713	0.12
767.889	0.12
768.065	0.13
768.24	0.25
768.416	0.3
768.592	-0.09
768.768	0.01
768.944	0.16
769.12	-0.08
769.295	0.01
769.471	0.1
769.647	0.09
769.823	0.29
769.998	0.05
770.174	0.01
770.35	0.38
770.525	0.22
770.701	0.05
770.877	0.03
771.052	0.01
771.228	0.18
771.403	0.04
771.579	0.14
771.755	0.27
771.93	-0.02
772.106	-0.07
772.281	-0.09
772.457	0.05
772.632	0.04
772.808	-0.2
772.983	0.03
773.159	-0.04
773.334	0.18
773.509	0.13
773.685	0.04
773.86	0.32
774.036	0.25
774.211	0.14
774.386	-0.04
774.562	0.02
774.737	0.07
774.912	-0.04
775.087	0.18
775.263	0.05
775.438	0.05
775.613	-0.07
775.788	0
775.964	0.17
776.139	0.4
776.314	-0.13
776.489	0.18
776.664	0.19
776.839	-0.07
777.014	0.13
777.19	0.18
777.365	0.3
777.54	0.38
777.715	-0.03
777.89	-0.01
778.065	-0.03
778.24	0.02
778.415	0.18
778.59	0.04
778.765	0.06
778.94	0.18
779.115	-0.12
779.289	-0.01
779.464	0.17
779.639	0.09
779.814	-0.11
779.989	0.03
780.164	0.18
780.339	0.12
780.513	-0.04
780.688	-0.07
780.863	0.07
781.038	0.19
781.212	-0.04
781.387	0.16
781.562	0.43
781.737	-0.14
781.911	0.16
782.086	-0.08
782.261	0.08
782.435	0.42
782.61	0.01
782.784	0.2
782.959	0.22
783.134	0.08
783.308	-0.22
783.483	0.13
783.657	0.5
783.832	0.1
784.006	-0.37
784.181	0.13
784.355	0.38
784.53	-0.22
784.704	-0.06
784.878	0.4
785.053	0.26
785.227	0.14
785.402	0.42
785.576	-0.06
785.75	0.18
785.925	0.05
786.099	0.03
786.273	0.11
786.448	0.02
786.622	0.16
786.796	0.19
786.97	0.13
787.145	0.4
787.319	-0.17
787.493	-0.11
787.667	-0.37
787.841	0.12
788.015	0.02
788.19	-0.14
788.364	0.05
788.538	0.3
788.712	0.19
788.886	0.03
789.06	0.12
789.234	0.33
789.408	-0.06
789.582	0.01
789.756	0.01
789.93	-0.25
790.104	0.06
790.278	-0.09
790.452	-0.15
790.626	0.18
790.8	-0.1
790.973	0.13
791.147	0.14
791.321	0.21
791.495	0.15
791.669	0.08
791.843	0.33
792.016	-0.05
792.19	0.74
792.364	-0.26
792.538	0.59
792.711	0.18
792.885	-0.05
793.059	0.03
793.233	-0.44
793.406	0.27
793.58	-0.07
793.754	0.11
793.927	0.17
794.101	0.29
794.274	0.04
794.448	0.29
794.622	0.01
794.795	0.42
794.969	-0.18
795.142	0.46
795.316	-0.22
795.489	-0.03
795.663	0.39
795.836	0.03
796.009	-0.36
796.183	0.61
796.356	0.33
796.53	0.29
796.703	0.23
796.876	0.48
797.05	0.01
797.223	0.01
797.396	0.39
797.57	0.27
797.743	0.42
797.916	-0.03
798.09	0.18
798.263	0.12
798.436	0.16
798.609	-0.01
798.782	0.19
798.956	0.02
799.129	0.15
799.302	0.09
799.475	0.07
799.648	-0.12
799.821	-0.11
799.994	-0.07
800.167	-0.26
800.34	-0.09
800.514	-0.03
800.687	0.02
800.86	0.1
801.033	0.11
801.206	0.03
801.379	-0.18
801.551	0.29
801.724	0.47
801.897	0.54
802.07	-0.02
802.243	-0.02
802.416	-0.1
802.589	-0.18
802.762	0.47
802.935	0.25
803.107	0.34
803.28	0.57
803.453	0.45
803.626	-0.12
803.798	0.01
803.971	0.14
804.144	-0.01
804.317	0.64
804.489	0.24
804.662	-0.06
804.835	0.01
805.007	-0.08
805.18	0.54
805.353	0.3
805.525	-0.38
805.698	-0.16
805.87	0.38
806.043	0.25
806.215	-0.24
806.388	-0.27
806.56	0.14
806.733	0.49
806.905	0.49
807.078	-0.09
807.25	-0.13
807.423	0.36
807.595	0.03
807.768	-0.26
807.94	0.67
808.112	0.06
808.285	0.39
808.457	0.19
808.629	-0.14
808.802	0.25
808.974	0.53
809.146	-0.25
809.318	-0.31
809.491	0.59
809.663	0.44
809.835	-0.09
810.007	0.41
810.18	0.24
810.352	-0.31
810.524	0.28
810.696	0.12
810.868	0.43
811.04	-0.09
811.212	0.2
811.384	0.44
811.556	0.06
811.728	0.26
811.901	0.8
812.073	0.05
812.245	0.3
812.417	0.11
812.589	-0.38
812.76	0.08
812.932	0.47
813.104	0.4
813.276	-0.01
813.448	0.2
813.62	0.24
813.792	0.27
813.964	0.32
814.136	0.33
814.307	-0.21
814.479	-0.19
814.651	0.1
814.823	1.06
814.995	-0.02
815.166	-0.24
815.338	-0.26
815.51	-0.61
815.681	0.96
815.853	0.2
816.025	-0.12
816.196	0.82
816.368	0.24
816.54	0.04
816.711	-0.28
816.883	0.14
817.054	0.92
817.226	-0.38
817.398	0.07
817.569	-0.05
817.741	0.08
817.912	0.33
818.084	0.16
818.255	0.48
818.426	0.28
818.598	0.45
818.769	-0.05
818.941	0.7
819.112	0.58
819.283	0.14
819.455	0.14
819.626	0.33
819.798	0.52
819.969	0.43
820.14	0.28
820.311	0.22
820.483	0.29
820.654	0.38
820.825	0.19
820.996	-0.15
821.168	-0.32
821.339	-0.05
821.51	-0.19
821.681	1.21
821.852	0.27
822.023	-0.28
822.195	-0.28
822.366	0.39
822.537	-0.16
822.708	0.27
822.879	-0.1
823.05	0.31
823.221	-0.06
823.392	0.21
823.563	0.06
823.734	0.2
823.905	-0.18
824.076	-0.01
824.247	0.15
824.418	0.09
824.589	0.82
824.759	-0.15
824.93	0.13
825.101	-0.4
825.272	0.15
825.443	0.94
825.614	0.49
825.784	-0.46
825.955	0.74
826.126	0.69
826.297	0.14
826.467	0.79
826.638	0.94
826.809	-0.69
826.98	-0.25
827.15	0.26
827.321	0.24
827.492	0.95
827.662	0.08
827.833	0.47
828.003	0.52
828.174	-0.1
828.345	-0.41
828.515	0.32
828.686	0.23
828.856	0.04
829.027	0.39
829.197	-0.09
829.368	0.51
829.538	0.17
829.709	-0.24
829.879	0.46
830.049	0.09
830.22	-0
830.39	0.06
830.56	0.78
830.731	0.01
830.901	-0.39
831.072	0.41
831.242	0.1
831.412	0.39
831.582	-0.42
831.753	-0.39
831.923	0.53
832.093	0.53
832.263	-0.12
832.434	-0.66
832.604	0.03
832.774	0.72
832.944	0.43
833.114	-0.22
833.284	0.26
833.454	-0.59
833.624	-0.23
833.795	0.28
833.965	1.3
834.135	1.1
834.305	-0.44
834.475	-0.42
834.645	-0.13
834.815	-0.05
834.985	-0.04
835.155	-0.23
835.325	0.46
835.494	0.71
835.664	0
835.834	-0.1
836.004	0.28
836.174	0.31
836.344	0.43
836.514	-0.97
836.684	-0.28
836.853	-0.11
837.023	-0.15
837.193	-0.18
837.363	0.63
837.532	0.36
837.702	0.7
837.872	-0.44
838.041	0.93
838.211	0.85
838.381	-0.5
838.55	0.17
838.72	1.84
838.89	1.59
839.059	0.07
839.229	-0.69
839.398	1.2
839.568	0.43
839.738	0.18
839.907	0.81
840.077	0.37
840.246	-0.27
840.416	-0.07
840.585	0.05
840.755	1.13
840.924	1.7
841.093	-0.39
841.263	0.53
841.432	0.37
841.602	-0.5
841.771	-0.32
841.94	-0.21
842.11	1.11
842.279	1.59
842.448	-0.83
842.617	-0.1
842.787	1.54
842.956	-0.07
843.125	0.16
843.294	0.61
843.464	1.18
843.633	0.16
843.802	-0.46
843.971	-0.18
844.14	0
844.309	1.25
844.479	0.49
844.648	-0.4
844.817	-0.73
844.986	0.02
845.155	-0.14
845.324	0.08
845.493	-0.04
845.662	0.04
845.831	0.7
846	1.24
846.169	0.39
846.338	1.83
846.507	0.18
846.676	0.89
846.844	-0.51
847.013	0.83
847.182	-0.04
847.351	0.07
847.52	0.19
847.689	0.38
847.858	0.58
848.026	-1.01
848.195	0.31
848.364	-0.11
848.533	-0.18
848.701	-0.83
848.87	0.42
849.039	0.09
849.207	0.81
849.376	0.45
849.545	1.83
849.713	-0.64
849.882	-0.32
850.051	-0.16
850.219	-0.05
850.388	0.97
850.556	-0.74
850.725	-0.3
850.893	0.57
851.062	1.25
851.23	1.65
851.399	-0.18
851.567	-0.15
851.736	0.4
851.904	-0.21
852.073	0.87
852.241	0.44
852.41	-0.23
852.578	-0.29
852.746	-0.45
852.915	0.81
853.083	0.63
853.251	-0.45
853.42	0.12
853.588	0.46
853.756	1.55
853.924	0.25
854.093	-0.24
854.261	0.2
854.429	-0.19
854.597	-0.23
854.765	-1.24
854.934	0.72
855.102	0.53
855.27	0.05
855.438	1.12
855.606	1.07
855.774	0.45
855.942	-0.03
856.11	0.39
856.278	0.91
856.446	1.75
856.614	1.04
856.782	-0.2
856.95	1.81
857.118	0.86
857.286	-0.12
857.454	0.12
857.622	1.53
857.79	0.81
857.958	-0.8
858.126	0.05
858.294	-1.86
858.462	0.65
858.629	0.22
858.797	-1.19
858.965	0.55
859.133	-0.32
859.301	-0.76
859.468	0.95
859.636	0.1
859.804	3
859.971	1.25
860.139	-1.22
860.307	0.98
860.474	0.96
860.642	0.39
860.81	-1.1
860.977	-0.5
861.145	2.2
861.313	-0.01
861.48	1.1
861.648	2.4
861.815	-0.76
861.983	-1.16
862.15	1.52
862.318	1.58
862.485	1.64
862.653	-0.11
862.82	-0.69
862.988	2.29
863.155	0.81
863.322	-0.29
863.49	-2.55
863.657	-0.98
863.824	2.38
863.992	0.59
864.159	-0.28
864.326	1.14
864.494	-0.16
864.661	2.48
864.828	-1.47
864.996	1.34
865.163	2.33
865.33	0.06
865.497	-1.22
865.664	-0.77
865.832	-1.15
865.999	-0.55
866.166	-0.17
866.333	-0.83
866.5	0.79
866.667	1.06
866.834	-0.64
867.001	0.92
867.168	-0.69
867.335	1.13
867.502	-1.43
867.669	0.82
867.836	3.43
868.003	-0.51
868.17	1.94
868.337	-0.26
868.504	1.75
868.671	-0.43
868.838	-0.48
869.005	-0.27
869.172	0.55
869.339	0.49
869.505	-0.18
869.672	0.29
869.839	2.49
870.006	1.14
870.173	-1.44
870.339	1.71
870.506	2.64
870.673	-0.55
870.84	0.78
871.006	1.35
871.173	0.74
871.34	-0.47
871.506	0.34
871.673	0.36
871.839	-1.87
872.006	1.37
872.173	-0.27
872.339	0.16
872.506	2.49
872.672	1.6
872.839	-3.16
873.005	0.59
873.172	3.37
873.338	2.73
873.505	1.2
873.671	0.78
873.838	3.19
874.004	-1.86
874.171	-0.28
874.337	1.67
874.503	1.36
874.67	1.25
874.836	-0.01
875.002	1.34
875.169	0.08
875.335	0.91
875.501	0.17
875.668	2.33
875.834	1.27
876	-0.7
876.166	1.63
876.332	3.08
876.499	3.53
876.665	0.53
876.831	-0.07
876.997	4.57
877.163	1.88
877.329	0.01
877.495	1.34
877.662	1.38
877.828	2.81
877.994	0.5
878.16	-1.27
878.326	0.17
878.492	0.56
878.658	0.34
878.824	-0.29
878.99	2.74
879.156	-0.48
879.322	2.43
879.487	0.44
879.653	1.82
879.819	1.33
879.985	-1.29
880.151	-0.35
880.317	1.5
880.483	0.14
880.648	1.31
880.814	-2.88
880.98	0.98
881.146	-2.54
881.312	-0.12
881.477	1.68
881.643	1.06
881.809	3.43
881.974	2.68
882.14	-0.84
882.306	1.38
882.471	3.38
882.637	-0.42
882.803	2.26
882.968	3.37
883.134	3.41
883.299	0.18
883.465	1
883.63	2.19
883.796	1.87
883.961	3.42
884.127	0.1
884.292	-2.87
884.458	-0.23
884.623	-0.23
