Data from Apollo_Calib_20240827__AbsoluteIrradiance__711__11-00-01-541.txt Node

Date: Wed Aug 28 11:00:01 BST 2024
User: biology
Spectrometer: FLMT08252
Trigger mode: 0
Integration Time (sec): 5.000000E-1
Scans to average: 5
Electric dark correction enabled: true
Nonlinearity correction enabled: false
Boxcar width: 0
XAxis mode: Wavelengths
Number of Pixels in Spectrum: 3648
>>>>>Begin Spectral Data<<<<<
179.588	-0
179.809	-0
180.03	-0
180.251	-0
180.473	-0
180.694	0
180.915	0
181.136	-0
181.357	0
181.578	0
181.799	-0
182.02	-0
182.241	-0
182.462	0
182.683	0
182.904	-0
183.125	0
183.346	0
183.567	0
183.788	-0
184.009	-0
184.23	0
184.451	0
184.672	-0
184.892	-0
185.113	0
185.334	0
185.555	-0
185.776	-0
185.996	0
186.217	0
186.438	-0
186.659	-0
186.879	-0
187.1	-0
187.321	-0
187.541	-0
187.762	0
187.983	-0
188.203	-0
188.424	-0
188.644	-0
188.865	-0
189.086	-0
189.306	-0
189.527	-0
189.747	0
189.968	-0
190.188	0
190.409	-0
190.629	0
190.849	-0
191.07	-0
191.29	0
191.511	-0
191.731	-0
191.951	-0
192.172	-0
192.392	0
192.612	-0
192.833	-0
193.053	-0
193.273	-0
193.493	-0
193.714	-0
193.934	0
194.154	0
194.374	-0
194.594	-0
194.815	0
195.035	-0
195.255	-0
195.475	-0
195.695	0
195.915	0
196.135	-0
196.355	0
196.575	0
196.795	0
197.015	-0
197.235	-0
197.455	-0
197.675	0
197.895	-0
198.115	-0
198.335	0
198.555	-0
198.775	0
198.995	0
199.214	0
199.434	-0
199.654	-0
199.874	-0
200.094	0.43
200.313	-0.33
200.533	-0.72
200.753	-1.15
200.973	0.27
201.192	0.25
201.412	-0.82
201.632	-0.08
201.851	0.37
202.071	-0.38
202.291	-0.84
202.51	-0.79
202.73	0.23
202.95	-0.24
203.169	-0.67
203.389	0
203.608	0.44
203.828	-0.47
204.047	-0.19
204.267	-0.04
204.486	0.09
204.706	0.13
204.925	-0.23
205.145	-0.4
205.364	0.35
205.583	0.91
205.803	-0.49
206.022	-0.44
206.242	-0.07
206.461	-0.26
206.68	-0.41
206.9	0.12
207.119	0.38
207.338	0.09
207.557	-0.07
207.777	-0.41
207.996	-0.26
208.215	0.14
208.434	-0.21
208.654	-0.5
208.873	-0.02
209.092	0.12
209.311	-0.15
209.53	-0.27
209.749	-0.47
209.968	-0.46
210.187	-0.13
210.407	-0.55
210.626	-0.08
210.845	0.11
211.064	-0.22
211.283	-0.37
211.502	0
211.721	-0.06
211.94	-0.29
212.159	0.09
212.377	0.2
212.596	0.19
212.815	-0.08
213.034	-0.02
213.253	0.08
213.472	0.18
213.691	-0.18
213.91	-0.43
214.128	-0.14
214.347	0.13
214.566	-0.16
214.785	-0.35
215.003	0.18
215.222	0.1
215.441	-0.34
215.66	-0.25
215.878	-0.06
216.097	0.27
216.316	-0.41
216.534	-0.22
216.753	0.02
216.972	0.04
217.19	-0.07
217.409	-0.25
217.627	-0.15
217.846	-0.13
218.064	-0.01
218.283	-0.28
218.501	0.25
218.72	0.15
218.938	-0.11
219.157	-0.12
219.375	0.07
219.594	0.1
219.812	-0.27
220.031	-0.39
220.249	0.14
220.467	0.35
220.686	-0.22
220.904	-0.16
221.122	-0.04
221.341	0.39
221.559	-0.13
221.777	-0.22
221.995	-0.01
222.214	0.03
222.432	-0.07
222.65	0.04
222.868	-0.06
223.086	0.06
223.305	-0.03
223.523	-0.05
223.741	0.07
223.959	-0.23
224.177	-0.3
224.395	-0.11
224.613	-0.14
224.831	0.09
225.049	0
225.267	-0.19
225.485	-0.03
225.703	-0.12
225.921	-0.02
226.139	-0.14
226.357	0.07
226.575	0.02
226.793	-0.19
227.011	0.59
227.229	0.02
227.447	0.1
227.665	0
227.883	-0.31
228.1	-0.01
228.318	0.07
228.536	-0.39
228.754	-0.13
228.972	0.06
229.189	0.14
229.407	-0.17
229.625	-0.06
229.843	0.17
230.06	0.13
230.278	-0.07
230.496	0.01
230.713	0.07
230.931	0.14
231.149	-0.03
231.366	-0.18
231.584	0.01
231.801	0.22
232.019	-0.18
232.236	-0.25
232.454	-0.04
232.671	0.05
232.889	-0.06
233.106	-0.2
233.324	-0.11
233.541	-0.03
233.759	-0.06
233.976	-0.15
234.194	0
234.411	-0.03
234.628	-0.12
234.846	-0.08
235.063	-0.03
235.28	0.02
235.498	0.01
235.715	-0.14
235.932	0.01
236.149	-0.08
236.367	-0.15
236.584	-0.01
236.801	-0.12
237.018	0.03
237.236	-0.08
237.453	-0.29
237.67	0.02
237.887	-0.1
238.104	-0.01
238.321	-0.2
238.538	-0.11
238.755	0.12
238.973	-0.14
239.19	-0
239.407	0.05
239.624	0.01
239.841	-0.16
240.058	-0.17
240.275	0.05
240.492	-0.05
240.709	-0
240.925	-0.09
241.142	-0.01
241.359	-0.15
241.576	-0.13
241.793	-0.09
242.01	0.08
242.227	0.02
242.444	-0.06
242.66	0.04
242.877	-0.07
243.094	-0.06
243.311	0.04
243.527	-0.06
243.744	0.05
243.961	0.01
244.178	-0.1
244.394	-0.02
244.611	0.06
244.828	0.19
245.044	-0.13
245.261	-0.08
245.477	0
245.694	0.04
245.911	-0.12
246.127	-0.02
246.344	0.1
246.56	-0.11
246.777	-0.09
246.993	-0.07
247.21	0.09
247.426	0.02
247.643	-0.11
247.859	-0.16
248.076	-0.06
248.292	0.14
248.508	-0.02
248.725	-0.01
248.941	-0.01
249.157	0.06
249.374	-0.03
249.59	-0.09
249.806	0.03
250.023	0.06
250.239	-0.09
250.455	-0.11
250.671	-0.02
250.888	0.06
251.104	-0
251.32	-0.08
251.536	0.01
251.752	-0.04
251.969	0.02
252.185	-0.04
252.401	0.16
252.617	0.04
252.833	-0.03
253.049	-0.04
253.265	-0.02
253.481	-0.02
253.697	-0.07
253.913	-0.09
254.129	0.01
254.345	-0
254.561	-0.06
254.777	-0.01
254.993	0.01
255.209	0.02
255.425	-0.09
255.641	-0.08
255.857	0.06
256.073	-0.04
256.288	-0.08
256.504	-0.12
256.72	0.01
256.936	0.11
257.152	0
257.367	-0.08
257.583	-0.02
257.799	0.06
258.015	-0.11
258.23	-0.07
258.446	0.14
258.662	-0.06
258.877	-0.06
259.093	-0.06
259.309	0
259.524	0.04
259.74	-0.05
259.955	-0.13
260.171	-0.02
260.387	-0.04
260.602	0.03
260.818	0.05
261.033	-0.06
261.249	-0
261.464	-0.05
261.68	-0.1
261.895	0.04
262.11	0.05
262.326	-0.04
262.541	-0.11
262.757	0.04
262.972	-0.03
263.187	-0.06
263.403	-0.03
263.618	0.09
263.833	0.04
264.049	-0.08
264.264	-0.04
264.479	-0.02
264.694	0.05
264.91	-0.07
265.125	-0.05
265.34	-0.07
265.555	0.12
265.77	0.01
265.986	-0.03
266.201	0
266.416	0.08
266.631	-0.08
266.846	-0.02
267.061	0.02
267.276	0.03
267.491	-0.19
267.706	0.06
267.921	0.03
268.136	-0.02
268.351	-0
268.566	-0.06
268.781	0.04
268.996	0.07
269.211	0.03
269.426	-0.08
269.641	-0.06
269.856	0.01
270.071	-0.07
270.285	-0.11
270.5	0.01
270.715	0
270.93	0.02
271.145	-0.07
271.359	0.04
271.574	-0.08
271.789	-0.03
272.004	-0.12
272.218	-0.03
272.433	0.06
272.648	-0.05
272.862	0.09
273.077	-0.02
273.292	0.03
273.506	-0.02
273.721	-0.05
273.936	0.05
274.15	0.05
274.365	-0.06
274.579	0.04
274.794	0.07
275.008	0.04
275.223	-0.09
275.437	-0.01
275.652	0.04
275.866	0.05
276.081	-0.08
276.295	0.05
276.509	-0.01
276.724	0.03
276.938	-0.06
277.153	0.03
277.367	0.05
277.581	-0.09
277.796	-0.05
278.01	-0.05
278.224	0.06
278.438	0.08
278.653	-0.06
278.867	-0.11
279.081	-0.21
279.295	-0.05
279.51	-0.02
279.724	-0.12
279.938	0.02
280.152	-0.01
280.366	-0.06
280.58	0.01
280.794	0.04
281.008	0.01
281.222	0.05
281.437	0.08
281.651	0.02
281.865	0.07
282.079	-0.02
282.293	-0.1
282.507	-0.06
282.721	-0.02
282.935	0.01
283.148	-0.08
283.362	-0.05
283.576	-0.04
283.79	0.01
284.004	-0.09
284.218	0.04
284.432	-0.03
284.646	-0.03
284.859	-0.04
285.073	-0.03
285.287	0.04
285.501	-0.02
285.714	-0.05
285.928	-0
286.142	-0.01
286.356	-0.04
286.569	-0.04
286.783	0.04
286.997	0
287.21	-0.05
287.424	0.01
287.637	-0.06
287.851	-0.01
288.065	0.02
288.278	-0.01
288.492	0.02
288.705	-0.08
288.919	0.04
289.132	-0.07
289.346	0.08
289.559	-0.11
289.773	-0.05
289.986	-0.03
290.2	-0
290.413	0.06
290.626	-0.02
290.84	-0.02
291.053	-0.01
291.267	0.07
291.48	-0.03
291.693	-0.04
291.906	-0.05
292.12	-0.01
292.333	-0.06
292.546	-0.02
292.76	0.05
292.973	0.01
293.186	-0.01
293.399	0
293.612	0.05
293.826	-0.03
294.039	0.02
294.252	-0.04
294.465	0.03
294.678	0.02
294.891	-0.01
295.104	-0.05
295.317	-0
295.53	0.03
295.743	-0.01
295.956	-0
296.169	0.06
296.382	0.03
296.595	-0.01
296.808	-0.06
297.021	0.04
297.234	0.04
297.447	-0
297.66	0
297.873	0.05
298.086	0.02
298.299	-0.01
298.511	-0.05
298.724	-0.05
298.937	-0.05
299.15	-0.02
299.363	0.01
299.575	0.02
299.788	0.05
300.001	-0.01
300.213	-0.1
300.426	-0.01
300.639	-0
300.852	-0.05
301.064	0.02
301.277	0.06
301.489	0.02
301.702	0.03
301.915	-0.01
302.127	-0.01
302.34	0.01
302.552	0.04
302.765	-0.03
302.977	0.06
303.19	-0.09
303.402	-0.02
303.615	-0.02
303.827	-0.03
304.04	-0.01
304.252	0.04
304.464	-0.06
304.677	0.09
304.889	0
305.102	-0.04
305.314	-0
305.526	0.05
305.739	-0.01
305.951	-0.06
306.163	-0.01
306.375	0.07
306.588	-0.02
306.8	-0.05
307.012	-0.07
307.224	0
307.436	0.04
307.649	-0.09
307.861	0
308.073	0.03
308.285	-0.04
308.497	-0.08
308.709	-0
308.921	-0.01
309.133	0.09
309.346	-0.02
309.558	-0.03
309.77	0.09
309.982	0.03
310.194	0.01
310.406	-0.04
310.617	0.05
310.829	0.03
311.041	0.01
311.253	-0.04
311.465	-0.02
311.677	0.02
311.889	0.02
312.101	-0.04
312.313	0.03
312.524	0.03
312.736	-0.04
312.948	-0.03
313.16	0.06
313.372	0.01
313.583	0.02
313.795	-0.02
314.007	-0.02
314.218	0
314.43	-0.04
314.642	-0.05
314.853	-0.04
315.065	0.04
315.277	-0.05
315.488	0
315.7	0.02
315.912	-0
316.123	-0.06
316.335	-0.03
316.546	0.09
316.758	-0
316.969	-0
317.181	-0
317.392	-0.01
317.604	0.06
317.815	-0.04
318.026	-0.02
318.238	0.02
318.449	0.05
318.661	-0.03
318.872	-0.07
319.083	-0.05
319.295	0.03
319.506	-0.03
319.717	-0
319.929	0.02
320.14	0.04
320.351	0.01
320.562	-0.03
320.774	0.01
320.985	0
321.196	-0.06
321.407	-0.08
321.618	0.04
321.829	0.05
322.041	0
322.252	-0.01
322.463	0.05
322.674	0.04
322.885	-0.05
323.096	-0.04
323.307	-0.02
323.518	0.01
323.729	-0.07
323.94	-0.07
324.151	-0.03
324.362	-0.01
324.573	0.04
324.784	-0.02
324.995	0
325.206	0.03
325.417	-0.01
325.628	-0.02
325.838	0.01
326.049	0.01
326.26	0.02
326.471	-0.03
326.682	0.01
326.892	-0
327.103	-0.06
327.314	-0.03
327.525	0.03
327.735	0
327.946	-0.04
328.157	-0.01
328.368	0.02
328.578	0.04
328.789	0.01
328.999	-0.01
329.21	-0.03
329.421	0.06
329.631	-0.06
329.842	-0.03
330.052	-0.02
330.263	0.04
330.473	0.02
330.684	-0.04
330.894	0
331.105	-0.01
331.315	-0.01
331.526	-0.02
331.736	0.08
331.947	0.05
332.157	0.02
332.367	-0.05
332.578	0.02
332.788	0.07
332.999	-0.02
333.209	0.01
333.419	-0.08
333.629	0.07
333.84	0.03
334.05	-0.01
334.26	0.06
334.47	0
334.681	0.04
334.891	0.01
335.101	0.06
335.311	0.09
335.521	-0.03
335.732	-0.04
335.942	0.1
336.152	0.02
336.362	-0.02
336.572	-0
336.782	0
336.992	-0.01
337.202	-0.04
337.412	-0.07
337.622	0.03
337.832	0.01
338.042	-0.02
338.252	-0.04
338.462	-0.04
338.672	0.03
338.882	-0.07
339.092	-0
339.302	0.06
339.511	0.03
339.721	-0.04
339.931	-0.05
340.141	0.04
340.351	0.06
340.561	0.01
340.77	-0.01
340.98	-0.02
341.19	0.02
341.4	-0.02
341.609	-0.06
341.819	0.01
342.029	-0.08
342.238	-0.04
342.448	-0.01
342.658	0.03
342.867	-0.03
343.077	-0.02
343.286	-0
343.496	0.02
343.706	0.05
343.915	-0.04
344.125	0.02
344.334	0.03
344.544	-0.05
344.753	-0.02
344.963	-0.02
345.172	-0.04
345.381	-0.04
345.591	-0.07
345.8	0
346.01	0.02
346.219	0.02
346.428	-0.16
346.638	0.03
346.847	-0
347.056	0.07
347.266	-0.04
347.475	0.01
347.684	0.03
347.893	-0
348.103	0.01
348.312	-0.04
348.521	-0.03
348.73	-0
348.94	-0
349.149	-0.04
349.358	-0.01
349.567	-0.01
349.776	-0.05
349.985	-0.04
350.194	0.01
350.403	0.02
350.612	-0.06
350.821	-0
351.03	0.01
351.239	-0.06
351.448	-0.01
351.657	-0.05
351.866	0.1
352.075	0.01
352.284	-0.03
352.493	-0.06
352.702	0.03
352.911	-0.01
353.12	0.03
353.329	0
353.538	0
353.746	0.01
353.955	-0.08
354.164	0.02
354.373	-0.01
354.582	0.03
354.79	-0.01
354.999	-0.01
355.208	-0.04
355.416	0.04
355.625	-0.01
355.834	-0.05
356.042	-0.03
356.251	-0.02
356.46	-0.05
356.668	0.02
356.877	0.04
357.085	0.02
357.294	-0.11
357.503	0.04
357.711	-0.02
357.92	0.11
358.128	0.01
358.337	-0.01
358.545	0.01
358.754	-0.06
358.962	0.01
359.17	-0
359.379	0.02
359.587	0.01
359.796	0.01
360.004	0.05
360.212	0.02
360.421	0.04
360.629	-0.02
360.837	-0.01
361.046	0.01
361.254	0.11
361.462	-0.01
361.67	-0.05
361.879	0.01
362.087	0.07
362.295	0.03
362.503	-0.04
362.711	-0.06
362.92	-0.02
363.128	-0.04
363.336	-0.06
363.544	-0.02
363.752	-0.02
363.96	-0.06
364.168	-0.03
364.376	0
364.584	0.01
364.792	0.01
365	0.02
365.208	-0.04
365.416	0.03
365.624	0.07
365.832	-0.01
366.04	0.07
366.248	0
366.456	0
366.664	-0
366.872	-0.02
367.079	-0.02
367.287	-0.01
367.495	-0.02
367.703	0.01
367.911	-0.02
368.118	-0.04
368.326	-0.03
368.534	-0.01
368.742	0.07
368.949	-0.06
369.157	0
369.365	0.02
369.572	-0.01
369.78	-0.03
369.988	0.03
370.195	0.06
370.403	0.04
370.61	-0.05
370.818	0.01
371.026	0.03
371.233	0.01
371.441	0.02
371.648	-0.04
371.856	0.02
372.063	0
372.271	-0.01
372.478	-0.01
372.685	-0.06
372.893	0.01
373.1	0.01
373.308	-0.03
373.515	0.06
373.722	0.02
373.93	-0.01
374.137	-0.02
374.344	0.1
374.552	0.06
374.759	0.02
374.966	-0.01
375.173	-0.03
375.381	0
375.588	-0.02
375.795	-0.07
376.002	-0.02
376.209	-0.05
376.417	-0.03
376.624	0.03
376.831	0
377.038	0
377.245	-0.04
377.452	-0.01
377.659	-0
377.866	-0.05
378.073	0
378.28	-0.01
378.487	0.03
378.694	0.03
378.901	-0.03
379.108	-0.01
379.315	0.01
379.522	0.1
379.729	0.03
379.936	0.01
380.143	0.01
380.35	0.01
380.557	-0.01
380.763	0.01
380.97	-0.01
381.177	0.01
381.384	0.01
381.591	-0.04
381.797	-0
382.004	-0.01
382.211	0.05
382.418	-0.07
382.624	0.01
382.831	0.05
383.038	-0
383.244	0.02
383.451	-0.02
383.658	0.05
383.864	-0.01
384.071	-0.01
384.277	0.07
384.484	-0.05
384.69	0.02
384.897	-0.01
385.103	0.02
385.31	-0.04
385.516	-0.03
385.723	-0.07
385.929	-0.03
386.136	-0.02
386.342	0.01
386.549	-0.01
386.755	0.03
386.961	-0.02
387.168	-0.02
387.374	0.02
387.58	0.04
387.787	-0.02
387.993	0.02
388.199	0
388.406	-0.04
388.612	0
388.818	-0.02
389.024	-0.03
389.231	0.04
389.437	0.05
389.643	-0
389.849	0.02
390.055	-0.01
390.261	-0.02
390.467	-0.02
390.674	-0.03
390.88	-0.06
391.086	0.07
391.292	-0.05
391.498	0.02
391.704	-0
391.91	-0.02
392.116	-0.03
392.322	-0.08
392.528	-0.05
392.734	-0.02
392.94	-0
393.146	-0.02
393.352	0.02
393.557	-0.03
393.763	-0.01
393.969	-0.04
394.175	0
394.381	-0.02
394.587	-0.05
394.792	0.02
394.998	0.04
395.204	0.04
395.41	-0.04
395.615	0.04
395.821	-0.01
396.027	0.02
396.233	-0.08
396.438	-0.01
396.644	0
396.85	0.02
397.055	-0.05
397.261	-0.01
397.466	-0.04
397.672	-0
397.878	0.02
398.083	0.04
398.289	-0.01
398.494	0.02
398.7	-0.03
398.905	-0.05
399.111	0.07
399.316	-0.05
399.522	0.02
399.727	-0.01
399.932	-0.04
400.138	-0.04
400.343	0.04
400.549	0.03
400.754	-0.01
400.959	0.03
401.165	-0.04
401.37	0.05
401.575	0.07
401.78	0
401.986	-0.08
402.191	-0.05
402.396	-0.01
402.601	0
402.807	-0.01
403.012	0.02
403.217	0.02
403.422	-0.02
403.627	0
403.832	-0.01
404.037	-0.03
404.243	-0
404.448	0
404.653	-0.02
404.858	0.01
405.063	0.06
405.268	-0.05
405.473	-0.05
405.678	-0.03
405.883	0.12
406.088	0.05
406.293	-0.04
406.498	-0.07
406.703	0.02
406.907	0.02
407.112	-0.06
407.317	0
407.522	-0.01
407.727	-0.06
407.932	0.03
408.136	0.06
408.341	0.01
408.546	0.01
408.751	0.01
408.956	-0.05
409.16	0.03
409.365	-0.02
409.57	0.01
409.774	-0.02
409.979	0.03
410.184	0
410.388	-0.01
410.593	0.04
410.798	0.03
411.002	-0.02
411.207	0.02
411.411	-0.01
411.616	0.01
411.82	0
412.025	0.03
412.229	-0.01
412.434	0.05
412.638	0.01
412.843	-0.02
413.047	0.03
413.252	-0.08
413.456	-0.02
413.66	0.05
413.865	-0.02
414.069	0.08
414.273	0.01
414.478	-0.02
414.682	0.03
414.886	-0.04
415.091	-0.06
415.295	-0.06
415.499	0.06
415.703	-0.02
415.908	0.02
416.112	-0.08
416.316	0.08
416.52	-0.05
416.724	-0.02
416.929	0
417.133	0.09
417.337	0
417.541	-0.05
417.745	0.04
417.949	0.06
418.153	0.09
418.357	-0.01
418.561	0.08
418.765	0.03
418.969	0.14
419.173	0.1
419.377	0
419.581	0.08
419.785	0.04
419.989	-0.01
420.193	0.04
420.397	0.06
420.601	0.11
420.804	0.09
421.008	0.01
421.212	0.05
421.416	0.12
421.62	0.04
421.823	0.08
422.027	0.19
422.231	0.1
422.435	0.05
422.638	0.1
422.842	0.04
423.046	0.04
423.249	0.12
423.453	0.11
423.657	0.11
423.86	0.05
424.064	0.1
424.268	0.14
424.471	0.08
424.675	0.19
424.878	0.15
425.082	0.1
425.285	0.15
425.489	0.1
425.692	0.13
425.896	0.06
426.099	0.14
426.303	0.09
426.506	0.03
426.71	0.12
426.913	0.15
427.116	0.14
427.32	0.08
427.523	0.15
427.726	0.23
427.93	0.11
428.133	0.17
428.336	0.1
428.54	0.12
428.743	0.11
428.946	0.18
429.149	0.18
429.353	0.19
429.556	0.14
429.759	0.2
429.962	0.12
430.165	0.19
430.368	0.16
430.571	0.14
430.775	0.24
430.978	0.14
431.181	0.21
431.384	0.21
431.587	0.15
431.79	0.17
431.993	0.11
432.196	0.2
432.399	0.19
432.602	0.26
432.805	0.2
433.008	0.2
433.211	0.12
433.414	0.26
433.616	0.25
433.819	0.2
434.022	0.13
434.225	0.27
434.428	0.24
434.631	0.37
434.833	0.24
435.036	0.19
435.239	0.28
435.442	0.27
435.645	0.23
435.847	0.26
436.05	0.32
436.253	0.26
436.455	0.29
436.658	0.24
436.861	0.28
437.063	0.21
437.266	0.24
437.468	0.24
437.671	0.41
437.874	0.29
438.076	0.22
438.279	0.21
438.481	0.32
438.684	0.26
438.886	0.35
439.089	0.25
439.291	0.31
439.494	0.35
439.696	0.29
439.899	0.32
440.101	0.36
440.303	0.26
440.506	0.44
440.708	0.37
440.91	0.44
441.113	0.34
441.315	0.42
441.517	0.33
441.72	0.43
441.922	0.35
442.124	0.38
442.326	0.46
442.529	0.47
442.731	0.39
442.933	0.53
443.135	0.41
443.337	0.44
443.539	0.49
443.742	0.39
443.944	0.47
444.146	0.43
444.348	0.43
444.55	0.44
444.752	0.44
444.954	0.45
445.156	0.48
445.358	0.45
445.56	0.53
445.762	0.44
445.964	0.48
446.166	0.46
446.368	0.5
446.57	0.49
446.772	0.46
446.974	0.45
447.175	0.52
447.377	0.45
447.579	0.38
447.781	0.38
447.983	0.49
448.184	0.48
448.386	0.51
448.588	0.39
448.79	0.49
448.991	0.45
449.193	0.48
449.395	0.41
449.597	0.49
449.798	0.46
450	0.5
450.202	0.42
450.403	0.41
450.605	0.46
450.806	0.42
451.008	0.34
451.21	0.41
451.411	0.41
451.613	0.33
451.814	0.35
452.016	0.36
452.217	0.32
452.419	0.42
452.62	0.38
452.821	0.39
453.023	0.42
453.224	0.39
453.426	0.34
453.627	0.28
453.828	0.34
454.03	0.28
454.231	0.28
454.432	0.28
454.634	0.38
454.835	0.22
455.036	0.25
455.238	0.24
455.439	0.31
455.64	0.2
455.841	0.2
456.042	0.4
456.244	0.23
456.445	0.17
456.646	0.13
456.847	0.16
457.048	0.26
457.249	0.26
457.45	0.37
457.651	0.1
457.852	0.17
458.054	0.22
458.255	0.17
458.456	0.17
458.657	0.18
458.858	0.09
459.058	0.16
459.259	0.2
459.46	0.14
459.661	0.1
459.862	0.3
460.063	0.16
460.264	0.18
460.465	0.13
460.666	0.28
460.866	0.11
461.067	0.17
461.268	0.14
461.469	0.13
461.67	0.14
461.87	0.09
462.071	0.11
462.272	0.08
462.473	0.13
462.673	0.15
462.874	0.1
463.075	0.12
463.275	0.1
463.476	0.18
463.676	0.14
463.877	0.08
464.078	0.13
464.278	0.21
464.479	0.06
464.679	0.09
464.88	0.08
465.08	0.19
465.281	0.04
465.481	0.05
465.682	0.05
465.882	0.12
466.083	0.11
466.283	0.09
466.483	0.06
466.684	0.04
466.884	0.05
467.085	0.09
467.285	0.11
467.485	0.05
467.686	0.09
467.886	0.05
468.086	0.09
468.286	0.06
468.487	0.09
468.687	0.05
468.887	0.03
469.087	0.1
469.287	0.04
469.488	0.02
469.688	0.1
469.888	0.1
470.088	0.09
470.288	0.11
470.488	0.12
470.688	-0.01
470.888	-0.01
471.088	-0.02
471.288	0.12
471.488	0.05
471.688	0.09
471.888	0.01
472.088	0.08
472.288	0.08
472.488	0.04
472.688	0.03
472.888	0.04
473.088	0.08
473.288	0.07
473.488	0.06
473.688	0.14
473.887	0.06
474.087	0.02
474.287	0.07
474.487	0.01
474.687	0.08
474.886	0.02
475.086	0.04
475.286	0.06
475.486	0.05
475.685	0.04
475.885	0.05
476.085	0.03
476.284	0.07
476.484	-0
476.684	0.06
476.883	0.11
477.083	0.08
477.282	0.04
477.482	0.07
477.681	0.1
477.881	0.07
478.08	-0.02
478.28	-0.03
478.479	0.05
478.679	0.11
478.878	0.01
479.078	-0.02
479.277	0.01
479.477	0.03
479.676	0.05
479.875	0.03
480.075	-0.04
480.274	0.06
480.473	0.06
480.673	0.03
480.872	0.09
481.071	0.04
481.271	0.05
481.47	0
481.669	0.04
481.868	0.03
482.067	0.01
482.267	0.01
482.466	0.01
482.665	0.01
482.864	-0.01
483.063	-0
483.262	0.06
483.461	0.06
483.661	0.1
483.86	0.05
484.059	0.05
484.258	0.03
484.457	0.03
484.656	0.05
484.855	0.09
485.054	0.01
485.253	0.02
485.452	-0
485.651	0.04
485.849	0.07
486.048	0.02
486.247	0.01
486.446	0.02
486.645	-0.02
486.844	-0.01
487.043	0.06
487.241	0.07
487.44	0.03
487.639	0.03
487.838	0.05
488.037	0.07
488.235	0.1
488.434	0.03
488.633	0.03
488.831	0.05
489.03	0.06
489.229	0.05
489.427	0.05
489.626	0.08
489.825	0.09
490.023	0.05
490.222	0.05
490.42	0.06
490.619	0.07
490.817	0.07
491.016	0.03
491.214	0.09
491.413	0.07
491.611	0.05
491.81	0.06
492.008	0.05
492.207	0.08
492.405	0.02
492.604	0.02
492.802	0.03
493	0.06
493.199	0.04
493.397	0.05
493.595	0.04
493.794	0.04
493.992	0.11
494.19	0.08
494.388	0.09
494.587	0.04
494.785	0.07
494.983	0.04
495.181	0.06
495.379	0.06
495.578	0.04
495.776	0.09
495.974	0.08
496.172	0.08
496.37	0.05
496.568	0.04
496.766	0.06
496.964	0.11
497.162	0.08
497.36	0.05
497.558	0.08
497.756	0.11
497.954	0.07
498.152	0.05
498.35	0.08
498.548	0.05
498.746	0.08
498.944	0.07
499.142	0.08
499.34	0.06
499.538	0.1
499.736	0.06
499.933	0.12
500.131	0.12
500.329	0.11
500.527	0.13
500.725	0.14
500.922	0.12
501.12	0.1
501.318	0.09
501.516	0.08
501.713	0.11
501.911	0.1
502.109	0.07
502.306	0.1
502.504	0.1
502.701	0.1
502.899	0.1
503.097	0.15
503.294	0.12
503.492	0.11
503.689	0.13
503.887	0.13
504.084	0.16
504.282	0.09
504.479	0.07
504.677	0.14
504.874	0.11
505.072	0.1
505.269	0.13
505.466	0.13
505.664	0.12
505.861	0.09
506.059	0.08
506.256	0.16
506.453	0.1
506.651	0.16
506.848	0.18
507.045	0.15
507.242	0.12
507.44	0.11
507.637	0.12
507.834	0.14
508.031	0.14
508.229	0.12
508.426	0.13
508.623	0.14
508.82	0.12
509.017	0.11
509.214	0.11
509.411	0.15
509.608	0.12
509.805	0.13
510.003	0.14
510.2	0.13
510.397	0.18
510.594	0.12
510.791	0.14
510.988	0.13
511.184	0.18
511.381	0.14
511.578	0.13
511.775	0.16
511.972	0.16
512.169	0.15
512.366	0.14
512.563	0.15
512.76	0.13
512.956	0.17
513.153	0.14
513.35	0.18
513.547	0.16
513.744	0.14
513.94	0.13
514.137	0.17
514.334	0.16
514.53	0.16
514.727	0.18
514.924	0.21
515.12	0.14
515.317	0.12
515.514	0.16
515.71	0.15
515.907	0.18
516.103	0.16
516.3	0.2
516.497	0.22
516.693	0.17
516.89	0.17
517.086	0.17
517.283	0.2
517.479	0.19
517.676	0.16
517.872	0.17
518.068	0.15
518.265	0.17
518.461	0.16
518.658	0.15
518.854	0.17
519.05	0.16
519.247	0.16
519.443	0.2
519.639	0.19
519.836	0.18
520.032	0.18
520.228	0.18
520.424	0.24
520.621	0.2
520.817	0.17
521.013	0.2
521.209	0.19
521.405	0.21
521.601	0.2
521.798	0.19
521.994	0.24
522.19	0.17
522.386	0.17
522.582	0.18
522.778	0.21
522.974	0.17
523.17	0.19
523.366	0.19
523.562	0.22
523.758	0.21
523.954	0.16
524.15	0.16
524.346	0.21
524.542	0.19
524.738	0.17
524.934	0.2
525.129	0.21
525.325	0.2
525.521	0.2
525.717	0.24
525.913	0.2
526.109	0.2
526.304	0.18
526.5	0.22
526.696	0.21
526.892	0.2
527.087	0.22
527.283	0.17
527.479	0.22
527.674	0.17
527.87	0.2
528.066	0.18
528.261	0.19
528.457	0.21
528.653	0.2
528.848	0.19
529.044	0.19
529.239	0.19
529.435	0.24
529.63	0.2
529.826	0.24
530.021	0.21
530.217	0.24
530.412	0.18
530.608	0.18
530.803	0.18
530.999	0.21
531.194	0.15
531.389	0.23
531.585	0.18
531.78	0.19
531.975	0.22
532.171	0.24
532.366	0.18
532.561	0.2
532.757	0.16
532.952	0.2
533.147	0.21
533.342	0.2
533.538	0.21
533.733	0.23
533.928	0.21
534.123	0.18
534.318	0.18
534.513	0.19
534.709	0.21
534.904	0.2
535.099	0.19
535.294	0.21
535.489	0.21
535.684	0.21
535.879	0.22
536.074	0.22
536.269	0.19
536.464	0.2
536.659	0.18
536.854	0.21
537.049	0.22
537.244	0.22
537.439	0.2
537.634	0.22
537.828	0.23
538.023	0.2
538.218	0.17
538.413	0.22
538.608	0.22
538.803	0.24
538.997	0.17
539.192	0.23
539.387	0.23
539.582	0.2
539.776	0.2
539.971	0.24
540.166	0.22
540.36	0.2
540.555	0.22
540.75	0.22
540.944	0.21
541.139	0.19
541.334	0.21
541.528	0.21
541.723	0.25
541.917	0.2
542.112	0.14
542.306	0.21
542.501	0.2
542.695	0.23
542.89	0.19
543.084	0.22
543.279	0.2
543.473	0.24
543.668	0.21
543.862	0.21
544.056	0.22
544.251	0.2
544.445	0.25
544.64	0.22
544.834	0.18
545.028	0.2
545.222	0.21
545.417	0.23
545.611	0.24
545.805	0.22
546	0.18
546.194	0.23
546.388	0.21
546.582	0.22
546.776	0.22
546.97	0.19
547.165	0.2
547.359	0.24
547.553	0.2
547.747	0.22
547.941	0.22
548.135	0.23
548.329	0.24
548.523	0.22
548.717	0.18
548.911	0.19
549.105	0.21
549.299	0.23
549.493	0.24
549.687	0.23
549.881	0.22
550.075	0.2
550.269	0.17
550.463	0.24
550.657	0.21
550.85	0.2
551.044	0.2
551.238	0.21
551.432	0.2
551.626	0.19
551.82	0.23
552.013	0.18
552.207	0.2
552.401	0.21
552.594	0.2
552.788	0.22
552.982	0.21
553.176	0.19
553.369	0.23
553.563	0.22
553.756	0.2
553.95	0.2
554.144	0.22
554.337	0.25
554.531	0.22
554.724	0.21
554.918	0.2
555.111	0.23
555.305	0.21
555.498	0.24
555.692	0.22
555.885	0.19
556.079	0.24
556.272	0.2
556.466	0.22
556.659	0.23
556.852	0.2
557.046	0.19
557.239	0.25
557.432	0.19
557.626	0.18
557.819	0.23
558.012	0.23
558.206	0.23
558.399	0.2
558.592	0.24
558.785	0.21
558.979	0.24
559.172	0.2
559.365	0.24
559.558	0.22
559.751	0.2
559.944	0.24
560.138	0.19
560.331	0.23
560.524	0.18
560.717	0.22
560.91	0.22
561.103	0.22
561.296	0.22
561.489	0.21
561.682	0.2
561.875	0.25
562.068	0.24
562.261	0.23
562.454	0.25
562.647	0.24
562.84	0.22
563.032	0.2
563.225	0.24
563.418	0.21
563.611	0.2
563.804	0.21
563.997	0.19
564.19	0.16
564.382	0.14
564.575	0.21
564.768	0.22
564.961	0.21
565.153	0.2
565.346	0.25
565.539	0.2
565.731	0.24
565.924	0.26
566.117	0.24
566.309	0.21
566.502	0.17
566.695	0.21
566.887	0.22
567.08	0.2
567.272	0.21
567.465	0.19
567.657	0.22
567.85	0.23
568.042	0.22
568.235	0.23
568.427	0.22
568.62	0.23
568.812	0.22
569.005	0.22
569.197	0.19
569.389	0.23
569.582	0.22
569.774	0.21
569.966	0.17
570.159	0.15
570.351	0.24
570.543	0.21
570.736	0.2
570.928	0.18
571.12	0.19
571.312	0.19
571.505	0.18
571.697	0.25
571.889	0.18
572.081	0.2
572.273	0.19
572.465	0.25
572.658	0.21
572.85	0.23
573.042	0.19
573.234	0.2
573.426	0.22
573.618	0.18
573.81	0.22
574.002	0.26
574.194	0.26
574.386	0.17
574.578	0.15
574.77	0.2
574.962	0.2
575.154	0.18
575.346	0.21
575.538	0.22
575.729	0.19
575.921	0.2
576.113	0.19
576.305	0.23
576.497	0.19
576.689	0.21
576.88	0.17
577.072	0.23
577.264	0.2
577.456	0.21
577.647	0.14
577.839	0.21
578.031	0.25
578.223	0.17
578.414	0.16
578.606	0.24
578.798	0.2
578.989	0.16
579.181	0.22
579.372	0.18
579.564	0.2
579.755	0.21
579.947	0.23
580.139	0.22
580.33	0.15
580.522	0.18
580.713	0.16
580.905	0.19
581.096	0.23
581.287	0.17
581.479	0.2
581.67	0.23
581.862	0.2
582.053	0.17
582.244	0.15
582.436	0.21
582.627	0.22
582.818	0.16
583.01	0.18
583.201	0.24
583.392	0.2
583.583	0.21
583.775	0.18
583.966	0.16
584.157	0.2
584.348	0.2
584.54	0.15
584.731	0.21
584.922	0.21
585.113	0.18
585.304	0.19
585.495	0.24
585.686	0.2
585.877	0.22
586.068	0.2
586.259	0.2
586.45	0.2
586.641	0.16
586.832	0.15
587.023	0.18
587.214	0.2
587.405	0.18
587.596	0.18
587.787	0.25
587.978	0.2
588.169	0.19
588.36	0.15
588.551	0.21
588.742	0.16
588.932	0.21
589.123	0.21
589.314	0.23
589.505	0.21
589.696	0.21
589.886	0.16
590.077	0.16
590.268	0.21
590.458	0.15
590.649	0.15
590.84	0.22
591.03	0.17
591.221	0.15
591.412	0.14
591.602	0.21
591.793	0.21
591.984	0.15
592.174	0.16
592.365	0.22
592.555	0.15
592.746	0.17
592.936	0.19
593.127	0.19
593.317	0.23
593.508	0.16
593.698	0.17
593.889	0.2
594.079	0.18
594.269	0.17
594.46	0.16
594.65	0.17
594.84	0.18
595.031	0.16
595.221	0.16
595.411	0.14
595.602	0.23
595.792	0.17
595.982	0.18
596.172	0.21
596.363	0.18
596.553	0.2
596.743	0.17
596.933	0.16
597.123	0.21
597.314	0.15
597.504	0.13
597.694	0.2
597.884	0.18
598.074	0.18
598.264	0.15
598.454	0.17
598.644	0.17
598.834	0.17
599.024	0.09
599.214	0.15
599.404	0.2
599.594	0.17
599.784	0.16
599.974	0.26
600.164	0.18
600.354	0.14
600.544	0.14
600.734	0.17
600.924	0.21
601.114	0.14
601.303	0.17
601.493	0.16
601.683	0.17
601.873	0.16
602.063	0.11
602.252	0.19
602.442	0.1
602.632	0.14
602.821	0.14
603.011	0.18
603.201	0.17
603.39	0.15
603.58	0.13
603.77	0.18
603.959	0.2
604.149	0.12
604.339	0.15
604.528	0.18
604.718	0.17
604.907	0.17
605.097	0.13
605.286	0.14
605.476	0.16
605.665	0.18
605.855	0.14
606.044	0.22
606.234	0.15
606.423	0.13
606.612	0.13
606.802	0.16
606.991	0.16
607.181	0.16
607.37	0.11
607.559	0.15
607.749	0.14
607.938	0.13
608.127	0.14
608.316	0.12
608.506	0.15
608.695	0.18
608.884	0.14
609.073	0.15
609.263	0.15
609.452	0.16
609.641	0.18
609.83	0.13
610.019	0.15
610.208	0.11
610.397	0.14
610.586	0.16
610.775	0.12
610.965	0.14
611.154	0.12
611.343	0.18
611.532	0.1
611.721	0.11
611.91	0.14
612.099	0.16
612.287	0.15
612.476	0.09
612.665	0.16
612.854	0.11
613.043	0.21
613.232	0.15
613.421	0.1
613.61	0.17
613.798	0.11
613.987	0.17
614.176	0.14
614.365	0.15
614.554	0.11
614.742	0.15
614.931	0.13
615.12	0.16
615.309	0.14
615.497	0.16
615.686	0.1
615.875	0.14
616.063	0.11
616.252	0.13
616.44	0.13
616.629	0.15
616.818	0.14
617.006	0.11
617.195	0.12
617.383	0.14
617.572	0.11
617.76	0.1
617.949	0.12
618.137	0.16
618.326	0.17
618.514	0.12
618.703	0.09
618.891	0.14
619.079	0.07
619.268	0.16
619.456	0.1
619.644	0.18
619.833	0.1
620.021	0.11
620.209	0.08
620.398	0.12
620.586	0.13
620.774	0.14
620.962	0.13
621.151	0.18
621.339	0.13
621.527	0.09
621.715	0.06
621.903	0.07
622.092	0.04
622.28	0.12
622.468	0.13
622.656	0.12
622.844	0.12
623.032	0.11
623.22	0.06
623.408	0.17
623.596	0.15
623.784	0.15
623.972	0.09
624.16	0.08
624.348	0.17
624.536	0.1
624.724	0.07
624.912	0.15
625.1	0.13
625.288	0.1
625.476	0.08
625.664	0.1
625.851	0.09
626.039	0.11
626.227	0.1
626.415	0.09
626.603	0.03
626.79	0.11
626.978	0.13
627.166	0.12
627.354	0.1
627.541	0.08
627.729	0.05
627.917	0.11
628.104	0.13
628.292	0.11
628.48	0.11
628.667	0.12
628.855	0.11
629.042	0.14
629.23	0.06
629.418	0.1
629.605	0.09
629.793	0.09
629.98	0.08
630.168	0.1
630.355	0.11
630.543	0.11
630.73	0.07
630.917	0.15
631.105	0.16
631.292	0.1
631.48	0.09
631.667	0.17
631.854	0.11
632.042	0.08
632.229	0.09
632.416	0.1
632.604	0.08
632.791	0.09
632.978	0.13
633.165	0.11
633.353	0.11
633.54	0.11
633.727	0.01
633.914	0.07
634.101	0.11
634.289	0.14
634.476	0.07
634.663	0.04
634.85	0.12
635.037	0.03
635.224	0.02
635.411	0.12
635.598	0.14
635.785	0.07
635.972	0.09
636.159	0.14
636.346	0.05
636.533	0.06
636.72	0.06
636.907	0.06
637.094	0.11
637.281	0.04
637.468	0.07
637.655	0.09
637.842	0.08
638.029	0.06
638.215	0.12
638.402	0.09
638.589	0.06
638.776	0.06
638.963	0.04
639.149	0.14
639.336	0.13
639.523	0.07
639.709	0.07
639.896	0.05
640.083	0.15
640.27	0.08
640.456	0.05
640.643	0.1
640.829	0.06
641.016	0.08
641.203	0.06
641.389	0.09
641.576	0.09
641.762	0.09
641.949	0.04
642.135	0.08
642.322	0.11
642.508	0.02
642.695	0.06
642.881	0.05
643.068	0.04
643.254	0.08
643.441	0.11
643.627	0.07
643.813	0.06
644	0.1
644.186	0.07
644.372	0.05
644.559	0.11
644.745	0.03
644.931	0.02
645.118	0.03
645.304	0.03
645.49	0.05
645.676	0.06
645.862	0.07
646.049	0.09
646.235	0.05
646.421	0.13
646.607	0.13
646.793	0.04
646.979	0.04
647.165	0.07
647.352	0.06
647.538	0.1
647.724	0.05
647.91	0.07
648.096	0.1
648.282	0.09
648.468	0.04
648.654	0.08
648.84	0.09
649.026	0.05
649.212	0.05
649.397	0.05
649.583	0.03
649.769	0.1
649.955	0.06
650.141	0.06
650.327	0.1
650.513	0.03
650.698	0.05
650.884	-0.02
651.07	0.07
651.256	0.08
651.442	0.06
651.627	0.05
651.813	0.09
651.999	0.03
652.184	0.06
652.37	0.06
652.556	0.01
652.741	0.1
652.927	-0.01
653.113	0.04
653.298	0.03
653.484	0.05
653.669	0.01
653.855	0.05
654.04	0.05
654.226	0.07
654.412	0.02
654.597	0.01
654.782	0.03
654.968	0.08
655.153	0.09
655.339	0.05
655.524	-0.01
655.71	0.08
655.895	0.01
656.08	0.05
656.266	0.11
656.451	0.08
656.636	0.01
656.822	0.06
657.007	0.02
657.192	0.01
657.378	-0.01
657.563	0.04
657.748	0.03
657.933	0.04
658.118	0.05
658.304	0.01
658.489	0.07
658.674	0.06
658.859	-0.01
659.044	0.03
659.229	0.08
659.414	0
659.599	0.04
659.785	-0
659.97	0.05
660.155	0.04
660.34	0.04
660.525	-0.01
660.71	0.01
660.895	0.05
661.08	0.04
661.264	0.01
661.449	0.07
661.634	0.1
661.819	0.06
662.004	0.06
662.189	-0.04
662.374	0.03
662.559	-0
662.743	-0.02
662.928	0.03
663.113	0.02
663.298	-0.03
663.483	0.01
663.667	0.04
663.852	-0.04
664.037	0.07
664.221	-0.01
664.406	0.04
664.591	0.05
664.775	0.08
664.96	0
665.145	0.06
665.329	0.04
665.514	0
665.698	0.04
665.883	-0.03
666.068	0.06
666.252	0.01
666.437	-0
666.621	0.02
666.806	0.06
666.99	0.03
667.174	-0.03
667.359	0.1
667.543	-0.01
667.728	0.01
667.912	-0.05
668.096	0.02
668.281	0.02
668.465	0.03
668.649	0.03
668.834	-0.01
669.018	0.02
669.202	-0
669.387	0.01
669.571	0.03
669.755	-0.02
669.939	0.06
670.124	-0.02
670.308	0.05
670.492	0.05
670.676	0.05
670.86	-0
671.044	-0.02
671.228	0.05
671.413	-0.04
671.597	0
671.781	0.01
671.965	0.04
672.149	0.02
672.333	-0.02
672.517	0.01
672.701	0.05
672.885	0.03
673.069	-0.01
673.253	0.07
673.437	0
673.621	-0.02
673.804	0.02
673.988	0.01
674.172	-0.02
674.356	-0
674.54	0.02
674.724	0.08
674.908	-0.01
675.091	0.02
675.275	-0.01
675.459	0.07
675.643	0.1
675.826	0.06
676.01	0.02
676.194	0.01
676.377	0.02
676.561	0.04
676.745	0.02
676.928	0.02
677.112	0.05
677.296	-0
677.479	0.02
677.663	-0.03
677.846	0.02
678.03	0.01
678.213	-0.03
678.397	0.01
678.58	-0.02
678.764	0.03
678.947	-0.02
679.131	-0.01
679.314	0.03
679.498	0.03
679.681	-0
679.865	0.02
680.048	0.01
680.231	0.03
680.415	-0.03
680.598	0.05
680.781	0.02
680.965	-0
681.148	0.02
681.331	0.04
681.514	0.03
681.698	-0.01
681.881	-0
682.064	0.03
682.247	0.06
682.43	-0.02
682.614	0.06
682.797	0.03
682.98	0.02
683.163	-0.02
683.346	0.05
683.529	-0.01
683.712	0.01
683.895	0.07
684.078	-0.04
684.261	-0
684.444	0.02
684.627	0.02
684.81	-0
684.993	-0.02
685.176	0.01
685.359	-0.05
685.542	-0.01
685.725	0.04
685.908	0
686.091	-0.03
686.274	0.05
686.457	0.06
686.639	0.01
686.822	0.05
687.005	-0.01
687.188	0.03
687.371	0.13
687.553	0.01
687.736	0.03
687.919	0.07
688.102	0.1
688.284	-0.03
688.467	0.05
688.65	0.01
688.832	0.01
689.015	-0.02
689.197	-0.06
689.38	0.09
689.563	0.08
689.745	-0.01
689.928	0
690.11	-0
690.293	0.02
690.475	-0.08
690.658	0.06
690.84	0.04
691.023	0.01
691.205	-0.02
691.388	0.03
691.57	-0.01
691.752	0.06
691.935	-0.07
692.117	-0.04
692.3	0.03
692.482	0.05
692.664	-0
692.847	0.04
693.029	0.09
693.211	-0.02
693.393	0.02
693.576	-0.01
693.758	0.01
693.94	-0.03
694.122	-0.05
694.304	0.02
694.487	-0.04
694.669	0.08
694.851	-0.08
695.033	-0.01
695.215	-0
695.397	-0.03
695.579	0.03
695.761	-0.01
695.943	-0.05
696.125	0.11
696.308	0.05
696.49	-0.14
696.671	0.1
696.853	-0.04
697.035	0.12
697.217	-0.01
697.399	-0.01
697.581	0.02
697.763	0.05
697.945	-0.03
698.127	0.01
698.309	0.02
698.491	0.01
698.672	0.09
698.854	0.04
699.036	0.06
699.218	-0
699.399	0.05
699.581	0.03
699.763	0.03
699.945	-0.05
700.126	-0.08
700.308	0.03
700.49	0.01
700.671	-0.06
700.853	-0.08
701.035	-0.02
701.216	-0.03
701.398	0.01
701.579	0
701.761	0.04
701.943	-0.05
702.124	-0
702.306	-0.02
702.487	0.1
702.669	0.01
702.85	-0.06
703.031	-0.08
703.213	0.03
703.394	0.01
703.576	-0.04
703.757	0.13
703.938	0.04
704.12	0.19
704.301	-0.03
704.483	-0.01
704.664	0.02
704.845	0.05
705.026	0.06
705.208	-0.05
705.389	-0.01
705.57	-0.08
705.751	-0.01
705.933	-0.02
706.114	0.02
706.295	0.04
706.476	-0.07
706.657	0.09
706.838	0.01
707.02	0.05
707.201	-0.04
707.382	-0.02
707.563	0.02
707.744	-0.04
707.925	-0.07
708.106	-0.04
708.287	0.09
708.468	0.12
708.649	0.03
708.83	0.03
709.011	-0.04
709.192	0.07
709.373	-0.04
709.554	-0.05
709.734	0.04
709.915	0.05
710.096	-0.02
710.277	-0.11
710.458	0.01
710.639	0.01
710.819	-0.08
711	-0.01
711.181	0.1
711.362	0.07
711.542	0.01
711.723	-0
711.904	0.07
712.085	0.06
712.265	-0.03
712.446	-0.13
712.627	0
712.807	0.03
712.988	0.02
713.168	-0.07
713.349	0.04
713.53	-0.1
713.71	-0.06
713.891	-0.1
714.071	-0.05
714.252	-0.07
714.432	-0.02
714.613	-0.1
714.793	-0.03
714.974	0.1
715.154	0.1
715.334	0.02
715.515	0.05
715.695	-0
715.876	0.01
716.056	-0.04
716.236	-0.08
716.417	-0.04
716.597	-0.04
716.777	0.1
716.957	-0.03
717.138	-0.01
717.318	-0.02
717.498	-0.11
717.678	-0.02
717.859	-0.02
718.039	-0.11
718.219	-0
718.399	0.06
718.579	-0.08
718.759	-0.1
718.939	-0.01
719.12	-0.04
719.3	0.02
719.48	-0.14
719.66	-0.14
719.84	0.05
720.02	-0.02
720.2	-0.14
720.38	0
720.56	0.09
720.74	-0.03
720.92	0.04
721.1	0.1
721.279	0.12
721.459	-0.01
721.639	-0.08
721.819	0.05
721.999	-0.04
722.179	-0.03
722.359	-0.11
722.538	-0.01
722.718	-0
722.898	-0.06
723.078	-0.1
723.257	-0.07
723.437	-0.04
723.617	0.02
723.797	0.05
723.976	-0.09
724.156	0.01
724.336	0.08
724.515	0.07
724.695	-0.16
724.874	0.03
725.054	0.02
725.234	-0.08
725.413	-0.02
725.593	0.08
725.772	-0.04
725.952	-0.08
726.131	0.04
726.311	-0.08
726.49	-0.08
726.67	-0.09
726.849	-0.02
727.028	0.07
727.208	-0.1
727.387	-0.01
727.567	-0.05
727.746	-0.02
727.925	-0.01
728.105	-0.1
728.284	-0.11
728.463	-0.13
728.643	-0.02
728.822	-0.08
729.001	-0.08
729.18	0.04
729.359	0.1
729.539	-0.05
729.718	-0.01
729.897	0.11
730.076	-0.02
730.255	-0.13
730.434	0.02
730.614	0.02
730.793	0.01
730.972	0.04
731.151	-0.04
731.33	0.08
731.509	0.01
731.688	0.01
731.867	0.03
732.046	-0.07
732.225	0.18
732.404	-0.14
732.583	-0.08
732.762	-0.01
732.941	0.05
733.12	-0.03
733.298	-0.05
733.477	0.1
733.656	-0.06
733.835	-0.11
734.014	0.04
734.193	-0.03
734.371	-0.09
734.55	0.03
734.729	-0.15
734.908	-0.05
735.086	-0.06
735.265	0.07
735.444	-0.22
735.623	-0.03
735.801	-0.1
735.98	0.01
736.159	-0.1
736.337	0.09
736.516	-0.05
736.694	-0.03
736.873	-0.08
737.052	0.02
737.23	0.04
737.409	0.04
737.587	0.03
737.766	-0.24
737.944	-0.08
738.123	-0.01
738.301	0.11
738.479	-0.14
738.658	0.09
738.836	-0.25
739.015	0.01
739.193	0.13
739.371	0.02
739.55	-0.06
739.728	-0.11
739.906	0.13
740.085	0.05
740.263	0.04
740.441	-0.24
740.62	0.11
740.798	0.05
740.976	-0.06
741.154	-0.08
741.332	0.11
741.511	-0.07
741.689	-0.01
741.867	-0.04
742.045	-0.01
742.223	-0.04
742.401	-0.05
742.579	-0.12
742.757	0
742.935	-0.17
743.114	-0.05
743.292	-0.07
743.47	0.06
743.648	-0.08
743.826	-0.13
744.004	0.04
744.181	-0
744.359	-0.07
744.537	0.06
744.715	0.02
744.893	-0.1
745.071	-0.03
745.249	-0.11
745.427	-0.07
745.605	0.09
745.782	-0.03
745.96	0.07
746.138	0.07
746.316	0.06
746.493	-0.02
746.671	0.02
746.849	-0.09
747.027	0.06
747.204	-0.03
747.382	0.1
747.56	-0.22
747.737	-0.11
747.915	-0.08
748.093	0.12
748.27	-0.17
748.448	-0.07
748.625	-0.17
748.803	-0.19
748.98	-0.02
749.158	-0.04
749.335	0.16
749.513	-0.17
749.69	-0.02
749.868	-0.01
750.045	-0.02
750.223	-0.05
750.4	-0.26
750.578	0.18
750.755	-0.01
750.932	-0.16
751.11	0.12
751.287	-0.15
751.464	0.12
751.642	-0.09
751.819	0.08
751.996	0.02
752.173	0
752.351	-0.16
752.528	0.06
752.705	0.01
752.882	-0.07
753.06	0.02
753.237	-0.06
753.414	0.15
753.591	0.21
753.768	0.04
753.945	-0.07
754.122	-0.04
754.299	0.11
754.476	-0.08
754.654	0
754.831	-0.03
755.008	-0.05
755.185	-0.08
755.362	-0.11
755.539	-0.06
755.716	-0.13
755.892	-0.16
756.069	-0.07
756.246	-0.08
756.423	-0.05
756.6	0.19
756.777	-0.06
756.954	0.06
757.131	-0.04
757.307	-0.17
757.484	-0.19
757.661	0.02
757.838	0.01
758.015	-0.05
758.191	0.06
758.368	-0.06
758.545	0.11
758.721	-0.1
758.898	-0.09
759.075	0.08
759.251	0.1
759.428	0.04
759.605	-0.17
759.781	0
759.958	0.03
760.134	-0.03
760.311	-0.09
760.488	0.01
760.664	0.12
760.841	-0.03
761.017	-0.14
761.194	0.03
761.37	0.05
761.547	0.05
761.723	-0.06
761.899	0.04
762.076	-0.14
762.252	-0.16
762.429	-0.07
762.605	0.12
762.781	-0.02
762.958	0.06
763.134	-0.02
763.31	-0.08
763.486	0.07
763.663	-0.17
763.839	-0.05
764.015	-0.14
764.191	-0.23
764.368	-0.09
764.544	-0.18
764.72	0.06
764.896	0.07
765.072	0.04
765.248	-0.12
765.425	-0.06
765.601	0.03
765.777	-0.07
765.953	-0.21
766.129	0.03
766.305	-0.13
766.481	0.08
766.657	0.07
766.833	0.1
767.009	-0.12
767.185	-0.12
767.361	-0.15
767.537	-0.19
767.713	0.1
767.889	-0.16
768.065	0.04
768.24	-0.22
768.416	0.15
768.592	-0.11
768.768	-0.14
768.944	0.04
769.12	-0.07
769.295	-0.11
769.471	-0.03
769.647	-0.08
769.823	0.05
769.998	-0.12
770.174	-0.17
770.35	0.29
770.525	0.3
770.701	-0.08
770.877	-0.1
771.052	-0
771.228	0.08
771.403	-0.01
771.579	0.05
771.755	0.37
771.93	-0.15
772.106	-0.16
772.281	-0.27
772.457	-0.13
772.632	0.02
772.808	-0.18
772.983	-0.2
773.159	-0.15
773.334	0.17
773.509	0.06
773.685	-0.09
773.86	0.24
774.036	0.17
774.211	-0.08
774.386	-0.07
774.562	0.04
774.737	-0.11
774.912	-0.18
775.087	0.13
775.263	-0.08
775.438	0
775.613	-0.24
775.788	-0.29
775.964	-0
776.139	0.34
776.314	-0.22
776.489	-0.01
776.664	0.12
776.839	-0.05
777.014	0.1
777.19	0.1
777.365	0.12
777.54	0.27
777.715	-0.12
777.89	-0.13
778.065	0.02
778.24	-0.1
778.415	-0.04
778.59	-0.24
778.765	-0.15
778.94	-0.02
779.115	-0.18
779.289	-0.23
779.464	-0.04
779.639	-0.05
779.814	-0.11
779.989	-0.16
780.164	0.13
780.339	0.09
780.513	0.02
780.688	-0.16
780.863	-0.05
781.038	0.1
781.212	-0.17
781.387	-0.06
781.562	0.37
781.737	-0.11
781.911	0.13
782.086	-0.11
782.261	-0.1
782.435	-0.01
782.61	-0.19
782.784	-0.08
782.959	0.14
783.134	-0.07
783.308	-0.43
783.483	-0.09
783.657	0.36
783.832	0.06
784.006	-0.28
784.181	-0.06
784.355	0.12
784.53	-0.37
784.704	-0.42
784.878	0.41
785.053	0.11
785.227	0.21
785.402	0.32
785.576	-0.33
785.75	-0.34
785.925	-0.32
786.099	0.07
786.273	-0.18
786.448	0.04
786.622	0.17
786.796	0.09
786.97	-0.02
787.145	0.48
787.319	-0.46
787.493	-0.13
787.667	-0.35
787.841	0.02
788.015	-0.06
788.19	-0.41
788.364	0.07
788.538	0.21
788.712	-0.05
788.886	-0.13
789.06	0.22
789.234	0.14
789.408	-0.24
789.582	-0.18
789.756	-0.09
789.93	-0.07
790.104	-0.24
790.278	-0.17
790.452	-0.3
790.626	-0.05
790.8	-0.29
790.973	0.28
791.147	0.39
791.321	0.14
791.495	0.15
791.669	0.02
791.843	0.15
792.016	0.01
792.19	0.36
792.364	-0.3
792.538	0.32
792.711	0.19
792.885	-0.14
793.059	-0.28
793.233	-0.46
793.406	-0.05
793.58	-0.09
793.754	0.13
793.927	-0.12
794.101	0.36
794.274	-0.07
794.448	0.44
794.622	-0.41
794.795	0.44
794.969	-0.36
795.142	0.3
795.316	-0.2
795.489	-0.27
795.663	0.25
795.836	-0.23
796.009	-0.3
796.183	0.36
796.356	-0.05
796.53	0.05
796.703	-0.16
796.876	0.41
797.05	-0.11
797.223	-0.21
797.396	0.1
797.57	0.07
797.743	0.31
797.916	-0.02
798.09	0.03
798.263	0.09
798.436	0.24
798.609	-0.16
798.782	0.09
798.956	0.23
799.129	-0.06
799.302	-0.35
799.475	-0.35
799.648	-0.28
799.821	-0.27
799.994	0.12
800.167	-0.41
800.34	0.28
800.514	0
800.687	-0.2
800.86	0.01
801.033	0.23
801.206	-0.02
801.379	-0.23
801.551	0.35
801.724	0.15
801.897	0.47
802.07	-0.14
802.243	-0.5
802.416	-0.25
802.589	-0.12
802.762	0.02
802.935	0.09
803.107	0.35
803.28	0.01
803.453	0.17
803.626	-0.31
803.798	-0.04
803.971	-0.39
804.144	-0.22
804.317	0.22
804.489	0.37
804.662	-0.05
804.835	-0.11
805.007	-0.25
805.18	0.27
805.353	0.29
805.525	-0.26
805.698	-0.2
805.87	0.14
806.043	0.15
806.215	-0.28
806.388	-0.39
806.56	0.21
806.733	0.31
806.905	0.07
807.078	-0.18
807.25	-0.36
807.423	0.06
807.595	0.04
807.768	0.1
807.94	0.12
808.112	0.12
808.285	-0.17
808.457	-0.35
808.629	-0.12
808.802	0.22
808.974	-0.03
809.146	-0.25
809.318	-0.2
809.491	-0.17
809.663	0.05
809.835	-0.22
810.007	-0.05
810.18	-0.09
810.352	-0.57
810.524	-0.31
810.696	0.07
810.868	0.38
811.04	0.02
811.212	-0.05
811.384	0.26
811.556	-0.12
811.728	-0.32
811.901	0.64
812.073	-0.4
812.245	0.35
812.417	-0.17
812.589	-0.55
812.76	-0.13
812.932	0.03
813.104	0.09
813.276	-0.19
813.448	0.16
813.62	0.08
813.792	0.16
813.964	-0.5
814.136	0.15
814.307	-0.19
814.479	-0.44
814.651	-0.36
814.823	0.36
814.995	0.01
815.166	-0.02
815.338	-0.6
815.51	-0.82
815.681	0.69
815.853	-0.29
816.025	-0.09
816.196	0.31
816.368	0.44
816.54	-0.7
816.711	-0.53
816.883	-0.05
817.054	0.92
817.226	-0.26
817.398	-0.15
817.569	-0.04
817.741	-0.12
817.912	0.03
818.084	-0.02
818.255	0.01
818.426	-0.22
818.598	-0.08
818.769	-0.38
818.941	0.31
819.112	0.51
819.283	0.35
819.455	-0.84
819.626	0.12
819.798	0.2
819.969	-0.26
820.14	-0.18
820.311	-0.1
820.483	-0.24
820.654	0.09
820.825	0.51
820.996	-0.24
821.168	-0.41
821.339	-0.29
821.51	-0.67
821.681	0.95
821.852	0.06
822.023	-0.28
822.195	-0.43
822.366	0.16
822.537	0.06
822.708	0.38
822.879	-0.21
823.05	0.84
823.221	-0.07
823.392	0.9
823.563	0.03
823.734	0.04
823.905	-0.26
824.076	-0.46
824.247	-0.45
824.418	-0.57
824.589	0.22
824.759	-0.07
824.93	-0.22
825.101	-0.3
825.272	0.86
825.443	0.42
825.614	0.3
825.784	-0.92
825.955	0.29
826.126	0.23
826.297	-0.08
826.467	0.85
826.638	0.4
826.809	-0.94
826.98	-0.12
827.15	0.47
827.321	-0.33
827.492	0.76
827.662	0.11
827.833	0.99
828.003	0.39
828.174	-0.73
828.345	-0.81
828.515	0.7
828.686	-0.26
828.856	-0.16
829.027	-0.11
829.197	0.06
829.368	-0.11
829.538	0.01
829.709	-0.54
829.879	-0.23
830.049	-0.26
830.22	-0.69
830.39	0.08
830.56	0.56
830.731	-0.5
830.901	0.16
831.072	-0.21
831.242	0.07
831.412	-0.15
831.582	-0.01
831.753	-1.16
831.923	0.21
832.093	-0.3
832.263	-0.09
832.434	-0.73
832.604	-0.4
832.774	0.2
832.944	-0.71
833.114	-0.04
833.284	-0
833.454	-0.97
833.624	-0.59
833.795	-0.19
833.965	0.77
834.135	0.34
834.305	-1.13
834.475	-0.66
834.645	-0.17
834.815	-0.86
834.985	-0.39
835.155	-0.15
835.325	-0.33
835.494	0.11
835.664	-0.87
835.834	-0.51
836.004	0.14
836.174	0.49
836.344	0.45
836.514	-0.65
836.684	-0.71
836.853	-0.09
837.023	0.04
837.193	-0.07
837.363	0.7
837.532	0.21
837.702	-0.87
837.872	-0.83
838.041	0.72
838.211	1.2
838.381	-0.62
838.55	-0.59
838.72	0.75
838.89	1.18
839.059	-0.43
839.229	-0.85
839.398	1.23
839.568	-0.08
839.738	-0.14
839.907	0.69
840.077	0.35
840.246	-0.93
840.416	-0.73
840.585	-0.75
840.755	0.89
840.924	0.73
841.093	-0.29
841.263	-0.31
841.432	0.56
841.602	0.37
841.771	-0.95
841.94	0.53
842.11	0.94
842.279	0.51
842.448	-0.29
842.617	-0.55
842.787	1.44
842.956	-1.28
843.125	-0.25
843.294	0.9
843.464	0.13
843.633	-0.33
843.802	-0.87
843.971	-0.45
844.14	0.97
844.309	0.81
844.479	-2.29
844.648	-1.28
844.817	-0.73
844.986	-0.69
845.155	-0.32
845.324	-0.44
845.493	-0.65
845.662	-1.34
845.831	-0.14
846	0.31
846.169	0.24
846.338	1.49
846.507	-0.1
846.676	-0.33
846.844	-0.37
847.013	1.01
847.182	0.15
847.351	0.37
847.52	-0.21
847.689	-0.21
847.858	-0.21
848.026	-0.66
848.195	0.27
848.364	-0.62
848.533	-0.68
848.701	-0.18
848.87	0.29
849.039	0.62
849.207	0.93
849.376	1.09
849.545	0.52
849.713	-1
849.882	0.02
850.051	-0.25
850.219	0.34
850.388	0.09
850.556	-1.51
850.725	-1.03
850.893	0.46
851.062	-0.84
851.23	0.3
851.399	-1.48
851.567	-0.59
851.736	-0.54
851.904	-0.59
852.073	-0.17
852.241	1.14
852.41	0.17
852.578	-0.25
852.746	-0.61
852.915	0.1
853.083	0.55
853.251	-0.84
853.42	-0.55
853.588	-0.1
853.756	1.26
853.924	-0.43
854.093	0.01
854.261	-0.5
854.429	-1.45
854.597	0.85
854.765	-2.05
854.934	0.35
855.102	0.95
855.27	-0.59
855.438	-0.06
855.606	1.65
855.774	1.18
855.942	-1.43
856.11	-2.34
856.278	0.25
856.446	0.63
856.614	0.24
856.782	-1.02
856.95	1.55
857.118	1
857.286	0.05
857.454	-2.38
857.622	-0.13
857.79	-0.03
857.958	-1.11
858.126	-0.58
858.294	-2.21
858.462	0.02
858.629	-0.52
858.797	-0.34
858.965	-0.44
859.133	-0.58
859.301	-0.89
859.468	0.61
859.636	-1.05
859.804	2.1
859.971	-0.31
860.139	-0.79
860.307	0.8
860.474	-0.18
860.642	-0.62
860.81	-0.44
860.977	0.04
861.145	0.28
861.313	0.22
861.48	0.57
861.648	2.18
861.815	-0.24
861.983	-1.25
862.15	-1.08
862.318	0.29
862.485	-0.18
862.653	-0.93
862.82	-1.83
862.988	0.8
863.155	1.41
863.322	-1.48
863.49	-2.58
863.657	-1.18
863.824	2
863.992	0.45
864.159	1.07
864.326	0.72
864.494	-0.06
864.661	2.19
864.828	-0.4
864.996	2.23
865.163	1.84
865.33	-1.02
865.497	-2.91
865.664	-1.35
865.832	-3.37
865.999	0.34
866.166	-0.9
866.333	1.02
866.5	0.2
866.667	-0.93
866.834	-1.19
867.001	0.83
867.168	-2.54
867.335	-0.68
867.502	-2.05
867.669	-0.69
867.836	2.26
868.003	-0.01
868.17	-0.55
868.337	-1.3
868.504	1.52
868.671	-3.18
868.838	0.13
869.005	0.24
869.172	0.67
869.339	-0.25
869.505	0.15
869.672	-2.51
869.839	1.88
870.006	-0.01
870.173	-0.85
870.339	-0.07
870.506	1.27
870.673	-1.39
870.84	-0.04
871.006	-1.77
871.173	-1.27
871.34	-1.37
871.506	-1.37
871.673	0.43
871.839	-2.9
872.006	-0.63
872.173	-0.85
872.339	-0.34
872.506	1.94
872.672	0.11
872.839	-3.07
873.005	0.14
873.172	3.77
873.338	0.61
873.505	0.59
873.671	0.51
873.838	0.36
874.004	-1.25
874.171	-2.06
874.337	-1.12
874.503	-0.44
874.67	-0.06
874.836	-0.86
875.002	2.27
875.169	2.68
875.335	0.84
875.501	-0.87
875.668	1.78
875.834	0.68
876	-1.43
876.166	2.69
876.332	0.22
876.499	1.74
876.665	-0.74
876.831	0.77
876.997	3.76
877.163	0.39
877.329	-3.58
877.495	-0.45
877.662	0.54
877.828	-0.38
877.994	-0.93
878.16	-2.88
878.326	-0.57
878.492	1.6
878.658	-1.38
878.824	-0.7
878.99	1.53
879.156	-0.31
879.322	3.2
879.487	-2.5
879.653	-0.35
879.819	0.25
879.985	-1.33
880.151	1.18
880.317	1.56
880.483	-0.97
880.648	0.85
880.814	-3.69
880.98	1.54
881.146	-3.22
881.312	-1.08
881.477	0.85
881.643	1.55
881.809	1.31
881.974	2.45
882.14	-1.25
882.306	0.48
882.471	1.27
882.637	-0.97
882.803	0.53
882.968	2.23
883.134	2.55
883.299	0.75
883.465	-0.52
883.63	0.45
883.796	1.09
883.961	-0.26
884.127	0.86
884.292	-4.82
884.458	-2.38
884.623	-2.37
