Data from Apollo_Calib_20240827__AbsoluteIrradiance__90__00-39-01-664.txt Node

Date: Wed Aug 28 00:39:01 BST 2024
User: biology
Spectrometer: FLMT08252
Trigger mode: 0
Integration Time (sec): 5.000000E-1
Scans to average: 5
Electric dark correction enabled: true
Nonlinearity correction enabled: false
Boxcar width: 0
XAxis mode: Wavelengths
Number of Pixels in Spectrum: 3648
>>>>>Begin Spectral Data<<<<<
179.588	-0
179.809	-0
180.03	-0
180.251	-0
180.473	-0
180.694	0
180.915	0
181.136	-0
181.357	0
181.578	0
181.799	0
182.02	-0
182.241	-0
182.462	-0
182.683	0
182.904	-0
183.125	-0
183.346	0
183.567	-0
183.788	-0
184.009	-0
184.23	-0
184.451	0
184.672	-0
184.892	-0
185.113	0
185.334	0
185.555	-0
185.776	-0
185.996	0
186.217	0
186.438	0
186.659	-0
186.879	-0
187.1	-0
187.321	-0
187.541	-0
187.762	-0
187.983	0
188.203	-0
188.424	0
188.644	0
188.865	0
189.086	-0
189.306	-0
189.527	-0
189.747	0
189.968	-0
190.188	0
190.409	0
190.629	0
190.849	-0
191.07	-0
191.29	0
191.511	0
191.731	-0
191.951	-0
192.172	-0
192.392	-0
192.612	0
192.833	-0
193.053	0
193.273	0
193.493	-0
193.714	-0
193.934	0
194.154	0
194.374	-0
194.594	-0
194.815	0
195.035	0
195.255	-0
195.475	0
195.695	0
195.915	0
196.135	-0
196.355	0
196.575	0
196.795	0
197.015	-0
197.235	-0
197.455	-0
197.675	0
197.895	-0
198.115	-0
198.335	0
198.555	-0
198.775	0
198.995	0
199.214	0
199.434	-0
199.654	-0
199.874	-0
200.094	0.44
200.313	0.06
200.533	-0.22
200.753	-0.64
200.973	0.78
201.192	0.39
201.412	-1.03
201.632	-0.08
201.851	1.13
202.071	-0.33
202.291	-0.21
202.51	-1.04
202.73	0.11
202.95	-0.28
203.169	-0.33
203.389	0.1
203.608	-0.06
203.828	-0.45
204.047	-0.28
204.267	0.23
204.486	-0.12
204.706	0.13
204.925	-0.2
205.145	-0.32
205.364	0.81
205.583	0.12
205.803	-0.09
206.022	-0.36
206.242	-0.05
206.461	0.19
206.68	-0.28
206.9	0.06
207.119	0.03
207.338	0.44
207.557	-0.03
207.777	0.24
207.996	-0.15
208.215	0.39
208.434	-0.04
208.654	-0.41
208.873	-0.15
209.092	0.4
209.311	0.03
209.53	-0.05
209.749	-0.32
209.968	-0.19
210.187	-0.28
210.407	-0.48
210.626	-0.15
210.845	0.02
211.064	0.09
211.283	-0.42
211.502	0.35
211.721	0.05
211.94	-0.24
212.159	0.37
212.377	0.07
212.596	0.36
212.815	0.11
213.034	0.19
213.253	0.21
213.472	0.29
213.691	-0.12
213.91	-0.17
214.128	-0.15
214.347	0.46
214.566	-0.22
214.785	-0.2
215.003	-0.03
215.222	0.24
215.441	-0.07
215.66	-0.27
215.878	0.12
216.097	0.2
216.316	-0.05
216.534	-0.23
216.753	-0.19
216.972	0.02
217.19	-0.09
217.409	-0.05
217.627	-0.06
217.846	-0.1
218.064	0.07
218.283	-0.13
218.501	0.45
218.72	0.24
218.938	-0.21
219.157	-0.05
219.375	0.12
219.594	0.22
219.812	-0.25
220.031	-0.03
220.249	0.18
220.467	0.22
220.686	0.06
220.904	-0.16
221.122	-0.09
221.341	0.33
221.559	0.03
221.777	-0.12
221.995	0.04
222.214	0.07
222.432	-0.12
222.65	0.05
222.868	-0.04
223.086	0.16
223.305	0.16
223.523	0.01
223.741	0.14
223.959	-0.07
224.177	-0.15
224.395	-0.05
224.613	0.08
224.831	0.16
225.049	-0.05
225.267	-0.05
225.485	0.06
225.703	-0.15
225.921	-0.03
226.139	-0.12
226.357	0.14
226.575	0.02
226.793	-0.11
227.011	0.38
227.229	-0.05
227.447	0.16
227.665	-0.06
227.883	-0.21
228.1	-0.05
228.318	-0.06
228.536	-0.19
228.754	-0.14
228.972	0.08
229.189	0.1
229.407	-0.09
229.625	-0.06
229.843	0.1
230.06	0.03
230.278	-0.04
230.496	0.1
230.713	0.06
230.931	0.14
231.149	-0.04
231.366	-0.3
231.584	-0.05
231.801	0.37
232.019	-0.04
232.236	-0.11
232.454	-0.09
232.671	0.12
232.889	-0.02
233.106	-0.12
233.324	-0.06
233.541	-0.12
233.759	0.03
233.976	0.02
234.194	-0.02
234.411	-0.01
234.628	-0.02
234.846	0
235.063	-0.03
235.28	-0.1
235.498	-0.09
235.715	-0.06
235.932	0.04
236.149	-0.02
236.367	-0.07
236.584	0
236.801	0.03
237.018	0.13
237.236	0.02
237.453	-0.1
237.67	0.03
237.887	-0.04
238.104	-0.01
238.321	-0.17
238.538	-0.15
238.755	0.1
238.973	-0.24
239.19	-0.01
239.407	0
239.624	0.01
239.841	-0.13
240.058	-0.04
240.275	-0.02
240.492	-0.04
240.709	0.04
240.925	-0.07
241.142	0.09
241.359	-0.11
241.576	-0.12
241.793	-0.05
242.01	-0.08
242.227	0.05
242.444	0.03
242.66	0.1
242.877	0.06
243.094	-0.1
243.311	0.13
243.527	0
243.744	0.03
243.961	0.04
244.178	-0.02
244.394	0.07
244.611	0.14
244.828	0.08
245.044	-0.08
245.261	-0.04
245.477	0.04
245.694	-0.11
245.911	0.03
246.127	0.11
246.344	0.14
246.56	-0.01
246.777	0
246.993	0.04
247.21	0.01
247.426	0.12
247.643	-0.05
247.859	-0.11
248.076	0
248.292	0.19
248.508	-0.08
248.725	0.07
248.941	0.06
249.157	0.12
249.374	-0.02
249.59	0.01
249.806	-0.01
250.023	-0.01
250.239	-0.04
250.455	-0.13
250.671	-0.03
250.888	0.08
251.104	0.02
251.32	-0.03
251.536	-0.05
251.752	-0.09
251.969	0.04
252.185	0.07
252.401	0.13
252.617	0.06
252.833	-0.09
253.049	-0.03
253.265	0.04
253.481	0.05
253.697	-0.03
253.913	-0.12
254.129	-0.01
254.345	0.09
254.561	-0.02
254.777	-0
254.993	0.13
255.209	0.07
255.425	0.02
255.641	-0.02
255.857	0.06
256.073	0.06
256.288	-0.04
256.504	0.01
256.72	0
256.936	0.07
257.152	-0.01
257.367	-0.15
257.583	-0.04
257.799	-0.03
258.015	-0.08
258.23	-0.04
258.446	0.13
258.662	-0.02
258.877	-0.1
259.093	-0.07
259.309	0.04
259.524	0.02
259.74	-0.04
259.955	-0.13
260.171	-0.04
260.387	-0.02
260.602	0.06
260.818	0.06
261.033	-0.1
261.249	-0.02
261.464	-0.04
261.68	-0.07
261.895	0.07
262.11	0.1
262.326	-0.01
262.541	-0.1
262.757	0.08
262.972	0.06
263.187	0.02
263.403	-0
263.618	0.04
263.833	0.01
264.049	-0.07
264.264	0.04
264.479	0.01
264.694	0.08
264.91	-0.12
265.125	0.02
265.34	0.03
265.555	0.2
265.77	0.03
265.986	-0.01
266.201	0.02
266.416	0.1
266.631	-0
266.846	0.03
267.061	0.06
267.276	0.02
267.491	-0.13
267.706	0.05
267.921	0.03
268.136	0.03
268.351	0.05
268.566	-0.08
268.781	0.08
268.996	0.04
269.211	-0.02
269.426	-0.03
269.641	-0.02
269.856	0.04
270.071	-0.02
270.285	-0.13
270.5	0.1
270.715	0.09
270.93	-0.02
271.145	0.03
271.359	0.04
271.574	-0.05
271.789	-0.03
272.004	-0.06
272.218	-0
272.433	0.07
272.648	-0
272.862	0.03
273.077	0
273.292	0.06
273.506	-0.03
273.721	-0.01
273.936	-0.02
274.15	0.03
274.365	-0.01
274.579	0.01
274.794	0.03
275.008	0.09
275.223	-0.04
275.437	0.06
275.652	0.04
275.866	0.03
276.081	0.02
276.295	0.07
276.509	0.04
276.724	0.06
276.938	-0.04
277.153	0.04
277.367	0.06
277.581	0.01
277.796	-0.03
278.01	0.01
278.224	0.01
278.438	0.12
278.653	-0.03
278.867	-0.01
279.081	0.02
279.295	0.02
279.51	0.06
279.724	-0.07
279.938	-0.01
280.152	0.04
280.366	-0.06
280.58	-0.01
280.794	0.1
281.008	0.03
281.222	0.05
281.437	0.12
281.651	-0.01
281.865	0.13
282.079	-0.03
282.293	-0.08
282.507	-0.05
282.721	0.01
282.935	-0.01
283.148	-0.1
283.362	-0.04
283.576	-0.06
283.79	0.03
284.004	-0.04
284.218	0.07
284.432	-0
284.646	-0
284.859	-0.02
285.073	0
285.287	0.02
285.501	-0.01
285.714	0.01
285.928	0
286.142	0.02
286.356	-0.09
286.569	0
286.783	0.06
286.997	0.04
287.21	0.03
287.424	0.03
287.637	-0
287.851	-0.07
288.065	0.07
288.278	0
288.492	0.01
288.705	0.01
288.919	0.02
289.132	-0.1
289.346	0.09
289.559	-0.07
289.773	-0.07
289.986	-0.04
290.2	-0.01
290.413	0.03
290.626	-0.06
290.84	-0.03
291.053	-0.01
291.267	0.07
291.48	0.03
291.693	0.01
291.906	-0.04
292.12	0.02
292.333	-0.06
292.546	-0.05
292.76	0.05
292.973	0.09
293.186	0.03
293.399	0.01
293.612	0.05
293.826	-0.04
294.039	-0.01
294.252	0.01
294.465	0.02
294.678	0.03
294.891	-0
295.104	-0.05
295.317	-0.01
295.53	-0
295.743	-0.06
295.956	-0
296.169	0.08
296.382	0.1
296.595	0.01
296.808	-0.01
297.021	0.09
297.234	0.04
297.447	-0.03
297.66	0.04
297.873	0.07
298.086	-0.01
298.299	-0.05
298.511	-0.04
298.724	0.03
298.937	-0.07
299.15	-0.02
299.363	0
299.575	0.01
299.788	0.01
300.001	0.02
300.213	0
300.426	-0.01
300.639	-0.02
300.852	-0.04
301.064	0.04
301.277	0.06
301.489	0.04
301.702	0.06
301.915	0.04
302.127	-0
302.34	-0.01
302.552	0.05
302.765	-0.03
302.977	-0
303.19	-0.01
303.402	-0.01
303.615	0
303.827	-0.02
304.04	-0.01
304.252	0.05
304.464	-0.03
304.677	0.11
304.889	0.05
305.102	-0.01
305.314	0.01
305.526	0.06
305.739	0.01
305.951	0
306.163	-0.01
306.375	0.06
306.588	0.01
306.8	-0.03
307.012	-0.04
307.224	-0
307.436	0.02
307.649	-0.05
307.861	0.04
308.073	0.06
308.285	0
308.497	-0.03
308.709	-0.04
308.921	0.04
309.133	0.03
309.346	0.03
309.558	0.02
309.77	0.03
309.982	0.07
310.194	0.04
310.406	0
310.617	0.04
310.829	0.01
311.041	0.03
311.253	-0.08
311.465	0
311.677	0.01
311.889	0.01
312.101	-0.01
312.313	0.03
312.524	-0.01
312.736	-0.04
312.948	-0.02
313.16	0.09
313.372	0.03
313.583	0.05
313.795	-0.03
314.007	-0.02
314.218	0.05
314.43	0.02
314.642	-0.06
314.853	-0.03
315.065	0.04
315.277	-0.01
315.488	-0.01
315.7	0.03
315.912	-0.01
316.123	0.04
316.335	0.04
316.546	0.1
316.758	-0.02
316.969	-0.02
317.181	0.02
317.392	0.01
317.604	0.08
317.815	-0.04
318.026	-0.06
318.238	-0.06
318.449	0.05
318.661	-0.06
318.872	-0.02
319.083	-0.03
319.295	0.04
319.506	-0.03
319.717	0.04
319.929	0.04
320.14	0.01
320.351	-0
320.562	-0.01
320.774	0.04
320.985	0.03
321.196	0
321.407	-0.03
321.618	-0
321.829	0.04
322.041	0.05
322.252	0
322.463	0.01
322.674	0.01
322.885	-0.02
323.096	-0.01
323.307	-0.01
323.518	0.04
323.729	-0.05
323.94	0.02
324.151	-0.01
324.362	0.06
324.573	0.05
324.784	-0.01
324.995	0.04
325.206	0.02
325.417	0.01
325.628	0.05
325.838	-0.03
326.049	0.03
326.26	0
326.471	-0.02
326.682	0.06
326.892	-0.02
327.103	-0.01
327.314	-0.04
327.525	0.03
327.735	0.01
327.946	-0.02
328.157	-0.01
328.368	0.03
328.578	0.02
328.789	0.08
328.999	0
329.21	-0.03
329.421	0.04
329.631	0
329.842	-0.02
330.052	0.06
330.263	0.05
330.473	0.03
330.684	0.03
330.894	-0
331.105	-0
331.315	-0
331.526	-0.04
331.736	0.1
331.947	0.02
332.157	-0.01
332.367	-0
332.578	0.06
332.788	0.05
332.999	0.01
333.209	0.04
333.419	-0.01
333.629	0.04
333.84	0.04
334.05	0
334.26	0.11
334.47	0.02
334.681	0.04
334.891	-0.02
335.101	0.02
335.311	0.08
335.521	0.01
335.732	0.01
335.942	0.08
336.152	0.06
336.362	0
336.572	0.05
336.782	0.02
336.992	0
337.202	-0.02
337.412	-0.03
337.622	-0.01
337.832	0.01
338.042	0
338.252	-0.05
338.462	0
338.672	-0
338.882	0.03
339.092	0
339.302	0.07
339.511	0.03
339.721	-0.02
339.931	-0.06
340.141	0.04
340.351	0.07
340.561	-0.02
340.77	0.03
340.98	0.01
341.19	0.01
341.4	-0.01
341.609	-0.07
341.819	-0.01
342.029	-0.02
342.238	0.01
342.448	-0.01
342.658	0.04
342.867	-0
343.077	0.04
343.286	0.04
343.496	0.04
343.706	0.05
343.915	-0.06
344.125	-0.01
344.334	0.04
344.544	-0.05
344.753	-0.02
344.963	-0
345.172	0
345.381	-0.05
345.591	0
345.8	0.02
346.01	0.05
346.219	0.04
346.428	-0.12
346.638	0.01
346.847	-0.01
347.056	0.06
347.266	-0.01
347.475	0.07
347.684	0.08
347.893	-0.02
348.103	0.04
348.312	0.02
348.521	0.02
348.73	0
348.94	0.02
349.149	-0.02
349.358	-0.05
349.567	0
349.776	-0.04
349.985	-0.01
350.194	0.03
350.403	0.06
350.612	-0.05
350.821	-0.02
351.03	0.03
351.239	-0.03
351.448	-0.01
351.657	-0.01
351.866	0.07
352.075	0.03
352.284	0.06
352.493	0.01
352.702	0.05
352.911	0.02
353.12	0.04
353.329	0.03
353.538	0.06
353.746	0.01
353.955	-0.02
354.164	0.02
354.373	0
354.582	0.04
354.79	0.02
354.999	0.04
355.208	0.03
355.416	0.06
355.625	-0.06
355.834	-0.03
356.042	0.02
356.251	0.02
356.46	-0.02
356.668	0.03
356.877	0.09
357.085	0.04
357.294	-0.09
357.503	0.04
357.711	-0.03
357.92	0.11
358.128	0
358.337	0.02
358.545	0.05
358.754	0.02
358.962	0.07
359.17	0.02
359.379	0.04
359.587	0.06
359.796	0.01
360.004	0.08
360.212	0.06
360.421	0.04
360.629	-0.04
360.837	-0.02
361.046	0.05
361.254	0.07
361.462	0.01
361.67	-0
361.879	0.05
362.087	0.05
362.295	0.02
362.503	0.02
362.711	-0.03
362.92	-0.03
363.128	-0.02
363.336	-0.04
363.544	-0.02
363.752	0.01
363.96	-0.03
364.168	-0.04
364.376	-0.01
364.584	0.02
364.792	0
365	0.04
365.208	0
365.416	0.04
365.624	0.07
365.832	0
366.04	0.08
366.248	0.07
366.456	0.03
366.664	0.05
366.872	0.05
367.079	0.04
367.287	0.05
367.495	0.02
367.703	0.04
367.911	0.02
368.118	0.06
368.326	0.04
368.534	0.03
368.742	0.13
368.949	0.02
369.157	0.06
369.365	0.11
369.572	0.02
369.78	0.06
369.988	0.15
370.195	0.1
370.403	0.13
370.61	0.11
370.818	0.18
371.026	0.17
371.233	0.13
371.441	0.21
371.648	0.14
371.856	0.22
372.063	0.23
372.271	0.19
372.478	0.19
372.685	0.21
372.893	0.32
373.1	0.23
373.308	0.29
373.515	0.39
373.722	0.34
373.93	0.35
374.137	0.38
374.344	0.45
374.552	0.4
374.759	0.48
374.966	0.44
375.173	0.46
375.381	0.53
375.588	0.5
375.795	0.5
376.002	0.53
376.209	0.56
376.417	0.63
376.624	0.7
376.831	0.72
377.038	0.69
377.245	0.67
377.452	0.79
377.659	0.89
377.866	0.88
378.073	0.99
378.28	0.96
378.487	1.09
378.694	1.14
378.901	1.16
379.108	1.2
379.315	1.3
379.522	1.39
379.729	1.32
379.936	1.41
380.143	1.42
380.35	1.57
380.557	1.61
380.763	1.67
380.97	1.7
381.177	1.77
381.384	1.84
381.591	1.89
381.797	1.86
382.004	1.91
382.211	2.03
382.418	2
382.624	2.04
382.831	1.99
383.038	2.02
383.244	1.96
383.451	1.93
383.658	1.91
383.864	1.96
384.071	1.81
384.277	1.92
384.484	1.74
384.69	1.78
384.897	1.63
385.103	1.63
385.31	1.51
385.516	1.52
385.723	1.41
385.929	1.41
386.136	1.27
386.342	1.28
386.549	1.2
386.755	1.17
386.961	1.16
387.168	1.07
387.374	1.03
387.58	1.04
387.787	0.93
387.993	0.9
388.199	0.84
388.406	0.81
388.612	0.74
388.818	0.73
389.024	0.69
389.231	0.7
389.437	0.73
389.643	0.71
389.849	0.63
390.055	0.6
390.261	0.63
390.467	0.58
390.674	0.55
390.88	0.56
391.086	0.59
391.292	0.51
391.498	0.53
391.704	0.49
391.91	0.47
392.116	0.44
392.322	0.4
392.528	0.46
392.734	0.46
392.94	0.4
393.146	0.38
393.352	0.36
393.557	0.39
393.763	0.36
393.969	0.38
394.175	0.32
394.381	0.32
394.587	0.29
394.792	0.3
394.998	0.34
395.204	0.36
395.41	0.25
395.615	0.27
395.821	0.27
396.027	0.27
396.233	0.21
396.438	0.23
396.644	0.29
396.85	0.24
397.055	0.21
397.261	0.23
397.466	0.18
397.672	0.19
397.878	0.25
398.083	0.17
398.289	0.14
398.494	0.2
398.7	0.2
398.905	0.1
399.111	0.18
399.316	0.12
399.522	0.18
399.727	0.15
399.932	0.11
400.138	0.14
400.343	0.22
400.549	0.14
400.754	0.1
400.959	0.11
401.165	0.12
401.37	0.12
401.575	0.21
401.78	0.13
401.986	0.07
402.191	0.11
402.396	0.08
402.601	0.1
402.807	0.15
403.012	0.08
403.217	0.16
403.422	0.08
403.627	0.06
403.832	0.06
404.037	0.17
404.243	0.12
404.448	0.07
404.653	0.08
404.858	0.09
405.063	0.12
405.268	0.07
405.473	0
405.678	0.01
405.883	0.2
406.088	0.08
406.293	0.03
406.498	0.06
406.703	0.07
406.907	0.06
407.112	0.02
407.317	0.05
407.522	0.12
407.727	0.01
407.932	0.08
408.136	0.11
408.341	0.05
408.546	0.07
408.751	0.06
408.956	0.02
409.16	0.09
409.365	0.09
409.57	0.03
409.774	0.06
409.979	0.1
410.184	0.07
410.388	0.02
410.593	0.09
410.798	0
411.002	0.05
411.207	0.07
411.411	0.04
411.616	0.05
411.82	0.05
412.025	0.03
412.229	0.02
412.434	0.11
412.638	0.06
412.843	0.01
413.047	0.07
413.252	-0.01
413.456	-0.01
413.66	0.09
413.865	0.02
414.069	0.13
414.273	0.01
414.478	0.02
414.682	0.01
414.886	0.02
415.091	-0.02
415.295	-0.06
415.499	-0.01
415.703	-0
415.908	0.04
416.112	-0.06
416.316	0.08
416.52	0.05
416.724	-0.04
416.929	0.01
417.133	0.14
417.337	0.01
417.541	-0
417.745	0.03
417.949	0.08
418.153	0.07
418.357	-0.06
418.561	0.13
418.765	-0.02
418.969	0.17
419.173	0.06
419.377	-0
419.581	0.12
419.785	-0.02
419.989	-0.02
420.193	-0.01
420.397	0.01
420.601	0.1
420.804	0.04
421.008	0.03
421.212	0.01
421.416	0.09
421.62	-0.02
421.823	0.06
422.027	0.09
422.231	0.01
422.435	0.03
422.638	0.06
422.842	0.03
423.046	-0.02
423.249	0.06
423.453	0.06
423.657	-0
423.86	-0
424.064	0.02
424.268	0.08
424.471	0.05
424.675	0.07
424.878	0.14
425.082	0.04
425.285	0.01
425.489	0.05
425.692	0.04
425.896	-0.02
426.099	0.06
426.303	-0
426.506	-0.02
426.71	0.05
426.913	0.06
427.116	0.14
427.32	0.05
427.523	0.02
427.726	0.13
427.93	0.01
428.133	0.06
428.336	-0.02
428.54	-0.01
428.743	0.05
428.946	0.06
429.149	0
429.353	0.05
429.556	0.04
429.759	0.04
429.962	-0.03
430.165	0.03
430.368	0.01
430.571	-0.02
430.775	0.03
430.978	0.04
431.181	-0.01
431.384	0.07
431.587	0.01
431.79	0.06
431.993	-0.04
432.196	0.03
432.399	0.02
432.602	0.12
432.805	0.03
433.008	0.03
433.211	0.01
433.414	0.06
433.616	0.1
433.819	0.01
434.022	-0.07
434.225	0.09
434.428	0.11
434.631	0.15
434.833	0.04
435.036	0.04
435.239	0.09
435.442	0.07
435.645	0.04
435.847	0.05
436.05	0.03
436.253	0.07
436.455	0.03
436.658	0
436.861	0.14
437.063	0.04
437.266	0.04
437.468	0.09
437.671	0.12
437.874	0.05
438.076	-0.02
438.279	-0.03
438.481	0.06
438.684	0.01
438.886	0.1
439.089	0.03
439.291	0.04
439.494	0.07
439.696	0.03
439.899	0.05
440.101	0.05
440.303	-0
440.506	0.07
440.708	0.05
440.91	0.09
441.113	0.03
441.315	0.07
441.517	-0.01
441.72	0.09
441.922	-0
442.124	0.01
442.326	0.09
442.529	0.08
442.731	0.04
442.933	0.16
443.135	0.07
443.337	0.04
443.539	0.04
443.742	0.02
443.944	0.07
444.146	0.03
444.348	0.04
444.55	0.03
444.752	0.07
444.954	0.01
445.156	0.07
445.358	0.01
445.56	0.19
445.762	0.05
445.964	0.11
446.166	0.04
446.368	0.05
446.57	0.14
446.772	0.08
446.974	0.06
447.175	0.1
447.377	0.06
447.579	0.04
447.781	-0.06
447.983	0.14
448.184	0.07
448.386	0.05
448.588	0.02
448.79	0.08
448.991	0.05
449.193	0.07
449.395	0.07
449.597	0.09
449.798	0.12
450	0.1
450.202	0.04
450.403	0.09
450.605	0.09
450.806	0.1
451.008	-0
451.21	0.09
451.411	0.09
451.613	0.09
451.814	0.07
452.016	0.1
452.217	0.1
452.419	0.11
452.62	0.09
452.821	0.1
453.023	0.1
453.224	0.13
453.426	0.07
453.627	0.11
453.828	0.07
454.03	0.05
454.231	0.14
454.432	0.03
454.634	0.1
454.835	0.03
455.036	0.02
455.238	0.12
455.439	0.16
455.64	0.01
455.841	-0
456.042	0.19
456.244	0.05
456.445	0.04
456.646	0.02
456.847	0.02
457.048	0.12
457.249	0.09
457.45	0.25
457.651	-0
457.852	0.07
458.054	0.06
458.255	0.03
458.456	0.03
458.657	0.04
458.858	-0.06
459.058	0.06
459.259	0.05
459.46	0.04
459.661	0.05
459.862	0.12
460.063	0.02
460.264	0.08
460.465	-0.04
460.666	0.12
460.866	0.02
461.067	0.03
461.268	-0
461.469	0.01
461.67	0.02
461.87	0.04
462.071	0.05
462.272	-0
462.473	0.03
462.673	0.05
462.874	-0
463.075	0.04
463.275	0
463.476	0.06
463.676	0.03
463.877	0.03
464.078	0.03
464.278	0.07
464.479	0.04
464.679	0.08
464.88	0.06
465.08	0.06
465.281	0.01
465.481	0.02
465.682	-0.02
465.882	0.07
466.083	0.05
466.283	0.03
466.483	0.02
466.684	-0.03
466.884	0.01
467.085	0.05
467.285	0.09
467.485	-0.01
467.686	0.02
467.886	-0.08
468.086	0.04
468.286	0.03
468.487	0.04
468.687	-0.02
468.887	0.04
469.087	0.06
469.287	0.01
469.488	-0.06
469.688	0.07
469.888	0.08
470.088	0.02
470.288	0.07
470.488	0.09
470.688	0
470.888	0.01
471.088	0.01
471.288	0.08
471.488	0
471.688	0.06
471.888	-0.01
472.088	0.07
472.288	0.03
472.488	0
472.688	0.01
472.888	0.02
473.088	-0.01
473.288	0.02
473.488	0.03
473.688	0.06
473.887	0.02
474.087	-0.02
474.287	0
474.487	-0.01
474.687	0.06
474.886	0.02
475.086	0
475.286	0.01
475.486	-0.02
475.685	-0
475.885	0.01
476.085	-0.01
476.284	0.05
476.484	0.02
476.684	0.04
476.883	0.08
477.083	0.02
477.282	-0.01
477.482	0.06
477.681	0.06
477.881	0.03
478.08	-0.02
478.28	0.01
478.479	0.06
478.679	0.07
478.878	0.02
479.078	-0.03
479.277	0.01
479.477	0
479.676	0.04
479.875	0.03
480.075	-0.06
480.274	0.05
480.473	0.03
480.673	0
480.872	0.05
481.071	0.05
481.271	0.02
481.47	-0.02
481.669	0.01
481.868	-0.03
482.067	-0.01
482.267	-0.01
482.466	-0.02
482.665	-0.03
482.864	-0.01
483.063	-0.03
483.262	0.01
483.461	0.06
483.661	0.05
483.86	-0.02
484.059	0.01
484.258	0.02
484.457	0.01
484.656	0.01
484.855	0.03
485.054	-0.03
485.253	-0.02
485.452	-0.04
485.651	0
485.849	0.01
486.048	-0.02
486.247	-0.01
486.446	-0.01
486.645	-0.03
486.844	-0.01
487.043	-0.01
487.241	0.02
487.44	-0.02
487.639	-0.01
487.838	0.03
488.037	0.03
488.235	0.05
488.434	0.04
488.633	0.01
488.831	0.01
489.03	0.03
489.229	0.01
489.427	0.01
489.626	0.07
489.825	0.04
490.023	0.01
490.222	-0.01
490.42	0.04
490.619	0.04
490.817	0.01
491.016	0.01
491.214	0.02
491.413	0.03
491.611	0.01
491.81	0
492.008	0.04
492.207	0.01
492.405	0.03
492.604	-0.03
492.802	0.01
493	0.02
493.199	-0
493.397	0.03
493.595	0.01
493.794	-0.02
493.992	0.06
494.19	0.02
494.388	0.04
494.587	-0.01
494.785	0.02
494.983	-0.02
495.181	0
495.379	-0
495.578	-0.03
495.776	0.02
495.974	0.01
496.172	-0.02
496.37	-0
496.568	-0.04
496.766	0.01
496.964	0.03
497.162	0.01
497.36	0
497.558	0.02
497.756	0.02
497.954	0.02
498.152	-0.01
498.35	-0.02
498.548	-0.01
498.746	0
498.944	-0.02
499.142	0.03
499.34	-0.02
499.538	0.01
499.736	-0.01
499.933	0.04
500.131	0.03
500.329	-0
500.527	0.02
500.725	0.03
500.922	0.03
501.12	0
501.318	0.01
501.516	-0.01
501.713	0.02
501.911	-0.02
502.109	-0.02
502.306	0.03
502.504	0.01
502.701	-0.03
502.899	0
503.097	0.03
503.294	0.01
503.492	0
503.689	0.01
503.887	0.02
504.084	0.04
504.282	0.01
504.479	-0.03
504.677	0.01
504.874	-0.01
505.072	0.02
505.269	-0.01
505.466	0.04
505.664	0.03
505.861	-0.01
506.059	-0.02
506.256	0
506.453	-0.01
506.651	0.06
506.848	0.04
507.045	0
507.242	0.01
507.44	-0.01
507.637	0.01
507.834	0
508.031	0.02
508.229	-0.02
508.426	-0.01
508.623	0.02
508.82	-0.02
509.017	-0.02
509.214	-0.01
509.411	-0
509.608	-0.03
509.805	0.01
510.003	0.01
510.2	-0.01
510.397	0.01
510.594	-0.01
510.791	0
510.988	0.01
511.184	0.02
511.381	0.02
511.578	-0.02
511.775	0.03
511.972	-0
512.169	0.01
512.366	0.01
512.563	0.01
512.76	-0.02
512.956	0.02
513.153	-0
513.35	0.01
513.547	0.01
513.744	-0.03
513.94	-0.04
514.137	0.03
514.334	0
514.53	0.01
514.727	0.02
514.924	0.03
515.12	-0.01
515.317	-0.03
515.514	-0.02
515.71	-0.02
515.907	-0.02
516.103	0.01
516.3	0.02
516.497	0.03
516.693	0.02
516.89	-0.01
517.086	-0.03
517.283	0.01
517.479	0.01
517.676	0.02
517.872	-0.01
518.068	-0
518.265	-0.01
518.461	-0.02
518.658	-0.01
518.854	0.01
519.05	0.02
519.247	-0.01
519.443	0.02
519.639	0.03
519.836	0.03
520.032	-0.01
520.228	0.01
520.424	0.04
520.621	0.03
520.817	0.01
521.013	0.03
521.209	0.01
521.405	0.05
521.601	0.03
521.798	0.02
521.994	0.02
522.19	-0.01
522.386	-0.02
522.582	0.02
522.778	-0.02
522.974	-0.03
523.17	0.02
523.366	0.02
523.562	0.01
523.758	0.01
523.954	-0.01
524.15	-0
524.346	0.02
524.542	-0.02
524.738	-0
524.934	0
525.129	0
525.325	0.01
525.521	-0.02
525.717	0.02
525.913	-0.01
526.109	-0.01
526.304	0
526.5	0.01
526.696	0.03
526.892	-0.01
527.087	0.01
527.283	-0.02
527.479	0
527.674	-0.02
527.87	0.02
528.066	-0.01
528.261	0.05
528.457	0.01
528.653	-0.02
528.848	-0
529.044	-0.02
529.239	-0
529.435	0.03
529.63	-0
529.826	0.02
530.021	0.02
530.217	0.01
530.412	-0
530.608	-0.01
530.803	-0
530.999	0.01
531.194	-0.03
531.389	-0.01
531.585	-0.03
531.78	-0
531.975	-0.01
532.171	0.02
532.366	0
532.561	0.01
532.757	-0.02
532.952	0
533.147	0.01
533.342	0
533.538	0
533.733	0.03
533.928	0.01
534.123	-0.01
534.318	-0.02
534.513	-0
534.709	0.02
534.904	-0.02
535.099	-0.02
535.294	0.01
535.489	-0.01
535.684	-0.01
535.879	-0.02
536.074	0.02
536.269	-0
536.464	0.03
536.659	-0
536.854	-0.02
537.049	0.01
537.244	0.01
537.439	0.01
537.634	0.04
537.828	-0
538.023	-0.02
538.218	-0.04
538.413	-0.01
538.608	-0.03
538.803	0.01
538.997	-0.01
539.192	0.02
539.387	-0.01
539.582	0.01
539.776	0.02
539.971	-0.01
540.166	0.01
540.36	-0.02
540.555	-0.01
540.75	-0.03
540.944	0.01
541.139	-0.04
541.334	-0.02
541.528	0.01
541.723	0.01
541.917	-0.01
542.112	-0.03
542.306	-0
542.501	-0.02
542.695	0.02
542.89	0.01
543.084	0.01
543.279	0.02
543.473	-0.01
543.668	-0
543.862	0
544.056	0.02
544.251	-0
544.445	0.01
544.64	-0.01
544.834	-0.03
545.028	0.01
545.222	0.01
545.417	0.03
545.611	0.03
545.805	-0
546	0.01
546.194	0.01
546.388	-0.02
546.582	0.02
546.776	0.02
546.97	0
547.165	0.01
547.359	0.02
547.553	-0
547.747	0.01
547.941	0.02
548.135	0
548.329	0.02
548.523	0.03
548.717	-0.01
548.911	-0.01
549.105	-0
549.299	-0
549.493	0.01
549.687	0.01
549.881	0.02
550.075	0
550.269	-0.02
550.463	0.02
550.657	0
550.85	0.02
551.044	-0.02
551.238	0.01
551.432	-0.02
551.626	-0.03
551.82	0.02
552.013	-0
552.207	0.02
552.401	0.01
552.594	0
552.788	-0.01
552.982	-0
553.176	-0.02
553.369	0.03
553.563	0.02
553.756	-0.01
553.95	-0.03
554.144	-0.01
554.337	0.02
554.531	-0
554.724	-0
554.918	0.01
555.111	0.03
555.305	-0.01
555.498	0.05
555.692	0.04
555.885	-0.02
556.079	0.02
556.272	-0.01
556.466	0.02
556.659	0.02
556.852	-0.01
557.046	-0
557.239	0.01
557.432	-0.03
557.626	-0.01
557.819	0.02
558.012	0.01
558.206	0.02
558.399	0.02
558.592	0
558.785	0
558.979	0.05
559.172	0.01
559.365	0
559.558	0.01
559.751	-0
559.944	0.02
560.138	-0
560.331	0.02
560.524	-0.01
560.717	-0
560.91	0.01
561.103	0.02
561.296	0.02
561.489	0.02
561.682	0.02
561.875	0.03
562.068	0.01
562.261	-0
562.454	0.04
562.647	0.01
562.84	0.02
563.032	0.02
563.225	0.02
563.418	0.01
563.611	-0.03
563.804	0.02
563.997	-0.01
564.19	-0.05
564.382	0.01
564.575	0.01
564.768	-0
564.961	0
565.153	-0.01
565.346	0.02
565.539	0.01
565.731	0.03
565.924	0.04
566.117	0.03
566.309	0
566.502	0
566.695	0.01
566.887	0.01
567.08	-0.01
567.272	-0.01
567.465	-0.02
567.657	0.01
567.85	0.01
568.042	0
568.235	0.05
568.427	0.01
568.62	0.01
568.812	0.03
569.005	-0.01
569.197	-0.02
569.389	0.02
569.582	0.03
569.774	0.01
569.966	-0.01
570.159	-0.04
570.351	0.01
570.543	-0.02
570.736	-0.01
570.928	-0.02
571.12	0.01
571.312	-0
571.505	-0.01
571.697	0.03
571.889	-0.02
572.081	0.01
572.273	-0.03
572.465	0.04
572.658	-0.02
572.85	0.01
573.042	-0.02
573.234	-0
573.426	0.03
573.618	-0.03
573.81	0.01
574.002	0.04
574.194	0.05
574.386	-0.03
574.578	-0.06
574.77	-0.03
574.962	0
575.154	-0.04
575.346	-0.02
575.538	0.03
575.729	-0.01
575.921	-0.02
576.113	-0.01
576.305	0.03
576.497	0.01
576.689	0
576.88	-0.03
577.072	0.04
577.264	-0
577.456	-0
577.647	-0.05
577.839	0
578.031	0.04
578.223	-0
578.414	-0.03
578.606	0.01
578.798	0.02
578.989	-0.02
579.181	-0
579.372	-0
579.564	-0
579.755	0
579.947	0
580.139	0.01
580.33	-0.05
580.522	-0.01
580.713	-0.05
580.905	-0.01
581.096	0.01
581.287	-0.01
581.479	-0.01
581.67	0.01
581.862	0
582.053	-0.01
582.244	-0.04
582.436	0.01
582.627	0.01
582.818	-0.01
583.01	-0.04
583.201	0.05
583.392	0.02
583.583	0.02
583.775	-0.01
583.966	-0.02
584.157	0.01
584.348	-0.01
584.54	-0.03
584.731	0.02
584.922	0.02
585.113	-0.02
585.304	0.03
585.495	0.03
585.686	0.02
585.877	0
586.068	0.01
586.259	-0.01
586.45	-0.01
586.641	-0.01
586.832	-0.05
587.023	0.03
587.214	-0.01
587.405	-0
587.596	-0.02
587.787	0.01
587.978	0.03
588.169	-0.02
588.36	-0.02
588.551	0.02
588.742	-0.01
588.932	0.01
589.123	0
589.314	0.03
589.505	0.01
589.696	0.01
589.886	-0.02
590.077	-0.04
590.268	-0.01
590.458	-0.04
590.649	-0.04
590.84	0.02
591.03	-0.02
591.221	-0.04
591.412	-0.04
591.602	0
591.793	0.02
591.984	-0.05
592.174	-0.02
592.365	0.05
592.555	-0.03
592.746	0.02
592.936	-0
593.127	0.02
593.317	0.03
593.508	-0.04
593.698	0
593.889	0
594.079	0
594.269	-0.02
594.46	0
594.65	-0.01
594.84	-0.02
595.031	-0.03
595.221	0.02
595.411	-0.03
595.602	0.02
595.792	0
595.982	-0.01
596.172	0.06
596.363	-0.02
596.553	0.01
596.743	0.01
596.933	-0.01
597.123	0.04
597.314	-0.03
597.504	-0.01
597.694	0.04
597.884	0.01
598.074	-0.01
598.264	-0
598.454	0.01
598.644	0.01
598.834	-0.01
599.024	-0.05
599.214	-0.04
599.404	0.03
599.594	-0.02
599.784	-0.03
599.974	0.02
600.164	0.02
600.354	-0.03
600.544	-0.02
600.734	0.01
600.924	0
601.114	-0.01
601.303	0.02
601.493	-0
601.683	0.01
601.873	-0.01
602.063	-0.04
602.252	0.01
602.442	-0.07
602.632	-0.01
602.821	-0.01
603.011	0.03
603.201	-0
603.39	-0.03
603.58	-0.01
603.77	0.02
603.959	0.03
604.149	0.01
604.339	-0.01
604.528	0.02
604.718	0.04
604.907	-0
605.097	-0.02
605.286	-0.01
605.476	-0.01
605.665	0.02
605.855	-0.01
606.044	0.03
606.234	0
606.423	-0.02
606.612	-0.02
606.802	0.02
606.991	0.03
607.181	0.03
607.37	-0.05
607.559	0.03
607.749	-0.01
607.938	0
608.127	-0.01
608.316	-0.03
608.506	0.02
608.695	-0
608.884	-0.04
609.073	-0.02
609.263	0.02
609.452	0.02
609.641	0
609.83	-0.02
610.019	-0.01
610.208	-0.01
610.397	0.02
610.586	0.03
610.775	0
610.965	-0.03
611.154	-0.02
611.343	-0.01
611.532	0
611.721	-0.02
611.91	-0.01
612.099	-0
612.287	-0.02
612.476	-0.05
612.665	0.01
612.854	-0
613.043	0.04
613.232	-0
613.421	-0.06
613.61	0
613.798	-0.04
613.987	0.01
614.176	0.02
614.365	0.03
614.554	0.02
614.742	0.04
614.931	-0.05
615.12	0.04
615.309	-0.03
615.497	0.01
615.686	-0.04
615.875	0.01
616.063	0
616.252	-0
616.44	-0.01
616.629	0
616.818	0.03
617.006	0
617.195	-0.01
617.383	0.01
617.572	0.02
617.76	-0.01
617.949	0
618.137	0.02
618.326	0.07
618.514	-0.01
618.703	-0.02
618.891	0.04
619.079	-0.03
619.268	0.03
619.456	-0.02
619.644	0.03
619.833	-0
620.021	-0.02
620.209	-0.04
620.398	0.01
620.586	0.01
620.774	0.03
620.962	0.01
621.151	0.07
621.339	0.01
621.527	-0.04
621.715	-0.02
621.903	-0.01
622.092	-0.07
622.28	0.02
622.468	0.01
622.656	-0.01
622.844	0.03
623.032	-0.01
623.22	-0.07
623.408	0.01
623.596	0.02
623.784	0.06
623.972	-0.02
624.16	0
624.348	0.05
624.536	-0.02
624.724	-0.01
624.912	0.08
625.1	0.03
625.288	-0.02
625.476	-0.01
625.664	0.02
625.851	-0.03
626.039	0.01
626.227	0.03
626.415	0.04
626.603	-0.04
626.79	-0
626.978	-0.03
627.166	0.01
627.354	0.03
627.541	0
627.729	-0.05
627.917	0.03
628.104	0.06
628.292	0.03
628.48	-0
628.667	0.01
628.855	0.01
629.042	0
629.23	-0.03
629.418	-0.03
629.605	-0.01
629.793	-0
629.98	-0.03
630.168	0.01
630.355	0.02
630.543	0.01
630.73	-0.03
630.917	0.04
631.105	0.05
631.292	-0.05
631.48	0.02
631.667	0.06
631.854	0.01
632.042	0.03
632.229	-0.04
632.416	-0
632.604	0.02
632.791	-0.04
632.978	0.04
633.165	0.05
633.353	0.1
633.54	0.04
633.727	-0.04
633.914	-0.01
634.101	-0.04
634.289	0.07
634.476	-0.02
634.663	0.02
634.85	0.01
635.037	-0.02
635.224	-0.03
635.411	0.03
635.598	0.04
635.785	0.02
635.972	-0.01
636.159	0.06
636.346	-0.01
636.533	-0.03
636.72	-0
636.907	0.01
637.094	0.05
637.281	0
637.468	0.04
637.655	0.03
637.842	0.04
638.029	0.01
638.215	0.03
638.402	0.04
638.589	-0
638.776	0.01
638.963	0.02
639.149	0.05
639.336	0.09
639.523	0.02
639.709	-0.03
639.896	0.01
640.083	0.07
640.27	0.02
640.456	0.04
640.643	0.03
640.829	-0.02
641.016	0
641.203	-0
641.389	0.06
641.576	0.05
641.762	0.02
641.949	-0
642.135	0.04
642.322	0.02
642.508	-0.01
642.695	0.04
642.881	-0.02
643.068	0.03
643.254	0.02
643.441	0.07
643.627	-0.02
643.813	-0.01
644	0.05
644.186	0.01
644.372	0.05
644.559	0.06
644.745	0.01
644.931	0
645.118	0.05
645.304	0.04
645.49	-0.03
645.676	0.03
645.862	0.04
646.049	0.1
646.235	0.04
646.421	0.09
646.607	0.11
646.793	0.01
646.979	0.02
647.165	0.04
647.352	0.06
647.538	0.1
647.724	0.04
647.91	0.06
648.096	0.07
648.282	0.11
648.468	0.04
648.654	0.09
648.84	0.06
649.026	0.06
649.212	0.08
649.397	0.02
649.583	0.04
649.769	0.09
649.955	0.06
650.141	0.07
650.327	0.08
650.513	0.05
650.698	0.11
650.884	-0.01
651.07	0.06
651.256	0.1
651.442	0.05
651.627	0.09
651.813	0.07
651.999	0.1
652.184	0.1
652.37	0.06
652.556	0.04
652.741	0.11
652.927	-0.01
653.113	0.04
653.298	0.08
653.484	0.09
653.669	0.05
653.855	0.08
654.04	0.11
654.226	0.1
654.412	0.08
654.597	0.07
654.782	0.11
654.968	0.07
655.153	0.13
655.339	0.08
655.524	0.04
655.71	0.11
655.895	0.12
656.08	0.11
656.266	0.13
656.451	0.09
656.636	0.09
656.822	0.1
657.007	0.08
657.192	0.07
657.378	0.06
657.563	0.11
657.748	0.15
657.933	0.12
658.118	0.12
658.304	0.08
658.489	0.12
658.674	0.13
658.859	0.05
659.044	0.12
659.229	0.14
659.414	0.08
659.599	0.11
659.785	0.04
659.97	0.11
660.155	0.12
660.34	0.13
660.525	0.12
660.71	0.09
660.895	0.1
661.08	0.1
661.264	0.11
661.449	0.12
661.634	0.14
661.819	0.12
662.004	0.11
662.189	0.01
662.374	0.04
662.559	0.06
662.743	0.03
662.928	0.05
663.113	0.04
663.298	0.01
663.483	0.08
663.667	0.08
663.852	0.03
664.037	0.14
664.221	0.02
664.406	0.08
664.591	0.04
664.775	0.07
664.96	-0.01
665.145	0.06
665.329	0.02
665.514	0.04
665.698	0.02
665.883	0.01
666.068	0.09
666.252	0.05
666.437	0.03
666.621	0.05
666.806	0.09
666.99	0.01
667.174	0.01
667.359	0.07
667.543	0.01
667.728	-0.01
667.912	-0.05
668.096	0.04
668.281	-0
668.465	0.02
668.649	0.04
668.834	-0.03
669.018	0.03
669.202	0.03
669.387	0
669.571	0.07
669.755	-0.02
669.939	0.03
670.124	0.03
670.308	0.05
670.492	0.05
670.676	0
670.86	-0
671.044	-0.04
671.228	0.06
671.413	-0.01
671.597	-0.01
671.781	-0.01
671.965	0.03
672.149	-0.01
672.333	0.01
672.517	-0.02
672.701	0.06
672.885	-0.03
673.069	-0.06
673.253	0.04
673.437	-0.01
673.621	0.01
673.804	-0.02
673.988	-0.01
674.172	-0
674.356	-0.04
674.54	-0
674.724	0.06
674.908	0.02
675.091	0.02
675.275	-0.01
675.459	0.02
675.643	-0.01
675.826	-0.02
676.01	0.03
676.194	-0.04
676.377	0.04
676.561	0.06
676.745	-0.02
676.928	0.02
677.112	0.06
677.296	-0.03
677.479	-0.04
677.663	-0.06
677.846	-0.01
678.03	-0
678.213	0
678.397	-0.01
678.58	-0.02
678.764	-0.05
678.947	0.01
679.131	-0.04
679.314	0.01
679.498	0.01
679.681	0.01
679.865	-0.01
680.048	0
680.231	-0
680.415	0.03
680.598	0.03
680.781	-0.01
680.965	-0.02
681.148	0.02
681.331	-0
681.514	0.03
681.698	-0.03
681.881	0.02
682.064	0.03
682.247	0.01
682.43	-0.06
682.614	0.03
682.797	0.04
682.98	0.01
683.163	-0.03
683.346	0.01
683.529	0
683.712	-0.02
683.895	0.07
684.078	-0.07
684.261	-0.01
684.444	0.02
684.627	-0.03
684.81	-0.04
684.993	0.01
685.176	0.01
685.359	-0.02
685.542	-0.02
685.725	0.09
685.908	0.02
686.091	-0.06
686.274	0.02
686.457	0.03
686.639	-0.02
686.822	0.05
687.005	-0.04
687.188	-0.03
687.371	0.1
687.553	0.03
687.736	0.01
687.919	0.06
688.102	0.06
688.284	-0.01
688.467	0.01
688.65	-0.05
688.832	-0.03
689.015	0.02
689.197	-0.08
689.38	0.13
689.563	0.06
689.745	-0.06
689.928	-0.07
690.11	0.05
690.293	-0.01
690.475	-0.08
690.658	0.03
690.84	-0.05
691.023	-0.03
691.205	-0.02
691.388	-0.01
691.57	0.05
691.752	0.02
691.935	-0.09
692.117	-0.01
692.3	0.03
692.482	-0.01
692.664	-0.02
692.847	0.04
693.029	0.07
693.211	-0.04
693.393	-0
693.576	-0.03
693.758	-0.03
693.94	-0
694.122	-0.05
694.304	-0.02
694.487	-0.01
694.669	0.05
694.851	-0.05
695.033	0.01
695.215	-0.02
695.397	-0.08
695.579	0.01
695.761	-0.06
695.943	-0.08
696.125	0.06
696.308	0.02
696.49	-0.08
696.671	0.06
696.853	0
697.035	0.11
697.217	-0.02
697.399	0.06
697.581	-0.04
697.763	0.03
697.945	-0
698.127	0.01
698.309	0.07
698.491	-0.02
698.672	0.05
698.854	0.02
699.036	0.04
699.218	0.06
699.399	0.07
699.581	0.04
699.763	0.02
699.945	-0.04
700.126	0.01
700.308	0.01
700.49	0.05
700.671	-0.04
700.853	-0.04
701.035	-0.04
701.216	0.02
701.398	-0.03
701.579	-0
701.761	0.04
701.943	-0.07
702.124	-0.04
702.306	-0.01
702.487	0.12
702.669	-0.05
702.85	-0.03
703.031	-0.08
703.213	0.11
703.394	0.06
703.576	-0.04
703.757	0.06
703.938	0.11
704.12	0.1
704.301	-0
704.483	0
704.664	0.02
704.845	0.14
705.026	-0.01
705.208	0.01
705.389	0.02
705.57	-0.02
705.751	0.04
705.933	-0.04
706.114	0.09
706.295	0.02
706.476	-0.01
706.657	0.07
706.838	0.03
707.02	0.1
707.201	-0.04
707.382	-0.03
707.563	0.02
707.744	-0.03
707.925	-0.01
708.106	-0.02
708.287	0.06
708.468	0.09
708.649	0.01
708.83	0.06
709.011	-0.04
709.192	0.09
709.373	-0.09
709.554	0.01
709.734	0.05
709.915	0.01
710.096	0.02
710.277	-0.06
710.458	0.02
710.639	0.08
710.819	-0.06
711	-0
711.181	0.14
711.362	0.05
711.542	0
711.723	0.02
711.904	0.05
712.085	0.05
712.265	-0.02
712.446	-0
712.627	0
712.807	0.01
712.988	0.03
713.168	0
713.349	0.03
713.53	-0.12
713.71	-0.02
713.891	-0.04
714.071	0.03
714.252	-0.04
714.432	0.01
714.613	-0.1
714.793	0.08
714.974	0.1
715.154	0.07
715.334	0.09
715.515	0.07
715.695	0
715.876	-0.02
716.056	-0.02
716.236	0
716.417	-0.05
716.597	0.03
716.777	0.15
716.957	0.01
717.138	0.02
717.318	0.08
717.498	-0
717.678	0.04
717.859	0.07
718.039	-0.01
718.219	0.04
718.399	0.1
718.579	-0.01
718.759	-0.01
718.939	0.02
719.12	-0
719.3	0.04
719.48	-0.17
719.66	-0.08
719.84	0.1
720.02	0
720.2	-0.06
720.38	0.03
720.56	0.09
720.74	0.02
720.92	0.04
721.1	0.09
721.279	0.14
721.459	0.05
721.639	-0.09
721.819	0.11
721.999	-0.01
722.179	0.12
722.359	0.05
722.538	0.05
722.718	0.07
722.898	0.07
723.078	0.01
723.257	0.02
723.437	0.05
723.617	0.02
723.797	0.02
723.976	0.09
724.156	0.18
724.336	0.13
724.515	0.18
724.695	-0.06
724.874	-0.07
725.054	0.11
725.234	0.01
725.413	0.08
725.593	0.07
725.772	0
725.952	0.02
726.131	0.02
726.311	0.07
726.49	0.11
726.67	-0.05
726.849	0.08
727.028	0.18
727.208	0.06
727.387	0.16
727.567	0.04
727.746	0.14
727.925	0.01
728.105	0
728.284	0.12
728.463	0.01
728.643	0.21
728.822	-0.01
729.001	0.08
729.18	0.12
729.359	0.11
729.539	0.08
729.718	0.06
729.897	0.15
730.076	0.04
730.255	0.04
730.434	0.13
730.614	0.15
730.793	0.13
730.972	0.05
731.151	0.1
731.33	0.17
731.509	0.1
731.688	0.12
731.867	0.09
732.046	-0.04
732.225	0.25
732.404	0.06
732.583	0
732.762	0.16
732.941	0.07
733.12	0.1
733.298	0.06
733.477	0.09
733.656	0.09
733.835	0.01
734.014	0.2
734.193	0.09
734.371	0.22
734.55	0.1
734.729	-0.02
734.908	0.18
735.086	0.14
735.265	0.15
735.444	-0.02
735.623	0.05
735.801	-0.01
735.98	0.08
736.159	0.04
736.337	0.2
736.516	0.11
736.694	0.14
736.873	0.04
737.052	0.1
737.23	0.23
737.409	0.11
737.587	0.32
737.766	-0.07
737.944	0.08
738.123	0.15
738.301	0.08
738.479	0.12
738.658	0.15
738.836	-0.22
739.015	0.15
739.193	0.29
739.371	-0.01
739.55	0.06
739.728	0
739.906	0.16
740.085	0.28
740.263	0.18
740.441	-0.09
740.62	0.24
740.798	0.11
740.976	-0.08
741.154	-0
741.332	0.23
741.511	0.07
741.689	0.07
741.867	0.13
742.045	0.02
742.223	0.14
742.401	0.02
742.579	-0.03
742.757	0.14
742.935	-0.11
743.114	0.06
743.292	0.11
743.47	0.02
743.648	0.1
743.826	-0.06
744.004	0.14
744.181	0.18
744.359	0.12
744.537	0.08
744.715	-0.04
744.893	0.12
745.071	0.02
745.249	-0.02
745.427	0.01
745.605	0.05
745.782	0.03
745.96	0.13
746.138	0.09
746.316	0.01
746.493	0.06
746.671	0.05
746.849	-0.04
747.027	0.18
747.204	-0.07
747.382	0.02
747.56	-0.16
747.737	0.07
747.915	-0.05
748.093	0.06
748.27	-0.1
748.448	-0.04
748.625	-0.03
748.803	-0.11
748.98	0.02
749.158	0.01
749.335	0.16
749.513	0
749.69	-0.07
749.868	0.01
750.045	0.1
750.223	-0.13
750.4	-0.14
750.578	0.18
750.755	0.05
750.932	-0.16
751.11	0.12
751.287	0.04
751.464	0.08
751.642	-0.04
751.819	0.17
751.996	-0.11
752.173	-0.05
752.351	-0.02
752.528	-0.05
752.705	-0.08
752.882	-0.04
753.06	-0.01
753.237	-0.01
753.414	0.19
753.591	0.14
753.768	-0.05
753.945	-0.09
754.122	-0.05
754.299	0.07
754.476	-0.02
754.654	0.03
754.831	0.02
755.008	-0.02
755.185	-0.12
755.362	-0
755.539	-0.04
755.716	-0.13
755.892	-0.04
756.069	-0.02
756.246	-0.07
756.423	0.06
756.6	0.12
756.777	-0
756.954	0.2
757.131	-0.04
757.307	-0.2
757.484	-0.04
757.661	-0.02
757.838	0.02
758.015	-0.05
758.191	0.05
758.368	0.08
758.545	0.01
758.721	0.11
758.898	-0.09
759.075	0.17
759.251	0
759.428	0.04
759.605	-0.1
759.781	0.02
759.958	0.02
760.134	0.02
760.311	0.01
760.488	0.12
760.664	0.11
760.841	0.06
761.017	-0.07
761.194	-0.06
761.37	0.1
761.547	0.02
761.723	-0.02
761.899	0.05
762.076	-0.06
762.252	-0.09
762.429	-0.13
762.605	0.08
762.781	-0
762.958	-0.03
763.134	0.04
763.31	-0.04
763.486	0.08
763.663	-0.05
763.839	0.06
764.015	-0.18
764.191	-0.09
764.368	0.08
764.544	-0.03
764.72	0.08
764.896	0.05
765.072	-0.02
765.248	0.03
765.425	-0.05
765.601	-0.03
765.777	0.04
765.953	-0.21
766.129	-0.13
766.305	-0.1
766.481	0.03
766.657	0.04
766.833	0.15
767.009	-0.08
767.185	-0.05
767.361	0.1
767.537	-0.11
767.713	0.08
767.889	-0.07
768.065	0.05
768.24	0.06
768.416	0.07
768.592	-0.08
768.768	-0.05
768.944	0.1
769.12	-0.16
769.295	0.01
769.471	-0.13
769.647	-0.05
769.823	0.2
769.998	0.05
770.174	-0.06
770.35	0.31
770.525	0.35
770.701	-0.16
770.877	-0.01
771.052	-0.08
771.228	0.14
771.403	0.09
771.579	0.09
771.755	0.25
771.93	-0.07
772.106	-0.17
772.281	-0.08
772.457	0.12
772.632	-0.04
772.808	-0.17
772.983	0.16
773.159	-0.09
773.334	0.22
773.509	-0.12
773.685	-0.11
773.86	0.24
774.036	0.25
774.211	-0.04
774.386	-0.12
774.562	0.06
774.737	0.04
774.912	-0.07
775.087	0.01
775.263	0.15
775.438	-0.02
775.613	-0.13
775.788	0.09
775.964	0.2
776.139	0.39
776.314	-0.29
776.489	0.05
776.664	0.07
776.839	0
777.014	0.12
777.19	0.08
777.365	0.14
777.54	0.14
777.715	-0.11
777.89	0.21
778.065	-0.04
778.24	0.03
778.415	0.12
778.59	-0.21
778.765	-0.3
778.94	0.18
779.115	-0
779.289	-0.22
779.464	-0.17
779.639	0.04
779.814	-0.23
779.989	-0.08
780.164	0.18
780.339	0.08
780.513	-0.17
780.688	-0.12
780.863	0.08
781.038	0.08
781.212	-0.13
781.387	0.01
781.562	0.16
781.737	-0.03
781.911	0.25
782.086	0.08
782.261	0.02
782.435	0.1
782.61	-0.16
782.784	0.03
782.959	0.14
783.134	-0.14
783.308	-0.16
783.483	-0.14
783.657	0.38
783.832	0.32
784.006	-0.36
784.181	0.02
784.355	0.1
784.53	0.04
784.704	-0.07
784.878	0.4
785.053	-0.03
785.227	0.14
785.402	0.37
785.576	-0.32
785.75	-0.02
785.925	-0
786.099	0.06
786.273	0.08
786.448	0.38
786.622	0.14
786.796	0.2
786.97	-0.08
787.145	0.36
787.319	-0.13
787.493	-0.29
787.667	-0.42
787.841	0.1
788.015	0.33
788.19	-0.06
788.364	-0.01
788.538	0.24
788.712	0.14
788.886	0.03
789.06	0.34
789.234	0.22
789.408	-0.23
789.582	-0.15
789.756	-0
789.93	-0.37
790.104	0.02
790.278	-0.09
790.452	0.1
790.626	0.04
790.8	-0.05
790.973	0.17
791.147	0.14
791.321	0.2
791.495	0.2
791.669	-0
791.843	0.07
792.016	-0.01
792.19	0.3
792.364	-0.21
792.538	0.37
792.711	0.29
792.885	0.01
793.059	-0.16
793.233	-0.54
793.406	0.2
793.58	0.07
793.754	0.01
793.927	-0.01
794.101	0.11
794.274	0.28
794.448	0.31
794.622	-0.1
794.795	0.19
794.969	-0.15
795.142	0.16
795.316	0.13
795.489	-0.01
795.663	0.39
795.836	0.18
796.009	-0.27
796.183	0.28
796.356	0.09
796.53	0.02
796.703	-0.13
796.876	0.54
797.05	-0.16
797.223	-0.02
797.396	0.27
797.57	0.26
797.743	0.38
797.916	0.15
798.09	-0.03
798.263	0.31
798.436	0.3
798.609	0.09
798.782	0.01
798.956	0.12
799.129	0.03
799.302	-0.26
799.475	-0.27
799.648	-0.29
799.821	0.01
799.994	-0.03
800.167	-0.19
800.34	-0.07
800.514	-0.08
800.687	-0.12
800.86	-0.09
801.033	0.01
801.206	0.1
801.379	-0.4
801.551	0.46
801.724	0.11
801.897	0.42
802.07	-0.08
802.243	-0.41
802.416	0.04
802.589	-0
802.762	-0.04
802.935	0.14
803.107	0.07
803.28	0.14
803.453	0.36
803.626	-0.07
803.798	-0.02
803.971	-0.01
804.144	0.19
804.317	0.53
804.489	0.03
804.662	0.2
804.835	-0.09
805.007	0.26
805.18	0.42
805.353	0.23
805.525	-0.06
805.698	-0.02
805.87	0.29
806.043	0.48
806.215	-0.33
806.388	0.12
806.56	0.09
806.733	0.19
806.905	0.18
807.078	-0.08
807.25	-0.35
807.423	0.34
807.595	-0.31
807.768	-0.12
807.94	0.32
808.112	0.11
808.285	-0.3
808.457	0.21
808.629	-0.04
808.802	0.23
808.974	0.08
809.146	0.16
809.318	-0.31
809.491	0.14
809.663	0.38
809.835	-0.05
810.007	-0.12
810.18	-0.05
810.352	-0.21
810.524	0.17
810.696	0.26
810.868	0.5
811.04	-0.07
811.212	-0.07
811.384	0.35
811.556	0.21
811.728	0.17
811.901	0.8
812.073	-0.2
812.245	0.05
812.417	0.23
812.589	-0.48
812.76	0.26
812.932	0.39
813.104	0.49
813.276	0.02
813.448	0.39
813.62	-0.04
813.792	0.23
813.964	0.02
814.136	0.04
814.307	-0.4
814.479	-0.14
814.651	-0.13
814.823	0.62
814.995	-0.25
815.166	0.07
815.338	-0.06
815.51	-0.7
815.681	0.71
815.853	0.35
816.025	-0.01
816.196	0.22
816.368	-0.18
816.54	-0.44
816.711	-0.17
816.883	0.15
817.054	0.93
817.226	-0.25
817.398	0.56
817.569	-0.37
817.741	0.34
817.912	-0.09
818.084	-0.2
818.255	0.06
818.426	-0.3
818.598	-0.03
818.769	-0.2
818.941	0.55
819.112	0.75
819.283	0.13
819.455	-0.05
819.626	-0.01
819.798	0.23
819.969	0.23
820.14	0.15
820.311	-0.57
820.483	-0.06
820.654	0.24
820.825	0.14
820.996	-0.14
821.168	-0.06
821.339	-0.15
821.51	-0.45
821.681	-0.37
821.852	0.19
822.023	-0.49
822.195	-0.79
822.366	0.52
822.537	-0.05
822.708	-0.13
822.879	-0.47
823.05	0.81
823.221	0.12
823.392	0.91
823.563	-0.32
823.734	0.1
823.905	0.22
824.076	-0.44
824.247	-0.12
824.418	-0.35
824.589	0.53
824.759	0.14
824.93	0.44
825.101	-0.69
825.272	0.46
825.443	0.48
825.614	0.88
825.784	-1.71
825.955	0.67
826.126	0.7
826.297	0.15
826.467	0.56
826.638	0.43
826.809	-0.38
826.98	-0.01
827.15	0.37
827.321	0.55
827.492	0.59
827.662	0.71
827.833	1.21
828.003	0.22
828.174	-0.49
828.345	-0.34
828.515	0.8
828.686	-0.16
828.856	-0.13
829.027	0.37
829.197	0.55
829.368	0
829.538	-0.63
829.709	-0.18
829.879	0.41
830.049	0.81
830.22	-0.15
830.39	0.39
830.56	0.21
830.731	0.16
830.901	-0.08
831.072	-0.16
831.242	0.18
831.412	0.02
831.582	0.47
831.753	-0.62
831.923	1.04
832.093	0.2
832.263	0.26
832.434	-0.22
832.604	-0.1
832.774	1.09
832.944	-0.75
833.114	-0.32
833.284	0.45
833.454	-0.29
833.624	-0.28
833.795	-0.76
833.965	0.12
834.135	0.76
834.305	-0.6
834.475	-0.7
834.645	-0.37
834.815	0.1
834.985	-0.39
835.155	0.04
835.325	0.37
835.494	0.54
835.664	0.24
835.834	-0.79
836.004	0.45
836.174	0.54
836.344	0.15
836.514	-1.32
836.684	-0.74
836.853	-0.23
837.023	0.44
837.193	0.41
837.363	0.72
837.532	1.01
837.702	-0.5
837.872	-0.4
838.041	0.13
838.211	1.41
838.381	-1
838.55	-0.28
838.72	1.93
838.89	0.74
839.059	-0.16
839.229	-0.56
839.398	0.64
839.568	0.43
839.738	-0.16
839.907	0.95
840.077	0.2
840.246	-0.93
840.416	-0.3
840.585	-0.88
840.755	1.33
840.924	1.17
841.093	-0.25
841.263	-0.05
841.432	-0.02
841.602	-0.29
841.771	-0.23
841.94	0.27
842.11	1.88
842.279	1.13
842.448	-0.83
842.617	0.29
842.787	0.84
842.956	-0.99
843.125	0.69
843.294	0.22
843.464	1.15
843.633	-0.19
843.802	-0.78
843.971	0.18
844.14	0.73
844.309	0.16
844.479	-1.04
844.648	-0.19
844.817	-0.24
844.986	0.3
845.155	-0.28
845.324	-0.54
845.493	0.11
845.662	0.15
845.831	0.06
846	0.71
846.169	0.11
846.338	1.85
846.507	-0.12
846.676	0.81
846.844	-0.09
847.013	0.46
847.182	-0.13
847.351	-0.96
847.52	0.82
847.689	0.03
847.858	0.25
848.026	-0.37
848.195	-0.03
848.364	-0.3
848.533	-0.12
848.701	-0.88
848.87	0.28
849.039	1.47
849.207	1.41
849.376	0.51
849.545	0.16
849.713	-0.53
849.882	0.15
850.051	0.09
850.219	0.69
850.388	0.47
850.556	-0.07
850.725	-0.8
850.893	0.48
851.062	0.53
851.23	0.78
851.399	-0.09
851.567	-0.57
851.736	-0.2
851.904	-0.89
852.073	1.29
852.241	0.21
852.41	1.11
852.578	-0.96
852.746	-0.69
852.915	0.82
853.083	0.19
853.251	-1.14
853.42	-0.15
853.588	0.78
853.756	0.97
853.924	0.59
854.093	-0.4
854.261	-0.22
854.429	-1.36
854.597	1.08
854.765	-0.34
854.934	0.74
855.102	1.11
855.27	-0.34
855.438	0.44
855.606	0.61
855.774	1.48
855.942	-1.61
856.11	-1.2
856.278	0.43
856.446	0.55
856.614	-0.31
856.782	-0.72
856.95	1.04
857.118	0.55
857.286	0.05
857.454	-0.42
857.622	0.03
857.79	1.24
857.958	-1.28
858.126	-0.97
858.294	-2.89
858.462	0.71
858.629	0.39
858.797	-0.8
858.965	1.53
859.133	-0.88
859.301	-0.1
859.468	0.34
859.636	-1.44
859.804	0.52
859.971	0.93
860.139	-0.83
860.307	0.9
860.474	-0.25
860.642	-0.47
860.81	-0.27
860.977	0.51
861.145	2.21
861.313	-0.4
861.48	-0.29
861.648	1.6
861.815	-0.58
861.983	0.39
862.15	-0.63
862.318	0.24
862.485	0.91
862.653	-0.75
862.82	-0.36
862.988	2.4
863.155	1.79
863.322	-0.72
863.49	-0.83
863.657	-1.39
863.824	1.81
863.992	0.2
864.159	1.12
864.326	1.19
864.494	-1.63
864.661	3.25
864.828	-1.28
864.996	1.4
865.163	1.66
865.33	-0.54
865.497	-2.89
865.664	-1.04
865.832	-1.84
865.999	0.39
866.166	-0.58
866.333	0.03
866.5	0.06
866.667	0.52
866.834	-1.46
867.001	1.67
867.168	-1.31
867.335	-0.45
867.502	-1.08
867.669	-0.65
867.836	-0.2
868.003	1.03
868.17	2.04
868.337	2.33
868.504	0.93
868.671	-1.91
868.838	-1.15
869.005	0.24
869.172	0.78
869.339	0.75
869.505	-0.21
869.672	-0.87
869.839	1.33
870.006	0.14
870.173	-2.29
870.339	0.91
870.506	2.38
870.673	-0.19
870.84	0.74
871.006	0.55
871.173	-1.17
871.34	-0.32
871.506	-0.82
871.673	2.13
871.839	-0.44
872.006	0.57
872.173	-0.13
872.339	-0.65
872.506	2.13
872.672	0.13
872.839	-1.3
873.005	-0.52
873.172	3.88
873.338	1.42
873.505	-0.89
873.671	-0.95
873.838	1.86
874.004	-1.24
874.171	0.03
874.337	1.56
874.503	0.22
874.67	0.38
874.836	-0.4
875.002	2.75
875.169	1.7
875.335	-0.35
875.501	0.12
875.668	1.48
875.834	-0.52
876	-0.5
876.166	1.36
876.332	1.43
876.499	3.08
876.665	0.43
876.831	0.64
876.997	2.91
877.163	1.03
877.329	-0.24
877.495	0.23
877.662	2.67
877.828	-0.48
877.994	-0.68
878.16	-0.74
878.326	-0.26
878.492	0.33
878.658	0.59
878.824	0.48
878.99	1.13
879.156	-1.72
879.322	2.98
879.487	-0.51
879.653	-0.17
879.819	-0.04
879.985	-0.06
880.151	0.8
880.317	1.34
880.483	-0.28
880.648	2.35
880.814	-0.97
880.98	1.5
881.146	-3.23
881.312	-1.02
881.477	-0.62
881.643	0.6
881.809	1.01
881.974	1.99
882.14	-2.39
882.306	-0.49
882.471	4.33
882.637	-0.7
882.803	0.63
882.968	3.18
883.134	3.06
883.299	-1.18
883.465	-0.53
883.63	3.13
883.796	0.37
883.961	1.47
884.127	-0.23
884.292	-2.84
884.458	-1.66
884.623	-1.66
