Data from Apollo_Calib_20240827__AbsoluteIrradiance__668__10-17-02-440.txt Node

Date: Wed Aug 28 10:17:02 BST 2024
User: biology
Spectrometer: FLMT08252
Trigger mode: 0
Integration Time (sec): 5.000000E-1
Scans to average: 5
Electric dark correction enabled: true
Nonlinearity correction enabled: false
Boxcar width: 0
XAxis mode: Wavelengths
Number of Pixels in Spectrum: 3648
>>>>>Begin Spectral Data<<<<<
179.588	-0
179.809	-0
180.03	-0
180.251	-0
180.473	-0
180.694	0
180.915	0
181.136	-0
181.357	0
181.578	-0
181.799	-0
182.02	-0
182.241	-0
182.462	-0
182.683	0
182.904	-0
183.125	-0
183.346	0
183.567	0
183.788	0
184.009	0
184.23	0
184.451	0
184.672	0
184.892	0
185.113	0
185.334	0
185.555	-0
185.776	0
185.996	0
186.217	-0
186.438	0
186.659	0
186.879	0
187.1	-0
187.321	0
187.541	-0
187.762	0
187.983	0
188.203	0
188.424	0
188.644	-0
188.865	0
189.086	0
189.306	0
189.527	0
189.747	0
189.968	0
190.188	0
190.409	0
190.629	0
190.849	0
191.07	0
191.29	0
191.511	0
191.731	-0
191.951	0
192.172	0
192.392	0
192.612	0
192.833	0
193.053	0
193.273	0
193.493	-0
193.714	0
193.934	0
194.154	0
194.374	0
194.594	0
194.815	0
195.035	0
195.255	0
195.475	-0
195.695	0
195.915	0
196.135	0
196.355	0
196.575	0
196.795	0
197.015	-0
197.235	0
197.455	0
197.675	0
197.895	-0
198.115	-0
198.335	0
198.555	0
198.775	0
198.995	0
199.214	0
199.434	0
199.654	-0
199.874	0
200.094	1.39
200.313	0.61
200.533	0.02
200.753	-0.58
200.973	0.72
201.192	1.18
201.412	-0.75
201.632	0.31
201.851	1.53
202.071	-0.07
202.291	0.16
202.51	-0.29
202.73	0.88
202.95	0.37
203.169	-0.33
203.389	0.31
203.608	0.34
203.828	-0.2
204.047	-0.03
204.267	0.76
204.486	0.29
204.706	0.25
204.925	0.75
205.145	0.19
205.364	0.92
205.583	1.13
205.803	0.07
206.022	0.02
206.242	0.42
206.461	0.05
206.68	0.29
206.9	0.35
207.119	0.75
207.338	0.88
207.557	-0.12
207.777	0.15
207.996	0.43
208.215	0.94
208.434	0.15
208.654	-0.33
208.873	0.12
209.092	0.71
209.311	0.1
209.53	0.21
209.749	-0.11
209.968	0.1
210.187	0.31
210.407	-0.08
210.626	0.08
210.845	0.5
211.064	0.34
211.283	0.2
211.502	0.15
211.721	0.22
211.94	0.24
212.159	0.25
212.377	0.38
212.596	0.37
212.815	0.48
213.034	0.5
213.253	0.38
213.472	0.43
213.691	-0.03
213.91	0.16
214.128	0.18
214.347	0.66
214.566	-0.15
214.785	-0.1
215.003	0.37
215.222	0.16
215.441	0.11
215.66	-0.09
215.878	0.37
216.097	0.2
216.316	-0.16
216.534	0.01
216.753	0.11
216.972	0.18
217.19	-0.02
217.409	-0.07
217.627	-0.12
217.846	0.24
218.064	0.13
218.283	0.12
218.501	0.64
218.72	0.35
218.938	-0.15
219.157	0.02
219.375	0.45
219.594	0.39
219.812	-0.09
220.031	0.02
220.249	0.25
220.467	0.52
220.686	-0.05
220.904	-0.07
221.122	-0.08
221.341	0.33
221.559	0.05
221.777	-0.01
221.995	0.12
222.214	0.34
222.432	0.1
222.65	0.17
222.868	0.23
223.086	0.1
223.305	0.15
223.523	0.02
223.741	0.34
223.959	-0.04
224.177	-0.12
224.395	0.09
224.613	0.15
224.831	0.31
225.049	0.01
225.267	-0.07
225.485	0.09
225.703	0.03
225.921	0.11
226.139	0.03
226.357	0.16
226.575	0.13
226.793	0.01
227.011	0.74
227.229	0.06
227.447	0.19
227.665	0.03
227.883	-0.06
228.1	0.17
228.318	0.12
228.536	-0.16
228.754	-0.04
228.972	0.13
229.189	0.33
229.407	0.05
229.625	0.05
229.843	0.19
230.06	0.2
230.278	0.09
230.496	0.17
230.713	0.16
230.931	0.25
231.149	0.07
231.366	-0.09
231.584	-0.02
231.801	0.36
232.019	0.08
232.236	-0.08
232.454	-0.1
232.671	0.22
232.889	0.19
233.106	0.02
233.324	0.16
233.541	0.1
233.759	0.04
233.976	-0.02
234.194	0.16
234.411	0.04
234.628	-0.05
234.846	0.12
235.063	0
235.28	0.12
235.498	0.05
235.715	0.01
235.932	0.14
236.149	0.04
236.367	0.07
236.584	0.12
236.801	0.03
237.018	0.23
237.236	0.07
237.453	-0.05
237.67	0.2
237.887	0.1
238.104	-0.06
238.321	-0.02
238.538	0
238.755	0.14
238.973	-0.04
239.19	0.06
239.407	0.16
239.624	0.07
239.841	-0.01
240.058	-0.05
240.275	0.11
240.492	0.04
240.709	0.05
240.925	-0.02
241.142	-0.02
241.359	0.02
241.576	0.06
241.793	-0.02
242.01	0.14
242.227	0.2
242.444	0.13
242.66	0.05
242.877	0.07
243.094	0.08
243.311	0.12
243.527	0
243.744	0.13
243.961	0.16
244.178	-0.03
244.394	0.05
244.611	0.12
244.828	0.27
245.044	-0.02
245.261	0.02
245.477	0.08
245.694	0.05
245.911	-0.11
246.127	0.03
246.344	0.23
246.56	0.14
246.777	0.07
246.993	0.11
247.21	0.17
247.426	0.15
247.643	0.06
247.859	-0.13
248.076	0.02
248.292	0.33
248.508	0.02
248.725	0.14
248.941	0.1
249.157	0.2
249.374	0.04
249.59	0.07
249.806	0.09
250.023	0.17
250.239	0.02
250.455	0.06
250.671	0.14
250.888	0.06
251.104	0.06
251.32	0.03
251.536	-0.01
251.752	0.01
251.969	0.06
252.185	0.11
252.401	0.19
252.617	-0.03
252.833	0.03
253.049	0.11
253.265	0.07
253.481	0.08
253.697	0.03
253.913	0.03
254.129	0.06
254.345	0.07
254.561	0.09
254.777	0.08
254.993	0.14
255.209	0.07
255.425	0.05
255.641	0.04
255.857	0.14
256.073	0.08
256.288	-0.05
256.504	0.04
256.72	0.11
256.936	0.19
257.152	0.06
257.367	-0.01
257.583	0.06
257.799	0.09
258.015	-0.02
258.23	-0.01
258.446	0.13
258.662	0.03
258.877	0.01
259.093	0.04
259.309	0.04
259.524	0.07
259.74	0.06
259.955	0.01
260.171	0.13
260.387	0.02
260.602	0.18
260.818	0.07
261.033	0.01
261.249	0.02
261.464	0.03
261.68	0.03
261.895	0.05
262.11	0.14
262.326	0
262.541	-0.08
262.757	0.08
262.972	0.14
263.187	0.06
263.403	0.11
263.618	0.04
263.833	-0.01
264.049	-0.03
264.264	0.04
264.479	0.14
264.694	0.16
264.91	0.02
265.125	0.05
265.34	0.07
265.555	0.16
265.77	0.1
265.986	-0
266.201	0.07
266.416	0.15
266.631	0.01
266.846	0.06
267.061	0.11
267.276	0.04
267.491	-0.1
267.706	0.09
267.921	0.13
268.136	0.09
268.351	0.09
268.566	-0.01
268.781	0.16
268.996	0.04
269.211	0.06
269.426	-0.02
269.641	0.08
269.856	0.16
270.071	0.03
270.285	-0.02
270.5	0.1
270.715	0.12
270.93	0.05
271.145	0.05
271.359	-0.01
271.574	-0.04
271.789	-0.01
272.004	0.02
272.218	0.02
272.433	0.05
272.648	-0.01
272.862	0.1
273.077	0.07
273.292	0.04
273.506	0.05
273.721	-0.05
273.936	0.09
274.15	0.08
274.365	0.04
274.579	0.11
274.794	0.08
275.008	0.07
275.223	0
275.437	0.04
275.652	0.08
275.866	0.09
276.081	0.01
276.295	0.12
276.509	0.07
276.724	0.03
276.938	0.05
277.153	0.1
277.367	0.08
277.581	0.01
277.796	0.05
278.01	-0.01
278.224	0.14
278.438	0.2
278.653	-0.04
278.867	0.01
279.081	0.12
279.295	-0.01
279.51	0.07
279.724	-0.05
279.938	0.08
280.152	0.06
280.366	0.03
280.58	0.02
280.794	0.11
281.008	0.12
281.222	0.09
281.437	0.15
281.651	0.07
281.865	0.1
282.079	0.05
282.293	-0.07
282.507	0
282.721	0.03
282.935	0
283.148	-0.08
283.362	0.01
283.576	-0.07
283.79	0.01
284.004	-0.02
284.218	0.06
284.432	0.02
284.646	0.04
284.859	0.01
285.073	0.01
285.287	0.05
285.501	0.05
285.714	0.04
285.928	0.07
286.142	0.06
286.356	0.05
286.569	0.03
286.783	0.09
286.997	0.05
287.21	0.04
287.424	0.02
287.637	0.05
287.851	0.03
288.065	0.03
288.278	0.05
288.492	0.1
288.705	0.04
288.919	0.04
289.132	-0
289.346	0.03
289.559	-0.04
289.773	-0.03
289.986	0.09
290.2	0.07
290.413	0.08
290.626	-0
290.84	-0.03
291.053	0.07
291.267	0.1
291.48	0.01
291.693	0.03
291.906	0.01
292.12	-0.03
292.333	-0.02
292.546	0.05
292.76	0.11
292.973	0.05
293.186	0.08
293.399	0.01
293.612	0.12
293.826	0.08
294.039	-0
294.252	0.02
294.465	0.08
294.678	0.03
294.891	0.06
295.104	-0.02
295.317	0.03
295.53	0.08
295.743	-0.01
295.956	0.01
296.169	0.09
296.382	0.11
296.595	0.06
296.808	-0.02
297.021	0.14
297.234	0.05
297.447	0.07
297.66	0.07
297.873	0.1
298.086	0.06
298.299	-0.02
298.511	0.03
298.724	0.02
298.937	0.02
299.15	0.02
299.363	0.05
299.575	0.06
299.788	0.1
300.001	0.04
300.213	-0.04
300.426	0.03
300.639	0.01
300.852	0.04
301.064	0.05
301.277	0.09
301.489	0.08
301.702	0.08
301.915	0.04
302.127	0.05
302.34	0.04
302.552	0.09
302.765	0.01
302.977	0.08
303.19	-0.02
303.402	0.05
303.615	0.05
303.827	0
304.04	0.04
304.252	0.07
304.464	0.05
304.677	0.18
304.889	0.1
305.102	0.02
305.314	0.02
305.526	0.06
305.739	0.08
305.951	0.04
306.163	0.05
306.375	0.06
306.588	0.03
306.8	0.03
307.012	0.04
307.224	0.08
307.436	0.06
307.649	-0.01
307.861	0.06
308.073	0.05
308.285	0.03
308.497	-0.05
308.709	0.02
308.921	0.04
309.133	0.09
309.346	0.04
309.558	0.04
309.77	0.09
309.982	0.08
310.194	0.07
310.406	0
310.617	0.1
310.829	0.08
311.041	0.05
311.253	0.01
311.465	0.03
311.677	0.05
311.889	0.04
312.101	-0
312.313	0.06
312.524	0.09
312.736	-0.04
312.948	0.03
313.16	0.15
313.372	0.07
313.583	0.07
313.795	0.06
314.007	0.02
314.218	0.03
314.43	0.04
314.642	0.03
314.853	-0.02
315.065	0.05
315.277	0.04
315.488	0.02
315.7	0.08
315.912	0.04
316.123	0.03
316.335	0.06
316.546	0.12
316.758	0.06
316.969	0.01
317.181	0.04
317.392	0.04
317.604	0.09
317.815	-0.04
318.026	0.04
318.238	-0.01
318.449	0.04
318.661	-0.02
318.872	-0.02
319.083	-0.02
319.295	0.07
319.506	-0.01
319.717	0.01
319.929	0.02
320.14	0.03
320.351	0.07
320.562	0.03
320.774	0.05
320.985	0.04
321.196	-0.02
321.407	-0.04
321.618	0.02
321.829	0.08
322.041	0.05
322.252	0.06
322.463	0.08
322.674	0.04
322.885	-0.04
323.096	0
323.307	0.02
323.518	0.06
323.729	0.02
323.94	-0.03
324.151	0.03
324.362	-0.01
324.573	0.04
324.784	-0.02
324.995	0.07
325.206	0.07
325.417	0.01
325.628	0.01
325.838	0.04
326.049	0.04
326.26	0.04
326.471	0.03
326.682	0.04
326.892	0.01
327.103	0
327.314	0
327.525	0.08
327.735	0.02
327.946	0.03
328.157	0.03
328.368	0.06
328.578	0.02
328.789	0.08
328.999	0.03
329.21	0.01
329.421	0.05
329.631	-0.02
329.842	0.02
330.052	0.06
330.263	0.08
330.473	0.08
330.684	0.02
330.894	0.02
331.105	0.04
331.315	0.02
331.526	-0.02
331.736	0.12
331.947	0.08
332.157	0.03
332.367	0.01
332.578	0.04
332.788	0.08
332.999	0.07
333.209	0.03
333.419	-0
333.629	0.07
333.84	0.05
334.05	0.04
334.26	0.1
334.47	0.03
334.681	0.1
334.891	0.02
335.101	0.09
335.311	0.11
335.521	0.01
335.732	-0.04
335.942	0.11
336.152	0.05
336.362	0.04
336.572	0.04
336.782	0.07
336.992	-0.01
337.202	0.03
337.412	0.03
337.622	0.04
337.832	0.03
338.042	0.02
338.252	0.02
338.462	0.03
338.672	0.04
338.882	-0.03
339.092	0.07
339.302	0.11
339.511	0.07
339.721	-0.01
339.931	-0.02
340.141	0.01
340.351	0.07
340.561	0.07
340.77	0.03
340.98	0.02
341.19	0.06
341.4	0.03
341.609	0
341.819	0.01
342.029	0.01
342.238	0.05
342.448	0.03
342.658	0.06
342.867	0.03
343.077	0.09
343.286	0.04
343.496	-0
343.706	0.09
343.915	-0.02
344.125	0.05
344.334	0.06
344.544	-0.01
344.753	0.04
344.963	-0
345.172	0.01
345.381	0.02
345.591	-0.01
345.8	0.05
346.01	0.1
346.219	0.09
346.428	-0.09
346.638	0.02
346.847	0.02
347.056	0.1
347.266	0.04
347.475	0.04
347.684	0.03
347.893	0.05
348.103	0.04
348.312	0.02
348.521	0.01
348.73	0.06
348.94	0.09
349.149	0.02
349.358	0.01
349.567	0.03
349.776	-0.02
349.985	-0.01
350.194	0.05
350.403	0.06
350.612	-0.01
350.821	0
351.03	0.04
351.239	-0.02
351.448	0.01
351.657	-0.02
351.866	0.13
352.075	0.01
352.284	0.08
352.493	-0.02
352.702	0.07
352.911	0.06
353.12	0.04
353.329	0.01
353.538	0.09
353.746	0.03
353.955	-0
354.164	0.03
354.373	-0
354.582	0.08
354.79	0.06
354.999	0.06
355.208	0
355.416	0.13
355.625	0
355.834	-0.01
356.042	0.08
356.251	0.02
356.46	-0.01
356.668	0.09
356.877	0.12
357.085	0.07
357.294	-0.05
357.503	0.03
357.711	0.01
357.92	0.16
358.128	0.09
358.337	0.03
358.545	0.05
358.754	-0
358.962	0.1
359.17	0.02
359.379	0.07
359.587	0.06
359.796	0.05
360.004	0.08
360.212	0.06
360.421	0.05
360.629	0.02
360.837	0.01
361.046	0.06
361.254	0.09
361.462	0
361.67	0.03
361.879	0.02
362.087	0.13
362.295	0.03
362.503	-0.01
362.711	-0.02
362.92	-0.02
363.128	0.01
363.336	-0.03
363.544	-0.04
363.752	-0
363.96	-0
364.168	-0.01
364.376	0.02
364.584	0.06
364.792	0.06
365	0.07
365.208	0.04
365.416	0.03
365.624	0.08
365.832	0
366.04	0.07
366.248	0.03
366.456	0.06
366.664	0.05
366.872	0.01
367.079	0
367.287	0.06
367.495	0.06
367.703	0.06
367.911	-0.01
368.118	0.02
368.326	0.03
368.534	-0.03
368.742	0.08
368.949	-0.04
369.157	0.05
369.365	0.05
369.572	0.01
369.78	0
369.988	0.05
370.195	0.04
370.403	0.07
370.61	0.01
370.818	0.07
371.026	0.06
371.233	0.03
371.441	0.03
371.648	-0
371.856	0.03
372.063	0.03
372.271	0.02
372.478	0.01
372.685	-0
372.893	0.06
373.1	-0.02
373.308	0.01
373.515	0.11
373.722	0.06
373.93	0.04
374.137	0.07
374.344	0.09
374.552	0.09
374.759	0.07
374.966	0.03
375.173	-0
375.381	0.11
375.588	0.07
375.795	-0.07
376.002	0.02
376.209	-0.04
376.417	0.02
376.624	0.02
376.831	0.07
377.038	0.02
377.245	-0.02
377.452	0.03
377.659	0.04
377.866	-0
378.073	-0.02
378.28	0.03
378.487	0.05
378.694	0.03
378.901	0.03
379.108	0.04
379.315	0.05
379.522	0.13
379.729	0.02
379.936	-0.04
380.143	0.03
380.35	0.07
380.557	0.04
380.763	0.03
380.97	-0
381.177	0.02
381.384	0.05
381.591	0.01
381.797	0.02
382.004	0.05
382.211	0.05
382.418	-0.03
382.624	0.07
382.831	0.1
383.038	0
383.244	0.03
383.451	-0
383.658	0
383.864	0.05
384.071	-0.05
384.277	0.1
384.484	0.01
384.69	0.08
384.897	0.01
385.103	0.01
385.31	0.04
385.516	0.02
385.723	0.04
385.929	0.01
386.136	-0.04
386.342	0.06
386.549	0.02
386.755	0.11
386.961	0.06
387.168	0.02
387.374	0.05
387.58	0.06
387.787	0.04
387.993	0.07
388.199	0.02
388.406	0.01
388.612	0.06
388.818	0.02
389.024	0
389.231	0.02
389.437	0.08
389.643	0.07
389.849	0.05
390.055	0.01
390.261	0.05
390.467	0.01
390.674	0
390.88	0.07
391.086	0.02
391.292	-0.01
391.498	0.07
391.704	0.07
391.91	0.03
392.116	-0.02
392.322	-0.02
392.528	0.08
392.734	-0
392.94	0.03
393.146	-0
393.352	0.02
393.557	0.02
393.763	0.02
393.969	0.06
394.175	0.04
394.381	0.03
394.587	-0.02
394.792	0.02
394.998	0.07
395.204	0.1
395.41	-0.01
395.615	0.06
395.821	0.03
396.027	0.08
396.233	-0.04
396.438	-0.01
396.644	0.07
396.85	0.05
397.055	0.04
397.261	0.06
397.466	0.02
397.672	0.02
397.878	0.05
398.083	0.04
398.289	-0.01
398.494	0.07
398.7	0.06
398.905	-0.04
399.111	0.04
399.316	-0.01
399.522	0.05
399.727	0.01
399.932	-0
400.138	0.03
400.343	0.05
400.549	0.08
400.754	0.04
400.959	0.03
401.165	0.01
401.37	0.08
401.575	0.12
401.78	0.03
401.986	-0
402.191	0.01
402.396	0.02
402.601	0.02
402.807	0.05
403.012	0.05
403.217	0.05
403.422	0.03
403.627	0
403.832	-0
404.037	0.02
404.243	0.07
404.448	0.02
404.653	0.02
404.858	0.06
405.063	0.07
405.268	0.02
405.473	-0.02
405.678	-0.02
405.883	0.12
406.088	0.05
406.293	-0.04
406.498	-0
406.703	0.07
406.907	0.01
407.112	0.01
407.317	0.04
407.522	0.05
407.727	-0.02
407.932	0.01
408.136	0.12
408.341	0
408.546	0.05
408.751	0.04
408.956	0.04
409.16	0.02
409.365	0.01
409.57	0.01
409.774	0.05
409.979	0.12
410.184	0.03
410.388	-0.02
410.593	0.09
410.798	0.01
411.002	0.01
411.207	0.03
411.411	0.04
411.616	0.01
411.82	-0.02
412.025	0.05
412.229	-0.06
412.434	0.12
412.638	0.06
412.843	-0
413.047	0.05
413.252	0.02
413.456	0.01
413.66	0.1
413.865	-0.02
414.069	0.11
414.273	-0.01
414.478	0
414.682	0.02
414.886	-0.01
415.091	-0.05
415.295	-0.05
415.499	0.06
415.703	-0.02
415.908	0.02
416.112	-0.05
416.316	0.07
416.52	0
416.724	-0.05
416.929	0.03
417.133	0.12
417.337	0.01
417.541	-0.01
417.745	0.03
417.949	0.05
418.153	0.05
418.357	-0.02
418.561	0.11
418.765	0.04
418.969	0.14
419.173	0.05
419.377	-0.03
419.581	0.1
419.785	0.07
419.989	-0.02
420.193	0
420.397	0.02
420.601	0.04
420.804	0.06
421.008	0.05
421.212	0.05
421.416	0.04
421.62	0.01
421.823	0.02
422.027	0.11
422.231	0.05
422.435	0.02
422.638	0.03
422.842	0.02
423.046	-0.02
423.249	0.07
423.453	0.05
423.657	0.03
423.86	0.03
424.064	0.05
424.268	0.08
424.471	0.03
424.675	0.08
424.878	0.12
425.082	0.01
425.285	0.07
425.489	0.02
425.692	0.02
425.896	0.01
426.099	0.06
426.303	-0.03
426.506	-0.07
426.71	0.04
426.913	0.06
427.116	0.05
427.32	-0.01
427.523	0.04
427.726	0.11
427.93	-0
428.133	0.01
428.336	-0.02
428.54	-0.06
428.743	0.05
428.946	0.09
429.149	0.01
429.353	0.02
429.556	-0.03
429.759	0.04
429.962	-0.01
430.165	0.04
430.368	0.05
430.571	0.01
430.775	0.02
430.978	0.01
431.181	0.05
431.384	0.01
431.587	0.05
431.79	0.02
431.993	-0.1
432.196	0.01
432.399	0.07
432.602	0.04
432.805	0.02
433.008	-0.03
433.211	-0.06
433.414	0.07
433.616	0.01
433.819	-0.02
434.022	-0.08
434.225	0.11
434.428	0.08
434.631	0.11
434.833	0.03
435.036	0.01
435.239	0.06
435.442	0.02
435.645	0.03
435.847	-0.01
436.05	0.03
436.253	0
436.455	-0.04
436.658	0.05
436.861	0.11
437.063	-0.03
437.266	0.01
437.468	-0
437.671	0.15
437.874	0.03
438.076	-0.07
438.279	-0.02
438.481	0.06
438.684	0.03
438.886	0.06
439.089	-0.05
439.291	0
439.494	0.03
439.696	-0.01
439.899	-0.03
440.101	0.05
440.303	-0.02
440.506	0.05
440.708	0.04
440.91	0.07
441.113	-0.03
441.315	0.05
441.517	-0.02
441.72	0.09
441.922	0.03
442.124	-0.03
442.326	0.09
442.529	0.08
442.731	-0.01
442.933	0.11
443.135	0.05
443.337	-0.03
443.539	0.01
443.742	0
443.944	0.05
444.146	-0
444.348	0.02
444.55	-0.01
444.752	-0.03
444.954	-0.03
445.156	-0.01
445.358	-0.06
445.56	0.05
445.762	-0.01
445.964	0.02
446.166	-0.03
446.368	0.03
446.57	0.03
446.772	0.02
446.974	0.04
447.175	0.05
447.377	-0.03
447.579	-0
447.781	-0.06
447.983	0.1
448.184	0.03
448.386	0.01
448.588	-0.05
448.79	0.03
448.991	-0.03
449.193	0.02
449.395	0.01
449.597	0.07
449.798	0.01
450	0.04
450.202	0.01
450.403	0.01
450.605	0.04
450.806	-0.05
451.008	-0.04
451.21	0.03
451.411	-0
451.613	-0.01
451.814	0.04
452.016	0.07
452.217	0.05
452.419	0.08
452.62	0.02
452.821	0.06
453.023	0.05
453.224	0.06
453.426	0.08
453.627	0.01
453.828	0.07
454.03	-0.02
454.231	0.03
454.432	-0.02
454.634	0.12
454.835	-0.03
455.036	-0.01
455.238	0.04
455.439	0.12
455.64	-0.04
455.841	-0.03
456.042	0.06
456.244	0.06
456.445	-0.03
456.646	-0.02
456.847	0
457.048	0.11
457.249	0.03
457.45	0.2
457.651	-0.02
457.852	0.07
458.054	0.02
458.255	0.01
458.456	0.04
458.657	-0.01
458.858	-0.05
459.058	0.04
459.259	0.09
459.46	-0.01
459.661	0
459.862	0.15
460.063	-0.02
460.264	0.05
460.465	-0.04
460.666	0.08
460.866	0.05
461.067	0.01
461.268	0.01
461.469	-0
461.67	0.03
461.87	0.02
462.071	0.02
462.272	0
462.473	0.01
462.673	-0.01
462.874	-0.06
463.075	0.01
463.275	-0.01
463.476	0.09
463.676	0.06
463.877	-0.01
464.078	0.03
464.278	0.06
464.479	0.04
464.679	0.01
464.88	0.02
465.08	0.16
465.281	0
465.481	-0.05
465.682	0.02
465.882	0.1
466.083	0.07
466.283	0.03
466.483	0.05
466.684	-0.02
466.884	-0.04
467.085	0.05
467.285	0.09
467.485	-0.01
467.686	0.04
467.886	-0.06
468.086	-0.02
468.286	0.05
468.487	0.05
468.687	-0.04
468.887	-0.01
469.087	0.03
469.287	0.01
469.488	-0.01
469.688	0.05
469.888	0.06
470.088	0.05
470.288	0.08
470.488	0.08
470.688	-0.05
470.888	-0.04
471.088	0.01
471.288	0.07
471.488	0.02
471.688	0.01
471.888	0.02
472.088	0.09
472.288	0.07
472.488	0.01
472.688	0.02
472.888	0
473.088	0.02
473.288	0.01
473.488	0.02
473.688	0.11
473.887	0.04
474.087	0.02
474.287	0.02
474.487	-0.02
474.687	0.05
474.886	-0
475.086	-0
475.286	0.02
475.486	-0
475.685	0.04
475.885	-0.01
476.085	0.03
476.284	0.04
476.484	0.01
476.684	0.03
476.883	0.05
477.083	0.03
477.282	0.01
477.482	0.07
477.681	0.04
477.881	0.02
478.08	-0.02
478.28	-0.01
478.479	0.05
478.679	0.07
478.878	0.02
479.078	-0.03
479.277	0.03
479.477	-0.04
479.676	0.07
479.875	-0
480.075	-0.02
480.274	0.01
480.473	0.02
480.673	0.01
480.872	0.04
481.071	0.02
481.271	0.03
481.47	0
481.669	-0.01
481.868	0.01
482.067	-0
482.267	-0.01
482.466	-0.01
482.665	-0.02
482.864	-0.03
483.063	-0.02
483.262	0.03
483.461	0.05
483.661	0.04
483.86	0.02
484.059	0.01
484.258	0.01
484.457	0.01
484.656	0.02
484.855	0.06
485.054	-0.01
485.253	-0.01
485.452	-0.02
485.651	0.02
485.849	0.01
486.048	0.01
486.247	-0.01
486.446	0.02
486.645	-0.01
486.844	-0.01
487.043	0.02
487.241	0.04
487.44	-0
487.639	-0
487.838	0.01
488.037	0
488.235	0.07
488.434	0.02
488.633	-0.01
488.831	-0.01
489.03	0.05
489.229	0.02
489.427	0.01
489.626	0.05
489.825	0.06
490.023	0.01
490.222	-0.02
490.42	0.03
490.619	0.05
490.817	0.01
491.016	-0
491.214	0.05
491.413	0
491.611	0.01
491.81	0.01
492.008	0.04
492.207	0.02
492.405	0.01
492.604	-0.01
492.802	0
493	0
493.199	0
493.397	0.03
493.595	-0.01
493.794	-0.01
493.992	0.06
494.19	-0
494.388	0.03
494.587	0.01
494.785	0.01
494.983	-0.05
495.181	0
495.379	0.03
495.578	-0.02
495.776	0.02
495.974	0.02
496.172	-0
496.37	0.01
496.568	-0.01
496.766	0.01
496.964	0.04
497.162	0
497.36	-0.02
497.558	0.04
497.756	0.02
497.954	0.01
498.152	-0.01
498.35	0.01
498.548	-0
498.746	0.02
498.944	-0.01
499.142	0.01
499.34	-0.04
499.538	0.01
499.736	-0.01
499.933	0.05
500.131	0.03
500.329	0.02
500.527	0.05
500.725	0.04
500.922	0.02
501.12	0.03
501.318	0.03
501.516	-0.02
501.713	0.02
501.911	0.01
502.109	-0.02
502.306	0
502.504	0
502.701	0
502.899	0.01
503.097	0.06
503.294	0.02
503.492	0
503.689	0.01
503.887	0.04
504.084	0.06
504.282	0.01
504.479	-0.03
504.677	-0
504.874	-0.03
505.072	0.01
505.269	-0
505.466	0.03
505.664	0.01
505.861	-0.02
506.059	-0.04
506.256	0.04
506.453	-0.02
506.651	0.04
506.848	0.03
507.045	0.01
507.242	0.01
507.44	-0.01
507.637	-0.01
507.834	0.01
508.031	0.03
508.229	-0.02
508.426	0.03
508.623	0.02
508.82	-0
509.017	-0.02
509.214	-0
509.411	-0.01
509.608	-0.01
509.805	0
510.003	0.01
510.2	0.01
510.397	0.03
510.594	-0
510.791	-0.01
510.988	-0.01
511.184	0.05
511.381	0
511.578	0.01
511.775	0.01
511.972	-0.02
512.169	-0.02
512.366	0.01
512.563	0.02
512.76	-0.01
512.956	-0
513.153	0.02
513.35	0.02
513.547	-0.01
513.744	-0.01
513.94	-0.02
514.137	0
514.334	0.02
514.53	0.02
514.727	-0
514.924	0.05
515.12	0
515.317	-0.02
515.514	0
515.71	-0.02
515.907	0.01
516.103	0.01
516.3	0.01
516.497	0.02
516.693	0.02
516.89	-0
517.086	-0.03
517.283	0.04
517.479	0
517.676	0.01
517.872	0
518.068	-0.02
518.265	0
518.461	-0
518.658	-0.01
518.854	0.04
519.05	0.01
519.247	-0.01
519.443	0
519.639	0.01
519.836	0.01
520.032	0
520.228	0.01
520.424	0.06
520.621	0.02
520.817	0.02
521.013	0.04
521.209	0.02
521.405	0.04
521.601	0.02
521.798	0.02
521.994	0.05
522.19	-0.03
522.386	-0.01
522.582	-0
522.778	0
522.974	-0.01
523.17	0.02
523.366	0
523.562	0.02
523.758	0.02
523.954	-0.02
524.15	-0.02
524.346	0.03
524.542	0
524.738	-0.01
524.934	0.01
525.129	-0.07
525.325	0.02
525.521	0
525.717	0.03
525.913	-0.01
526.109	0.01
526.304	0.02
526.5	0.03
526.696	0.02
526.892	0
527.087	0.01
527.283	-0.01
527.479	0.02
527.674	0.01
527.87	0.02
528.066	0.01
528.261	0.02
528.457	0.01
528.653	0.02
528.848	0.01
529.044	0.01
529.239	-0
529.435	0.02
529.63	0.02
529.826	0.04
530.021	0.02
530.217	0.04
530.412	0.01
530.608	0
530.803	0.02
530.999	0.01
531.194	-0.04
531.389	-0
531.585	-0.04
531.78	0.01
531.975	0.01
532.171	0.04
532.366	0.01
532.561	0
532.757	-0.01
532.952	0.01
533.147	0.04
533.342	-0.01
533.538	-0.01
533.733	0.05
533.928	-0.01
534.123	0.01
534.318	-0.01
534.513	0.02
534.709	0
534.904	-0.01
535.099	-0
535.294	-0
535.489	0.01
535.684	0.01
535.879	-0.01
536.074	0.03
536.269	-0
536.464	0.02
536.659	0.01
536.854	-0
537.049	0.01
537.244	0.01
537.439	0.01
537.634	0.04
537.828	0.01
538.023	0.01
538.218	-0.03
538.413	0.02
538.608	-0.01
538.803	0.04
538.997	-0.03
539.192	0.02
539.387	0.02
539.582	0.02
539.776	0.02
539.971	-0.01
540.166	0
540.36	-0.02
540.555	0.03
540.75	-0.02
540.944	0.01
541.139	-0
541.334	-0.01
541.528	0.02
541.723	0.03
541.917	-0.01
542.112	-0.03
542.306	-0.01
542.501	0
542.695	0.03
542.89	-0.02
543.084	0.02
543.279	-0
543.473	-0
543.668	0.01
543.862	0.02
544.056	0.03
544.251	0.03
544.445	0.02
544.64	-0.01
544.834	-0.02
545.028	-0
545.222	0.01
545.417	0.02
545.611	-0.01
545.805	0
546	-0
546.194	-0
546.388	0
546.582	0
546.776	-0.01
546.97	0
547.165	0.02
547.359	0.01
547.553	0
547.747	0.03
547.941	0.01
548.135	0.02
548.329	0.04
548.523	0.01
548.717	0.02
548.911	-0.01
549.105	-0
549.299	0.01
549.493	0.01
549.687	0.02
549.881	0.01
550.075	0.02
550.269	-0.03
550.463	0.03
550.657	-0.01
550.85	0.03
551.044	-0.01
551.238	0.03
551.432	-0
551.626	-0.02
551.82	0.02
552.013	-0
552.207	0.03
552.401	0.03
552.594	0.02
552.788	-0
552.982	0.01
553.176	-0.03
553.369	0.03
553.563	0.01
553.756	-0.03
553.95	0.01
554.144	0.02
554.337	0.03
554.531	0.02
554.724	0.03
554.918	0.01
555.111	0.02
555.305	0.02
555.498	0.04
555.692	0.05
555.885	0
556.079	0.02
556.272	-0.02
556.466	0.04
556.659	0.03
556.852	-0.01
557.046	-0
557.239	0.03
557.432	-0.02
557.626	-0.02
557.819	0.01
558.012	0.04
558.206	0.02
558.399	-0.01
558.592	-0
558.785	0
558.979	0.01
559.172	0.02
559.365	0.04
559.558	0.03
559.751	0
559.944	-0.01
560.138	-0.01
560.331	0.02
560.524	-0.01
560.717	0.03
560.91	0.01
561.103	0.02
561.296	0.02
561.489	0.01
561.682	0.01
561.875	0.06
562.068	0.04
562.261	0
562.454	0.05
562.647	0.01
562.84	0.03
563.032	0.01
563.225	-0
563.418	-0
563.611	0
563.804	0.02
563.997	0
564.19	-0.01
564.382	-0.02
564.575	0
564.768	0.01
564.961	0
565.153	-0.03
565.346	0.05
565.539	0.04
565.731	0.04
565.924	0.02
566.117	0.03
566.309	0
566.502	0.01
566.695	-0
566.887	0.01
567.08	-0.02
567.272	-0.01
567.465	-0.02
567.657	0.03
567.85	0
568.042	0.03
568.235	0.04
568.427	0.01
568.62	0.01
568.812	0.03
569.005	0.01
569.197	-0.03
569.389	0
569.582	0.02
569.774	-0
569.966	0.01
570.159	-0.02
570.351	0.03
570.543	-0.01
570.736	0.01
570.928	-0.02
571.12	0.02
571.312	-0.01
571.505	-0.04
571.697	0.03
571.889	-0.01
572.081	-0.01
572.273	-0.02
572.465	0.03
572.658	0.01
572.85	0.01
573.042	-0.01
573.234	-0.01
573.426	0.03
573.618	-0.03
573.81	0.03
574.002	0.05
574.194	0.03
574.386	-0.03
574.578	-0.06
574.77	-0
574.962	0.03
575.154	-0.03
575.346	-0.01
575.538	0.02
575.729	-0.01
575.921	0.01
576.113	-0.01
576.305	0.04
576.497	-0
576.689	0.01
576.88	-0.02
577.072	0.03
577.264	0
577.456	0
577.647	-0.07
577.839	0.02
578.031	0.06
578.223	-0.03
578.414	-0.02
578.606	-0
578.798	-0
578.989	-0.01
579.181	0.02
579.372	-0
579.564	0.01
579.755	0.02
579.947	0.01
580.139	0.02
580.33	-0.02
580.522	-0.01
580.713	-0.05
580.905	-0.01
581.096	0.03
581.287	0.01
581.479	-0.01
581.67	0.03
581.862	0.02
582.053	-0.02
582.244	-0.03
582.436	0
582.627	0.03
582.818	-0.01
583.01	-0.04
583.201	0.02
583.392	0.05
583.583	0.04
583.775	-0
583.966	-0
584.157	-0.01
584.348	-0.01
584.54	-0.03
584.731	0.02
584.922	-0
585.113	0.01
585.304	-0.01
585.495	0.06
585.686	0
585.877	0.02
586.068	0.03
586.259	-0
586.45	0.01
586.641	-0.01
586.832	-0.05
587.023	0.03
587.214	-0
587.405	-0
587.596	-0.04
587.787	0.07
587.978	0.01
588.169	-0
588.36	0.01
588.551	-0.01
588.742	0.01
588.932	0.03
589.123	0.01
589.314	0.04
589.505	0.02
589.696	0.04
589.886	-0
590.077	-0.04
590.268	0.02
590.458	-0.02
590.649	-0.04
590.84	0.03
591.03	0.01
591.221	-0.02
591.412	-0.04
591.602	0.04
591.793	0.04
591.984	-0.01
592.174	-0.02
592.365	0.05
592.555	-0.01
592.746	0.02
592.936	0.03
593.127	0.01
593.317	0.05
593.508	0.01
593.698	0.01
593.889	-0.01
594.079	-0
594.269	-0.02
594.46	0.01
594.65	0.01
594.84	0.02
595.031	-0.03
595.221	-0
595.411	-0.04
595.602	0.04
595.792	-0.01
595.982	0
596.172	0.06
596.363	0.02
596.553	0.03
596.743	-0.02
596.933	-0
597.123	0.01
597.314	-0.01
597.504	0
597.694	0.05
597.884	0.01
598.074	0
598.264	-0.01
598.454	0.04
598.644	0
598.834	-0
599.024	-0.04
599.214	0.01
599.404	0.04
599.594	-0
599.784	-0.01
599.974	0.05
600.164	0.04
600.354	-0.03
600.544	-0.04
600.734	0.03
600.924	0.05
601.114	-0
601.303	-0
601.493	0.02
601.683	0
601.873	0.01
602.063	-0.01
602.252	0.05
602.442	-0.06
602.632	-0.02
602.821	-0.03
603.011	0.04
603.201	0
603.39	0.01
603.58	-0.03
603.77	0.01
603.959	0.04
604.149	0.03
604.339	0.01
604.528	0.04
604.718	0.05
604.907	0
605.097	0
605.286	0
605.476	0.02
605.665	0.02
605.855	0.01
606.044	0.05
606.234	0.02
606.423	-0.02
606.612	-0.02
606.802	0.02
606.991	0.02
607.181	0.02
607.37	0
607.559	-0
607.749	-0.04
607.938	0.01
608.127	0.01
608.316	0.01
608.506	0.02
608.695	-0.02
608.884	-0.02
609.073	0.02
609.263	0.02
609.452	0.05
609.641	0.02
609.83	-0.03
610.019	-0
610.208	-0.02
610.397	0.02
610.586	0.02
610.775	-0.01
610.965	-0
611.154	-0.01
611.343	0.03
611.532	0.01
611.721	-0.02
611.91	-0.01
612.099	0.03
612.287	-0.02
612.476	-0.02
612.665	-0.03
612.854	-0.01
613.043	0.05
613.232	0.02
613.421	-0.04
613.61	0.02
613.798	-0.01
613.987	0.03
614.176	0.02
614.365	0.04
614.554	0.02
614.742	0.06
614.931	0
615.12	0.02
615.309	0
615.497	0.03
615.686	-0.01
615.875	0.01
616.063	0.06
616.252	0.01
616.44	-0.04
616.629	0
616.818	0.04
617.006	-0.02
617.195	-0.02
617.383	0.05
617.572	-0.01
617.76	-0.03
617.949	-0.01
618.137	0.02
618.326	0.06
618.514	-0.02
618.703	-0.01
618.891	0.05
619.079	-0.04
619.268	0.04
619.456	-0.01
619.644	0.04
619.833	-0.03
620.021	-0.01
620.209	-0.05
620.398	0.03
620.586	0.02
620.774	0.02
620.962	-0.01
621.151	0.04
621.339	0.01
621.527	-0.02
621.715	-0.02
621.903	-0.04
622.092	-0.03
622.28	0.02
622.468	0.02
622.656	0.01
622.844	-0.01
623.032	-0.01
623.22	-0.04
623.408	0.02
623.596	0.02
623.784	0.03
623.972	0.01
624.16	0.02
624.348	0.04
624.536	-0
624.724	0
624.912	0.04
625.1	0.03
625.288	-0.02
625.476	-0.01
625.664	0.04
625.851	-0.01
626.039	0.02
626.227	0
626.415	-0
626.603	-0.06
626.79	-0.01
626.978	-0
627.166	0.05
627.354	0.03
627.541	-0.04
627.729	-0.03
627.917	0.01
628.104	0.07
628.292	0.02
628.48	0.01
628.667	0.02
628.855	-0
629.042	0.05
629.23	0.01
629.418	-0
629.605	-0.03
629.793	0
629.98	-0.02
630.168	-0.01
630.355	-0.03
630.543	0.01
630.73	-0.01
630.917	0.04
631.105	0.09
631.292	-0.01
631.48	-0.01
631.667	0.07
631.854	0.03
632.042	0.01
632.229	-0.03
632.416	0.04
632.604	0.03
632.791	-0.02
632.978	0.03
633.165	0.03
633.353	0.04
633.54	0.07
633.727	-0.04
633.914	-0.02
634.101	-0.05
634.289	0.03
634.476	-0.02
634.663	-0.01
634.85	0.01
635.037	-0.05
635.224	-0.02
635.411	0.05
635.598	0.03
635.785	0.02
635.972	0.01
636.159	0.09
636.346	-0.02
636.533	0.04
636.72	0.01
636.907	-0.01
637.094	0.02
637.281	0.02
637.468	0.02
637.655	0.02
637.842	0.02
638.029	0.01
638.215	0.04
638.402	0
638.589	-0.03
638.776	0.02
638.963	0
639.149	0.05
639.336	0.06
639.523	0.02
639.709	0.02
639.896	0.01
640.083	0.08
640.27	0.02
640.456	-0.02
640.643	0.02
640.829	-0.05
641.016	0.01
641.203	-0.03
641.389	0.04
641.576	0.04
641.762	-0.02
641.949	-0.02
642.135	0.05
642.322	0.05
642.508	-0.04
642.695	0.02
642.881	-0.03
643.068	0.01
643.254	-0
643.441	0.05
643.627	0.01
643.813	-0.03
644	0.08
644.186	-0.01
644.372	-0.02
644.559	0.07
644.745	0.02
644.931	-0.01
645.118	0.02
645.304	0.01
645.49	-0.01
645.676	0
645.862	0.01
646.049	0.08
646.235	0.01
646.421	0.06
646.607	0.1
646.793	0.02
646.979	-0.02
647.165	0.04
647.352	0.03
647.538	0.08
647.724	0.01
647.91	0.05
648.096	0.07
648.282	0.08
648.468	0.02
648.654	0.03
648.84	0
649.026	0.01
649.212	0.02
649.397	0
649.583	-0.05
649.769	0.02
649.955	0.01
650.141	0.05
650.327	0.08
650.513	-0.03
650.698	0.05
650.884	-0.06
651.07	0.05
651.256	0.02
651.442	0.04
651.627	0.04
651.813	0.03
651.999	0.03
652.184	0.03
652.37	-0
652.556	-0.02
652.741	0.08
652.927	-0.02
653.113	0.01
653.298	0.06
653.484	-0
653.669	-0
653.855	-0.01
654.04	0.04
654.226	0.04
654.412	0.03
654.597	0.02
654.782	0.03
654.968	0.05
655.153	0.05
655.339	0.03
655.524	-0.01
655.71	0.05
655.895	-0
656.08	0.03
656.266	0.04
656.451	0.04
656.636	-0
656.822	0.03
657.007	0.01
657.192	-0.01
657.378	-0
657.563	0.03
657.748	0.04
657.933	0.07
658.118	-0
658.304	-0.02
658.489	0.07
658.674	0.04
658.859	-0.03
659.044	0.08
659.229	0.06
659.414	0.04
659.599	0.02
659.785	0.03
659.97	0.01
660.155	0.07
660.34	0.07
660.525	0.03
660.71	0.03
660.895	0.06
661.08	0.05
661.264	-0
661.449	0.07
661.634	0.06
661.819	0.05
662.004	0.06
662.189	-0.05
662.374	0.03
662.559	0
662.743	-0.02
662.928	0.05
663.113	0.01
663.298	-0.02
663.483	0.03
663.667	0.07
663.852	-0.01
664.037	0.08
664.221	0.04
664.406	0.04
664.591	0.07
664.775	0.04
664.96	-0.01
665.145	0.05
665.329	0.07
665.514	0.03
665.698	0.04
665.883	0.01
666.068	0.08
666.252	0.06
666.437	-0.01
666.621	0.05
666.806	0.1
666.99	0.06
667.174	0.03
667.359	0.09
667.543	0.04
667.728	0.08
667.912	-0
668.096	0.08
668.281	0.02
668.465	0.07
668.649	0.03
668.834	0.06
669.018	0.05
669.202	0.03
669.387	-0.02
669.571	0.11
669.755	0.03
669.939	0.07
670.124	0.06
670.308	0.1
670.492	0.09
670.676	0.1
670.86	0.06
671.044	0.03
671.228	0.1
671.413	0.03
671.597	0.05
671.781	0.07
671.965	0.1
672.149	0.06
672.333	0.05
672.517	0.03
672.701	0.13
672.885	0.04
673.069	0.01
673.253	0.16
673.437	0.06
673.621	0.05
673.804	0.08
673.988	0.11
674.172	0.08
674.356	0.03
674.54	0.06
674.724	0.14
674.908	0.15
675.091	0.11
675.275	0.09
675.459	0.13
675.643	0.2
675.826	0.09
676.01	0.09
676.194	0.08
676.377	0.18
676.561	0.11
676.745	0.12
676.928	0.12
677.112	0.19
677.296	0.1
677.479	0.1
677.663	0.09
677.846	0.19
678.03	0.1
678.213	0.11
678.397	0.07
678.58	0.1
678.764	0.15
678.947	0.1
679.131	0.13
679.314	0.19
679.498	0.12
679.681	0.17
679.865	0.18
680.048	0.17
680.231	0.12
680.415	0.15
680.598	0.13
680.781	0.13
680.965	0.14
681.148	0.16
681.331	0.17
681.514	0.19
681.698	0.15
681.881	0.19
682.064	0.13
682.247	0.14
682.43	0.09
682.614	0.17
682.797	0.27
682.98	0.2
683.163	0.16
683.346	0.22
683.529	0.18
683.712	0.18
683.895	0.23
684.078	0.2
684.261	0.19
684.444	0.26
684.627	0.27
684.81	0.2
684.993	0.2
685.176	0.21
685.359	0.21
685.542	0.24
685.725	0.25
685.908	0.2
686.091	0.23
686.274	0.32
686.457	0.28
686.639	0.23
686.822	0.32
687.005	0.24
687.188	0.26
687.371	0.37
687.553	0.32
687.736	0.33
687.919	0.35
688.102	0.3
688.284	0.25
688.467	0.29
688.65	0.27
688.832	0.26
689.015	0.23
689.197	0.25
689.38	0.4
689.563	0.42
689.745	0.31
689.928	0.29
690.11	0.31
690.293	0.33
690.475	0.26
690.658	0.4
690.84	0.38
691.023	0.34
691.205	0.36
691.388	0.41
691.57	0.42
691.752	0.45
691.935	0.28
692.117	0.35
692.3	0.41
692.482	0.37
692.664	0.36
692.847	0.43
693.029	0.46
693.211	0.46
693.393	0.39
693.576	0.43
693.758	0.43
693.94	0.46
694.122	0.44
694.304	0.39
694.487	0.42
694.669	0.55
694.851	0.43
695.033	0.47
695.215	0.48
695.397	0.45
695.579	0.48
695.761	0.48
695.943	0.44
696.125	0.6
696.308	0.62
696.49	0.46
696.671	0.69
696.853	0.58
697.035	0.77
697.217	0.54
697.399	0.62
697.581	0.55
697.763	0.63
697.945	0.62
698.127	0.63
698.309	0.69
698.491	0.66
698.672	0.7
698.854	0.7
699.036	0.8
699.218	0.69
699.399	0.76
699.581	0.79
699.763	0.75
699.945	0.69
700.126	0.67
700.308	0.75
700.49	0.76
700.671	0.71
700.853	0.77
701.035	0.86
701.216	0.85
701.398	0.79
701.579	0.84
701.761	0.91
701.943	0.81
702.124	0.85
702.306	0.94
702.487	1.08
702.669	0.95
702.85	0.93
703.031	0.93
703.213	1.09
703.394	1.06
703.576	1.07
703.757	1.18
703.938	1.11
704.12	1.22
704.301	1.16
704.483	1.03
704.664	1.17
704.845	1.26
705.026	1.26
705.208	1.19
705.389	1.21
705.57	1.22
705.751	1.26
705.933	1.28
706.114	1.37
706.295	1.37
706.476	1.26
706.657	1.41
706.838	1.37
707.02	1.46
707.201	1.4
707.382	1.42
707.563	1.5
707.744	1.46
707.925	1.44
708.106	1.52
708.287	1.59
708.468	1.67
708.649	1.67
708.83	1.65
709.011	1.66
709.192	1.69
709.373	1.71
709.554	1.8
709.734	1.8
709.915	1.78
710.096	1.8
710.277	1.74
710.458	1.91
710.639	1.95
710.819	1.83
711	1.91
711.181	2.07
711.362	2.12
711.542	2.11
711.723	2.11
711.904	2.15
712.085	2.15
712.265	2.21
712.446	2.2
712.627	2.34
712.807	2.26
712.988	2.39
713.168	2.35
713.349	2.38
713.53	2.33
713.71	2.46
713.891	2.42
714.071	2.56
714.252	2.66
714.432	2.73
714.613	2.6
714.793	2.78
714.974	2.78
715.154	2.93
715.334	2.91
715.515	2.96
715.695	2.88
715.876	3.05
716.056	3.06
716.236	3.14
716.417	3.15
716.597	3.09
716.777	3.45
716.957	3.25
717.138	3.37
717.318	3.46
717.498	3.35
717.678	3.54
717.859	3.61
718.039	3.62
718.219	3.58
718.399	3.7
718.579	3.75
718.759	3.92
718.939	3.94
719.12	3.93
719.3	4.11
719.48	4.05
719.66	4.01
719.84	4.34
720.02	4.33
720.2	4.28
720.38	4.41
720.56	4.57
720.74	4.5
720.92	4.67
721.1	4.83
721.279	4.94
721.459	4.85
721.639	4.89
721.819	5.04
721.999	5.05
722.179	5.31
722.359	5.11
722.538	5.33
722.718	5.42
722.898	5.46
723.078	5.59
723.257	5.65
723.437	5.69
723.617	5.89
723.797	5.88
723.976	6.06
724.156	6.23
724.336	6.17
724.515	6.39
724.695	6.27
724.874	6.43
725.054	6.49
725.234	6.49
725.413	6.61
725.593	6.42
725.772	6.83
725.952	6.75
726.131	6.97
726.311	7.15
726.49	7.19
726.67	7.24
726.849	7.25
727.028	7.3
727.208	7.38
727.387	7.61
727.567	7.5
727.746	7.66
727.925	7.73
728.105	7.73
728.284	8.02
728.463	7.76
728.643	8.13
728.822	8.14
729.001	8.2
729.18	8.46
729.359	8.63
729.539	8.79
729.718	8.65
729.897	8.8
730.076	8.95
730.255	8.88
730.434	9.17
730.614	9.23
730.793	9.42
730.972	9.48
731.151	9.53
731.33	9.74
731.509	9.81
731.688	9.77
731.867	9.96
732.046	9.88
732.225	10.22
732.404	10.02
732.583	10.2
732.762	10.57
732.941	10.7
733.12	10.81
733.298	10.95
733.477	11
733.656	10.86
733.835	11.21
734.014	11.25
734.193	11.28
734.371	11.38
734.55	11.47
734.729	11.29
734.908	11.42
735.086	11.74
735.265	11.72
735.444	11.53
735.623	11.78
735.801	11.94
735.98	12.1
736.159	11.98
736.337	12.24
736.516	12.27
736.694	11.93
736.873	12.19
737.052	12.48
737.23	12.38
737.409	12.03
737.587	12.37
737.766	11.98
737.944	12.11
738.123	12.37
738.301	12.14
738.479	12.29
738.658	12.08
738.836	11.68
739.015	12
739.193	11.85
739.371	11.46
739.55	11.19
739.728	11.15
739.906	11.43
740.085	11.1
740.263	10.97
740.441	10.58
740.62	10.81
740.798	10.53
740.976	10.13
741.154	9.97
741.332	10.05
741.511	9.62
741.689	9.43
741.867	9.32
742.045	9.08
742.223	8.69
742.401	8.73
742.579	8.25
742.757	8.47
742.935	7.77
743.114	7.71
743.292	7.47
743.47	7.54
743.648	7.27
743.826	7.18
744.004	6.93
744.181	6.69
744.359	6.37
744.537	6.43
744.715	5.99
744.893	6
745.071	5.69
745.249	5.53
745.427	5.34
745.605	5.23
745.782	4.97
745.96	4.9
746.138	4.91
746.316	4.61
746.493	4.33
746.671	4.25
746.849	4.2
747.027	4.07
747.204	3.95
747.382	3.82
747.56	3.47
747.737	3.51
747.915	3.46
748.093	3.45
748.27	3.07
748.448	3.16
748.625	3.02
748.803	2.81
748.98	2.84
749.158	2.72
749.335	2.65
749.513	2.48
749.69	2.47
749.868	2.43
750.045	2.3
750.223	2.19
750.4	2.02
750.578	2.32
750.755	2.15
750.932	1.81
751.11	2.14
751.287	1.92
751.464	1.98
751.642	1.71
751.819	1.76
751.996	1.75
752.173	1.68
752.351	1.52
752.528	1.57
752.705	1.48
752.882	1.46
753.06	1.58
753.237	1.42
753.414	1.56
753.591	1.46
753.768	1.22
753.945	1.25
754.122	1.14
754.299	1.09
754.476	1.22
754.654	1.11
754.831	1.11
755.008	1.03
755.185	1.01
755.362	0.96
755.539	1.07
755.716	0.8
755.892	0.92
756.069	0.82
756.246	0.89
756.423	0.74
756.6	0.92
756.777	0.76
756.954	0.85
757.131	0.71
757.307	0.58
757.484	0.73
757.661	0.75
757.838	0.69
758.015	0.56
758.191	0.69
758.368	0.67
758.545	0.73
758.721	0.58
758.898	0.55
759.075	0.63
759.251	0.58
759.428	0.6
759.605	0.49
759.781	0.35
759.958	0.52
760.134	0.57
760.311	0.41
760.488	0.6
760.664	0.62
760.841	0.48
761.017	0.31
761.194	0.46
761.37	0.56
761.547	0.52
761.723	0.45
761.899	0.55
762.076	0.36
762.252	0.28
762.429	0.4
762.605	0.38
762.781	0.28
762.958	0.41
763.134	0.41
763.31	0.28
763.486	0.46
763.663	0.11
763.839	0.38
764.015	0.11
764.191	0.27
764.368	0.31
764.544	0.31
764.72	0.42
764.896	0.41
765.072	0.26
765.248	0.2
765.425	0.33
765.601	0.31
765.777	0.25
765.953	0.03
766.129	0.17
766.305	0.15
766.481	0.29
766.657	0.21
766.833	0.45
767.009	0.16
767.185	0.16
767.361	0.31
767.537	0.13
767.713	0.36
767.889	0.13
768.065	0.33
768.24	0.03
768.416	0.22
768.592	0.21
768.768	0.1
768.944	0.33
769.12	0.02
769.295	0.18
769.471	0.14
769.647	0.18
769.823	0.36
769.998	0.16
770.174	0.05
770.35	0.43
770.525	0.5
770.701	0.33
770.877	0.07
771.052	0.12
771.228	0.27
771.403	0.34
771.579	0.21
771.755	0.4
771.93	0.01
772.106	0.15
772.281	-0.07
772.457	0.16
772.632	0.28
772.808	-0.02
772.983	0.1
773.159	-0.06
773.334	0.33
773.509	0.18
773.685	-0.08
773.86	0.35
774.036	0.2
774.211	0.25
774.386	0.2
774.562	0.05
774.737	0.16
774.912	0.09
775.087	0.27
775.263	0.28
775.438	0.15
775.613	0.03
775.788	0.05
775.964	0.19
776.139	0.49
776.314	0.03
776.489	0.17
776.664	0.11
776.839	0.12
777.014	0.27
777.19	0.19
777.365	0.27
777.54	0.26
777.715	-0.01
777.89	0.05
778.065	-0.01
778.24	0.05
778.415	0.3
778.59	-0.04
778.765	0.08
778.94	0.2
779.115	0.06
779.289	0.18
779.464	0.13
779.639	0.17
779.814	-0.11
779.989	0.04
780.164	0.39
780.339	0.27
780.513	0.01
780.688	-0.04
780.863	0.13
781.038	0.36
781.212	-0.04
781.387	0.05
781.562	0.4
781.737	0.07
781.911	0.4
782.086	0.05
782.261	-0.08
782.435	0.41
782.61	0.13
782.784	0.08
782.959	0.22
783.134	0.17
783.308	-0.2
783.483	0.2
783.657	0.56
783.832	0.41
784.006	-0.16
784.181	0.05
784.355	0.31
784.53	-0.15
784.704	0.09
784.878	0.38
785.053	0.24
785.227	0.42
785.402	0.42
785.576	-0.15
785.75	0.24
785.925	0.01
786.099	0.09
786.273	0.29
786.448	0.25
786.622	0.28
786.796	0
786.97	-0.23
787.145	0.59
787.319	-0.04
787.493	0.05
787.667	-0.37
787.841	0.09
788.015	0.21
788.19	0.16
788.364	0.05
788.538	0.02
788.712	0.42
788.886	0.27
789.06	0.43
789.234	0.35
789.408	-0.07
789.582	0.04
789.756	0.14
789.93	0.14
790.104	0.09
790.278	0.13
790.452	0.04
790.626	0.33
790.8	0.02
790.973	0.39
791.147	0.29
791.321	0.45
791.495	0.2
791.669	0.17
791.843	0.21
792.016	0.04
792.19	0.49
792.364	-0.14
792.538	0.48
792.711	0.44
792.885	-0.09
793.059	-0.05
793.233	-0.21
793.406	0.45
793.58	0.19
793.754	0.25
793.927	0.1
794.101	0.5
794.274	0.18
794.448	0.54
794.622	-0.04
794.795	0.58
794.969	-0.09
795.142	0.51
795.316	0.37
795.489	-0.04
795.663	0.32
795.836	0.02
796.009	-0.08
796.183	0.44
796.356	0.19
796.53	0.31
796.703	0.12
796.876	0.61
797.05	0.1
797.223	-0.09
797.396	0.51
797.57	0.34
797.743	0.59
797.916	0.09
798.09	0.2
798.263	0.54
798.436	0.44
798.609	0.14
798.782	-0
798.956	0.41
799.129	0.39
799.302	0.26
799.475	0.02
799.648	0.13
799.821	-0.03
799.994	0.4
800.167	-0.09
800.34	0.12
800.514	0.03
800.687	0.26
800.86	0.02
801.033	0.13
801.206	0.33
801.379	-0.06
801.551	0.71
801.724	0.19
801.897	0.53
802.07	-0.02
802.243	-0.14
802.416	0.12
802.589	-0.08
802.762	0.08
802.935	0.35
803.107	0.55
803.28	0.34
803.453	0.29
803.626	0.09
803.798	0.27
803.971	-0.11
804.144	-0
804.317	0.41
804.489	0.54
804.662	0.13
804.835	0.08
805.007	-0.34
805.18	0.57
805.353	0.11
805.525	-0.07
805.698	-0.07
805.87	0.21
806.043	0.24
806.215	-0.15
806.388	-0.02
806.56	0.44
806.733	0.5
806.905	0.41
807.078	-0
807.25	0.26
807.423	0.29
807.595	0.14
807.768	0.16
807.94	0.5
808.112	0.62
808.285	0.23
808.457	0.11
808.629	0.51
808.802	0.61
808.974	0.16
809.146	0.11
809.318	0.02
809.491	0.26
809.663	0.77
809.835	0.04
810.007	0.51
810.18	0.18
810.352	-0.19
810.524	0.01
810.696	0.31
810.868	0.41
811.04	0.39
811.212	0.21
811.384	0.32
811.556	0.37
811.728	0.26
811.901	0.73
812.073	0.28
812.245	0.05
812.417	0.28
812.589	-0.36
812.76	0.55
812.932	0.29
813.104	0.3
813.276	0.4
813.448	0.49
813.62	0.16
813.792	0.28
813.964	0.2
814.136	0.42
814.307	0.17
814.479	-0.14
814.651	-0.06
814.823	1.15
814.995	0.06
815.166	0.31
815.338	-0.16
815.51	-0.62
815.681	0.79
815.853	0.09
816.025	0.11
816.196	0.54
816.368	0.63
816.54	-0.23
816.711	0.29
816.883	0.24
817.054	0.97
817.226	-0.28
817.398	0.65
817.569	0.25
817.741	0.43
817.912	-0.24
818.084	0.26
818.255	0.71
818.426	0.18
818.598	0.04
818.769	-0.21
818.941	0.42
819.112	0.54
819.283	0.46
819.455	-0.35
819.626	0.3
819.798	0.05
819.969	0.43
820.14	0.41
820.311	0.09
820.483	0.27
820.654	0.27
820.825	0.46
820.996	0.19
821.168	-0.15
821.339	0.23
821.51	-0.24
821.681	1.3
821.852	0.19
822.023	-0.28
822.195	-0.09
822.366	0.65
822.537	0.42
822.708	0.34
822.879	-0.13
823.05	0.68
823.221	0.4
823.392	0.45
823.563	0.09
823.734	0.33
823.905	0.22
824.076	0.14
824.247	-0.53
824.418	-0.07
824.589	0.8
824.759	0.46
824.93	0.05
825.101	-0.46
825.272	1.04
825.443	0.78
825.614	0.74
825.784	-0.68
825.955	0.88
826.126	0.5
826.297	0.49
826.467	1.12
826.638	0.92
826.809	-0.37
826.98	0.38
827.15	0.55
827.321	0.43
827.492	1.11
827.662	0.21
827.833	0.86
828.003	0.32
828.174	0.08
828.345	-0.92
828.515	1.06
828.686	0.68
828.856	-0.02
829.027	0.46
829.197	0.06
829.368	0.06
829.538	-0.1
829.709	-0.47
829.879	0.44
830.049	-0.21
830.22	0.13
830.39	-0.09
830.56	0.49
830.731	0.26
830.901	-0.22
831.072	0.65
831.242	0.6
831.412	0.41
831.582	-0.11
831.753	-0.12
831.923	0.62
832.093	0.03
832.263	0.7
832.434	-0.15
832.604	0.25
832.774	0.57
832.944	0.06
833.114	-0.41
833.284	0.31
833.454	-0.01
833.624	0.01
833.795	0.74
833.965	0.5
834.135	1.06
834.305	-0.83
834.475	-0.3
834.645	0.41
834.815	-0.02
834.985	0.12
835.155	-0
835.325	0.63
835.494	0.04
835.664	0.08
835.834	-0.27
836.004	0.29
836.174	0.74
836.344	0.58
836.514	-0.77
836.684	0.14
836.853	0.58
837.023	0.35
837.193	0.32
837.363	1.04
837.532	0.59
837.702	0.98
837.872	-0.04
838.041	0.71
838.211	2.01
838.381	-0.47
838.55	0.4
838.72	1.85
838.89	1.56
839.059	0.11
839.229	-0.19
839.398	1.27
839.568	0.31
839.738	0.6
839.907	0.96
840.077	0.25
840.246	0.24
840.416	-0.31
840.585	-0.15
840.755	1.15
840.924	0.75
841.093	0.08
841.263	-0.47
841.432	0.23
841.602	0.17
841.771	-0.15
841.94	0.76
842.11	1.62
842.279	1.07
842.448	-0.14
842.617	-0.55
842.787	1.03
842.956	-0.31
843.125	-0.06
843.294	1.31
843.464	1.2
843.633	-0.02
843.802	-0.94
843.971	0.24
844.14	0.05
844.309	1.03
844.479	-0.58
844.648	-1.02
844.817	1.07
844.986	0.43
845.155	0.34
845.324	-0.23
845.493	0.73
845.662	-0.59
845.831	0.92
846	1.22
846.169	-0.24
846.338	0.96
846.507	1
846.676	0.82
846.844	-0.01
847.013	2.21
847.182	0.41
847.351	0.1
847.52	-0.2
847.689	0.25
847.858	0.48
848.026	0.26
848.195	-0.23
848.364	0.21
848.533	0.01
848.701	-0.97
848.87	0.44
849.039	1.13
849.207	1.85
849.376	1.14
849.545	1.52
849.713	0.08
849.882	0.42
850.051	1.03
850.219	0.92
850.388	2.08
850.556	-0.24
850.725	0.03
850.893	0.18
851.062	0.06
851.23	2.15
851.399	-0.61
851.567	-0.92
851.736	0.91
851.904	-0.62
852.073	0.68
852.241	1.19
852.41	1.15
852.578	-0.51
852.746	0.3
852.915	1.11
853.083	1.33
853.251	0.59
853.42	1.02
853.588	0.73
853.756	2.39
853.924	1.05
854.093	0.48
854.261	0.5
854.429	-0.86
854.597	0.14
854.765	-0.2
854.934	1.06
855.102	0.87
855.27	0.05
855.438	1.21
855.606	2.17
855.774	2.21
855.942	-0.79
856.11	-0.45
856.278	0.8
856.446	0.58
856.614	0.92
856.782	0.48
856.95	1.31
857.118	1.11
857.286	1.26
857.454	-0.4
857.622	2.04
857.79	1.56
857.958	-0.06
858.126	-0.51
858.294	-2.28
858.462	0.51
858.629	0.63
858.797	-0.5
858.965	1.85
859.133	1.01
859.301	-0.12
859.468	1.39
859.636	-0.63
859.804	2.05
859.971	2.48
860.139	0.2
860.307	2.08
860.474	0.53
860.642	-0.46
860.81	0.66
860.977	-1.29
861.145	2.32
861.313	0.83
861.48	0.73
861.648	0.76
861.815	0.46
861.983	-0.8
862.15	0.24
862.318	0.88
862.485	3.45
862.653	-0.47
862.82	-0.4
862.988	2.02
863.155	2.41
863.322	-1.01
863.49	-0.23
863.657	-0.37
863.824	1.45
863.992	2.19
864.159	0.9
864.326	2
864.494	0.81
864.661	3.18
864.828	-0.18
864.996	1.76
865.163	3.47
865.33	-0.04
865.497	-1.48
865.664	-0.56
865.832	-0.91
865.999	0.25
866.166	-1.07
866.333	0.47
866.5	-0.63
866.667	0.37
866.834	0.49
867.001	2.18
867.168	0.18
867.335	1.01
867.502	-1.28
867.669	1.32
867.836	3.12
868.003	-0.33
868.17	2.09
868.337	-0.45
868.504	0.86
868.671	-0.03
868.838	0.65
869.005	1.28
869.172	0.78
869.339	1.66
869.505	-0.43
869.672	1.31
869.839	3.14
870.006	0.82
870.173	-0.73
870.339	2.21
870.506	3.91
870.673	-0.18
870.84	1.54
871.006	1.01
871.173	-0.27
871.34	0.6
871.506	-1.06
871.673	1.15
871.839	-1.55
872.006	1.4
872.173	0.95
872.339	2.7
872.506	2.88
872.672	-0.55
872.839	-0.25
873.005	1.56
873.172	3.61
873.338	3.37
873.505	0.92
873.671	3.6
873.838	0.54
874.004	-1.41
874.171	-0.36
874.337	2.81
874.503	2.59
874.67	-0.05
874.836	0.22
875.002	2.78
875.169	1.61
875.335	1.93
875.501	0.1
875.668	2.52
875.834	1.45
876	0.99
876.166	2.84
876.332	1.76
876.499	4.76
876.665	0.23
876.831	1.48
876.997	5.45
877.163	1.39
877.329	2.08
877.495	1.92
877.662	1.92
877.828	2.45
877.994	1.05
878.16	-1.28
878.326	0.61
878.492	1.85
878.658	0.72
878.824	1.91
878.99	1.5
879.156	-0.56
879.322	4.16
879.487	0.56
879.653	2.22
879.819	2.48
879.985	0.09
880.151	1.47
880.317	1.74
880.483	0.67
880.648	1.88
880.814	-0.97
880.98	1.68
881.146	-1.65
881.312	0.03
881.477	1.22
881.643	1.11
881.809	4.35
881.974	2.48
882.14	-0.53
882.306	1.75
882.471	5.14
882.637	0.82
882.803	2.47
882.968	4.32
883.134	4.11
883.299	0.97
883.465	0.99
883.63	2.05
883.796	2.74
883.961	2.09
884.127	1.3
884.292	-3.47
884.458	-1.89
884.623	-1.88
