Data from Apollo_Calib_20240827__AbsoluteIrradiance__295__04-04-02-490.txt Node

Date: Wed Aug 28 04:04:02 BST 2024
User: biology
Spectrometer: FLMT08252
Trigger mode: 0
Integration Time (sec): 5.000000E-1
Scans to average: 5
Electric dark correction enabled: true
Nonlinearity correction enabled: false
Boxcar width: 0
XAxis mode: Wavelengths
Number of Pixels in Spectrum: 3648
>>>>>Begin Spectral Data<<<<<
179.588	-0
179.809	-0
180.03	-0
180.251	-0
180.473	-0
180.694	0
180.915	0
181.136	-0
181.357	0
181.578	-0
181.799	-0
182.02	-0
182.241	0
182.462	-0
182.683	0
182.904	-0
183.125	-0
183.346	0
183.567	0
183.788	-0
184.009	-0
184.23	0
184.451	0
184.672	-0
184.892	-0
185.113	-0
185.334	0
185.555	-0
185.776	-0
185.996	0
186.217	-0
186.438	0
186.659	-0
186.879	0
187.1	0
187.321	-0
187.541	-0
187.762	0
187.983	-0
188.203	-0
188.424	-0
188.644	-0
188.865	0
189.086	-0
189.306	-0
189.527	-0
189.747	-0
189.968	-0
190.188	0
190.409	0
190.629	0
190.849	-0
191.07	-0
191.29	0
191.511	-0
191.731	-0
191.951	-0
192.172	0
192.392	-0
192.612	-0
192.833	-0
193.053	0
193.273	0
193.493	-0
193.714	-0
193.934	0
194.154	0
194.374	-0
194.594	0
194.815	0
195.035	-0
195.255	0
195.475	-0
195.695	0
195.915	0
196.135	-0
196.355	0
196.575	0
196.795	0
197.015	-0
197.235	-0
197.455	-0
197.675	0
197.895	-0
198.115	-0
198.335	0
198.555	-0
198.775	-0
198.995	0
199.214	0
199.434	-0
199.654	-0
199.874	-0
200.094	0.52
200.313	-0.71
200.533	-0.7
200.753	-1.46
200.973	1
201.192	0.71
201.412	-1.13
201.632	-0.48
201.851	0.57
202.071	-0.44
202.291	-0.68
202.51	-0.54
202.73	0
202.95	-0.36
203.169	-0.9
203.389	-0.29
203.608	0.17
203.828	-0.54
204.047	-0.79
204.267	0.29
204.486	0.31
204.706	0.05
204.925	-0.14
205.145	-0.41
205.364	0.2
205.583	0.3
205.803	-0.64
206.022	-0.41
206.242	0.01
206.461	0.09
206.68	-0.82
206.9	0.04
207.119	0.52
207.338	0.64
207.557	-0.49
207.777	-0.14
207.996	-0.54
208.215	0.3
208.434	-0.4
208.654	-0.32
208.873	0
209.092	0.52
209.311	-0.46
209.53	-0.35
209.749	-0.33
209.968	-0.16
210.187	-0.14
210.407	-0.51
210.626	-0.18
210.845	0.31
211.064	-0.02
211.283	-0.34
211.502	0.33
211.721	0
211.94	-0.1
212.159	0.01
212.377	0.05
212.596	0.37
212.815	-0.26
213.034	0.14
213.253	0.35
213.472	0.17
213.691	-0.19
213.91	-0.32
214.128	-0.35
214.347	0.16
214.566	-0.51
214.785	-0.31
215.003	0.14
215.222	0.16
215.441	-0.13
215.66	-0.34
215.878	-0.16
216.097	0.02
216.316	-0.2
216.534	-0.15
216.753	0.05
216.972	-0.22
217.19	0.03
217.409	-0.08
217.627	-0.26
217.846	0.08
218.064	0.02
218.283	-0.13
218.501	0.34
218.72	0.26
218.938	-0.38
219.157	-0.25
219.375	0.1
219.594	0.04
219.812	-0.26
220.031	-0.28
220.249	0.21
220.467	0.3
220.686	-0.19
220.904	-0.32
221.122	-0.2
221.341	0.28
221.559	-0.11
221.777	-0.14
221.995	-0.18
222.214	0.01
222.432	-0.16
222.65	0.01
222.868	0.1
223.086	0.11
223.305	0.16
223.523	-0.25
223.741	0.19
223.959	0.07
224.177	-0.22
224.395	-0.16
224.613	-0.03
224.831	0.19
225.049	-0.36
225.267	0.02
225.485	-0
225.703	-0.15
225.921	-0.16
226.139	-0.19
226.357	0.16
226.575	0.05
226.793	-0.09
227.011	0.46
227.229	-0.1
227.447	0.19
227.665	-0.11
227.883	-0.34
228.1	-0.03
228.318	0.01
228.536	-0.35
228.754	-0.22
228.972	0.07
229.189	0.19
229.407	-0.14
229.625	-0.24
229.843	0.11
230.06	0.07
230.278	-0.16
230.496	-0.05
230.713	-0.03
230.931	0.07
231.149	-0.24
231.366	-0.28
231.584	-0.1
231.801	0.34
232.019	-0.04
232.236	-0.19
232.454	-0.1
232.671	-0.1
232.889	0.04
233.106	-0.13
233.324	0.06
233.541	-0.02
233.759	-0.06
233.976	-0.12
234.194	-0.09
234.411	0.02
234.628	-0.14
234.846	-0.09
235.063	-0.12
235.28	-0.07
235.498	0.01
235.715	-0.15
235.932	0.15
236.149	-0.07
236.367	-0.19
236.584	-0.02
236.801	-0.12
237.018	0.17
237.236	-0.13
237.453	-0.19
237.67	0.1
237.887	-0.16
238.104	-0.15
238.321	-0.13
238.538	-0.14
238.755	0
238.973	-0.24
239.19	-0.08
239.407	0.03
239.624	-0.02
239.841	-0.16
240.058	-0.15
240.275	0.07
240.492	-0.1
240.709	-0.05
240.925	-0.07
241.142	-0.04
241.359	-0.11
241.576	-0.12
241.793	-0.11
242.01	-0.02
242.227	0.05
242.444	0
242.66	0.08
242.877	-0.01
243.094	-0.08
243.311	-0.04
243.527	-0.09
243.744	-0.02
243.961	0.1
244.178	-0.08
244.394	-0.07
244.611	0.11
244.828	0.12
245.044	-0.11
245.261	-0.01
245.477	-0
245.694	0.05
245.911	-0.13
246.127	0.03
246.344	0.13
246.56	0.14
246.777	-0.1
246.993	0.01
247.21	0.02
247.426	-0.02
247.643	-0.07
247.859	-0.09
248.076	-0.06
248.292	0.2
248.508	-0.04
248.725	0.05
248.941	0
249.157	0.21
249.374	-0.13
249.59	-0.06
249.806	-0.04
250.023	0.02
250.239	-0.13
250.455	-0.1
250.671	-0.06
250.888	0.03
251.104	0.03
251.32	-0.03
251.536	-0.04
251.752	-0.04
251.969	-0.07
252.185	-0.05
252.401	0.13
252.617	0.02
252.833	-0.08
253.049	-0.09
253.265	0.03
253.481	-0.06
253.697	-0.1
253.913	-0.12
254.129	0.01
254.345	-0.08
254.561	-0.14
254.777	-0.06
254.993	0.06
255.209	0.06
255.425	-0.11
255.641	-0.1
255.857	0.14
256.073	0.08
256.288	-0.1
256.504	-0.07
256.72	0.01
256.936	0.13
257.152	-0.05
257.367	-0.13
257.583	-0.02
257.799	0.08
258.015	-0.04
258.23	-0.15
258.446	0.09
258.662	-0
258.877	-0.14
259.093	-0.15
259.309	-0.04
259.524	0.09
259.74	-0.06
259.955	-0.08
260.171	-0.04
260.387	-0.04
260.602	0.02
260.818	0.02
261.033	-0.12
261.249	-0.05
261.464	-0.15
261.68	-0.1
261.895	-0.02
262.11	0.02
262.326	-0.06
262.541	-0.11
262.757	0.07
262.972	0.01
263.187	-0.01
263.403	-0.02
263.618	0.06
263.833	0.03
264.049	-0.1
264.264	-0
264.479	0.02
264.694	0.11
264.91	-0.1
265.125	-0.06
265.34	-0.01
265.555	0.14
265.77	0.01
265.986	-0.12
266.201	0.06
266.416	0.13
266.631	-0.01
266.846	-0.09
267.061	-0.05
267.276	0.02
267.491	-0.17
267.706	-0
267.921	0
268.136	0.02
268.351	-0.01
268.566	-0.1
268.781	0.12
268.996	0.06
269.211	-0.02
269.426	-0.08
269.641	-0.01
269.856	0.02
270.071	-0.08
270.285	-0.11
270.5	0.07
270.715	0.03
270.93	-0.05
271.145	0
271.359	0.04
271.574	-0
271.789	-0.01
272.004	-0.1
272.218	-0.05
272.433	0.07
272.648	-0.08
272.862	0.04
273.077	-0.03
273.292	-0.13
273.506	-0.04
273.721	-0.08
273.936	0.02
274.15	0.06
274.365	-0.02
274.579	0.01
274.794	0.04
275.008	0.07
275.223	-0.14
275.437	0.01
275.652	0.11
275.866	-0.01
276.081	-0.04
276.295	0.03
276.509	-0.03
276.724	-0
276.938	-0.01
277.153	0.07
277.367	0.07
277.581	-0
277.796	-0.06
278.01	-0.14
278.224	0.03
278.438	0.14
278.653	-0.06
278.867	-0.05
279.081	-0.16
279.295	-0
279.51	0.01
279.724	-0.1
279.938	0.09
280.152	0.05
280.366	-0.1
280.58	-0.04
280.794	0.04
281.008	0.01
281.222	0.01
281.437	0.07
281.651	0.05
281.865	0.04
282.079	-0.04
282.293	-0.13
282.507	-0.11
282.721	-0.08
282.935	-0.06
283.148	-0.09
283.362	-0
283.576	-0.09
283.79	-0.03
284.004	-0.06
284.218	0.04
284.432	-0.04
284.646	-0.04
284.859	-0.07
285.073	-0.02
285.287	0.05
285.501	-0.05
285.714	-0.03
285.928	-0.02
286.142	0.03
286.356	-0.05
286.569	-0.09
286.783	0.08
286.997	0.02
287.21	0
287.424	-0.02
287.637	-0.02
287.851	-0.03
288.065	0.02
288.278	-0.06
288.492	0.03
288.705	-0.02
288.919	0.03
289.132	-0.08
289.346	0.04
289.559	-0.09
289.773	-0.07
289.986	-0.05
290.2	-0.03
290.413	-0.05
290.626	-0.05
290.84	0.02
291.053	0.02
291.267	0.06
291.48	-0.03
291.693	0.01
291.906	-0.09
292.12	0
292.333	-0.02
292.546	-0.02
292.76	0.08
292.973	0.02
293.186	0
293.399	-0.05
293.612	0.01
293.826	-0.01
294.039	-0.02
294.252	-0.01
294.465	0.01
294.678	0.01
294.891	-0
295.104	-0.06
295.317	-0.03
295.53	0.04
295.743	-0.02
295.956	-0
296.169	0.08
296.382	0.08
296.595	0
296.808	-0.05
297.021	0.02
297.234	0.01
297.447	-0.07
297.66	0.02
297.873	0.06
298.086	0.02
298.299	-0.03
298.511	-0.06
298.724	-0.06
298.937	-0.06
299.15	-0.01
299.363	0.03
299.575	0.05
299.788	0.01
300.001	-0.01
300.213	-0.11
300.426	-0.01
300.639	-0.01
300.852	-0.03
301.064	0.04
301.277	0.09
301.489	0.03
301.702	0.02
301.915	-0.01
302.127	-0.01
302.34	0.02
302.552	-0.02
302.765	-0.06
302.977	0.04
303.19	-0.02
303.402	-0.01
303.615	-0.05
303.827	-0.02
304.04	-0.01
304.252	-0.01
304.464	0.01
304.677	0.05
304.889	-0.01
305.102	-0.04
305.314	-0.04
305.526	0.02
305.739	0.03
305.951	-0.02
306.163	-0.01
306.375	0.11
306.588	0
306.8	-0.05
307.012	-0.09
307.224	-0.02
307.436	0.07
307.649	-0.08
307.861	0.02
308.073	0.07
308.285	0
308.497	-0.03
308.709	-0.04
308.921	0.02
309.133	0.05
309.346	-0.01
309.558	0.01
309.77	0.06
309.982	0.06
310.194	0.01
310.406	-0.03
310.617	0.08
310.829	0
311.041	0.06
311.253	-0.08
311.465	-0.06
311.677	-0.01
311.889	-0.02
312.101	-0.04
312.313	0.05
312.524	0.06
312.736	-0.05
312.948	-0
313.16	0.09
313.372	0.02
313.583	-0.01
313.795	-0.02
314.007	-0.06
314.218	0.07
314.43	-0.05
314.642	-0.04
314.853	-0.04
315.065	-0
315.277	0.01
315.488	-0
315.7	0.01
315.912	0.01
316.123	-0
316.335	-0.02
316.546	0.11
316.758	0.02
316.969	-0.07
317.181	-0.03
317.392	-0
317.604	0.05
317.815	-0.05
318.026	-0.09
318.238	0.01
318.449	0.03
318.661	-0.06
318.872	-0.05
319.083	-0.05
319.295	0.06
319.506	-0.04
319.717	0.02
319.929	0.05
320.14	-0.01
320.351	-0.03
320.562	-0.04
320.774	0.01
320.985	-0.01
321.196	-0.08
321.407	-0.06
321.618	0.04
321.829	-0.02
322.041	-0
322.252	-0.02
322.463	0.03
322.674	0.03
322.885	-0.07
323.096	-0.02
323.307	-0.02
323.518	-0.04
323.729	-0.02
323.94	-0.02
324.151	-0.04
324.362	-0.01
324.573	0.05
324.784	-0.04
324.995	0.05
325.206	0.03
325.417	-0
325.628	-0.02
325.838	0.02
326.049	-0
326.26	0.03
326.471	-0.06
326.682	0.02
326.892	0
327.103	-0.08
327.314	-0.06
327.525	0.05
327.735	0.03
327.946	-0.04
328.157	-0.05
328.368	0.01
328.578	-0.03
328.789	0.05
328.999	0.03
329.21	-0.03
329.421	0.03
329.631	-0.03
329.842	-0.06
330.052	-0
330.263	0.04
330.473	0.02
330.684	-0
330.894	0.02
331.105	-0.03
331.315	0.03
331.526	-0.05
331.736	0.07
331.947	0.03
332.157	0.03
332.367	-0.07
332.578	0.02
332.788	0.06
332.999	-0.02
333.209	0.02
333.419	-0.08
333.629	-0.02
333.84	-0.02
334.05	-0.01
334.26	0.08
334.47	0.03
334.681	0.04
334.891	-0.03
335.101	0.01
335.311	0.12
335.521	-0.01
335.732	-0.08
335.942	0.07
336.152	0.02
336.362	-0.01
336.572	0
336.782	0.05
336.992	0.04
337.202	-0.03
337.412	-0.02
337.622	0.03
337.832	-0.06
338.042	-0.05
338.252	-0.02
338.462	-0.02
338.672	-0
338.882	-0
339.092	-0.02
339.302	0.14
339.511	-0.01
339.721	-0.05
339.931	-0.08
340.141	0.04
340.351	0.03
340.561	-0.01
340.77	-0
340.98	-0.02
341.19	0.03
341.4	-0.02
341.609	-0.06
341.819	-0.02
342.029	-0.06
342.238	-0.01
342.448	-0.01
342.658	0.03
342.867	0.02
343.077	-0.01
343.286	-0.01
343.496	0.02
343.706	0.03
343.915	-0.09
344.125	0.01
344.334	-0
344.544	-0.06
344.753	-0.03
344.963	-0.03
345.172	-0.04
345.381	-0.01
345.591	-0.06
345.8	-0.04
346.01	0.08
346.219	0.05
346.428	-0.15
346.638	-0.03
346.847	-0.02
347.056	0.06
347.266	-0.01
347.475	-0.04
347.684	0.05
347.893	-0
348.103	0.01
348.312	-0.01
348.521	-0.01
348.73	-0.06
348.94	0
349.149	-0
349.358	-0.01
349.567	-0.02
349.776	-0.03
349.985	0.02
350.194	0.02
350.403	0.05
350.612	-0.09
350.821	-0.02
351.03	0.04
351.239	-0.01
351.448	-0.03
351.657	0
351.866	0.04
352.075	-0.04
352.284	0.03
352.493	0.01
352.702	0.05
352.911	0.02
353.12	-0.04
353.329	-0
353.538	0.03
353.746	0.02
353.955	-0.02
354.164	0.01
354.373	0.01
354.582	0
354.79	0.03
354.999	0.04
355.208	0.01
355.416	0.07
355.625	-0.05
355.834	-0.02
356.042	0.01
356.251	-0.01
356.46	-0.02
356.668	0
356.877	0.04
357.085	0.02
357.294	-0.08
357.503	0.03
357.711	-0.01
357.92	0.11
358.128	-0
358.337	-0.02
358.545	0.02
358.754	-0.04
358.962	-0.02
359.17	-0.04
359.379	0.01
359.587	0.02
359.796	-0.03
360.004	0.01
360.212	0.03
360.421	0.03
360.629	-0.02
360.837	-0.04
361.046	0.02
361.254	0.15
361.462	0
361.67	-0.03
361.879	-0.03
362.087	0.06
362.295	-0.01
362.503	0.01
362.711	-0.05
362.92	0.01
363.128	-0.04
363.336	-0.02
363.544	-0.05
363.752	-0.04
363.96	0.02
364.168	-0.06
364.376	-0.03
364.584	0.03
364.792	0.04
365	0.01
365.208	-0.04
365.416	0.01
365.624	0
365.832	-0.03
366.04	0.02
366.248	0.01
366.456	0
366.664	-0.01
366.872	0.05
367.079	0.01
367.287	-0.02
367.495	-0.01
367.703	0.02
367.911	0.01
368.118	-0.04
368.326	-0.01
368.534	-0.08
368.742	0.04
368.949	-0.08
369.157	-0.03
369.365	0.02
369.572	-0.04
369.78	-0.04
369.988	0.05
370.195	0.02
370.403	0.03
370.61	0.02
370.818	-0.02
371.026	0.04
371.233	-0.03
371.441	-0.04
371.648	-0.04
371.856	-0.03
372.063	-0
372.271	0
372.478	-0.04
372.685	-0.05
372.893	0.01
373.1	-0.01
373.308	-0.02
373.515	0.06
373.722	0.03
373.93	0
374.137	0.03
374.344	0.06
374.552	0.07
374.759	0.02
374.966	-0.02
375.173	-0.03
375.381	0.05
375.588	-0.02
375.795	-0.05
376.002	-0.03
376.209	-0.07
376.417	-0.01
376.624	-0.03
376.831	0.04
377.038	-0.06
377.245	-0.05
377.452	-0.05
377.659	-0.02
377.866	-0.04
378.073	-0.03
378.28	-0.01
378.487	0.03
378.694	0.02
378.901	-0.01
379.108	0
379.315	0.05
379.522	0.07
379.729	-0.01
379.936	0
380.143	0.02
380.35	-0.01
380.557	-0.04
380.763	-0.01
380.97	0.03
381.177	0.01
381.384	0.02
381.591	-0.06
381.797	-0.01
382.004	0.04
382.211	0.01
382.418	-0.04
382.624	0.04
382.831	-0.01
383.038	-0.05
383.244	-0.02
383.451	0.03
383.658	-0
383.864	-0.04
384.071	-0.07
384.277	0.08
384.484	-0.04
384.69	0.01
384.897	-0.04
385.103	-0.03
385.31	-0.06
385.516	-0.01
385.723	-0.04
385.929	-0.03
386.136	-0.04
386.342	-0
386.549	-0.08
386.755	0.04
386.961	0.05
387.168	-0.04
387.374	-0.02
387.58	-0.01
387.787	-0.01
387.993	0.01
388.199	-0.02
388.406	-0.02
388.612	-0.01
388.818	-0.02
389.024	-0.03
389.231	-0.01
389.437	0.05
389.643	0.01
389.849	-0
390.055	0.02
390.261	0.01
390.467	-0
390.674	-0.04
390.88	0.02
391.086	-0.02
391.292	-0.08
391.498	0.02
391.704	-0.04
391.91	-0.02
392.116	-0.06
392.322	-0.08
392.528	-0.01
392.734	-0.02
392.94	-0.03
393.146	-0.02
393.352	0.03
393.557	0.02
393.763	-0.02
393.969	-0.01
394.175	-0.04
394.381	0
394.587	-0.01
394.792	-0.05
394.998	0.04
395.204	0.01
395.41	-0.05
395.615	0.02
395.821	-0.04
396.027	0.02
396.233	-0.07
396.438	-0.02
396.644	0.04
396.85	0.01
397.055	-0.05
397.261	0.01
397.466	-0.05
397.672	0.02
397.878	0.06
398.083	0.03
398.289	-0.07
398.494	0.03
398.7	0.08
398.905	-0.08
399.111	0.06
399.316	-0.03
399.522	-0.05
399.727	-0.04
399.932	-0
400.138	0
400.343	0.05
400.549	-0.01
400.754	0.03
400.959	-0.02
401.165	0.04
401.37	0.02
401.575	0.05
401.78	-0.03
401.986	-0.05
402.191	-0.02
402.396	-0.04
402.601	0.04
402.807	0.01
403.012	-0.03
403.217	0.04
403.422	-0
403.627	-0.03
403.832	-0.04
404.037	0.03
404.243	0.01
404.448	-0.03
404.653	0
404.858	0.03
405.063	0.01
405.268	-0.03
405.473	-0.06
405.678	-0.03
405.883	0.14
406.088	0.05
406.293	-0.05
406.498	-0.03
406.703	0.04
406.907	-0.03
407.112	-0.03
407.317	-0.02
407.522	0
407.727	-0.05
407.932	-0
408.136	0.01
408.341	0
408.546	0.03
408.751	-0.03
408.956	-0.06
409.16	0.05
409.365	-0.04
409.57	-0.03
409.774	-0
409.979	0.02
410.184	-0.01
410.388	-0.06
410.593	0.03
410.798	-0.02
411.002	-0.04
411.207	-0.03
411.411	0.01
411.616	-0.04
411.82	-0.03
412.025	0.03
412.229	-0.05
412.434	0.03
412.638	0.02
412.843	-0.02
413.047	0.02
413.252	-0.02
413.456	-0.06
413.66	0.02
413.865	-0.04
414.069	0.07
414.273	-0.03
414.478	-0.05
414.682	-0.01
414.886	-0.01
415.091	-0.09
415.295	-0.09
415.499	-0.03
415.703	-0.1
415.908	0.02
416.112	-0.11
416.316	-0.02
416.52	-0.02
416.724	-0.08
416.929	-0.08
417.133	0.09
417.337	-0.05
417.541	-0.04
417.745	-0.05
417.949	-0.03
418.153	-0.01
418.357	-0.1
418.561	0.03
418.765	0.01
418.969	0.13
419.173	0.04
419.377	-0.05
419.581	0.07
419.785	-0.04
419.989	-0.08
420.193	-0.05
420.397	-0.03
420.601	0.02
420.804	0.05
421.008	0.02
421.212	-0.02
421.416	0.04
421.62	-0.04
421.823	-0.04
422.027	0.08
422.231	0.02
422.435	-0.04
422.638	-0.04
422.842	-0.02
423.046	-0.07
423.249	0.03
423.453	-0.01
423.657	0.02
423.86	0.03
424.064	-0.03
424.268	0.05
424.471	-0.05
424.675	0.11
424.878	0.09
425.082	-0.05
425.285	0.03
425.489	-0.02
425.692	-0
425.896	-0.05
426.099	-0.02
426.303	-0.06
426.506	-0.08
426.71	0.01
426.913	0.04
427.116	0.04
427.32	-0.04
427.523	-0.02
427.726	0.1
427.93	-0.03
428.133	0.01
428.336	-0.09
428.54	-0.07
428.743	0.01
428.946	0.03
429.149	-0.03
429.353	-0.04
429.556	-0.05
429.759	-0.05
429.962	-0.02
430.165	0
430.368	-0.01
430.571	-0.03
430.775	-0.05
430.978	-0.01
431.181	0.03
431.384	-0.01
431.587	-0.04
431.79	0.02
431.993	-0.03
432.196	-0.02
432.399	-0.02
432.602	0.05
432.805	-0.03
433.008	-0.02
433.211	-0.07
433.414	0.04
433.616	0.03
433.819	-0.04
434.022	-0.11
434.225	0.05
434.428	0.03
434.631	0.09
434.833	-0.01
435.036	-0.02
435.239	0.06
435.442	0.02
435.645	-0.04
435.847	-0.03
436.05	-0.01
436.253	-0.05
436.455	-0.07
436.658	-0.03
436.861	0.07
437.063	-0.06
437.266	-0.06
437.468	-0.02
437.671	0.11
437.874	0.01
438.076	-0.09
438.279	-0.06
438.481	-0.04
438.684	-0.08
438.886	0.01
439.089	-0.14
439.291	0.02
439.494	-0.01
439.696	-0.08
439.899	-0.01
440.101	0.02
440.303	-0.1
440.506	-0
440.708	0.01
440.91	0.03
441.113	-0.08
441.315	0.06
441.517	-0.1
441.72	0.06
441.922	-0.05
442.124	0.01
442.326	0.04
442.529	0.03
442.731	-0.04
442.933	0.08
443.135	-0.05
443.337	-0.03
443.539	-0.02
443.742	-0.03
443.944	0.02
444.146	-0.03
444.348	-0.05
444.55	-0.04
444.752	-0.01
444.954	-0.1
445.156	-0.03
445.358	-0.02
445.56	0.01
445.762	-0.01
445.964	-0.01
446.166	-0.09
446.368	-0.03
446.57	0.04
446.772	-0
446.974	-0.06
447.175	-0.02
447.377	-0.04
447.579	-0.02
447.781	-0.07
447.983	0.06
448.184	-0
448.386	-0.02
448.588	-0.07
448.79	0.04
448.991	-0.03
449.193	-0.04
449.395	-0.02
449.597	0
449.798	-0.02
450	-0.01
450.202	-0.05
450.403	-0.03
450.605	0.04
450.806	-0.01
451.008	-0.06
451.21	0.01
451.411	-0.01
451.613	-0.03
451.814	-0.04
452.016	0.04
452.217	0.02
452.419	0.03
452.62	-0.03
452.821	0.05
453.023	0.07
453.224	-0.01
453.426	-0.03
453.627	0.05
453.828	0.01
454.03	-0
454.231	0.04
454.432	-0.08
454.634	0.09
454.835	0
455.036	-0.08
455.238	0.03
455.439	0.09
455.64	-0.06
455.841	-0.05
456.042	0.05
456.244	0.04
456.445	-0.04
456.646	-0.09
456.847	-0.01
457.048	0.05
457.249	0.04
457.45	0.2
457.651	-0.05
457.852	0.07
458.054	0.02
458.255	-0.04
458.456	-0.01
458.657	-0
458.858	-0.08
459.058	0
459.259	0.04
459.46	-0.06
459.661	-0.06
459.862	0.13
460.063	-0.02
460.264	0.03
460.465	-0.05
460.666	0.09
460.866	-0.03
461.067	-0.03
461.268	-0.03
461.469	-0.06
461.67	-0.01
461.87	-0.05
462.071	-0.05
462.272	-0.02
462.473	-0.05
462.673	0
462.874	-0.02
463.075	0.01
463.275	-0.12
463.476	0
463.676	0.01
463.877	-0.04
464.078	-0.01
464.278	0.01
464.479	-0.03
464.679	-0.02
464.88	-0.06
465.08	0.03
465.281	-0.08
465.481	-0.01
465.682	0.01
465.882	0.01
466.083	0.01
466.283	-0.03
466.483	0.02
466.684	-0.05
466.884	-0.05
467.085	-0.01
467.285	0.03
467.485	-0.06
467.686	-0.01
467.886	-0.06
468.086	-0.04
468.286	0.02
468.487	-0.04
468.687	-0.06
468.887	-0.03
469.087	0.02
469.287	-0.02
469.488	-0.06
469.688	0.03
469.888	0.08
470.088	0.1
470.288	0.03
470.488	0.03
470.688	-0.07
470.888	0.01
471.088	-0.08
471.288	0.02
471.488	0.02
471.688	0.02
471.888	-0.05
472.088	0.03
472.288	0.03
472.488	-0.04
472.688	-0.02
472.888	0.02
473.088	-0
473.288	0.01
473.488	0
473.688	0.08
473.887	-0
474.087	-0.02
474.287	-0.02
474.487	-0.02
474.687	0.01
474.886	-0.04
475.086	-0.01
475.286	0.03
475.486	-0.01
475.685	-0.04
475.885	-0.03
476.085	0
476.284	0.01
476.484	-0.04
476.684	0.01
476.883	0.04
477.083	0.01
477.282	-0.05
477.482	0.06
477.681	0.03
477.881	0.02
478.08	-0.01
478.28	-0.07
478.479	0.05
478.679	0.09
478.878	-0.03
479.078	-0.05
479.277	-0.03
479.477	-0.02
479.676	0.01
479.875	-0.03
480.075	-0.08
480.274	0.02
480.473	0.04
480.673	-0.03
480.872	0.03
481.071	-0.01
481.271	0.02
481.47	-0.02
481.669	-0.02
481.868	-0.04
482.067	-0.06
482.267	-0.02
482.466	-0.05
482.665	-0.05
482.864	-0.05
483.063	-0.05
483.262	0.02
483.461	0.04
483.661	0.01
483.86	-0.01
484.059	0
484.258	0.02
484.457	-0
484.656	-0.02
484.855	0.03
485.054	-0.07
485.253	-0.05
485.452	-0.04
485.651	-0.02
485.849	-0.02
486.048	-0.04
486.247	-0.04
486.446	-0.01
486.645	-0.05
486.844	-0.03
487.043	-0.01
487.241	0.01
487.44	-0.04
487.639	-0.02
487.838	-0.01
488.037	0.01
488.235	0.04
488.434	0
488.633	-0.04
488.831	-0
489.03	0.01
489.229	0
489.427	-0.02
489.626	0.03
489.825	0.05
490.023	-0.01
490.222	-0.03
490.42	0.01
490.619	0.02
490.817	-0
491.016	-0.03
491.214	0.04
491.413	-0
491.611	-0.04
491.81	-0.01
492.008	0.02
492.207	0.02
492.405	-0.01
492.604	-0.06
492.802	-0.03
493	0.01
493.199	-0.03
493.397	-0.02
493.595	-0
493.794	-0.01
493.992	0.04
494.19	-0.01
494.388	0.01
494.587	-0.01
494.785	0.02
494.983	-0.02
495.181	-0
495.379	-0.01
495.578	-0.02
495.776	-0.03
495.974	0.01
496.172	-0.02
496.37	-0.01
496.568	-0.03
496.766	-0.04
496.964	0.03
497.162	0.02
497.36	-0.03
497.558	0.01
497.756	0.02
497.954	-0.01
498.152	-0.02
498.35	0.01
498.548	-0
498.746	-0.01
498.944	-0.03
499.142	-0.03
499.34	-0.05
499.538	0
499.736	-0.02
499.933	0.04
500.131	0.03
500.329	0.01
500.527	0.03
500.725	0.03
500.922	0.03
501.12	-0
501.318	-0.01
501.516	-0.03
501.713	0.02
501.911	-0.02
502.109	-0.04
502.306	-0.01
502.504	-0.03
502.701	-0.02
502.899	-0.01
503.097	0.04
503.294	0.01
503.492	-0.01
503.689	-0
503.887	0.02
504.084	0.03
504.282	-0.01
504.479	-0.03
504.677	0.01
504.874	-0.02
505.072	0
505.269	-0.02
505.466	0.02
505.664	-0.02
505.861	-0.05
506.059	-0.02
506.256	0
506.453	-0
506.651	0.04
506.848	0.01
507.045	0.01
507.242	0.01
507.44	-0.02
507.637	-0.02
507.834	0.01
508.031	0.02
508.229	-0.03
508.426	-0.01
508.623	0.03
508.82	-0.02
509.017	-0.03
509.214	0.01
509.411	-0.01
509.608	-0.03
509.805	-0.01
510.003	-0.01
510.2	-0.03
510.397	0.02
510.594	-0.02
510.791	-0.03
510.988	-0.03
511.184	0.02
511.381	0.01
511.578	-0.04
511.775	0.02
511.972	-0.01
512.169	-0
512.366	-0.02
512.563	0.02
512.76	-0.02
512.956	-0
513.153	-0.03
513.35	0.02
513.547	-0.02
513.744	-0.04
513.94	-0.03
514.137	0.02
514.334	0.01
514.53	-0.02
514.727	-0.01
514.924	0.04
515.12	-0.02
515.317	-0.04
515.514	-0.02
515.71	-0.03
515.907	-0.02
516.103	0.01
516.3	0.01
516.497	0.03
516.693	0.02
516.89	-0.01
517.086	-0.03
517.283	0.05
517.479	-0.02
517.676	-0.01
517.872	-0.01
518.068	-0.02
518.265	-0.01
518.461	-0.02
518.658	-0.02
518.854	0.01
519.05	-0.01
519.247	-0.02
519.443	0.01
519.639	-0.01
519.836	-0.02
520.032	0
520.228	-0.01
520.424	0.04
520.621	0.02
520.817	-0.03
521.013	-0.01
521.209	0.02
521.405	0.06
521.601	-0
521.798	0.01
521.994	0.03
522.19	-0.02
522.386	-0.01
522.582	-0
522.778	0
522.974	-0.02
523.17	-0.01
523.366	0.02
523.562	0.02
523.758	-0.02
523.954	-0.02
524.15	-0.04
524.346	0.02
524.542	-0.03
524.738	-0.02
524.934	-0
525.129	-0.01
525.325	-0
525.521	-0.01
525.717	0.01
525.913	0
526.109	0.01
526.304	-0.01
526.5	0
526.696	0.01
526.892	0
527.087	-0.01
527.283	-0.02
527.479	0.01
527.674	-0.01
527.87	-0.01
528.066	-0.02
528.261	-0.01
528.457	0.01
528.653	-0.03
528.848	-0.01
529.044	-0.01
529.239	-0
529.435	0.02
529.63	0.01
529.826	0.04
530.021	-0
530.217	0.01
530.412	-0
530.608	-0.03
530.803	-0.01
530.999	-0.02
531.194	-0.05
531.389	-0
531.585	-0.06
531.78	-0.01
531.975	-0.01
532.171	0.02
532.366	-0.02
532.561	-0.01
532.757	-0.03
532.952	-0.01
533.147	-0
533.342	0.01
533.538	-0.02
533.733	0.03
533.928	-0.02
534.123	0
534.318	-0.04
534.513	-0.02
534.709	0.01
534.904	-0.04
535.099	-0.02
535.294	-0
535.489	-0.01
535.684	-0
535.879	-0.03
536.074	0
536.269	-0.04
536.464	0.01
536.659	-0
536.854	-0.01
537.049	0
537.244	0.01
537.439	-0.01
537.634	0.03
537.828	0.01
538.023	-0.01
538.218	-0.05
538.413	-0.03
538.608	-0.02
538.803	0.01
538.997	-0.05
539.192	0.03
539.387	0.03
539.582	-0.01
539.776	0
539.971	-0.02
540.166	-0.01
540.36	-0.04
540.555	0
540.75	-0
540.944	0.01
541.139	-0.04
541.334	-0.03
541.528	-0
541.723	0.02
541.917	-0.02
542.112	-0.04
542.306	-0.02
542.501	-0.01
542.695	0
542.89	-0.02
543.084	0.01
543.279	-0.01
543.473	-0.02
543.668	-0.01
543.862	-0.01
544.056	0.01
544.251	-0.02
544.445	0.01
544.64	-0.01
544.834	-0.03
545.028	-0.01
545.222	0.01
545.417	0.02
545.611	-0.01
545.805	-0
546	-0.02
546.194	-0
546.388	-0
546.582	0.01
546.776	0
546.97	-0
547.165	0
547.359	0.02
547.553	-0.02
547.747	-0.02
547.941	0.01
548.135	-0.01
548.329	0.02
548.523	0.02
548.717	-0.02
548.911	-0.05
549.105	-0.01
549.299	0
549.493	0.02
549.687	0
549.881	0.02
550.075	0
550.269	-0.04
550.463	0.01
550.657	-0.01
550.85	-0.01
551.044	-0.03
551.238	-0
551.432	-0.02
551.626	-0.04
551.82	-0
552.013	-0.01
552.207	-0.01
552.401	0.02
552.594	0
552.788	-0.02
552.982	-0.01
553.176	-0.03
553.369	0.01
553.563	0.01
553.756	-0.04
553.95	-0.04
554.144	0
554.337	0.03
554.531	0
554.724	-0
554.918	-0.02
555.111	0.01
555.305	0.01
555.498	0.05
555.692	-0
555.885	-0
556.079	-0
556.272	-0.02
556.466	0.04
556.659	-0.02
556.852	-0.03
557.046	-0.03
557.239	0.01
557.432	-0.02
557.626	-0.02
557.819	0.01
558.012	0
558.206	0
558.399	0
558.592	-0.01
558.785	-0.02
558.979	0.02
559.172	-0.01
559.365	0.03
559.558	0
559.751	-0
559.944	-0.01
560.138	-0.01
560.331	-0.02
560.524	-0.02
560.717	-0.02
560.91	-0.01
561.103	0.01
561.296	-0.01
561.489	0.01
561.682	0
561.875	0.03
562.068	-0.01
562.261	-0
562.454	0.04
562.647	-0.01
562.84	0
563.032	-0.01
563.225	0
563.418	-0.02
563.611	-0.01
563.804	0
563.997	-0.02
564.19	-0.03
564.382	-0.01
564.575	-0.03
564.768	0.01
564.961	-0
565.153	-0.02
565.346	0.02
565.539	0.02
565.731	0.02
565.924	0.02
566.117	0.03
566.309	0.02
566.502	-0.02
566.695	0
566.887	0
567.08	-0.03
567.272	-0.02
567.465	-0.02
567.657	-0.01
567.85	-0.01
568.042	0.01
568.235	0.02
568.427	-0.02
568.62	-0
568.812	0.02
569.005	0
569.197	-0.06
569.389	0.01
569.582	-0
569.774	-0.01
569.966	-0.03
570.159	-0.02
570.351	0
570.543	-0.03
570.736	0
570.928	-0.04
571.12	-0
571.312	-0.02
571.505	-0.02
571.697	0.02
571.889	-0.03
572.081	-0.03
572.273	-0.04
572.465	0.01
572.658	-0.02
572.85	-0
573.042	-0.02
573.234	-0.01
573.426	0.03
573.618	-0.04
573.81	-0.01
574.002	0.03
574.194	0.04
574.386	-0.02
574.578	-0.07
574.77	-0.03
574.962	-0.01
575.154	-0.05
575.346	-0.02
575.538	-0.01
575.729	-0.03
575.921	0
576.113	-0.01
576.305	0.01
576.497	-0.04
576.689	-0.01
576.88	-0.04
577.072	0.03
577.264	-0.02
577.456	-0.01
577.647	-0.08
577.839	-0
578.031	0.03
578.223	-0.04
578.414	-0.05
578.606	-0
578.798	-0
578.989	-0.02
579.181	-0
579.372	0.01
579.564	-0.02
579.755	-0.01
579.947	0.01
580.139	0.02
580.33	-0.06
580.522	-0.05
580.713	-0.08
580.905	-0.01
581.096	0
581.287	-0.01
581.479	-0.03
581.67	0.02
581.862	-0
582.053	-0.04
582.244	-0.06
582.436	-0.02
582.627	-0.01
582.818	-0.03
583.01	-0.03
583.201	0.02
583.392	-0.01
583.583	-0.01
583.775	-0.01
583.966	-0.02
584.157	-0.01
584.348	-0.03
584.54	-0.07
584.731	0.01
584.922	-0.01
585.113	-0.02
585.304	0
585.495	0
585.686	-0.04
585.877	-0.01
586.068	0.01
586.259	0.02
586.45	0.02
586.641	-0.03
586.832	-0.07
587.023	-0.02
587.214	0
587.405	0.02
587.596	-0.03
587.787	0.02
587.978	0
588.169	-0.04
588.36	-0.01
588.551	0.01
588.742	-0.03
588.932	0.02
589.123	-0.04
589.314	0.02
589.505	0.02
589.696	-0.01
589.886	-0.04
590.077	-0.04
590.268	0.01
590.458	-0.05
590.649	-0.05
590.84	0.02
591.03	-0.03
591.221	-0.05
591.412	-0.05
591.602	-0.01
591.793	0.01
591.984	-0.05
592.174	-0.04
592.365	0.05
592.555	-0.03
592.746	0.01
592.936	0.01
593.127	-0.01
593.317	0.04
593.508	-0.04
593.698	-0.02
593.889	-0
594.079	-0.02
594.269	-0.03
594.46	-0.01
594.65	-0.01
594.84	0.01
595.031	-0.04
595.221	-0.05
595.411	-0.07
595.602	-0.01
595.792	-0.01
595.982	-0.02
596.172	0.04
596.363	-0.02
596.553	0
596.743	-0.02
596.933	-0.05
597.123	0.04
597.314	-0.03
597.504	-0.04
597.694	0.04
597.884	0.03
598.074	-0.03
598.264	-0.03
598.454	-0.01
598.644	0
598.834	-0.01
599.024	-0.09
599.214	-0.03
599.404	0.03
599.594	-0.02
599.784	-0.04
599.974	0.04
600.164	0.04
600.354	-0.04
600.544	-0.04
600.734	-0
600.924	0.03
601.114	-0.05
601.303	-0.01
601.493	-0.02
601.683	-0
601.873	0.01
602.063	-0.06
602.252	-0.01
602.442	-0.07
602.632	-0.03
602.821	-0.06
603.011	0.01
603.201	-0.02
603.39	-0.05
603.58	-0.03
603.77	0.01
603.959	0.01
604.149	-0
604.339	-0.02
604.528	0.03
604.718	0.02
604.907	-0.04
605.097	-0.02
605.286	-0.04
605.476	0.04
605.665	-0.01
605.855	0
606.044	0.02
606.234	-0.01
606.423	-0.03
606.612	-0.05
606.802	-0
606.991	0.02
607.181	0.01
607.37	-0.03
607.559	-0
607.749	-0.04
607.938	0.01
608.127	-0.02
608.316	-0.03
608.506	-0
608.695	-0.02
608.884	-0.03
609.073	-0.02
609.263	0
609.452	0.01
609.641	-0.02
609.83	-0.02
610.019	-0.01
610.208	-0.02
610.397	0
610.586	0.03
610.775	-0.03
610.965	-0.04
611.154	-0.02
611.343	-0
611.532	-0.01
611.721	-0.05
611.91	-0.02
612.099	0
612.287	-0.02
612.476	-0.06
612.665	-0.01
612.854	-0.02
613.043	0.04
613.232	-0.04
613.421	-0.06
613.61	0
613.798	-0.04
613.987	0.02
614.176	-0.04
614.365	0.02
614.554	0.01
614.742	0.02
614.931	-0.04
615.12	0
615.309	0
615.497	-0
615.686	-0.03
615.875	-0.03
616.063	0.02
616.252	-0.02
616.44	-0.02
616.629	-0.02
616.818	0.02
617.006	-0.03
617.195	-0.04
617.383	0.02
617.572	0.02
617.76	-0.04
617.949	-0.03
618.137	0
618.326	0.02
618.514	-0.03
618.703	-0.06
618.891	0.08
619.079	-0.05
619.268	0.01
619.456	-0.03
619.644	0.02
619.833	-0.03
620.021	-0.03
620.209	-0.08
620.398	0.01
620.586	-0.01
620.774	0.03
620.962	-0.01
621.151	0.09
621.339	-0.01
621.527	-0.07
621.715	-0.05
621.903	-0.03
622.092	-0.03
622.28	-0
622.468	0
622.656	-0.03
622.844	-0.01
623.032	-0.01
623.22	-0.05
623.408	0.04
623.596	-0.02
623.784	0.01
623.972	-0.08
624.16	-0.02
624.348	0.04
624.536	0.01
624.724	-0.03
624.912	0.02
625.1	0.02
625.288	-0.03
625.476	-0.04
625.664	0
625.851	-0.03
626.039	0.01
626.227	0.02
626.415	-0
626.603	-0.06
626.79	0
626.978	-0.04
627.166	0.01
627.354	-0
627.541	-0.06
627.729	-0.08
627.917	-0
628.104	0.03
628.292	-0.04
628.48	-0.01
628.667	0.01
628.855	-0.02
629.042	0.02
629.23	-0.02
629.418	-0.01
629.605	-0.02
629.793	-0.02
629.98	-0.02
630.168	-0.03
630.355	-0.03
630.543	0.01
630.73	-0.03
630.917	0.01
631.105	0.04
631.292	-0.03
631.48	-0.06
631.667	0.05
631.854	0.01
632.042	-0.01
632.229	-0.08
632.416	0.01
632.604	-0
632.791	-0.03
632.978	0.02
633.165	0.03
633.353	0.05
633.54	0.01
633.727	-0.08
633.914	-0.04
634.101	-0.07
634.289	0.05
634.476	-0.06
634.663	-0.04
634.85	-0.01
635.037	-0.07
635.224	-0.08
635.411	0.05
635.598	0.03
635.785	0
635.972	-0.02
636.159	0.02
636.346	-0.05
636.533	-0.04
636.72	-0.01
636.907	0
637.094	0.01
637.281	-0.02
637.468	0.01
637.655	-0.03
637.842	0
638.029	-0.03
638.215	0.02
638.402	-0.02
638.589	-0
638.776	-0.04
638.963	-0.04
639.149	0.03
639.336	0.06
639.523	-0.05
639.709	0.01
639.896	-0.02
640.083	0.04
640.27	-0.02
640.456	-0
640.643	0.04
640.829	-0.07
641.016	-0
641.203	-0.02
641.389	0.02
641.576	-0.01
641.762	-0.03
641.949	-0.05
642.135	0.01
642.322	-0.03
642.508	-0.06
642.695	-0.02
642.881	-0.01
643.068	-0.02
643.254	-0.01
643.441	0.02
643.627	-0.01
643.813	-0.06
644	0.01
644.186	-0.06
644.372	0.03
644.559	0.03
644.745	-0.04
644.931	-0.06
645.118	-0.01
645.304	-0.04
645.49	-0.03
645.676	-0.03
645.862	-0
646.049	0.04
646.235	-0.04
646.421	0.05
646.607	0.08
646.793	-0.01
646.979	-0.04
647.165	-0.01
647.352	-0.01
647.538	0.03
647.724	-0.03
647.91	0
648.096	-0
648.282	-0
648.468	-0.02
648.654	-0.03
648.84	-0.05
649.026	-0.01
649.212	-0.01
649.397	-0.05
649.583	-0.06
649.769	0.05
649.955	-0.03
650.141	-0.03
650.327	0.03
650.513	-0.03
650.698	-0.02
650.884	-0.07
651.07	0.04
651.256	-0.01
651.442	-0.01
651.627	-0.02
651.813	-0
651.999	0.01
652.184	-0
652.37	-0.03
652.556	-0.03
652.741	0.07
652.927	-0.08
653.113	-0.02
653.298	-0.01
653.484	-0.02
653.669	-0.06
653.855	-0.04
654.04	0.02
654.226	-0.02
654.412	-0.05
654.597	-0.04
654.782	0
654.968	0.05
655.153	-0.01
655.339	-0.06
655.524	-0.07
655.71	-0
655.895	-0.01
656.08	-0.04
656.266	0.01
656.451	0.01
656.636	-0.03
656.822	0.01
657.007	-0.04
657.192	-0.02
657.378	-0.08
657.563	-0
657.748	0.02
657.933	0.01
658.118	-0.04
658.304	-0
658.489	-0
658.674	0.01
658.859	-0.04
659.044	0
659.229	-0
659.414	-0.05
659.599	-0.01
659.785	-0.08
659.97	-0.03
660.155	-0.01
660.34	0.01
660.525	-0.04
660.71	-0.05
660.895	0
661.08	-0.05
661.264	-0.02
661.449	0.06
661.634	-0.01
661.819	0.02
662.004	-0.02
662.189	-0.07
662.374	-0.06
662.559	-0.06
662.743	-0.07
662.928	-0
663.113	-0.02
663.298	-0.11
663.483	-0.02
663.667	-0.01
663.852	-0.04
664.037	0.04
664.221	-0.05
664.406	-0.01
664.591	0.01
664.775	-0.03
664.96	0
665.145	-0
665.329	-0.01
665.514	-0.03
665.698	-0.01
665.883	-0.08
666.068	0.05
666.252	-0.04
666.437	-0.09
666.621	-0.01
666.806	0.04
666.99	-0.05
667.174	-0.06
667.359	0.04
667.543	0.01
667.728	-0.04
667.912	-0.09
668.096	0.03
668.281	-0.06
668.465	-0.03
668.649	-0.01
668.834	-0.07
669.018	-0.07
669.202	-0.02
669.387	-0.05
669.571	0.02
669.755	-0.06
669.939	-0.03
670.124	-0.02
670.308	0.01
670.492	0.05
670.676	-0.02
670.86	-0.01
671.044	-0.08
671.228	0.02
671.413	-0.07
671.597	-0.07
671.781	-0.04
671.965	0.02
672.149	-0.03
672.333	-0.01
672.517	-0.02
672.701	0.04
672.885	-0.01
673.069	-0.08
673.253	0.06
673.437	-0.01
673.621	-0.06
673.804	-0.02
673.988	-0.03
674.172	-0.03
674.356	-0.1
674.54	-0.04
674.724	0.07
674.908	-0.01
675.091	0.02
675.275	0.01
675.459	0.03
675.643	-0.04
675.826	0.02
676.01	-0.01
676.194	0
676.377	0.04
676.561	0.01
676.745	-0.02
676.928	-0.02
677.112	0.03
677.296	-0.04
677.479	-0.05
677.663	-0.05
677.846	-0
678.03	-0.01
678.213	0
678.397	0.06
678.58	-0.07
678.764	-0.06
678.947	-0.07
679.131	-0.03
679.314	0.02
679.498	0.01
679.681	-0.02
679.865	0.04
680.048	0
680.231	-0.05
680.415	-0.04
680.598	-0.01
680.781	-0.06
680.965	-0.03
681.148	0
681.331	-0.03
681.514	0.01
681.698	0.02
681.881	0.01
682.064	-0.01
682.247	-0.01
682.43	-0.07
682.614	-0.01
682.797	0.07
682.98	0.05
683.163	-0.05
683.346	0.01
683.529	-0.03
683.712	-0.04
683.895	0
684.078	-0.08
684.261	-0.02
684.444	0.01
684.627	0.03
684.81	-0.03
684.993	-0.02
685.176	0.03
685.359	-0.1
685.542	-0.03
685.725	0.06
685.908	0.02
686.091	-0.07
686.274	0
686.457	0.02
686.639	0
686.822	0.01
687.005	-0.04
687.188	0.01
687.371	0.06
687.553	-0.03
687.736	-0.04
687.919	0.08
688.102	0.08
688.284	-0.02
688.467	-0.02
688.65	-0.06
688.832	-0.04
689.015	-0.04
689.197	-0.09
689.38	0.07
689.563	0.09
689.745	-0.02
689.928	-0.05
690.11	-0.01
690.293	0.02
690.475	-0.08
690.658	0.03
690.84	-0
691.023	-0.03
691.205	-0.04
691.388	-0.02
691.57	0
691.752	-0
691.935	-0.1
692.117	-0.05
692.3	0.03
692.482	-0.03
692.664	0.02
692.847	-0.04
693.029	0.04
693.211	0.03
693.393	0
693.576	0
693.758	0.01
693.94	-0.07
694.122	-0.07
694.304	-0.05
694.487	-0.07
694.669	0.07
694.851	-0.05
695.033	0.02
695.215	-0.01
695.397	-0.04
695.579	0.03
695.761	-0.05
695.943	-0.07
696.125	0.01
696.308	0.04
696.49	-0.12
696.671	0.1
696.853	-0.01
697.035	0.12
697.217	0.02
697.399	0.06
697.581	-0.07
697.763	-0.01
697.945	-0.05
698.127	0.02
698.309	0.12
698.491	-0
698.672	0.02
698.854	0.06
699.036	0.08
699.218	-0.02
699.399	0.02
699.581	0.06
699.763	-0.06
699.945	-0.05
700.126	-0
700.308	-0.05
700.49	-0.06
700.671	-0.16
700.853	-0.09
701.035	-0.04
701.216	0.02
701.398	-0.07
701.579	-0.06
701.761	0.03
701.943	-0.05
702.124	-0.03
702.306	-0.06
702.487	0.13
702.669	-0.03
702.85	-0.07
703.031	-0.08
703.213	0.11
703.394	0.05
703.576	-0.11
703.757	0.08
703.938	0.08
704.12	0.14
704.301	-0.06
704.483	-0.06
704.664	-0.02
704.845	0.15
705.026	-0.04
705.208	-0.04
705.389	-0.03
705.57	-0.02
705.751	-0.08
705.933	-0.07
706.114	0.05
706.295	-0.01
706.476	-0.07
706.657	0.06
706.838	-0
707.02	0.03
707.201	-0.08
707.382	-0.05
707.563	0.03
707.744	-0.06
707.925	-0.08
708.106	-0.07
708.287	0.02
708.468	0.01
708.649	-0.05
708.83	-0.02
709.011	-0.05
709.192	0.03
709.373	-0.08
709.554	-0.01
709.734	0.04
709.915	0.01
710.096	-0.03
710.277	-0.11
710.458	0.01
710.639	0.01
710.819	-0.11
711	-0.04
711.181	0.09
711.362	0.08
711.542	0.01
711.723	0.02
711.904	0.05
712.085	-0
712.265	0
712.446	-0.08
712.627	-0.05
712.807	-0.06
712.988	0.01
713.168	-0.15
713.349	0.05
713.53	-0.13
713.71	-0.08
713.891	-0.1
714.071	-0.01
714.252	-0.06
714.432	-0.03
714.613	-0.17
714.793	-0.04
714.974	0.08
715.154	0.03
715.334	0.06
715.515	0.08
715.695	-0.09
715.876	0.02
716.056	-0
716.236	0.02
716.417	0
716.597	-0.07
716.777	0.15
716.957	-0.03
717.138	-0.02
717.318	0.06
717.498	-0.09
717.678	-0
717.859	-0.01
718.039	-0.12
718.219	0.06
718.399	0.04
718.579	-0.09
718.759	-0.08
718.939	0.05
719.12	-0.05
719.3	0.03
719.48	-0.15
719.66	-0.17
719.84	0.09
720.02	-0.07
720.2	-0.14
720.38	0.01
720.56	0.09
720.74	-0
720.92	0.04
721.1	0.08
721.279	0.09
721.459	0.07
721.639	-0.09
721.819	-0.02
721.999	-0.04
722.179	0.04
722.359	-0.11
722.538	-0.04
722.718	0
722.898	-0.07
723.078	-0.04
723.257	-0.1
723.437	0.02
723.617	-0.04
723.797	-0.03
723.976	-0.01
724.156	0.01
724.336	0.1
724.515	0.11
724.695	-0.17
724.874	-0
725.054	0.05
725.234	-0.08
725.413	-0.05
725.593	0.02
725.772	-0.11
725.952	-0.05
726.131	-0.07
726.311	-0.05
726.49	0.07
726.67	-0.1
726.849	-0.12
727.028	0.03
727.208	0
727.387	0.09
727.567	-0.14
727.746	-0.05
727.925	-0.12
728.105	-0.12
728.284	-0.05
728.463	-0.12
728.643	0.05
728.822	-0.16
729.001	-0.09
729.18	0.04
729.359	0.08
729.539	-0.08
729.718	-0.02
729.897	-0.02
730.076	-0.07
730.255	-0.14
730.434	-0.02
730.614	-0.03
730.793	0.1
730.972	-0.1
731.151	-0.02
731.33	0.06
731.509	0
731.688	-0.09
731.867	-0.01
732.046	-0.09
732.225	0.13
732.404	-0.03
732.583	-0.16
732.762	-0.03
732.941	0.11
733.12	0
733.298	-0.04
733.477	0.12
733.656	-0.02
733.835	-0.15
734.014	0.17
734.193	-0.13
734.371	0.05
734.55	0.06
734.729	-0.18
734.908	0.07
735.086	0.07
735.265	0.02
735.444	-0.19
735.623	-0.08
735.801	-0.04
735.98	-0.07
736.159	-0.09
736.337	0.03
736.516	0.01
736.694	-0.06
736.873	-0.13
737.052	0.1
737.23	0.11
737.409	-0.15
737.587	0.1
737.766	-0.2
737.944	-0.11
738.123	0.06
738.301	0.08
738.479	-0.02
738.658	0.03
738.836	-0.28
739.015	0.05
739.193	0.09
739.371	-0.14
739.55	-0.14
739.728	-0.12
739.906	0.07
740.085	0.17
740.263	-0.02
740.441	-0.32
740.62	0.18
740.798	0.13
740.976	-0.06
741.154	-0.06
741.332	0.16
741.511	-0.1
741.689	0.05
741.867	0.07
742.045	0.05
742.223	-0.01
742.401	-0.1
742.579	-0.03
742.757	0.02
742.935	-0.14
743.114	-0.09
743.292	-0.03
743.47	-0.09
743.648	0.01
743.826	-0.12
744.004	0.14
744.181	0.07
744.359	-0.05
744.537	0.02
744.715	-0.04
744.893	-0.07
745.071	0.01
745.249	-0.09
745.427	-0.04
745.605	-0.05
745.782	0.03
745.96	0.03
746.138	0.1
746.316	0.1
746.493	-0.03
746.671	-0.03
746.849	-0.04
747.027	0.1
747.204	-0.01
747.382	0.03
747.56	-0.13
747.737	-0.04
747.915	-0.03
748.093	0.03
748.27	-0.05
748.448	-0.06
748.625	-0.19
748.803	-0.11
748.98	-0.09
749.158	0.12
749.335	0.13
749.513	-0.08
749.69	-0.07
749.868	-0.07
750.045	0.09
750.223	-0.06
750.4	-0.27
750.578	0.18
750.755	-0.03
750.932	-0.03
751.11	0
751.287	-0.16
751.464	0.09
751.642	-0.22
751.819	0.04
751.996	-0.06
752.173	-0.1
752.351	-0.1
752.528	0.09
752.705	-0.07
752.882	-0.11
753.06	-0.07
753.237	-0.03
753.414	0.12
753.591	0.14
753.768	-0.13
753.945	-0.07
754.122	-0.07
754.299	0.13
754.476	-0.11
754.654	-0.01
754.831	0.13
755.008	0.08
755.185	-0.07
755.362	-0.17
755.539	-0.05
755.716	-0.17
755.892	0.07
756.069	-0
756.246	-0.02
756.423	-0.12
756.6	0.1
756.777	-0.01
756.954	0.23
757.131	-0.07
757.307	-0.17
757.484	-0.11
757.661	-0
757.838	0.02
758.015	-0.08
758.191	0.08
758.368	0.03
758.545	0.19
758.721	-0.01
758.898	-0.14
759.075	0.01
759.251	0.04
759.428	0.03
759.605	-0.12
759.781	0.04
759.958	0.03
760.134	0.03
760.311	-0.07
760.488	0.25
760.664	0.08
760.841	-0.01
761.017	-0.13
761.194	0.15
761.37	0.09
761.547	-0.07
761.723	-0.05
761.899	0.1
762.076	-0.08
762.252	-0.11
762.429	-0.17
762.605	0.06
762.781	-0.08
762.958	0.1
763.134	-0.11
763.31	-0.11
763.486	0.13
763.663	-0.26
763.839	-0.02
764.015	-0.17
764.191	-0.08
764.368	-0.14
764.544	0.01
764.72	0.08
764.896	-0.01
765.072	-0.01
765.248	0.02
765.425	0.01
765.601	0.05
765.777	-0.11
765.953	-0.36
766.129	0.02
766.305	-0.14
766.481	0.02
766.657	0.04
766.833	0.21
767.009	-0.14
767.185	0.04
767.361	-0.13
767.537	-0.12
767.713	0.08
767.889	-0.1
768.065	-0.05
768.24	0.08
768.416	0.16
768.592	-0.06
768.768	-0.08
768.944	0.07
769.12	-0.16
769.295	-0.12
769.471	0.08
769.647	-0.11
769.823	0.18
769.998	0.02
770.174	-0.15
770.35	0.16
770.525	0.31
770.701	0.05
770.877	-0.03
771.052	-0.25
771.228	0.13
771.403	0.06
771.579	0.05
771.755	0.23
771.93	-0.23
772.106	-0.29
772.281	-0.2
772.457	-0.06
772.632	-0.07
772.808	-0.1
772.983	-0.19
773.159	-0.22
773.334	0.14
773.509	-0.08
773.685	-0.1
773.86	0.28
774.036	0.12
774.211	-0.05
774.386	-0.1
774.562	-0.01
774.737	0.1
774.912	-0.19
775.087	-0.01
775.263	-0.04
775.438	-0.08
775.613	-0.26
775.788	-0.02
775.964	0.08
776.139	0.25
776.314	-0.26
776.489	0
776.664	0.01
776.839	-0.32
777.014	0.17
777.19	0.05
777.365	0.24
777.54	0.23
777.715	-0.02
777.89	-0
778.065	-0.04
778.24	-0.04
778.415	0.03
778.59	-0.31
778.765	-0.04
778.94	0.06
779.115	-0.09
779.289	-0.12
779.464	-0.05
779.639	-0.06
779.814	-0.1
779.989	-0.16
780.164	0.1
780.339	0.06
780.513	-0.25
780.688	-0.2
780.863	-0.05
781.038	0.05
781.212	-0.16
781.387	0.1
781.562	0.26
781.737	-0.03
781.911	0.02
782.086	-0.21
782.261	0.07
782.435	0.19
782.61	-0.11
782.784	-0.03
782.959	0.1
783.134	-0.08
783.308	-0.29
783.483	-0.11
783.657	0.33
783.832	0.23
784.006	-0.33
784.181	-0.28
784.355	0.15
784.53	-0.3
784.704	-0.22
784.878	0.03
785.053	0.16
785.227	0.04
785.402	0.3
785.576	-0.34
785.75	-0.08
785.925	-0.21
786.099	-0.03
786.273	-0.01
786.448	0.1
786.622	0.08
786.796	0.1
786.97	-0.36
787.145	0.44
787.319	-0.28
787.493	-0
787.667	-0.38
787.841	-0.23
788.015	0.13
788.19	-0.03
788.364	-0.07
788.538	0.19
788.712	0.34
788.886	-0.11
789.06	0.08
789.234	0.06
789.408	-0.16
789.582	-0.06
789.756	-0
789.93	-0.21
790.104	-0.18
790.278	0.09
790.452	-0.33
790.626	-0.02
790.8	-0.12
790.973	0.08
791.147	0.36
791.321	0.33
791.495	0.04
791.669	-0.15
791.843	0.13
792.016	0.13
792.19	0.44
792.364	-0.17
792.538	0.51
792.711	0.3
792.885	-0.14
793.059	-0.16
793.233	-0.41
793.406	0.13
793.58	-0.04
793.754	-0.18
793.927	-0.11
794.101	0.18
794.274	-0.03
794.448	0.08
794.622	-0.31
794.795	0.26
794.969	-0.24
795.142	0.16
795.316	-0.05
795.489	-0.14
795.663	0.34
795.836	-0.24
796.009	-0.24
796.183	0.3
796.356	-0.09
796.53	0.05
796.703	-0.15
796.876	0.57
797.05	-0.32
797.223	0.01
797.396	0.05
797.57	0.04
797.743	0.62
797.916	0.08
798.09	-0.14
798.263	0.27
798.436	0.13
798.609	-0.08
798.782	-0.07
798.956	0.05
799.129	0.17
799.302	-0.12
799.475	-0.27
799.648	-0.25
799.821	-0.32
799.994	-0.01
800.167	-0.36
800.34	-0.12
800.514	0.19
800.687	-0.22
800.86	-0.31
801.033	-0.07
801.206	0.13
801.379	-0.3
801.551	0.02
801.724	0.1
801.897	0.41
802.07	-0.2
802.243	-0.4
802.416	0.11
802.589	-0.43
802.762	-0.03
802.935	-0.19
803.107	0.13
803.28	0.56
803.453	-0.1
803.626	-0.24
803.798	0.13
803.971	-0.15
804.144	0.11
804.317	-0.07
804.489	0.2
804.662	-0.06
804.835	-0.35
805.007	-0.41
805.18	0.29
805.353	-0.01
805.525	-0.26
805.698	-0.28
805.87	0.06
806.043	0.1
806.215	-0.57
806.388	-0.54
806.56	0.1
806.733	-0.08
806.905	-0.1
807.078	-0.4
807.25	0.01
807.423	0.24
807.595	0.06
807.768	-0.24
807.94	0.34
808.112	0.04
808.285	-0.08
808.457	-0.31
808.629	-0.21
808.802	-0.09
808.974	0.09
809.146	-0.13
809.318	-0.09
809.491	0.09
809.663	0.01
809.835	-0.34
810.007	0.1
810.18	-0.2
810.352	-0.46
810.524	-0.28
810.696	0.32
810.868	0.32
811.04	-0.05
811.212	-0.07
811.384	0.16
811.556	-0.15
811.728	0.06
811.901	0.73
812.073	-0.1
812.245	0.27
812.417	-0.06
812.589	-0.67
812.76	0.19
812.932	0.18
813.104	0.22
813.276	-0.17
813.448	0.24
813.62	-0.02
813.792	0.04
813.964	-0.13
814.136	-0.25
814.307	0.06
814.479	-0.24
814.651	-0.17
814.823	0.69
814.995	-0.24
815.166	-0.07
815.338	-0.17
815.51	-0.72
815.681	0.74
815.853	-0.06
816.025	0.05
816.196	0.13
816.368	0.14
816.54	-0.66
816.711	-0.4
816.883	0.41
817.054	0.66
817.226	-0.6
817.398	0.21
817.569	0.05
817.741	-0.07
817.912	-0.13
818.084	0.2
818.255	0.28
818.426	-0.45
818.598	0
818.769	-0.34
818.941	0.2
819.112	0.88
819.283	0.22
819.455	-0.35
819.626	-0.1
819.798	-0.01
819.969	-0.18
820.14	-0.57
820.311	0.03
820.483	0.05
820.654	0.21
820.825	-0.16
820.996	-0.58
821.168	-0.38
821.339	-0.16
821.51	-0.73
821.681	-0.44
821.852	0.3
822.023	-0.68
822.195	-1.21
822.366	0.1
822.537	-0.38
822.708	0.11
822.879	-0.22
823.05	0.82
823.221	0.1
823.392	0.35
823.563	0.01
823.734	0.35
823.905	-0.06
824.076	0.12
824.247	-0.55
824.418	0.02
824.589	0.9
824.759	0
824.93	-0.05
825.101	-0.69
825.272	0.44
825.443	0.45
825.614	0.32
825.784	-0.91
825.955	0.42
826.126	0.6
826.297	0.03
826.467	0.92
826.638	0.29
826.809	-0.69
826.98	-0.35
827.15	0.33
827.321	-0.18
827.492	0.76
827.662	-0.58
827.833	0.97
828.003	0.29
828.174	-0.68
828.345	-0.78
828.515	0.56
828.686	0.31
828.856	0.56
829.027	-0.28
829.197	0.22
829.368	0.43
829.538	-1.07
829.709	-0.24
829.879	0
830.049	-0.19
830.22	-0.07
830.39	-0.14
830.56	0.2
830.731	-0.4
830.901	-0.42
831.072	-0.11
831.242	0.4
831.412	-0.1
831.582	-0.16
831.753	-1.21
831.923	0.86
832.093	-0.07
832.263	-0.25
832.434	-0.5
832.604	-0.66
832.774	-0.18
832.944	-0.32
833.114	-0.59
833.284	0.11
833.454	-0.49
833.624	-0.53
833.795	0.06
833.965	0.29
834.135	1.03
834.305	-1.22
834.475	-0.58
834.645	-0.49
834.815	0.33
834.985	-0.89
835.155	-1
835.325	-0.03
835.494	0.01
835.664	-0.65
835.834	-0.61
836.004	0.02
836.174	0.08
836.344	-0.44
836.514	-0.78
836.684	-0.65
836.853	0.43
837.023	0
837.193	-0.25
837.363	0.52
837.532	0.75
837.702	0.22
837.872	-0.59
838.041	0.6
838.211	1.07
838.381	-1.07
838.55	-0.23
838.72	1.94
838.89	0.77
839.059	-0.09
839.229	0.14
839.398	1.04
839.568	0.35
839.738	-0.64
839.907	1.44
840.077	0.53
840.246	-0.72
840.416	-0.8
840.585	-1.05
840.755	0.78
840.924	1.21
841.093	-0.24
841.263	0.19
841.432	-0.1
841.602	0.18
841.771	-0.71
841.94	0.12
842.11	1.6
842.279	0.72
842.448	-0.6
842.617	-0.56
842.787	0.66
842.956	-0.31
843.125	-0.42
843.294	-0.14
843.464	0.57
843.633	0.99
843.802	-0.39
843.971	0.18
844.14	0.54
844.309	0.12
844.479	-1.07
844.648	-0.75
844.817	-0.19
844.986	0
845.155	-0.64
845.324	-0.25
845.493	-0.94
845.662	-0.52
845.831	0.51
846	0.08
846.169	-0.46
846.338	1.38
846.507	0.04
846.676	-0.31
846.844	-0.88
847.013	0.6
847.182	0.14
847.351	0.13
847.52	0.01
847.689	0.6
847.858	0.05
848.026	-1.06
848.195	-0.15
848.364	-0.82
848.533	-0.83
848.701	-1.07
848.87	0.75
849.039	1.34
849.207	1.03
849.376	0.56
849.545	1.54
849.713	-0.66
849.882	-0.74
850.051	0.52
850.219	0.27
850.388	-0.23
850.556	-0.5
850.725	-1.59
850.893	-0.18
851.062	-0.78
851.23	-0.05
851.399	-1.32
851.567	-0.12
851.736	-0.51
851.904	-0.98
852.073	-0.29
852.241	0.98
852.41	-0.53
852.578	-0.3
852.746	-0.98
852.915	0.5
853.083	0.34
853.251	-1.48
853.42	0.11
853.588	0.57
853.756	0.96
853.924	-0.43
854.093	-0.47
854.261	-0.34
854.429	-1.62
854.597	0.23
854.765	-1.27
854.934	-0.49
855.102	1.44
855.27	0.15
855.438	-0.04
855.606	0.48
855.774	1.68
855.942	-2
856.11	-1.62
856.278	0.5
856.446	0.6
856.614	0.31
856.782	-1.01
856.95	1.07
857.118	0.95
857.286	1.11
857.454	-1.29
857.622	1.07
857.79	-0.26
857.958	-0.85
858.126	-0.54
858.294	-3.04
858.462	-0.05
858.629	-1.23
858.797	-1.21
858.965	-1.13
859.133	0.19
859.301	-1
859.468	-0.28
859.636	-0.66
859.804	2.08
859.971	0.79
860.139	-1.24
860.307	0.14
860.474	1.63
860.642	0.04
860.81	0.13
860.977	-0.44
861.145	1.31
861.313	-0.02
861.48	-1.33
861.648	1.87
861.815	-0.45
861.983	-2.32
862.15	-1.51
862.318	0.03
862.485	0.78
862.653	-1.61
862.82	-1.24
862.988	2.82
863.155	0.7
863.322	-0.43
863.49	-1.84
863.657	-1.33
863.824	0.86
863.992	-0.33
864.159	1.37
864.326	2.08
864.494	0.53
864.661	1.14
864.828	-1.79
864.996	1.59
865.163	1.55
865.33	-0.89
865.497	-2.93
865.664	-2.8
865.832	-1.54
865.999	-1.33
866.166	-0.94
866.333	-1.14
866.5	-0.64
866.667	0.05
866.834	-1.67
867.001	1.45
867.168	-2.63
867.335	-0.4
867.502	-3.18
867.669	0.7
867.836	3.12
868.003	0.31
868.17	1.33
868.337	2.01
868.504	3.95
868.671	-3.39
868.838	-0.29
869.005	0.17
869.172	0.99
869.339	0.04
869.505	-1.59
869.672	0.43
869.839	1.11
870.006	0.59
870.173	-1.78
870.339	0.38
870.506	2.66
870.673	-0.61
870.84	1.22
871.006	-0.03
871.173	-1.16
871.34	1.84
871.506	-1.38
871.673	0.48
871.839	-0.4
872.006	0.09
872.173	-1.41
872.339	1.16
872.506	0.43
872.672	-0.26
872.839	-2.39
873.005	-0.03
873.172	4.16
873.338	1.82
873.505	-0.55
873.671	1.27
873.838	0.77
874.004	-1.88
874.171	-2.22
874.337	1.32
874.503	1.52
874.67	-1.29
874.836	-0.91
875.002	2.93
875.169	1.1
875.335	0.16
875.501	-0.71
875.668	0.64
875.834	-0.28
876	-0.6
876.166	0.86
876.332	0.92
876.499	3.7
876.665	-1.97
876.831	-0.84
876.997	3.63
877.163	0.81
877.329	-1.7
877.495	0.39
877.662	0.35
877.828	0.26
877.994	-0.35
878.16	-4.28
878.326	-0.77
878.492	1.17
878.658	0.34
878.824	0.17
878.99	0.54
879.156	0.69
879.322	2.02
879.487	-1.45
879.653	1.65
879.819	0.32
879.985	-1.04
880.151	-0.67
880.317	1.2
880.483	0.6
880.648	1.57
880.814	-3.43
880.98	0.6
881.146	-3.3
881.312	-2.13
881.477	-1.16
881.643	0.4
881.809	2.26
881.974	1.94
882.14	-2.12
882.306	0.66
882.471	3.7
882.637	0.06
882.803	0.75
882.968	3.41
883.134	3.45
883.299	-1.42
883.465	0.6
883.63	1.66
883.796	0.36
883.961	1.4
884.127	0.47
884.292	-3.02
884.458	-4.11
884.623	-4.11
