Data from Apollo_Calib_20240827__AbsoluteIrradiance__291__04-00-02-499.txt Node

Date: Wed Aug 28 04:00:02 BST 2024
User: biology
Spectrometer: FLMT08252
Trigger mode: 0
Integration Time (sec): 5.000000E-1
Scans to average: 5
Electric dark correction enabled: true
Nonlinearity correction enabled: false
Boxcar width: 0
XAxis mode: Wavelengths
Number of Pixels in Spectrum: 3648
>>>>>Begin Spectral Data<<<<<
179.588	-0
179.809	-0
180.03	-0
180.251	-0
180.473	-0
180.694	0
180.915	0
181.136	-0
181.357	0
181.578	-0
181.799	0
182.02	-0
182.241	-0
182.462	-0
182.683	0
182.904	-0
183.125	-0
183.346	0
183.567	0
183.788	0
184.009	-0
184.23	0
184.451	0
184.672	-0
184.892	-0
185.113	0
185.334	0
185.555	-0
185.776	-0
185.996	0
186.217	0
186.438	0
186.659	-0
186.879	0
187.1	0
187.321	-0
187.541	0
187.762	0
187.983	0
188.203	-0
188.424	0
188.644	0
188.865	0
189.086	0
189.306	0
189.527	-0
189.747	0
189.968	-0
190.188	0
190.409	0
190.629	0
190.849	-0
191.07	0
191.29	0
191.511	0
191.731	0
191.951	-0
192.172	0
192.392	0
192.612	0
192.833	0
193.053	0
193.273	0
193.493	-0
193.714	0
193.934	0
194.154	0
194.374	0
194.594	0
194.815	0
195.035	-0
195.255	0
195.475	-0
195.695	0
195.915	0
196.135	-0
196.355	0
196.575	0
196.795	0
197.015	-0
197.235	0
197.455	-0
197.675	0
197.895	-0
198.115	-0
198.335	0
198.555	0
198.775	0
198.995	0
199.214	0
199.434	0
199.654	-0
199.874	0
200.094	1.44
200.313	-0.15
200.533	-0.45
200.753	-0.31
200.973	1.14
201.192	1.34
201.412	-0.25
201.632	-0
201.851	1.58
202.071	0.66
202.291	0.19
202.51	0.08
202.73	0.69
202.95	0.22
203.169	0.02
203.389	0.23
203.608	0.35
203.828	0.29
204.047	0.04
204.267	0.51
204.486	0.6
204.706	0.52
204.925	0.47
205.145	-0.14
205.364	0.72
205.583	0.8
205.803	-0.33
206.022	-0.28
206.242	0.2
206.461	0.36
206.68	-0.09
206.9	0.41
207.119	0.42
207.338	1.37
207.557	-0.23
207.777	0.29
207.996	-0.12
208.215	0.82
208.434	0.23
208.654	-0.27
208.873	0.25
209.092	0.89
209.311	0.04
209.53	-0.04
209.749	0.29
209.968	-0.05
210.187	0.02
210.407	-0.12
210.626	0.17
210.845	0.64
211.064	0.22
211.283	0.03
211.502	0.44
211.721	0.31
211.94	-0
212.159	0.43
212.377	0.24
212.596	0.73
212.815	0.22
213.034	0.17
213.253	0.51
213.472	0.39
213.691	0.07
213.91	0.13
214.128	0.04
214.347	0.55
214.566	-0.23
214.785	-0.32
215.003	0.2
215.222	0.26
215.441	0.08
215.66	-0.01
215.878	0.17
216.097	0.42
216.316	-0.2
216.534	-0.03
216.753	0.24
216.972	0.04
217.19	0.02
217.409	-0.02
217.627	-0.1
217.846	0.08
218.064	0.18
218.283	0.05
218.501	0.57
218.72	0.44
218.938	-0.07
219.157	0.05
219.375	0.35
219.594	0.32
219.812	-0.1
220.031	-0.13
220.249	0.39
220.467	0.45
220.686	0.12
220.904	-0.01
221.122	0.09
221.341	0.5
221.559	0.16
221.777	-0.06
221.995	0.14
222.214	0.25
222.432	-0.03
222.65	0.13
222.868	0.25
223.086	0.21
223.305	0.34
223.523	0.22
223.741	0.35
223.959	0.04
224.177	-0.13
224.395	0.02
224.613	0.05
224.831	0.39
225.049	-0.01
225.267	0.1
225.485	0.08
225.703	-0.03
225.921	0.04
226.139	0.04
226.357	0.14
226.575	0.27
226.793	0.04
227.011	0.65
227.229	0.22
227.447	0.31
227.665	0.04
227.883	-0.06
228.1	0.13
228.318	0.12
228.536	-0.2
228.754	-0.06
228.972	0.21
229.189	0.19
229.407	0.04
229.625	0.13
229.843	0.4
230.06	0.33
230.278	-0.01
230.496	0.1
230.713	0.16
230.931	0.27
231.149	0.05
231.366	-0.1
231.584	0.17
231.801	0.41
232.019	0.2
232.236	-0.05
232.454	-0.02
232.671	0.14
232.889	0.08
233.106	-0.08
233.324	0.17
233.541	0.01
233.759	0.04
233.976	0.02
234.194	0.23
234.411	0.06
234.628	-0.02
234.846	0.09
235.063	0.07
235.28	0.16
235.498	0.09
235.715	-0.05
235.932	0.22
236.149	0.17
236.367	0.05
236.584	0.13
236.801	0.08
237.018	0.22
237.236	0.11
237.453	-0.09
237.67	0.18
237.887	0.13
238.104	0.03
238.321	-0.05
238.538	0.02
238.755	0.23
238.973	-0.12
239.19	0.13
239.407	0.07
239.624	0.14
239.841	-0.06
240.058	-0.02
240.275	0.17
240.492	0.14
240.709	0.17
240.925	-0
241.142	0.01
241.359	0.03
241.576	0.02
241.793	0.07
242.01	0.04
242.227	0.19
242.444	0.21
242.66	0.18
242.877	0.08
243.094	0.05
243.311	0.16
243.527	0.06
243.744	0.09
243.961	0.13
244.178	0.01
244.394	0.1
244.611	0.16
244.828	0.2
245.044	0.03
245.261	0.12
245.477	0.11
245.694	0.11
245.911	-0.01
246.127	0.18
246.344	0.16
246.56	0.11
246.777	-0.02
246.993	0.08
247.21	0.07
247.426	0.2
247.643	-0.02
247.859	-0.06
248.076	0.02
248.292	0.24
248.508	0.05
248.725	0.1
248.941	0.15
249.157	0.2
249.374	0.06
249.59	0.08
249.806	0.07
250.023	0.11
250.239	0.1
250.455	0.1
250.671	0.11
250.888	0.18
251.104	0.12
251.32	0.07
251.536	0.04
251.752	0.11
251.969	0.1
252.185	0.06
252.401	0.25
252.617	0.11
252.833	0.05
253.049	0.07
253.265	0.11
253.481	0.19
253.697	0.05
253.913	0.01
254.129	0.11
254.345	0.1
254.561	0
254.777	0.05
254.993	0.13
255.209	0.15
255.425	-0.02
255.641	0.04
255.857	0.2
256.073	0.04
256.288	0.02
256.504	-0.01
256.72	0.16
256.936	0.18
257.152	0.05
257.367	-0.04
257.583	0.05
257.799	0.18
258.015	0.03
258.23	0.03
258.446	0.22
258.662	0.05
258.877	-0.04
259.093	0.01
259.309	0.07
259.524	0.12
259.74	-0.01
259.955	-0.09
260.171	0.09
260.387	0.1
260.602	0.03
260.818	0.13
261.033	0.04
261.249	0.03
261.464	0.03
261.68	-0.08
261.895	0.09
262.11	0.17
262.326	0.02
262.541	-0.01
262.757	0.16
262.972	0.1
263.187	0.01
263.403	0.03
263.618	0.12
263.833	0.05
264.049	-0.01
264.264	0.05
264.479	0.09
264.694	0.11
264.91	-0.02
265.125	0.04
265.34	0.14
265.555	0.17
265.77	0.1
265.986	-0.02
266.201	0.2
266.416	0.16
266.631	0.03
266.846	0.09
267.061	0.15
267.276	0.15
267.491	-0.05
267.706	0.07
267.921	0.16
268.136	0.14
268.351	0.09
268.566	-0.06
268.781	0.14
268.996	0.09
269.211	0.07
269.426	-0.01
269.641	0.03
269.856	0.17
270.071	-0
270.285	-0
270.5	0.15
270.715	0.1
270.93	0.06
271.145	0.1
271.359	0.17
271.574	0.06
271.789	0.09
272.004	-0.03
272.218	-0.02
272.433	0.09
272.648	0.01
272.862	0.17
273.077	0.08
273.292	0.03
273.506	0.04
273.721	-0.02
273.936	0.12
274.15	0.12
274.365	0.01
274.579	0.08
274.794	0.14
275.008	0.11
275.223	-0.04
275.437	0.05
275.652	0.1
275.866	0.15
276.081	0.05
276.295	0.14
276.509	0.07
276.724	0.08
276.938	0.05
277.153	0.06
277.367	0.09
277.581	0.08
277.796	0.01
278.01	-0.01
278.224	0.15
278.438	0.21
278.653	0.07
278.867	0.03
279.081	0.13
279.295	0.03
279.51	0.02
279.724	-0.06
279.938	0.12
280.152	0.11
280.366	0.05
280.58	0.08
280.794	0.16
281.008	0.13
281.222	0.12
281.437	0.16
281.651	0.02
281.865	0.17
282.079	0.08
282.293	-0.05
282.507	0.03
282.721	0.05
282.935	0.05
283.148	-0.03
283.362	-0.01
283.576	-0
283.79	0.05
284.004	0.01
284.218	0.08
284.432	0.03
284.646	0.07
284.859	-0.02
285.073	0.05
285.287	0.1
285.501	0.12
285.714	0.04
285.928	0.05
286.142	0.05
286.356	0.01
286.569	0.03
286.783	0.13
286.997	0.11
287.21	0.09
287.424	0.07
287.637	0.05
287.851	0
288.065	0.07
288.278	0.05
288.492	0.08
288.705	0.04
288.919	0.12
289.132	-0.05
289.346	0.09
289.559	0.02
289.773	-0
289.986	0.06
290.2	0.11
290.413	0.12
290.626	0.02
290.84	0.04
291.053	0.04
291.267	0.13
291.48	0.04
291.693	0.08
291.906	0.01
292.12	0.05
292.333	0.02
292.546	0.04
292.76	0.14
292.973	0.07
293.186	0.12
293.399	0.04
293.612	0.08
293.826	0.06
294.039	0.04
294.252	0.04
294.465	0.12
294.678	0.1
294.891	0.05
295.104	0
295.317	0.03
295.53	0.09
295.743	0.03
295.956	0.04
296.169	0.11
296.382	0.08
296.595	0.09
296.808	0.01
297.021	0.12
297.234	0.07
297.447	0.01
297.66	0.06
297.873	0.15
298.086	0.07
298.299	-0
298.511	0
298.724	0.03
298.937	0.02
299.15	0.02
299.363	0.08
299.575	0.09
299.788	0.09
300.001	0.05
300.213	0.01
300.426	0
300.639	-0.02
300.852	-0
301.064	0.08
301.277	0.14
301.489	0.1
301.702	0.12
301.915	0.08
302.127	0.06
302.34	0.1
302.552	0.07
302.765	0.03
302.977	0.09
303.19	0.01
303.402	0.04
303.615	0.06
303.827	0.04
304.04	0.07
304.252	0.05
304.464	0.06
304.677	0.16
304.889	0.09
305.102	0.01
305.314	0.02
305.526	0.12
305.739	0.11
305.951	-0.01
306.163	0.07
306.375	0.18
306.588	0.03
306.8	-0.01
307.012	-0.02
307.224	0.12
307.436	0.11
307.649	0.01
307.861	0.05
308.073	0.05
308.285	0.04
308.497	0.01
308.709	0.04
308.921	0.08
309.133	0.11
309.346	0.05
309.558	0.06
309.77	0.1
309.982	0.11
310.194	0.04
310.406	0.01
310.617	0.15
310.829	0.11
311.041	0.12
311.253	0.05
311.465	0.03
311.677	0.07
311.889	0.04
312.101	0.03
312.313	0.12
312.524	0.13
312.736	-0.04
312.948	0.03
313.16	0.13
313.372	0.09
313.583	0.06
313.795	-0
314.007	0.05
314.218	0.12
314.43	0.07
314.642	-0
314.853	-0.02
315.065	0.06
315.277	0.04
315.488	0.09
315.7	0.11
315.912	0.11
316.123	0.06
316.335	0.05
316.546	0.16
316.758	0.07
316.969	0.01
317.181	0.06
317.392	0.05
317.604	0.06
317.815	-0
318.026	0.03
318.238	0.03
318.449	0.03
318.661	-0.03
318.872	-0.02
319.083	-0
319.295	0.05
319.506	0.01
319.717	0.06
319.929	0.04
320.14	0.09
320.351	0.04
320.562	0.02
320.774	0.05
320.985	0.07
321.196	0.04
321.407	0.01
321.618	0.1
321.829	0.1
322.041	0.06
322.252	0.04
322.463	0.1
322.674	0.07
322.885	0.01
323.096	0.01
323.307	0.12
323.518	0.06
323.729	0.04
323.94	0.03
324.151	0.03
324.362	0.08
324.573	0.12
324.784	0.07
324.995	0.13
325.206	0.04
325.417	0.04
325.628	0.03
325.838	0.06
326.049	0.1
326.26	0.11
326.471	0.04
326.682	0.11
326.892	0.1
327.103	-0.03
327.314	0.01
327.525	0.13
327.735	0.09
327.946	0.05
328.157	0.04
328.368	0.09
328.578	0.07
328.789	0.12
328.999	0.08
329.21	0.07
329.421	0.1
329.631	0
329.842	0.04
330.052	0.12
330.263	0.08
330.473	0.09
330.684	0.06
330.894	0.05
331.105	0.11
331.315	0.01
331.526	-0.03
331.736	0.16
331.947	0.08
332.157	0.07
332.367	0.01
332.578	0.12
332.788	0.11
332.999	0.06
333.209	0.04
333.419	0.03
333.629	0.1
333.84	0.11
334.05	0.03
334.26	0.12
334.47	0.09
334.681	0.07
334.891	0.04
335.101	0.09
335.311	0.14
335.521	0.05
335.732	0.03
335.942	0.16
336.152	0.11
336.362	0.14
336.572	0.07
336.782	0.11
336.992	0.02
337.202	0.06
337.412	0.01
337.622	0.12
337.832	0.07
338.042	0.06
338.252	0.05
338.462	0.06
338.672	0.05
338.882	0.05
339.092	0.02
339.302	0.13
339.511	0.11
339.721	0.01
339.931	0.03
340.141	0.13
340.351	0.11
340.561	0.06
340.77	0.06
340.98	0.08
341.19	0.08
341.4	0.05
341.609	-0.01
341.819	0.07
342.029	0
342.238	0.05
342.448	0.03
342.658	0.09
342.867	0.09
343.077	0.07
343.286	0.12
343.496	0.08
343.706	0.12
343.915	0.06
344.125	0.08
344.334	0.11
344.544	-0.01
344.753	0.08
344.963	0.03
345.172	0.06
345.381	0.03
345.591	0.03
345.8	0.08
346.01	0.16
346.219	0.09
346.428	-0.09
346.638	0.05
346.847	0.08
347.056	0.12
347.266	0.03
347.475	0.05
347.684	0.08
347.893	0.1
348.103	0.09
348.312	0.08
348.521	0.06
348.73	0.06
348.94	0.07
349.149	0.08
349.358	0.1
349.567	0.03
349.776	0.02
349.985	0.08
350.194	0.1
350.403	0.1
350.612	-0.01
350.821	0.04
351.03	0.06
351.239	0.02
351.448	0.07
351.657	0.03
351.866	0.15
352.075	0.05
352.284	0.1
352.493	0.05
352.702	0.13
352.911	0.06
353.12	0.07
353.329	0
353.538	0.1
353.746	0.05
353.955	0.03
354.164	0.04
354.373	0.03
354.582	0.08
354.79	0.09
354.999	0.09
355.208	0.03
355.416	0.12
355.625	0
355.834	0.06
356.042	0.09
356.251	0.01
356.46	0.01
356.668	0.07
356.877	0.19
357.085	0.13
357.294	-0.02
357.503	0.1
357.711	0.09
357.92	0.22
358.128	0.05
358.337	0.07
358.545	0.06
358.754	0.06
358.962	0.1
359.17	0.04
359.379	0.06
359.587	0.12
359.796	0.07
360.004	0.12
360.212	0.08
360.421	0.12
360.629	0.04
360.837	0.03
361.046	0.09
361.254	0.17
361.462	0.07
361.67	0.06
361.879	0.08
362.087	0.15
362.295	0.07
362.503	0.07
362.711	0.02
362.92	0.04
363.128	0.06
363.336	0.02
363.544	0.02
363.752	0.09
363.96	0.05
364.168	0.05
364.376	0.05
364.584	0.09
364.792	0.1
365	0.09
365.208	0.04
365.416	0.13
365.624	0.08
365.832	0.06
366.04	0.13
366.248	0.12
366.456	0.1
366.664	0.07
366.872	0.07
367.079	0.07
367.287	0.07
367.495	0.08
367.703	0.1
367.911	0.11
368.118	0.08
368.326	0.07
368.534	0.05
368.742	0.16
368.949	0.02
369.157	0.05
369.365	0.12
369.572	0.08
369.78	0.04
369.988	0.12
370.195	0.1
370.403	0.12
370.61	0.07
370.818	0.12
371.026	0.18
371.233	0.05
371.441	0.14
371.648	0.05
371.856	0.09
372.063	0.09
372.271	0.06
372.478	0.07
372.685	0.05
372.893	0.12
373.1	0.06
373.308	0.08
373.515	0.14
373.722	0.11
373.93	0.11
374.137	0.13
374.344	0.12
374.552	0.1
374.759	0.12
374.966	0.09
375.173	0.06
375.381	0.15
375.588	0.05
375.795	0.03
376.002	0.09
376.209	0.06
376.417	0.09
376.624	0.11
376.831	0.12
377.038	0.04
377.245	0
377.452	0.05
377.659	0.1
377.866	0.05
378.073	0.07
378.28	0.07
378.487	0.11
378.694	0.17
378.901	0.07
379.108	0.11
379.315	0.12
379.522	0.17
379.729	0.11
379.936	0.06
380.143	0.12
380.35	0.1
380.557	0.1
380.763	0.1
380.97	0.09
381.177	0.1
381.384	0.1
381.591	0.14
381.797	0.12
382.004	0.13
382.211	0.13
382.418	0.1
382.624	0.17
382.831	0.11
383.038	0.1
383.244	0.14
383.451	0.07
383.658	0.13
383.864	0.11
384.071	0.07
384.277	0.22
384.484	0.13
384.69	0.19
384.897	0.12
385.103	0.1
385.31	0.08
385.516	0.09
385.723	0.12
385.929	0.11
386.136	0.12
386.342	0.19
386.549	0.11
386.755	0.19
386.961	0.18
387.168	0.13
387.374	0.13
387.58	0.17
387.787	0.11
387.993	0.17
388.199	0.15
388.406	0.12
388.612	0.14
388.818	0.08
389.024	0.12
389.231	0.17
389.437	0.21
389.643	0.22
389.849	0.15
390.055	0.15
390.261	0.23
390.467	0.2
390.674	0.14
390.88	0.17
391.086	0.19
391.292	0.1
391.498	0.21
391.704	0.2
391.91	0.14
392.116	0.16
392.322	0.15
392.528	0.2
392.734	0.24
392.94	0.22
393.146	0.21
393.352	0.28
393.557	0.21
393.763	0.22
393.969	0.24
394.175	0.27
394.381	0.26
394.587	0.21
394.792	0.27
394.998	0.3
395.204	0.33
395.41	0.25
395.615	0.31
395.821	0.33
396.027	0.35
396.233	0.35
396.438	0.38
396.644	0.47
396.85	0.39
397.055	0.37
397.261	0.45
397.466	0.5
397.672	0.45
397.878	0.51
398.083	0.45
398.289	0.43
398.494	0.58
398.7	0.49
398.905	0.44
399.111	0.64
399.316	0.53
399.522	0.59
399.727	0.57
399.932	0.61
400.138	0.57
400.343	0.73
400.549	0.69
400.754	0.74
400.959	0.78
401.165	0.78
401.37	0.85
401.575	1.06
401.78	0.95
401.986	0.94
402.191	0.98
402.396	1
402.601	1.16
402.807	1.22
403.012	1.19
403.217	1.3
403.422	1.3
403.627	1.39
403.832	1.42
404.037	1.47
404.243	1.57
404.448	1.58
404.653	1.72
404.858	1.81
405.063	1.81
405.268	1.86
405.473	1.88
405.678	1.97
405.883	2.27
406.088	2.21
406.293	2.23
406.498	2.39
406.703	2.5
406.907	2.65
407.112	2.76
407.317	2.99
407.522	3.1
407.727	3.21
407.932	3.35
408.136	3.63
408.341	3.57
408.546	3.78
408.751	3.85
408.956	4.02
409.16	4.23
409.365	4.37
409.57	4.46
409.774	4.72
409.979	4.84
410.184	5.02
410.388	5.12
410.593	5.45
410.798	5.56
411.002	5.9
411.207	6.07
411.411	6.44
411.616	6.52
411.82	6.85
412.025	7.08
412.229	7.31
412.434	7.57
412.638	7.82
412.843	7.91
413.047	8.33
413.252	8.46
413.456	9.03
413.66	9.17
413.865	9.33
414.069	9.6
414.273	10.01
414.478	10.16
414.682	10.46
414.886	10.87
415.091	11.03
415.295	11.47
415.499	11.88
415.703	11.94
415.908	12.54
416.112	12.79
416.316	13.27
416.52	13.6
416.724	13.97
416.929	14.31
417.133	15.01
417.337	14.92
417.541	15.49
417.745	15.72
417.949	16.05
418.153	16.74
418.357	16.9
418.561	17.64
418.765	17.69
418.969	18.08
419.173	18.83
419.377	18.8
419.581	19.5
419.785	20.2
419.989	20.1
420.193	20.91
420.397	21.08
420.601	21.19
420.804	21.8
421.008	21.53
421.212	22.06
421.416	21.84
421.62	21.99
421.823	22
422.027	21.92
422.231	21.83
422.435	21.56
422.638	21.38
422.842	21.7
423.046	21.88
423.249	22.18
423.453	21.78
423.657	21.88
423.86	21.89
424.064	22.14
424.268	21.83
424.471	21.64
424.675	21.64
424.878	21.6
425.082	21.67
425.285	22.22
425.489	21.43
425.692	21.12
425.896	20.7
426.099	20.54
426.303	20.79
426.506	20.68
426.71	20.31
426.913	20.36
427.116	20.24
427.32	19.56
427.523	19.16
427.726	19.25
427.93	19.09
428.133	19.07
428.336	18.85
428.54	18.41
428.743	18.21
428.946	17.97
429.149	17.49
429.353	16.82
429.556	16.48
429.759	15.83
429.962	15.5
430.165	15.16
430.368	14
430.571	13.64
430.775	13.18
430.978	12.65
431.181	12.31
431.384	11.97
431.587	11.52
431.79	11.72
431.993	11.13
432.196	11.11
432.399	11.11
432.602	10.87
432.805	10.59
433.008	10.8
433.211	10.43
433.414	10.19
433.616	9.9
433.819	9.55
434.022	9.29
434.225	9.24
434.428	8.86
434.631	8.93
434.833	8.44
435.036	8.46
435.239	8.28
435.442	7.94
435.645	7.89
435.847	7.73
436.05	7.59
436.253	7.49
436.455	7.18
436.658	6.88
436.861	6.87
437.063	6.75
437.266	6.39
437.468	6.4
437.671	6.49
437.874	6.24
438.076	5.86
438.279	5.93
438.481	5.65
438.684	5.85
438.886	5.47
439.089	5.35
439.291	5.32
439.494	5.23
439.696	5.07
439.899	5.13
440.101	5.05
440.303	4.89
440.506	4.99
440.708	4.7
440.91	4.75
441.113	4.48
441.315	4.5
441.517	4.21
441.72	4.3
441.922	4.06
442.124	3.86
442.326	3.85
442.529	3.76
442.731	3.59
442.933	3.58
443.135	3.39
443.337	3.31
443.539	3.24
443.742	3.07
443.944	3.13
444.146	2.94
444.348	2.92
444.55	2.79
444.752	2.79
444.954	2.65
445.156	2.58
445.358	2.49
445.56	2.51
445.762	2.47
445.964	2.43
446.166	2.24
446.368	2.23
446.57	2.23
446.772	2.07
446.974	2.01
447.175	1.98
447.377	1.96
447.579	1.96
447.781	1.84
447.983	1.9
448.184	1.79
448.386	1.79
448.588	1.63
448.79	1.63
448.991	1.63
449.193	1.62
449.395	1.55
449.597	1.64
449.798	1.55
450	1.48
450.202	1.42
450.403	1.42
450.605	1.42
450.806	1.37
451.008	1.23
451.21	1.26
451.411	1.33
451.613	1.18
451.814	1.14
452.016	1.26
452.217	1.08
452.419	1.18
452.62	1.11
452.821	1.11
453.023	1.14
453.224	1.08
453.426	1
453.627	1.01
453.828	1
454.03	0.99
454.231	1.01
454.432	0.91
454.634	1.01
454.835	0.85
455.036	0.82
455.238	0.89
455.439	0.94
455.64	0.74
455.841	0.8
456.042	0.94
456.244	0.84
456.445	0.78
456.646	0.64
456.847	0.72
457.048	0.73
457.249	0.79
457.45	0.95
457.651	0.6
457.852	0.8
458.054	0.67
458.255	0.59
458.456	0.66
458.657	0.67
458.858	0.54
459.058	0.63
459.259	0.66
459.46	0.55
459.661	0.51
459.862	0.67
460.063	0.51
460.264	0.6
460.465	0.48
460.666	0.71
460.866	0.5
461.067	0.5
461.268	0.48
461.469	0.45
461.67	0.45
461.87	0.42
462.071	0.39
462.272	0.39
462.473	0.44
462.673	0.47
462.874	0.38
463.075	0.45
463.275	0.36
463.476	0.48
463.676	0.41
463.877	0.43
464.078	0.39
464.278	0.41
464.479	0.39
464.679	0.4
464.88	0.39
465.08	0.49
465.281	0.35
465.481	0.35
465.682	0.34
465.882	0.36
466.083	0.34
466.283	0.35
466.483	0.3
466.684	0.26
466.884	0.28
467.085	0.31
467.285	0.32
467.485	0.24
467.686	0.29
467.886	0.24
468.086	0.24
468.286	0.28
468.487	0.33
468.687	0.25
468.887	0.26
469.087	0.33
469.287	0.26
469.488	0.15
469.688	0.29
469.888	0.32
470.088	0.28
470.288	0.32
470.488	0.28
470.688	0.22
470.888	0.21
471.088	0.2
471.288	0.32
471.488	0.28
471.688	0.25
471.888	0.22
472.088	0.31
472.288	0.28
472.488	0.19
472.688	0.23
472.888	0.23
473.088	0.22
473.288	0.24
473.488	0.19
473.688	0.26
473.887	0.21
474.087	0.18
474.287	0.21
474.487	0.14
474.687	0.22
474.886	0.18
475.086	0.22
475.286	0.18
475.486	0.2
475.685	0.18
475.885	0.18
476.085	0.18
476.284	0.23
476.484	0.2
476.684	0.18
476.883	0.21
477.083	0.19
477.282	0.12
477.482	0.22
477.681	0.2
477.881	0.16
478.08	0.14
478.28	0.13
478.479	0.21
478.679	0.22
478.878	0.14
479.078	0.08
479.277	0.11
479.477	0.15
479.676	0.18
479.875	0.16
480.075	0.07
480.274	0.14
480.473	0.16
480.673	0.11
480.872	0.17
481.071	0.13
481.271	0.14
481.47	0.11
481.669	0.1
481.868	0.13
482.067	0.08
482.267	0.09
482.466	0.09
482.665	0.07
482.864	0.09
483.063	0.09
483.262	0.12
483.461	0.17
483.661	0.15
483.86	0.09
484.059	0.12
484.258	0.08
484.457	0.09
484.656	0.1
484.855	0.15
485.054	0.06
485.253	0.08
485.452	0.07
485.651	0.12
485.849	0.06
486.048	0.07
486.247	0.05
486.446	0.12
486.645	0.04
486.844	0.07
487.043	0.07
487.241	0.11
487.44	0.05
487.639	0.08
487.838	0.11
488.037	0.11
488.235	0.17
488.434	0.11
488.633	0.07
488.831	0.11
489.03	0.13
489.229	0.1
489.427	0.07
489.626	0.12
489.825	0.14
490.023	0.08
490.222	0.06
490.42	0.09
490.619	0.1
490.817	0.08
491.016	0.07
491.214	0.09
491.413	0.06
491.611	0.07
491.81	0.07
492.008	0.09
492.207	0.09
492.405	0.1
492.604	0.03
492.802	0.04
493	0.07
493.199	0.05
493.397	0.08
493.595	0.07
493.794	0.05
493.992	0.13
494.19	0.07
494.388	0.11
494.587	0.07
494.785	0.08
494.983	0.02
495.181	0.09
495.379	0.06
495.578	0.07
495.776	0.06
495.974	0.09
496.172	0.07
496.37	0.06
496.568	0.03
496.766	0.05
496.964	0.08
497.162	0.07
497.36	0.05
497.558	0.09
497.756	0.08
497.954	0.06
498.152	0.04
498.35	0.07
498.548	0.07
498.746	0.06
498.944	0.02
499.142	0.04
499.34	0.04
499.538	0.06
499.736	0.03
499.933	0.12
500.131	0.1
500.329	0.03
500.527	0.1
500.725	0.08
500.922	0.07
501.12	0.07
501.318	0.08
501.516	0.05
501.713	0.09
501.911	0.05
502.109	0.01
502.306	0.07
502.504	0.06
502.701	0.04
502.899	0.06
503.097	0.1
503.294	0.07
503.492	0.04
503.689	0.06
503.887	0.08
504.084	0.12
504.282	0.08
504.479	0.05
504.677	0.08
504.874	0.04
505.072	0.05
505.269	0.05
505.466	0.1
505.664	0.07
505.861	0.02
506.059	0.05
506.256	0.07
506.453	0.04
506.651	0.08
506.848	0.07
507.045	0.08
507.242	0.05
507.44	0.03
507.637	0.05
507.834	0.05
508.031	0.05
508.229	0.01
508.426	0.06
508.623	0.08
508.82	0.03
509.017	0.02
509.214	0.05
509.411	0.06
509.608	0.02
509.805	0.05
510.003	0.03
510.2	0.04
510.397	0.08
510.594	0.03
510.791	0.03
510.988	0.05
511.184	0.06
511.381	0.06
511.578	0.01
511.775	0.06
511.972	0.02
512.169	0.04
512.366	0.05
512.563	0.07
512.76	0.03
512.956	0.04
513.153	0.03
513.35	0.07
513.547	0.03
513.744	0.02
513.94	0.02
514.137	0.05
514.334	0.04
514.53	0.05
514.727	0.05
514.924	0.09
515.12	0.03
515.317	-0
515.514	0.01
515.71	0.01
515.907	0.04
516.103	0.04
516.3	0.06
516.497	0.04
516.693	0.06
516.89	0.05
517.086	0
517.283	0.07
517.479	0.05
517.676	0.05
517.872	0.04
518.068	0.02
518.265	0.04
518.461	0.02
518.658	0.03
518.854	0.06
519.05	0.02
519.247	0.03
519.443	0.05
519.639	0.04
519.836	0.05
520.032	0.05
520.228	0.02
520.424	0.07
520.621	0.04
520.817	0.05
521.013	0.04
521.209	0.05
521.405	0.08
521.601	0.04
521.798	0.05
521.994	0.1
522.19	0.03
522.386	-0.01
522.582	0.04
522.778	0.03
522.974	0.03
523.17	0.02
523.366	0.06
523.562	0.07
523.758	0.01
523.954	0.01
524.15	0.01
524.346	0.05
524.542	0.03
524.738	0.01
524.934	0.03
525.129	0.04
525.325	0.04
525.521	0.03
525.717	0.06
525.913	0.05
526.109	0.05
526.304	0.04
526.5	0.05
526.696	0.07
526.892	0.01
527.087	0.04
527.283	0.03
527.479	0.05
527.674	0
527.87	0.02
528.066	0.02
528.261	0.05
528.457	0.06
528.653	0.01
528.848	0.02
529.044	0.06
529.239	0.02
529.435	0.06
529.63	0.05
529.826	0.08
530.021	0.06
530.217	0.03
530.412	0.02
530.608	0.03
530.803	0.05
530.999	0.04
531.194	-0
531.389	0.02
531.585	-0.01
531.78	0.03
531.975	0.03
532.171	0.06
532.366	0.03
532.561	0.03
532.757	0.03
532.952	0.01
533.147	0.05
533.342	0.02
533.538	0
533.733	0.06
533.928	0.03
534.123	0.02
534.318	-0.01
534.513	0.02
534.709	0.05
534.904	0
535.099	0.02
535.294	0.02
535.489	0.04
535.684	0.03
535.879	0
536.074	0.04
536.269	0.02
536.464	0.04
536.659	0.02
536.854	0.03
537.049	0.06
537.244	0.03
537.439	0.01
537.634	0.06
537.828	0.02
538.023	0.01
538.218	-0
538.413	0.03
538.608	-0.01
538.803	0.02
538.997	-0.01
539.192	0.08
539.387	0.04
539.582	0.04
539.776	0.03
539.971	0.03
540.166	0.04
540.36	0.01
540.555	0.02
540.75	0.01
540.944	0.03
541.139	-0.03
541.334	0.01
541.528	0.05
541.723	0.04
541.917	0.03
542.112	-0.01
542.306	0.03
542.501	0.01
542.695	0.02
542.89	0.02
543.084	0.03
543.279	0.03
543.473	0.03
543.668	0.02
543.862	0.03
544.056	0.04
544.251	0.01
544.445	0.04
544.64	0.01
544.834	-0.01
545.028	0.03
545.222	0.02
545.417	0.04
545.611	0.04
545.805	0.03
546	0.01
546.194	0.02
546.388	0.01
546.582	0.06
546.776	0.04
546.97	0.02
547.165	0.06
547.359	0.06
547.553	0.02
547.747	0.05
547.941	0.02
548.135	0.01
548.329	0.04
548.523	0.05
548.717	0.03
548.911	0
549.105	0.02
549.299	0.06
549.493	0.05
549.687	0.02
549.881	0.05
550.075	0.06
550.269	-0.01
550.463	0.03
550.657	-0.01
550.85	0.01
551.044	0.01
551.238	0.03
551.432	0.01
551.626	-0.01
551.82	0.04
552.013	0.02
552.207	0.02
552.401	0.05
552.594	0.03
552.788	0.02
552.982	0.03
553.176	-0.01
553.369	0.05
553.563	0.03
553.756	-0.02
553.95	-0.01
554.144	0.04
554.337	0.06
554.531	0.03
554.724	0.03
554.918	0.01
555.111	0.02
555.305	0.02
555.498	0.08
555.692	0.05
555.885	0.03
556.079	0.02
556.272	0.02
556.466	0.06
556.659	0.03
556.852	0.02
557.046	0.01
557.239	0.03
557.432	-0.01
557.626	-0
557.819	0.03
558.012	0.03
558.206	0.05
558.399	0.03
558.592	0.03
558.785	0.03
558.979	0.04
559.172	0.02
559.365	0.04
559.558	0.03
559.751	0.03
559.944	0.01
560.138	0.01
560.331	0.02
560.524	0.01
560.717	0.03
560.91	0.01
561.103	0.04
561.296	0.04
561.489	0.03
561.682	0.01
561.875	0.06
562.068	0.04
562.261	0.01
562.454	0.06
562.647	0.03
562.84	0.03
563.032	0.02
563.225	0.03
563.418	0.03
563.611	0
563.804	0.03
563.997	0
564.19	0
564.382	0.04
564.575	0.01
564.768	0.02
564.961	0.01
565.153	-0.01
565.346	0.05
565.539	0.04
565.731	0.05
565.924	0.04
566.117	0.05
566.309	0.01
566.502	0.01
566.695	0.02
566.887	0.04
567.08	-0.01
567.272	0.01
567.465	0
567.657	0.03
567.85	0.03
568.042	0.04
568.235	0.05
568.427	0.03
568.62	0.03
568.812	0.03
569.005	0.01
569.197	-0.02
569.389	0.04
569.582	0.04
569.774	0.03
569.966	-0.01
570.159	-0.02
570.351	0.03
570.543	0
570.736	0.01
570.928	-0
571.12	0.03
571.312	0
571.505	-0.01
571.697	0.06
571.889	0
572.081	0.01
572.273	-0.02
572.465	0.03
572.658	0
572.85	0.04
573.042	0.02
573.234	0.02
573.426	0.06
573.618	-0.03
573.81	0.03
574.002	0.04
574.194	0.07
574.386	-0.01
574.578	-0.05
574.77	0.02
574.962	0.02
575.154	-0.02
575.346	0.03
575.538	0.02
575.729	0.01
575.921	0.01
576.113	0
576.305	0.08
576.497	0
576.689	-0
576.88	-0.01
577.072	0.03
577.264	-0.01
577.456	0.01
577.647	-0.05
577.839	0.02
578.031	0.05
578.223	-0.02
578.414	-0.01
578.606	0.01
578.798	0.02
578.989	-0.01
579.181	0.01
579.372	0.02
579.564	0.01
579.755	0.01
579.947	0.03
580.139	0.02
580.33	-0.04
580.522	-0.01
580.713	-0.05
580.905	0
581.096	0.01
581.287	0
581.479	0.04
581.67	0.03
581.862	0.01
582.053	0.02
582.244	-0.03
582.436	0.01
582.627	0.02
582.818	-0.01
583.01	-0.03
583.201	0.05
583.392	0.06
583.583	0.03
583.775	-0.01
583.966	-0.01
584.157	0.02
584.348	-0
584.54	-0.03
584.731	0.01
584.922	0.01
585.113	-0.01
585.304	0.01
585.495	0.05
585.686	0.01
585.877	0.03
586.068	0.02
586.259	0.05
586.45	0.02
586.641	-0.02
586.832	-0.03
587.023	0.02
587.214	0.01
587.405	0.01
587.596	-0.01
587.787	0.06
587.978	0.02
588.169	-0.03
588.36	-0.03
588.551	0.03
588.742	0
588.932	0.04
589.123	0.02
589.314	0.03
589.505	0.05
589.696	0.02
589.886	-0.01
590.077	-0.01
590.268	0.04
590.458	-0.02
590.649	-0.03
590.84	0.07
591.03	-0.03
591.221	-0.03
591.412	-0.03
591.602	0.04
591.793	0.03
591.984	-0.01
592.174	0.01
592.365	0.08
592.555	-0.02
592.746	0.03
592.936	0.04
593.127	0.03
593.317	0.05
593.508	0.01
593.698	-0.01
593.889	0.02
594.079	0.04
594.269	0
594.46	-0.01
594.65	0.02
594.84	0.03
595.031	-0.02
595.221	0.02
595.411	-0.02
595.602	0.02
595.792	-0.01
595.982	-0.01
596.172	0.06
596.363	0.04
596.553	0.02
596.743	0.01
596.933	0.02
597.123	0.04
597.314	-0.01
597.504	-0.01
597.694	0.05
597.884	0.02
598.074	-0.01
598.264	-0
598.454	0.05
598.644	0.01
598.834	0
599.024	-0.05
599.214	0.01
599.404	0.06
599.594	-0.02
599.784	-0.01
599.974	0.08
600.164	0.03
600.354	-0.03
600.544	-0.05
600.734	-0
600.924	0.04
601.114	0.01
601.303	0.01
601.493	0.01
601.683	0
601.873	0.02
602.063	-0.04
602.252	0.04
602.442	-0.05
602.632	-0.02
602.821	-0.03
603.011	0.01
603.201	-0.02
603.39	0.01
603.58	-0.04
603.77	-0
603.959	0.03
604.149	0.03
604.339	-0.02
604.528	0.03
604.718	0.02
604.907	0.02
605.097	0.01
605.286	-0.02
605.476	0.02
605.665	0.02
605.855	0.01
606.044	0.05
606.234	-0
606.423	0.02
606.612	-0.02
606.802	0.01
606.991	0.01
607.181	0.02
607.37	-0.01
607.559	0.01
607.749	-0.02
607.938	0
608.127	0.01
608.316	-0.03
608.506	0.05
608.695	0.01
608.884	-0.01
609.073	-0
609.263	0.03
609.452	0.05
609.641	0.04
609.83	-0.03
610.019	-0.01
610.208	-0.01
610.397	0.03
610.586	0.04
610.775	-0.02
610.965	0
611.154	0
611.343	-0
611.532	0.03
611.721	-0.02
611.91	-0
612.099	0.03
612.287	-0.01
612.476	-0.02
612.665	0.04
612.854	-0.01
613.043	0.05
613.232	0
613.421	-0.03
613.61	0.02
613.798	-0.06
613.987	0.04
614.176	-0
614.365	0.06
614.554	0.01
614.742	0.02
614.931	0
615.12	0.02
615.309	0.01
615.497	0.02
615.686	0
615.875	-0.03
616.063	0.03
616.252	0.01
616.44	0
616.629	0.02
616.818	0.03
617.006	0
617.195	-0
617.383	0.01
617.572	0.02
617.76	-0
617.949	0.02
618.137	0.04
618.326	0.08
618.514	-0.01
618.703	-0.02
618.891	0.08
619.079	-0.03
619.268	0.04
619.456	0.01
619.644	0.07
619.833	0.01
620.021	-0.01
620.209	-0.02
620.398	0.03
620.586	0.04
620.774	0.04
620.962	-0
621.151	0.09
621.339	0.02
621.527	-0.04
621.715	-0.05
621.903	-0.02
622.092	-0.03
622.28	0.03
622.468	0.01
622.656	-0
622.844	0.07
623.032	-0.01
623.22	-0.06
623.408	0.05
623.596	0.05
623.784	0.03
623.972	-0.02
624.16	0
624.348	0.08
624.536	-0.01
624.724	0.01
624.912	0.07
625.1	0.05
625.288	-0.03
625.476	-0.05
625.664	0.06
625.851	-0.05
626.039	-0
626.227	0.05
626.415	-0
626.603	-0.03
626.79	0
626.978	-0.01
627.166	0.04
627.354	-0.01
627.541	-0.03
627.729	-0.05
627.917	0.01
628.104	0.07
628.292	0.01
628.48	-0.02
628.667	0.03
628.855	0.01
629.042	0.02
629.23	-0
629.418	0.02
629.605	-0.01
629.793	-0.02
629.98	-0.01
630.168	-0
630.355	0.02
630.543	0.01
630.73	0.01
630.917	0.04
631.105	0.06
631.292	-0.01
631.48	0.01
631.667	0.1
631.854	0.01
632.042	0.01
632.229	-0.03
632.416	0.02
632.604	0
632.791	-0.03
632.978	0.05
633.165	0.02
633.353	0.09
633.54	0.06
633.727	-0.04
633.914	-0.02
634.101	-0.06
634.289	0.06
634.476	-0.02
634.663	-0.04
634.85	0.01
635.037	-0.06
635.224	-0.06
635.411	0.03
635.598	0.06
635.785	0
635.972	0
636.159	0.08
636.346	-0.03
636.533	-0.01
636.72	0.01
636.907	-0.01
637.094	0.05
637.281	0.02
637.468	-0.01
637.655	0.01
637.842	0.01
638.029	-0.01
638.215	0.06
638.402	0.02
638.589	-0.02
638.776	-0.01
638.963	-0.03
639.149	0.06
639.336	0.1
639.523	0
639.709	0.03
639.896	-0.01
640.083	0.04
640.27	0.03
640.456	-0.02
640.643	0.01
640.829	-0.06
641.016	-0.01
641.203	-0.05
641.389	-0.02
641.576	0.01
641.762	-0
641.949	-0
642.135	0.01
642.322	0.02
642.508	-0.04
642.695	-0.01
642.881	-0.02
643.068	0.01
643.254	-0.01
643.441	0.03
643.627	-0.02
643.813	-0
644	0.03
644.186	0.01
644.372	-0.04
644.559	0.07
644.745	-0.01
644.931	-0.01
645.118	-0.01
645.304	0.01
645.49	-0.03
645.676	-0
645.862	0.01
646.049	0.06
646.235	0.01
646.421	0.08
646.607	0.09
646.793	-0.01
646.979	-0.04
647.165	0.04
647.352	0
647.538	0.05
647.724	-0.01
647.91	0.03
648.096	0.04
648.282	0.02
648.468	-0.01
648.654	0.02
648.84	-0.01
649.026	-0
649.212	0.01
649.397	-0.01
649.583	-0.04
649.769	0.03
649.955	0.04
650.141	0.03
650.327	0.06
650.513	-0.01
650.698	0.06
650.884	-0.08
651.07	0
651.256	0
651.442	0
651.627	-0.02
651.813	0.03
651.999	-0.01
652.184	0.03
652.37	0
652.556	0.01
652.741	0.09
652.927	-0.08
653.113	-0
653.298	-0.01
653.484	-0.02
653.669	-0.02
653.855	-0
654.04	-0
654.226	0.02
654.412	-0
654.597	-0.03
654.782	0.03
654.968	0.02
655.153	0.01
655.339	-0.04
655.524	-0.03
655.71	0.06
655.895	-0.02
656.08	-0.03
656.266	0.05
656.451	0.02
656.636	-0.08
656.822	-0.01
657.007	-0.02
657.192	-0.02
657.378	-0.03
657.563	-0.01
657.748	0.01
657.933	0.04
658.118	-0.05
658.304	-0.03
658.489	0.03
658.674	0
658.859	-0.02
659.044	0.01
659.229	0.02
659.414	-0.04
659.599	-0.02
659.785	-0.04
659.97	-0
660.155	0.03
660.34	0.03
660.525	-0.02
660.71	-0.03
660.895	0.04
661.08	0.01
661.264	-0.02
661.449	0.08
661.634	0.07
661.819	0.02
662.004	0.01
662.189	-0.05
662.374	-0
662.559	-0.02
662.743	-0.06
662.928	-0.02
663.113	-0.03
663.298	-0.05
663.483	-0.02
663.667	-0.03
663.852	-0.07
664.037	0.06
664.221	-0.05
664.406	0.05
664.591	0.04
664.775	0.03
664.96	-0.03
665.145	0.04
665.329	0.01
665.514	-0.03
665.698	-0.01
665.883	-0.09
666.068	0.06
666.252	-0.02
666.437	-0.04
666.621	0.01
666.806	0.05
666.99	0.02
667.174	-0.05
667.359	0.07
667.543	-0.02
667.728	-0.03
667.912	-0.08
668.096	0.03
668.281	-0
668.465	-0.03
668.649	0
668.834	-0.01
669.018	0
669.202	0.01
669.387	-0.03
669.571	0.04
669.755	-0.06
669.939	-0
670.124	-0.02
670.308	0.1
670.492	0.02
670.676	-0
670.86	-0.01
671.044	-0.05
671.228	0.03
671.413	-0.02
671.597	-0
671.781	-0.04
671.965	0.03
672.149	-0.02
672.333	0.01
672.517	-0.04
672.701	0.01
672.885	-0.02
673.069	-0.07
673.253	0.09
673.437	0
673.621	-0.03
673.804	0.01
673.988	0.01
674.172	-0.01
674.356	-0.03
674.54	0.01
674.724	0.09
674.908	-0
675.091	0.04
675.275	0.01
675.459	0.04
675.643	-0.01
675.826	-0.02
676.01	0.02
676.194	0.02
676.377	0.08
676.561	0.01
676.745	-0
676.928	0.01
677.112	0.08
677.296	-0.02
677.479	0
677.663	-0.02
677.846	0.02
678.03	-0.01
678.213	-0.05
678.397	0.03
678.58	-0.05
678.764	-0.03
678.947	-0.05
679.131	0
679.314	0.04
679.498	0.03
679.681	-0.02
679.865	0.08
680.048	-0.03
680.231	-0.02
680.415	0.03
680.598	-0.03
680.781	-0.02
680.965	-0.01
681.148	0.01
681.331	-0.01
681.514	-0.03
681.698	-0
681.881	-0.01
682.064	0.05
682.247	-0
682.43	-0.06
682.614	0.06
682.797	0.01
682.98	0.01
683.163	-0.07
683.346	0.06
683.529	0
683.712	-0.04
683.895	0.03
684.078	-0.03
684.261	-0.05
684.444	0
684.627	0.01
684.81	-0.02
684.993	-0.03
685.176	0.02
685.359	-0.04
685.542	-0.06
685.725	0.05
685.908	0.01
686.091	-0.01
686.274	0.06
686.457	0.05
686.639	-0
686.822	0
687.005	0.02
687.188	0.03
687.371	0.11
687.553	0.03
687.736	0.04
687.919	0.08
688.102	0.11
688.284	0.01
688.467	0.04
688.65	0.01
688.832	0.02
689.015	-0.03
689.197	-0.03
689.38	0.14
689.563	0.13
689.745	-0.02
689.928	0.01
690.11	0.06
690.293	-0.01
690.475	-0.08
690.658	0.03
690.84	-0
691.023	-0.06
691.205	-0.09
691.388	0.03
691.57	0.09
691.752	0.01
691.935	-0.09
692.117	-0.02
692.3	0.04
692.482	0.02
692.664	-0.02
692.847	-0.02
693.029	0.08
693.211	0.04
693.393	0.02
693.576	-0.04
693.758	0.04
693.94	0.01
694.122	-0.05
694.304	-0.04
694.487	-0.07
694.669	0.02
694.851	-0.11
695.033	0.05
695.215	-0.04
695.397	-0.03
695.579	0.01
695.761	-0.03
695.943	-0.11
696.125	0.04
696.308	-0.05
696.49	-0.11
696.671	0.12
696.853	-0.04
697.035	0.16
697.217	-0.06
697.399	0.06
697.581	-0.06
697.763	-0.02
697.945	-0.07
698.127	0
698.309	0.07
698.491	0.03
698.672	0
698.854	0.06
699.036	0.06
699.218	-0.01
699.399	0.06
699.581	0.06
699.763	-0.01
699.945	-0.06
700.126	-0.06
700.308	0.02
700.49	0.02
700.671	-0.11
700.853	-0.03
701.035	-0.03
701.216	0.01
701.398	-0.06
701.579	-0.03
701.761	0.06
701.943	-0.01
702.124	-0.03
702.306	-0.04
702.487	0.18
702.669	-0.02
702.85	-0.02
703.031	-0.03
703.213	0.12
703.394	0.08
703.576	-0.04
703.757	0.08
703.938	0.04
704.12	0.17
704.301	-0.04
704.483	-0.03
704.664	0.08
704.845	0.13
705.026	0.12
705.208	-0.03
705.389	-0.01
705.57	0
705.751	-0.05
705.933	-0.01
706.114	0.1
706.295	-0.02
706.476	-0.07
706.657	0.08
706.838	0.09
707.02	0.04
707.201	-0.06
707.382	-0.07
707.563	0.04
707.744	-0.04
707.925	-0.03
708.106	-0.01
708.287	-0.01
708.468	0.11
708.649	-0.03
708.83	0.08
709.011	-0.04
709.192	0.04
709.373	-0.08
709.554	-0.05
709.734	0.06
709.915	0.11
710.096	0.01
710.277	-0.08
710.458	-0.01
710.639	0.07
710.819	-0.04
711	-0.04
711.181	0.08
711.362	0.07
711.542	0.01
711.723	-0.05
711.904	0.09
712.085	0.03
712.265	0.03
712.446	-0.08
712.627	-0
712.807	-0
712.988	0.02
713.168	-0.05
713.349	0.03
713.53	-0.11
713.71	-0.04
713.891	-0.05
714.071	-0.01
714.252	-0.05
714.432	-0.06
714.613	-0.12
714.793	0.02
714.974	0.12
715.154	0.07
715.334	-0.02
715.515	0.1
715.695	-0.05
715.876	0.01
716.056	-0.05
716.236	-0.02
716.417	-0.06
716.597	-0.07
716.777	0.19
716.957	-0.03
717.138	-0.01
717.318	-0.02
717.498	-0.15
717.678	-0.01
717.859	-0.02
718.039	-0.09
718.219	0.04
718.399	0.08
718.579	-0.01
718.759	-0.11
718.939	-0.06
719.12	0
719.3	-0.05
719.48	-0.08
719.66	-0.15
719.84	0.11
720.02	-0.02
720.2	-0.05
720.38	0.02
720.56	0.07
720.74	-0.05
720.92	0.01
721.1	0.13
721.279	0.12
721.459	0.04
721.639	-0.1
721.819	-0.01
721.999	-0.01
722.179	0.04
722.359	-0.05
722.538	-0.01
722.718	0.04
722.898	-0.03
723.078	0.01
723.257	-0.07
723.437	-0.06
723.617	0
723.797	0
723.976	0
724.156	0.11
724.336	0.07
724.515	0.14
724.695	-0.05
724.874	-0.04
725.054	0.09
725.234	-0.01
725.413	0.01
725.593	0
725.772	-0.03
725.952	-0.11
726.131	-0.02
726.311	0.04
726.49	-0.02
726.67	-0.06
726.849	-0.05
727.028	-0.02
727.208	-0.04
727.387	0.05
727.567	-0.16
727.746	-0.04
727.925	-0.08
728.105	-0.09
728.284	-0.06
728.463	-0.05
728.643	0.08
728.822	-0.13
729.001	-0.13
729.18	0.01
729.359	0.12
729.539	-0.09
729.718	-0.03
729.897	0.01
730.076	-0
730.255	-0.16
730.434	-0.03
730.614	0.05
730.793	0.01
730.972	-0.02
731.151	0.02
731.33	0.05
731.509	0.01
731.688	0.03
731.867	0.03
732.046	-0.11
732.225	0.2
732.404	-0.1
732.583	-0.04
732.762	-0
732.941	0.09
733.12	0.11
733.298	-0.06
733.477	0.08
733.656	-0.03
733.835	-0.09
734.014	0.13
734.193	-0.03
734.371	-0.03
734.55	0.11
734.729	-0.08
734.908	-0.04
735.086	0
735.265	0.06
735.444	-0.15
735.623	-0.13
735.801	-0.18
735.98	-0.02
736.159	-0.04
736.337	0.13
736.516	-0.08
736.694	-0.05
736.873	-0.07
737.052	0.15
737.23	0.12
737.409	-0.12
737.587	0.17
737.766	-0.08
737.944	-0.1
738.123	-0.02
738.301	0.03
738.479	-0.07
738.658	0.01
738.836	-0.24
739.015	0.05
739.193	0.11
739.371	-0.13
739.55	-0.05
739.728	-0.13
739.906	0.14
740.085	0.22
740.263	0.06
740.441	-0.24
740.62	0.18
740.798	0.03
740.976	-0.11
741.154	-0.09
741.332	0.25
741.511	-0.03
741.689	0.13
741.867	0.1
742.045	-0.13
742.223	-0.04
742.401	-0.17
742.579	-0.12
742.757	0.2
742.935	-0.06
743.114	0.01
743.292	-0.07
743.47	0.01
743.648	-0.03
743.826	0.09
744.004	0.17
744.181	0.19
744.359	-0.19
744.537	0.04
744.715	-0.11
744.893	0.03
745.071	-0.05
745.249	0.03
745.427	-0.09
745.605	0.07
745.782	0.05
745.96	0.1
746.138	-0.01
746.316	0.06
746.493	-0.05
746.671	0.03
746.849	-0.12
747.027	0.17
747.204	-0.06
747.382	0.06
747.56	-0.08
747.737	0.12
747.915	-0.06
748.093	-0.05
748.27	-0.22
748.448	-0.03
748.625	-0.18
748.803	-0.05
748.98	-0.11
749.158	0.06
749.335	0.03
749.513	-0.03
749.69	-0.02
749.868	0.04
750.045	-0.01
750.223	-0.08
750.4	-0.16
750.578	0.21
750.755	-0.02
750.932	-0.19
751.11	0.14
751.287	-0.16
751.464	0.13
751.642	-0.12
751.819	0.12
751.996	0.01
752.173	-0.07
752.351	-0.15
752.528	0.04
752.705	-0.09
752.882	-0.12
753.06	0.01
753.237	0.11
753.414	0.18
753.591	0.13
753.768	0.08
753.945	-0.08
754.122	0.02
754.299	0.12
754.476	-0.02
754.654	-0.04
754.831	-0.01
755.008	0.12
755.185	-0.09
755.362	-0.16
755.539	0.06
755.716	-0.18
755.892	-0.07
756.069	-0
756.246	-0.12
756.423	-0.14
756.6	0.24
756.777	-0.02
756.954	0.24
757.131	-0.06
757.307	-0.22
757.484	-0.12
757.661	0.04
757.838	0.06
758.015	-0.09
758.191	0.07
758.368	-0.01
758.545	0.17
758.721	0.11
758.898	-0.03
759.075	0.1
759.251	0.09
759.428	-0.03
759.605	-0.12
759.781	0.01
759.958	0.05
760.134	0.07
760.311	-0.1
760.488	0.12
760.664	0.11
760.841	-0.03
761.017	-0.07
761.194	0.06
761.37	0.02
761.547	-0.01
761.723	-0.04
761.899	0.09
762.076	-0.01
762.252	-0.07
762.429	-0.04
762.605	0.08
762.781	-0.03
762.958	0.04
763.134	-0.17
763.31	-0.05
763.486	0.1
763.663	-0.16
763.839	-0.05
764.015	-0.15
764.191	-0.12
764.368	0
764.544	-0.02
764.72	0.03
764.896	-0.03
765.072	-0.01
765.248	-0.02
765.425	-0.02
765.601	0.05
765.777	0.02
765.953	-0.15
766.129	-0.06
766.305	-0.04
766.481	0.12
766.657	0.07
766.833	0.14
767.009	-0.06
767.185	-0
767.361	-0
767.537	-0.19
767.713	0.21
767.889	-0.08
768.065	0.02
768.24	0.18
768.416	0.08
768.592	-0.04
768.768	-0.02
768.944	-0.05
769.12	-0.24
769.295	0.04
769.471	-0
769.647	-0.05
769.823	0.08
769.998	-0.14
770.174	-0.15
770.35	0.33
770.525	0.3
770.701	0.03
770.877	0.06
771.052	-0.07
771.228	0.23
771.403	0.15
771.579	0.06
771.755	0.32
771.93	0.02
772.106	-0.09
772.281	-0.24
772.457	0.07
772.632	-0
772.808	-0.14
772.983	-0.03
773.159	-0.13
773.334	0.14
773.509	-0.04
773.685	-0.03
773.86	0.31
774.036	0.24
774.211	0.01
774.386	-0.13
774.562	-0.21
774.737	-0.04
774.912	-0.25
775.087	0.11
775.263	0.06
775.438	-0.09
775.613	-0.05
775.788	-0.07
775.964	0.21
776.139	0.43
776.314	-0.21
776.489	0.08
776.664	0.1
776.839	-0.15
777.014	0.19
777.19	0.2
777.365	0.36
777.54	0.26
777.715	-0.15
777.89	-0.11
778.065	-0.17
778.24	-0.01
778.415	0.16
778.59	-0.25
778.765	0.08
778.94	-0.06
779.115	-0.07
779.289	-0.01
779.464	0.05
779.639	0
779.814	-0.1
779.989	-0.27
780.164	0.2
780.339	-0.03
780.513	-0.2
780.688	-0.26
780.863	-0
781.038	0.09
781.212	-0.2
781.387	-0.04
781.562	0.28
781.737	0.11
781.911	0.13
782.086	-0.14
782.261	-0.09
782.435	0.23
782.61	-0.04
782.784	0.01
782.959	0.33
783.134	-0.16
783.308	-0.23
783.483	-0.12
783.657	0.38
783.832	0.21
784.006	-0.14
784.181	0.09
784.355	0.12
784.53	-0.21
784.704	-0.2
784.878	0.23
785.053	0.13
785.227	0.15
785.402	0.27
785.576	-0.32
785.75	-0.13
785.925	0.02
786.099	-0.01
786.273	0.11
786.448	-0.02
786.622	0.27
786.796	-0.13
786.97	-0.04
787.145	0.44
787.319	-0.28
787.493	0.08
787.667	-0.43
787.841	0
788.015	0.09
788.19	-0.38
788.364	0.15
788.538	-0.01
788.712	0.22
788.886	-0.17
789.06	0.3
789.234	0.26
789.408	-0.32
789.582	-0.09
789.756	-0.11
789.93	-0.23
790.104	0.07
790.278	-0.09
790.452	-0.1
790.626	0.16
790.8	-0.05
790.973	0.27
791.147	0.38
791.321	0.27
791.495	0.32
791.669	-0.02
791.843	0.15
792.016	0.06
792.19	0.5
792.364	-0.3
792.538	0.67
792.711	0.29
792.885	-0.09
793.059	-0.22
793.233	-0.73
793.406	0.06
793.58	0.17
793.754	-0.16
793.927	-0.08
794.101	0.36
794.274	-0.07
794.448	0.24
794.622	-0.1
794.795	0.38
794.969	-0.2
795.142	0.14
795.316	-0.23
795.489	-0.15
795.663	0.21
795.836	-0.01
796.009	-0.17
796.183	0.41
796.356	0.12
796.53	-0.04
796.703	-0.06
796.876	0.56
797.05	0.11
797.223	-0.17
797.396	0.07
797.57	-0.05
797.743	0.55
797.916	-0.19
798.09	-0
798.263	0.04
798.436	0.22
798.609	-0.05
798.782	0.01
798.956	0.16
799.129	-0.14
799.302	-0.26
799.475	-0.31
799.648	-0.05
799.821	-0.24
799.994	-0.15
800.167	-0.36
800.34	0
800.514	0.4
800.687	-0.27
800.86	-0.22
801.033	-0.07
801.206	0.11
801.379	-0.35
801.551	0.42
801.724	0.24
801.897	0.56
802.07	0.03
802.243	-0.37
802.416	0.03
802.589	-0.14
802.762	0.02
802.935	0.02
803.107	0.25
803.28	-0.03
803.453	0.02
803.626	-0.13
803.798	0
803.971	-0.22
804.144	-0.14
804.317	0
804.489	0.34
804.662	0.02
804.835	-0.06
805.007	-0.12
805.18	0.53
805.353	-0.24
805.525	-0.28
805.698	-0.24
805.87	0.46
806.043	0.11
806.215	-0.45
806.388	-0.24
806.56	-0.15
806.733	0.11
806.905	0.26
807.078	-0.19
807.25	-0.18
807.423	0.05
807.595	-0.02
807.768	-0.11
807.94	0.41
808.112	0.22
808.285	0.06
808.457	-0.2
808.629	-0.03
808.802	-0.01
808.974	0.04
809.146	-0.24
809.318	-0.44
809.491	0.35
809.663	0.33
809.835	-0.24
810.007	0.03
810.18	0.17
810.352	-0.43
810.524	0.24
810.696	0.08
810.868	0.41
811.04	-0.13
811.212	-0.2
811.384	0.42
811.556	-0.11
811.728	-0.22
811.901	0.76
812.073	0.01
812.245	0.27
812.417	-0.15
812.589	-0.57
812.76	0.09
812.932	0.21
813.104	0.11
813.276	-0.02
813.448	0.38
813.62	0.03
813.792	0.24
813.964	-0.02
814.136	0.28
814.307	-0.06
814.479	-0.59
814.651	-0.36
814.823	0.62
814.995	-0.26
815.166	0.19
815.338	-0.42
815.51	-0.83
815.681	0.67
815.853	0.64
816.025	-0.25
816.196	0.52
816.368	0.21
816.54	-0.3
816.711	-0.44
816.883	-0.04
817.054	0.95
817.226	-0.52
817.398	0.29
817.569	-0.13
817.741	0.07
817.912	0.13
818.084	-0.24
818.255	-0.04
818.426	-0.32
818.598	-0.56
818.769	-0.19
818.941	0.29
819.112	0.56
819.283	-0.05
819.455	-0.52
819.626	0.12
819.798	0.48
819.969	0.31
820.14	-0.04
820.311	-0.09
820.483	-0.3
820.654	-0.09
820.825	0.32
820.996	-0.11
821.168	-0.3
821.339	0.17
821.51	-0.75
821.681	-0.61
821.852	-0.17
822.023	-0.57
822.195	-0.54
822.366	0.79
822.537	-0.06
822.708	0.17
822.879	0.08
823.05	0.56
823.221	0.06
823.392	0.32
823.563	0.17
823.734	0.22
823.905	-0.3
824.076	-0.61
824.247	-0.46
824.418	-0.04
824.589	0.89
824.759	-0.03
824.93	-0.13
825.101	-1.1
825.272	0.23
825.443	0.56
825.614	1.05
825.784	-0.69
825.955	0.96
826.126	0.26
826.297	-0.04
826.467	1.22
826.638	0.92
826.809	-0.65
826.98	-0.17
827.15	0.35
827.321	-0.05
827.492	0.82
827.662	-0.1
827.833	1.01
828.003	0.67
828.174	-0.26
828.345	-0.5
828.515	1.09
828.686	0.45
828.856	-0.37
829.027	-0.15
829.197	0.32
829.368	-0.11
829.538	-0.16
829.709	-0.19
829.879	0.14
830.049	-0.46
830.22	-0.29
830.39	-0.3
830.56	0.87
830.731	0.11
830.901	-0.74
831.072	-0.23
831.242	-0.44
831.412	-0.18
831.582	-0.26
831.753	-0.9
831.923	0.46
832.093	0.03
832.263	-0.54
832.434	-1.14
832.604	-0.23
832.774	0.08
832.944	-0.63
833.114	-0.16
833.284	0.22
833.454	-0.64
833.624	-0.21
833.795	0.06
833.965	0.27
834.135	0.38
834.305	-0.6
834.475	-1.48
834.645	0.43
834.815	-0.74
834.985	-0.62
835.155	-0.62
835.325	0.57
835.494	0
835.664	-0.24
835.834	-0.77
836.004	-0.75
836.174	-0.17
836.344	0.03
836.514	-0.41
836.684	-0.19
836.853	-0.27
837.023	1.12
837.193	0.46
837.363	0.3
837.532	0.47
837.702	-0.39
837.872	-0.15
838.041	0.65
838.211	1.38
838.381	-1.14
838.55	-0.59
838.72	1.7
838.89	0.77
839.059	-0.43
839.229	-0.49
839.398	1.44
839.568	0.46
839.738	-0.26
839.907	1.09
840.077	0.06
840.246	-0.4
840.416	-0.81
840.585	-0.88
840.755	1.71
840.924	0.87
841.093	-0.71
841.263	-0.37
841.432	0.09
841.602	-0.72
841.771	-0.78
841.94	0.12
842.11	1.71
842.279	1.31
842.448	-0.22
842.617	-0.66
842.787	1.4
842.956	-0.8
843.125	0
843.294	0.41
843.464	0.39
843.633	0.11
843.802	-0.31
843.971	-0.19
844.14	0.76
844.309	0.5
844.479	-0.67
844.648	-0.73
844.817	0.27
844.986	0.14
845.155	-0.29
845.324	-0.52
845.493	-0.9
845.662	-0.51
845.831	0.03
846	0.13
846.169	-0.02
846.338	1.29
846.507	-0.98
846.676	0.92
846.844	-0.22
847.013	1.39
847.182	-0.18
847.351	-0.5
847.52	0.05
847.689	0.16
847.858	-0.86
848.026	-0.24
848.195	-0.7
848.364	0.41
848.533	-2.12
848.701	-0.33
848.87	0.86
849.039	0.99
849.207	0.07
849.376	0.86
849.545	1.44
849.713	-0.54
849.882	-0.29
850.051	-0.22
850.219	0.58
850.388	0.23
850.556	-0.67
850.725	-1.58
850.893	0
851.062	-0.54
851.23	0.76
851.399	-1.37
851.567	0.81
851.736	-0.17
851.904	-1.01
852.073	0.23
852.241	0.56
852.41	-1.07
852.578	-0.48
852.746	-0.8
852.915	0.41
853.083	0.03
853.251	-1.75
853.42	-1.01
853.588	-0.54
853.756	1.27
853.924	-0.12
854.093	-1.24
854.261	-0.3
854.429	-1.69
854.597	-0.27
854.765	-1.91
854.934	0.53
855.102	0.93
855.27	-0.23
855.438	0.96
855.606	1.52
855.774	1.69
855.942	-1.51
856.11	-2.22
856.278	0.3
856.446	0.24
856.614	0.01
856.782	-1.8
856.95	1.11
857.118	0.91
857.286	0.35
857.454	-0.57
857.622	0.78
857.79	1.44
857.958	-1.89
858.126	-0.66
858.294	-1.74
858.462	-0.25
858.629	-0.6
858.797	-1.02
858.965	1.01
859.133	-0.05
859.301	-1.33
859.468	0.13
859.636	-1.52
859.804	1.99
859.971	0.68
860.139	-1.62
860.307	0.97
860.474	-0.62
860.642	-0.62
860.81	-0.95
860.977	-0.27
861.145	1.13
861.313	-1.08
861.48	-0.48
861.648	0.87
861.815	-0.07
861.983	-1.13
862.15	-1.76
862.318	0.61
862.485	1.82
862.653	-0.77
862.82	-1.57
862.988	0.93
863.155	0.91
863.322	-1.4
863.49	-1.32
863.657	0
863.824	0.18
863.992	0.77
864.159	-0.58
864.326	0.98
864.494	-0.84
864.661	1.99
864.828	-1.79
864.996	2.12
865.163	1.47
865.33	-1.01
865.497	-3.29
865.664	0.19
865.832	-1.79
865.999	-1.34
866.166	-0.77
866.333	0.63
866.5	-0.46
866.667	-0.13
866.834	-0.72
867.001	1.37
867.168	-1.71
867.335	-0.81
867.502	-1.95
867.669	-0.52
867.836	3.22
868.003	0.73
868.17	1.04
868.337	-1.06
868.504	2.55
868.671	-2.22
868.838	-1.88
869.005	2.24
869.172	0.47
869.339	0.13
869.505	-0.28
869.672	-0.3
869.839	1.23
870.006	1.4
870.173	-0.97
870.339	-0.16
870.506	1.63
870.673	-1.74
870.84	0.4
871.006	-0.16
871.173	-0.91
871.34	0.5
871.506	-1.84
871.673	0.62
871.839	-1.34
872.006	1
872.173	-0.97
872.339	-0.69
872.506	1.71
872.672	-0.01
872.839	-1.53
873.005	1.07
873.172	2.8
873.338	1.14
873.505	-0.48
873.671	0.64
873.838	-0.17
874.004	-1.95
874.171	-0.39
874.337	2.66
874.503	0.66
874.67	-0.17
874.836	-0.65
875.002	2.09
875.169	1.25
875.335	-1.01
875.501	-2.31
875.668	1.61
875.834	-0.53
876	-0.51
876.166	1.06
876.332	0.77
876.499	3.2
876.665	0.26
876.831	-1.86
876.997	3.46
877.163	2.17
877.329	-1.11
877.495	0.46
877.662	0.17
877.828	0.59
877.994	-1.91
878.16	-3.18
878.326	-0.92
878.492	0.52
878.658	-2.11
878.824	-0.5
878.99	1.47
879.156	-1.64
879.322	2.5
879.487	-0.69
879.653	0.08
879.819	0.39
879.985	-1.67
880.151	0.32
880.317	0.41
880.483	1.16
880.648	1.4
880.814	-2.74
880.98	0.94
881.146	-1.18
881.312	-2.43
881.477	-1.65
881.643	0
881.809	0.53
881.974	1.19
882.14	-3.1
882.306	1.72
882.471	1.51
882.637	-2.06
882.803	0.73
882.968	3
883.134	1.93
883.299	-0.99
883.465	-0.37
883.63	1.87
883.796	1.76
883.961	2.15
884.127	1.06
884.292	-5.47
884.458	-2.51
884.623	-2.5
