Data from Apollo_Calib_20240827__AbsoluteIrradiance__407__05-56-02-235.txt Node

Date: Wed Aug 28 05:56:02 BST 2024
User: biology
Spectrometer: FLMT08252
Trigger mode: 0
Integration Time (sec): 5.000000E-1
Scans to average: 5
Electric dark correction enabled: true
Nonlinearity correction enabled: false
Boxcar width: 0
XAxis mode: Wavelengths
Number of Pixels in Spectrum: 3648
>>>>>Begin Spectral Data<<<<<
179.588	-0
179.809	-0
180.03	-0
180.251	-0
180.473	-0
180.694	0
180.915	0
181.136	-0
181.357	0
181.578	-0
181.799	-0
182.02	-0
182.241	-0
182.462	-0
182.683	0
182.904	-0
183.125	-0
183.346	0
183.567	0
183.788	-0
184.009	-0
184.23	0
184.451	0
184.672	-0
184.892	-0
185.113	0
185.334	0
185.555	-0
185.776	0
185.996	0
186.217	0
186.438	0
186.659	-0
186.879	0
187.1	0
187.321	-0
187.541	-0
187.762	0
187.983	0
188.203	0
188.424	0
188.644	-0
188.865	0
189.086	-0
189.306	0
189.527	0
189.747	0
189.968	-0
190.188	0
190.409	0
190.629	0
190.849	-0
191.07	0
191.29	0
191.511	0
191.731	-0
191.951	-0
192.172	0
192.392	0
192.612	0
192.833	0
193.053	0
193.273	0
193.493	0
193.714	-0
193.934	0
194.154	0
194.374	0
194.594	0
194.815	0
195.035	0
195.255	0
195.475	0
195.695	0
195.915	0
196.135	-0
196.355	0
196.575	0
196.795	0
197.015	-0
197.235	-0
197.455	0
197.675	0
197.895	-0
198.115	0
198.335	0
198.555	0
198.775	0
198.995	0
199.214	0
199.434	0
199.654	0
199.874	0
200.094	1.66
200.313	-0.01
200.533	0.15
200.753	-0.45
200.973	1.01
201.192	0.83
201.412	-0.94
201.632	-0.17
201.851	1.45
202.071	-0.29
202.291	0.06
202.51	-0.69
202.73	0.71
202.95	-0.06
203.169	0.33
203.389	0.59
203.608	0.67
203.828	-0
204.047	0.3
204.267	0.47
204.486	0.83
204.706	0.4
204.925	0.19
205.145	0.19
205.364	0.57
205.583	0.8
205.803	0.24
206.022	0.07
206.242	0.36
206.461	0.21
206.68	-0.14
206.9	0.4
207.119	1.14
207.338	0.79
207.557	0.29
207.777	-0.04
207.996	0.2
208.215	0.76
208.434	0.1
208.654	-0.02
208.873	0.29
209.092	0.77
209.311	-0.03
209.53	0.01
209.749	0.18
209.968	0
210.187	0.01
210.407	-0.26
210.626	-0.07
210.845	0.45
211.064	0.13
211.283	-0.05
211.502	0.25
211.721	0.14
211.94	-0.07
212.159	0.33
212.377	0.32
212.596	0.54
212.815	0.36
213.034	0.16
213.253	0.44
213.472	0.32
213.691	0.1
213.91	-0.11
214.128	0.01
214.347	0.57
214.566	-0.15
214.785	-0.09
215.003	0.41
215.222	0.18
215.441	0.25
215.66	-0.17
215.878	0.28
216.097	0.45
216.316	-0.13
216.534	0.02
216.753	0.34
216.972	0.07
217.19	0.17
217.409	-0.11
217.627	0.04
217.846	0.14
218.064	0.21
218.283	-0.17
218.501	0.5
218.72	0.23
218.938	-0.09
219.157	-0.15
219.375	0.4
219.594	0.35
219.812	-0.18
220.031	-0.07
220.249	0.31
220.467	0.5
220.686	0.06
220.904	-0.01
221.122	-0.06
221.341	0.41
221.559	0.06
221.777	0.06
221.995	0.13
222.214	0.28
222.432	-0
222.65	0.24
222.868	0.14
223.086	0.27
223.305	0.23
223.523	0.04
223.741	0.44
223.959	0
224.177	-0.2
224.395	0
224.613	0.27
224.831	0.13
225.049	-0.14
225.267	0.01
225.485	0.13
225.703	0.14
225.921	0.08
226.139	0.03
226.357	0.37
226.575	0.21
226.793	0.03
227.011	0.58
227.229	0.15
227.447	0.24
227.665	0.04
227.883	-0.07
228.1	0.1
228.318	0.09
228.536	-0.12
228.754	-0.07
228.972	0.19
229.189	0.25
229.407	-0.02
229.625	0.02
229.843	0.27
230.06	0.28
230.278	0.12
230.496	0.16
230.713	0.15
230.931	0.31
231.149	0.13
231.366	-0.11
231.584	0.09
231.801	0.43
232.019	0.06
232.236	-0.09
232.454	-0.01
232.671	0.23
232.889	0.08
233.106	-0.05
233.324	0.03
233.541	0.05
233.759	0.09
233.976	-0.02
234.194	0.06
234.411	0.13
234.628	-0.11
234.846	0.01
235.063	-0
235.28	0.06
235.498	0.06
235.715	-0.01
235.932	0.22
236.149	0.1
236.367	-0.04
236.584	0.13
236.801	0.01
237.018	0.16
237.236	0.11
237.453	-0.07
237.67	0.23
237.887	0.12
238.104	0.04
238.321	-0.03
238.538	0.05
238.755	0.21
238.973	-0.1
239.19	0.08
239.407	0.12
239.624	0.09
239.841	-0.02
240.058	0.07
240.275	0.15
240.492	0
240.709	0.07
240.925	0.02
241.142	0.16
241.359	-0.06
241.576	0.04
241.793	0.03
242.01	0.05
242.227	0.21
242.444	0.12
242.66	0.2
242.877	0.2
243.094	0.01
243.311	0.15
243.527	0.08
243.744	0.08
243.961	0.11
244.178	-0.02
244.394	0.14
244.611	0.16
244.828	0.27
245.044	0.02
245.261	0.11
245.477	0.15
245.694	0.22
245.911	0.01
246.127	0.11
246.344	0.13
246.56	0.15
246.777	0.11
246.993	0.09
247.21	0.12
247.426	0.12
247.643	0.03
247.859	-0.04
248.076	-0.06
248.292	0.26
248.508	0.02
248.725	0.12
248.941	0.13
249.157	0.19
249.374	0.01
249.59	0.01
249.806	0.09
250.023	0.17
250.239	0.01
250.455	0.02
250.671	0.06
250.888	0.1
251.104	0.09
251.32	0.06
251.536	0.02
251.752	0.04
251.969	0.15
252.185	0.07
252.401	0.25
252.617	0.11
252.833	0.02
253.049	0.02
253.265	0.04
253.481	0.1
253.697	0.04
253.913	-0.11
254.129	0.14
254.345	0.15
254.561	0
254.777	0.11
254.993	0.21
255.209	0.07
255.425	0.02
255.641	0
255.857	0.06
256.073	0.06
256.288	-0.05
256.504	-0.01
256.72	0.13
256.936	0.18
257.152	0.04
257.367	0
257.583	0.13
257.799	0.09
258.015	-0.05
258.23	-0
258.446	0.19
258.662	0.09
258.877	0.05
259.093	0.02
259.309	0.11
259.524	0.05
259.74	0.01
259.955	-0.07
260.171	0.09
260.387	0.09
260.602	0.17
260.818	0.18
261.033	-0.04
261.249	0.06
261.464	-0.01
261.68	-0
261.895	0.12
262.11	0.13
262.326	-0.03
262.541	-0.04
262.757	0.09
262.972	0.09
263.187	0.03
263.403	0.06
263.618	0.12
263.833	0.06
264.049	-0.02
264.264	0.04
264.479	0.15
264.694	0.14
264.91	-0.01
265.125	0.06
265.34	0.08
265.555	0.25
265.77	0.06
265.986	0.01
266.201	0.08
266.416	0.14
266.631	0.04
266.846	-0.01
267.061	0.06
267.276	0.11
267.491	-0.1
267.706	0.11
267.921	0.1
268.136	0.06
268.351	0.11
268.566	0.03
268.781	0.14
268.996	0.07
269.211	0
269.426	-0.04
269.641	0.04
269.856	0.16
270.071	0.09
270.285	0.03
270.5	0.12
270.715	0.09
270.93	0.07
271.145	0.09
271.359	0.11
271.574	0.04
271.789	0.07
272.004	-0.04
272.218	0.01
272.433	0.13
272.648	0.03
272.862	0.09
273.077	0.08
273.292	0.09
273.506	-0.01
273.721	0
273.936	0.15
274.15	0.13
274.365	0.05
274.579	0.1
274.794	0.03
275.008	0.09
275.223	-0.07
275.437	0.1
275.652	0.11
275.866	0.13
276.081	0.04
276.295	0.12
276.509	0.03
276.724	0.03
276.938	0.03
277.153	0.12
277.367	0.13
277.581	0.05
277.796	0.02
278.01	-0.02
278.224	0.12
278.438	0.19
278.653	0.01
278.867	0.05
279.081	0.09
279.295	0.05
279.51	0.06
279.724	-0.05
279.938	0.1
280.152	0.16
280.366	0.04
280.58	0.1
280.794	0.09
281.008	0.11
281.222	0.11
281.437	0.19
281.651	0.05
281.865	0.14
282.079	-0.03
282.293	-0.05
282.507	-0.04
282.721	0.06
282.935	0.06
283.148	0.02
283.362	0.03
283.576	0.02
283.79	0.11
284.004	0.03
284.218	0.12
284.432	0
284.646	0.06
284.859	0.05
285.073	0.06
285.287	0.07
285.501	0.07
285.714	0.04
285.928	0.12
286.142	0.04
286.356	0.03
286.569	0.01
286.783	0.14
286.997	0.06
287.21	0.11
287.424	0.05
287.637	0.04
287.851	0.04
288.065	0.08
288.278	0.03
288.492	0.11
288.705	0.06
288.919	0.06
289.132	0.04
289.346	0.17
289.559	0.01
289.773	0.01
289.986	0.06
290.2	0.06
290.413	0.08
290.626	-0.02
290.84	0.06
291.053	0.02
291.267	0.17
291.48	0.08
291.693	0.06
291.906	0.04
292.12	0.01
292.333	0.07
292.546	0.03
292.76	0.12
292.973	0.14
293.186	0.08
293.399	-0.01
293.612	0.08
293.826	0.02
294.039	0.02
294.252	0.04
294.465	0.05
294.678	0.05
294.891	0.09
295.104	0.04
295.317	0.05
295.53	0.04
295.743	0.04
295.956	0.03
296.169	0.11
296.382	0.09
296.595	0.03
296.808	0
297.021	0.12
297.234	0.09
297.447	0.02
297.66	0.06
297.873	0.12
298.086	0.07
298.299	-0.01
298.511	-0.02
298.724	0.03
298.937	0.06
299.15	0.02
299.363	0.02
299.575	0.06
299.788	0.07
300.001	0.05
300.213	-0.02
300.426	0
300.639	0.04
300.852	0.04
301.064	0.07
301.277	0.12
301.489	0.08
301.702	0.08
301.915	0.04
302.127	0.04
302.34	0.07
302.552	0.09
302.765	0.01
302.977	0.07
303.19	0.02
303.402	0.06
303.615	0.1
303.827	0.02
304.04	0.02
304.252	0.09
304.464	0.02
304.677	0.18
304.889	0.07
305.102	0.03
305.314	-0.06
305.526	0.08
305.739	0.1
305.951	-0
306.163	0.03
306.375	0.13
306.588	0.01
306.8	0.02
307.012	-0
307.224	0.08
307.436	0.08
307.649	-0.01
307.861	0.08
308.073	0.03
308.285	0.05
308.497	-0.01
308.709	0
308.921	0.04
309.133	0.13
309.346	0.05
309.558	0.02
309.77	0.06
309.982	0.13
310.194	0.11
310.406	-0
310.617	0.14
310.829	0.08
311.041	0.08
311.253	-0.03
311.465	0.03
311.677	0.05
311.889	0.06
312.101	0.03
312.313	0.09
312.524	0.06
312.736	-0.01
312.948	-0
313.16	0.16
313.372	0.06
313.583	0.09
313.795	0.04
314.007	0.01
314.218	0.08
314.43	0.05
314.642	0.01
314.853	-0.02
315.065	0.07
315.277	0.01
315.488	0.09
315.7	0.08
315.912	0.08
316.123	0.05
316.335	0.05
316.546	0.13
316.758	0.02
316.969	0.03
317.181	0.06
317.392	0.04
317.604	0.12
317.815	-0.02
318.026	0.01
318.238	0
318.449	0.08
318.661	-0.02
318.872	-0.01
319.083	0.02
319.295	0.06
319.506	-0.03
319.717	0.06
319.929	0.06
320.14	0.06
320.351	0.04
320.562	-0
320.774	-0.01
320.985	0.08
321.196	0
321.407	-0.03
321.618	0.09
321.829	0.12
322.041	0.06
322.252	0.04
322.463	0.03
322.674	0.06
322.885	0.03
323.096	-0
323.307	0.02
323.518	0.05
323.729	0.01
323.94	0.03
324.151	0.03
324.362	0.07
324.573	0.06
324.784	0.02
324.995	0.07
325.206	0.08
325.417	0.02
325.628	0.02
325.838	0.04
326.049	0.07
326.26	0.06
326.471	0.03
326.682	0.07
326.892	0.03
327.103	-0.01
327.314	0
327.525	0.09
327.735	0.08
327.946	0.03
328.157	0.01
328.368	0.1
328.578	0.01
328.789	0.02
328.999	0.05
329.21	0.02
329.421	0.06
329.631	0
329.842	0.02
330.052	0.04
330.263	0.06
330.473	0.08
330.684	0.02
330.894	0.03
331.105	0.03
331.315	0.08
331.526	-0.03
331.736	0.16
331.947	0.09
332.157	0.07
332.367	0
332.578	0.05
332.788	0.1
332.999	0.06
333.209	0.07
333.419	0
333.629	0.07
333.84	0.04
334.05	0.02
334.26	0.06
334.47	0.04
334.681	0.08
334.891	0.08
335.101	0.05
335.311	0.11
335.521	0.06
335.732	0.03
335.942	0.12
336.152	0.07
336.362	0.02
336.572	0.09
336.782	0.09
336.992	0
337.202	0.01
337.412	0.04
337.622	0.05
337.832	0.06
338.042	0.07
338.252	-0.03
338.462	0.04
338.672	0.07
338.882	0.05
339.092	0.04
339.302	0.09
339.511	0.05
339.721	0.04
339.931	0.01
340.141	0.08
340.351	0.1
340.561	0.06
340.77	0.05
340.98	0.07
341.19	0.04
341.4	0.01
341.609	0.01
341.819	0.02
342.029	0
342.238	0.07
342.448	0.01
342.658	0.05
342.867	0.04
343.077	0.06
343.286	0.06
343.496	0.05
343.706	0.06
343.915	0.01
344.125	0.04
344.334	0.09
344.544	-0.01
344.753	0.05
344.963	0.07
345.172	0.02
345.381	0
345.591	0
345.8	0.01
346.01	0.13
346.219	0.09
346.428	-0.08
346.638	0.07
346.847	0.05
347.056	0.12
347.266	0.03
347.475	0.03
347.684	0.04
347.893	0.09
348.103	0.08
348.312	0.03
348.521	0.04
348.73	0.09
348.94	0.04
349.149	0.01
349.358	0.03
349.567	0.01
349.776	-0.02
349.985	0.01
350.194	0.05
350.403	0.11
350.612	0
350.821	-0
351.03	0.02
351.239	0.01
351.448	0.07
351.657	0.04
351.866	0.13
352.075	0.05
352.284	0.04
352.493	0
352.702	0.11
352.911	0.03
353.12	0.06
353.329	0.02
353.538	0.07
353.746	0.07
353.955	0.04
354.164	0.08
354.373	0.03
354.582	0.09
354.79	0.03
354.999	0.05
355.208	0.03
355.416	0.13
355.625	0.02
355.834	0.04
356.042	0.05
356.251	-0.02
356.46	0.04
356.668	0.05
356.877	0.14
357.085	0.06
357.294	-0.04
357.503	0.09
357.711	0.02
357.92	0.19
358.128	0.04
358.337	0.03
358.545	0.06
358.754	-0
358.962	0.06
359.17	-0
359.379	0.09
359.587	0.06
359.796	0.03
360.004	0.11
360.212	0.06
360.421	0.1
360.629	0.05
360.837	0.07
361.046	0.1
361.254	0.17
361.462	0.06
361.67	0.04
361.879	0.06
362.087	0.12
362.295	0.08
362.503	0.01
362.711	0.03
362.92	0.04
363.128	0.03
363.336	-0.03
363.544	0.02
363.752	0.07
363.96	0.01
364.168	0.01
364.376	0.05
364.584	0.04
364.792	0.09
365	0.08
365.208	0.05
365.416	0.04
365.624	0.06
365.832	0.05
366.04	0.11
366.248	0.06
366.456	0.05
366.664	0.08
366.872	0.02
367.079	0.05
367.287	0.02
367.495	0.06
367.703	0.04
367.911	0.02
368.118	0.03
368.326	0.05
368.534	-0
368.742	0.1
368.949	0.01
369.157	-0.01
369.365	0.05
369.572	0.01
369.78	-0.01
369.988	0.11
370.195	0.09
370.403	0.06
370.61	0
370.818	0.08
371.026	0.1
371.233	0
371.441	0.09
371.648	0.06
371.856	0.05
372.063	0.07
372.271	0.04
372.478	0.01
372.685	-0.01
372.893	0.09
373.1	0.03
373.308	0.05
373.515	0.11
373.722	0.07
373.93	0.03
374.137	0.04
374.344	0.11
374.552	0.06
374.759	0.1
374.966	0.07
375.173	0.03
375.381	0.08
375.588	0.07
375.795	-0
376.002	-0.01
376.209	0.01
376.417	0.04
376.624	0.05
376.831	0.1
377.038	0.02
377.245	-0.02
377.452	0.04
377.659	0.03
377.866	0.05
378.073	0.03
378.28	0.02
378.487	0.11
378.694	0.06
378.901	0.06
379.108	0.07
379.315	0.05
379.522	0.11
379.729	0.01
379.936	0.02
380.143	0.06
380.35	0.1
380.557	0.02
380.763	0.05
380.97	0.04
381.177	0.08
381.384	0.08
381.591	0.04
381.797	0.07
382.004	0.02
382.211	0.1
382.418	0.03
382.624	0.07
382.831	0.06
383.038	0.03
383.244	0.06
383.451	0.09
383.658	0.08
383.864	0.02
384.071	0.02
384.277	0.12
384.484	-0
384.69	0.08
384.897	0.01
385.103	0.03
385.31	0.01
385.516	0.03
385.723	0.01
385.929	0.03
386.136	0.03
386.342	0.08
386.549	0.03
386.755	0.18
386.961	0.09
387.168	0
387.374	0.07
387.58	0.11
387.787	0.02
387.993	0.05
388.199	0.06
388.406	0.03
388.612	0.01
388.818	0.02
389.024	0.02
389.231	0.02
389.437	0.1
389.643	0.06
389.849	0.08
390.055	0.04
390.261	0.03
390.467	0.06
390.674	0.02
390.88	0.02
391.086	0.07
391.292	-0.02
391.498	0.1
391.704	0.06
391.91	0.03
392.116	0.01
392.322	-0.03
392.528	0.1
392.734	0.08
392.94	0.02
393.146	0.05
393.352	0.05
393.557	0.04
393.763	0.05
393.969	0.1
394.175	0.03
394.381	0.08
394.587	0.02
394.792	0.02
394.998	0.11
395.204	0.09
395.41	0.04
395.615	0.12
395.821	0.08
396.027	0.04
396.233	0.02
396.438	0.05
396.644	0.12
396.85	0.06
397.055	0.07
397.261	0.05
397.466	0.04
397.672	0.1
397.878	0.08
398.083	0.04
398.289	0.04
398.494	0.14
398.7	0.08
398.905	-0.03
399.111	0.11
399.316	0.01
399.522	0.01
399.727	0.07
399.932	0.03
400.138	0.01
400.343	0.1
400.549	0.06
400.754	0.06
400.959	0.11
401.165	0.05
401.37	0.09
401.575	-0.01
401.78	0.06
401.986	0.03
402.191	0.06
402.396	0.09
402.601	0.1
402.807	0.03
403.012	0.07
403.217	0.1
403.422	0.04
403.627	0.04
403.832	0.01
404.037	0.09
404.243	0.09
404.448	0.03
404.653	0.08
404.858	0.05
405.063	0.11
405.268	0.02
405.473	-0
405.678	0.03
405.883	0.18
406.088	0.11
406.293	0.02
406.498	-0
406.703	0.11
406.907	0
407.112	0.03
407.317	0.07
407.522	0.09
407.727	0.04
407.932	0.07
408.136	0.15
408.341	0.12
408.546	0.05
408.751	0.06
408.956	0.05
409.16	0.08
409.365	0.08
409.57	0.05
409.774	0.09
409.979	0.12
410.184	0.07
410.388	0.04
410.593	0.06
410.798	0.05
411.002	0.05
411.207	0.09
411.411	0.07
411.616	0.04
411.82	0.02
412.025	0.08
412.229	0.05
412.434	0.16
412.638	0.07
412.843	0.07
413.047	0.05
413.252	0.03
413.456	0.09
413.66	0.09
413.865	-0
414.069	0.1
414.273	0.04
414.478	0.07
414.682	0.07
414.886	0.05
415.091	0.01
415.295	0.04
415.499	0.09
415.703	0.06
415.908	0.08
416.112	-0.03
416.316	0.11
416.52	0.04
416.724	-0.01
416.929	0.03
417.133	0.19
417.337	0.04
417.541	0.07
417.745	0.09
417.949	0.1
418.153	0.06
418.357	0
418.561	0.12
418.765	0.05
418.969	0.19
419.173	0.12
419.377	0.01
419.581	0.16
419.785	0.03
419.989	0.02
420.193	0.02
420.397	0.08
420.601	0.15
420.804	0.13
421.008	0.1
421.212	0.09
421.416	0.1
421.62	0.04
421.823	0.04
422.027	0.14
422.231	0.07
422.435	0.05
422.638	0.1
422.842	0.09
423.046	0.05
423.249	0.1
423.453	0.12
423.657	0.08
423.86	0.07
424.064	0.06
424.268	0.14
424.471	0.07
424.675	0.17
424.878	0.17
425.082	0.11
425.285	0.1
425.489	0.07
425.692	0.06
425.896	0.02
426.099	0.13
426.303	0.03
426.506	-0.01
426.71	0.08
426.913	0.12
427.116	0.11
427.32	0.11
427.523	0.09
427.726	0.17
427.93	0.02
428.133	0.08
428.336	0.02
428.54	0.05
428.743	0.11
428.946	0.13
429.149	0.05
429.353	0.07
429.556	0.07
429.759	0.06
429.962	0.03
430.165	0.08
430.368	0.11
430.571	0.05
430.775	0.05
430.978	0.03
431.181	0.11
431.384	0.09
431.587	0.06
431.79	0.06
431.993	-0.03
432.196	0.08
432.399	0
432.602	0.17
432.805	0.03
433.008	0.05
433.211	0.02
433.414	0.13
433.616	0.12
433.819	0.1
434.022	-0.03
434.225	0.18
434.428	0.07
434.631	0.18
434.833	0.07
435.036	0.06
435.239	0.15
435.442	0.08
435.645	0.06
435.847	0.1
436.05	0.11
436.253	0.11
436.455	0.02
436.658	0.09
436.861	0.2
437.063	0.08
437.266	0.04
437.468	0.08
437.671	0.19
437.874	0.1
438.076	0.02
438.279	0.02
438.481	0.06
438.684	0.05
438.886	0.12
439.089	0.04
439.291	0.13
439.494	0.08
439.696	0.03
439.899	0.06
440.101	0.1
440.303	0.02
440.506	0.12
440.708	0.09
440.91	0.12
441.113	0.07
441.315	0.1
441.517	0.05
441.72	0.12
441.922	0.09
442.124	0.04
442.326	0.08
442.529	0.13
442.731	0.04
442.933	0.17
443.135	0.1
443.337	0.07
443.539	0.04
443.742	0.06
443.944	0.07
444.146	0.03
444.348	0.08
444.55	0.04
444.752	0.11
444.954	0.07
445.156	0.13
445.358	0.07
445.56	0.11
445.762	0.07
445.964	0.12
446.166	0.08
446.368	0.05
446.57	0.17
446.772	0.12
446.974	0.07
447.175	0.07
447.377	0.08
447.579	0.09
447.781	0.02
447.983	0.12
448.184	0.09
448.386	0.07
448.588	0.05
448.79	0.12
448.991	0.04
449.193	0.04
449.395	0.11
449.597	0.1
449.798	0.11
450	0.09
450.202	0.08
450.403	0.15
450.605	0.14
450.806	0.04
451.008	0.02
451.21	0.11
451.411	0.11
451.613	0.07
451.814	0.08
452.016	0.14
452.217	0.1
452.419	0.13
452.62	0.09
452.821	0.14
453.023	0.2
453.224	0.13
453.426	0.06
453.627	0.08
453.828	0.14
454.03	0.09
454.231	0.09
454.432	0.07
454.634	0.19
454.835	0.09
455.036	0.03
455.238	0.13
455.439	0.14
455.64	0.1
455.841	0.04
456.042	0.22
456.244	0.13
456.445	0.06
456.646	0.06
456.847	0.08
457.048	0.14
457.249	0.23
457.45	0.33
457.651	0.05
457.852	0.16
458.054	0.08
458.255	0.06
458.456	0.15
458.657	0.17
458.858	0.11
459.058	0.1
459.259	0.14
459.46	0.13
459.661	0.1
459.862	0.23
460.063	0.07
460.264	0.18
460.465	0.08
460.666	0.26
460.866	0.09
461.067	0.11
461.268	0.09
461.469	0.07
461.67	0.11
461.87	0.12
462.071	0.09
462.272	0.09
462.473	0.1
462.673	0.13
462.874	0.08
463.075	0.09
463.275	0.11
463.476	0.16
463.676	0.17
463.877	0.1
464.078	0.14
464.278	0.15
464.479	0.13
464.679	0.13
464.88	0.12
465.08	0.18
465.281	0.05
465.481	0.13
465.682	0.09
465.882	0.16
466.083	0.13
466.283	0.13
466.483	0.15
466.684	0.1
466.884	0.09
467.085	0.12
467.285	0.15
467.485	0.08
467.686	0.13
467.886	0.07
468.086	0.12
468.286	0.1
468.487	0.13
468.687	0.11
468.887	0.1
469.087	0.16
469.287	0.12
469.488	0.08
469.688	0.19
469.888	0.21
470.088	0.17
470.288	0.19
470.488	0.2
470.688	0.11
470.888	0.13
471.088	0.1
471.288	0.16
471.488	0.22
471.688	0.17
471.888	0.14
472.088	0.23
472.288	0.23
472.488	0.12
472.688	0.1
472.888	0.18
473.088	0.17
473.288	0.16
473.488	0.16
473.688	0.24
473.887	0.18
474.087	0.14
474.287	0.17
474.487	0.13
474.687	0.22
474.886	0.15
475.086	0.16
475.286	0.2
475.486	0.16
475.685	0.19
475.885	0.15
476.085	0.19
476.284	0.21
476.484	0.19
476.684	0.24
476.883	0.25
477.083	0.2
477.282	0.2
477.482	0.3
477.681	0.26
477.881	0.23
478.08	0.19
478.28	0.2
478.479	0.23
478.679	0.28
478.878	0.18
479.078	0.21
479.277	0.24
479.477	0.24
479.676	0.3
479.875	0.22
480.075	0.16
480.274	0.26
480.473	0.28
480.673	0.23
480.872	0.27
481.071	0.26
481.271	0.31
481.47	0.28
481.669	0.27
481.868	0.24
482.067	0.26
482.267	0.26
482.466	0.27
482.665	0.25
482.864	0.29
483.063	0.29
483.262	0.32
483.461	0.35
483.661	0.4
483.86	0.37
484.059	0.36
484.258	0.36
484.457	0.35
484.656	0.38
484.855	0.41
485.054	0.34
485.253	0.37
485.452	0.37
485.651	0.42
485.849	0.42
486.048	0.38
486.247	0.38
486.446	0.46
486.645	0.42
486.844	0.45
487.043	0.46
487.241	0.5
487.44	0.46
487.639	0.47
487.838	0.53
488.037	0.51
488.235	0.57
488.434	0.52
488.633	0.49
488.831	0.61
489.03	0.61
489.229	0.59
489.427	0.59
489.626	0.65
489.825	0.69
490.023	0.62
490.222	0.63
490.42	0.68
490.619	0.7
490.817	0.71
491.016	0.65
491.214	0.74
491.413	0.71
491.611	0.73
491.81	0.76
492.008	0.8
492.207	0.8
492.405	0.82
492.604	0.76
492.802	0.87
493	0.87
493.199	0.87
493.397	0.89
493.595	0.92
493.794	0.93
493.992	1.03
494.19	0.98
494.388	1.02
494.587	0.99
494.785	1.04
494.983	1
495.181	1.08
495.379	1.11
495.578	1.16
495.776	1.16
495.974	1.2
496.172	1.18
496.37	1.27
496.568	1.29
496.766	1.28
496.964	1.35
497.162	1.33
497.36	1.38
497.558	1.43
497.756	1.47
497.954	1.45
498.152	1.49
498.35	1.57
498.548	1.55
498.746	1.58
498.944	1.59
499.142	1.61
499.34	1.69
499.538	1.77
499.736	1.72
499.933	1.82
500.131	1.83
500.329	1.94
500.527	1.95
500.725	2.02
500.922	2.07
501.12	2.05
501.318	2.16
501.516	2.17
501.713	2.22
501.911	2.27
502.109	2.23
502.306	2.37
502.504	2.31
502.701	2.41
502.899	2.49
503.097	2.67
503.294	2.55
503.492	2.65
503.689	2.75
503.887	2.78
504.084	2.88
504.282	2.87
504.479	2.85
504.677	3.01
504.874	3.05
505.072	3.03
505.269	3.22
505.466	3.29
505.664	3.3
505.861	3.3
506.059	3.5
506.256	3.48
506.453	3.59
506.651	3.7
506.848	3.75
507.045	3.78
507.242	3.9
507.44	3.94
507.637	4.02
507.834	4.05
508.031	4.21
508.229	4.14
508.426	4.22
508.623	4.43
508.82	4.47
509.017	4.45
509.214	4.51
509.411	4.7
509.608	4.71
509.805	4.87
510.003	4.91
510.2	5.03
510.397	5.14
510.594	5.07
510.791	5.24
510.988	5.31
511.184	5.33
511.381	5.34
511.578	5.53
511.775	5.72
511.972	5.65
512.169	5.78
512.366	5.86
512.563	6.06
512.76	6.05
512.956	6.2
513.153	6.13
513.35	6.18
513.547	6.26
513.744	6.4
513.94	6.48
514.137	6.61
514.334	6.62
514.53	6.74
514.727	7
514.924	6.94
515.12	6.92
515.317	7.06
515.514	7
515.71	7.03
515.907	7.37
516.103	7.39
516.3	7.31
516.497	7.54
516.693	7.57
516.89	7.62
517.086	7.68
517.283	7.7
517.479	7.56
517.676	7.84
517.872	7.96
518.068	7.93
518.265	8.04
518.461	7.9
518.658	8.17
518.854	8.17
519.05	8.22
519.247	8.3
519.443	8.18
519.639	8.44
519.836	8.25
520.032	8.23
520.228	8.48
520.424	8.38
520.621	8.45
520.817	8.55
521.013	8.37
521.209	8.68
521.405	8.6
521.601	8.59
521.798	8.55
521.994	8.48
522.19	8.43
522.386	8.52
522.582	8.61
522.778	8.78
522.974	8.59
523.17	8.59
523.366	8.47
523.562	8.58
523.758	8.52
523.954	8.31
524.15	8.55
524.346	8.52
524.542	8.53
524.738	8.4
524.934	8.5
525.129	8.44
525.325	8.29
525.521	8.15
525.717	8.51
525.913	8.13
526.109	8.27
526.304	8.27
526.5	8.21
526.696	8.14
526.892	8.04
527.087	8.22
527.283	8.03
527.479	7.93
527.674	7.74
527.87	7.88
528.066	7.74
528.261	7.7
528.457	7.57
528.653	7.69
528.848	7.6
529.044	7.63
529.239	7.44
529.435	7.32
529.63	7.24
529.826	7.15
530.021	7.18
530.217	7.14
530.412	7.02
530.608	6.99
530.803	6.92
530.999	6.76
531.194	6.75
531.389	6.74
531.585	6.68
531.78	6.68
531.975	6.6
532.171	6.56
532.366	6.53
532.561	6.42
532.757	6.3
532.952	6.4
533.147	6.14
533.342	6.15
533.538	6.07
533.733	6.06
533.928	5.74
534.123	5.87
534.318	5.82
534.513	5.65
534.709	5.77
534.904	5.65
535.099	5.64
535.294	5.55
535.489	5.48
535.684	5.42
535.879	5.27
536.074	5.27
536.269	5.25
536.464	5.22
536.659	5.11
536.854	5.01
537.049	5.05
537.244	4.92
537.439	4.85
537.634	4.84
537.828	4.83
538.023	4.75
538.218	4.67
538.413	4.6
538.608	4.56
538.803	4.56
538.997	4.43
539.192	4.43
539.387	4.33
539.582	4.32
539.776	4.25
539.971	4.26
540.166	4.21
540.36	4.16
540.555	4.15
540.75	4.07
540.944	4.02
541.139	3.96
541.334	3.9
541.528	3.92
541.723	3.93
541.917	3.83
542.112	3.73
542.306	3.67
542.501	3.66
542.695	3.67
542.89	3.59
543.084	3.57
543.279	3.53
543.473	3.52
543.668	3.47
543.862	3.35
544.056	3.33
544.251	3.38
544.445	3.36
544.64	3.33
544.834	3.13
545.028	3.08
545.222	3.15
545.417	3.19
545.611	3.11
545.805	3.08
546	2.92
546.194	2.99
546.388	2.95
546.582	2.91
546.776	2.9
546.97	2.84
547.165	2.81
547.359	2.77
547.553	2.74
547.747	2.69
547.941	2.73
548.135	2.67
548.329	2.66
548.523	2.62
548.717	2.51
548.911	2.48
549.105	2.5
549.299	2.46
549.493	2.43
549.687	2.35
549.881	2.39
550.075	2.36
550.269	2.25
550.463	2.29
550.657	2.26
550.85	2.22
551.044	2.15
551.238	2.2
551.432	2.12
551.626	2.1
551.82	2.11
552.013	2.03
552.207	2.04
552.401	2.05
552.594	1.96
552.788	1.95
552.982	1.89
553.176	1.85
553.369	1.93
553.563	1.86
553.756	1.79
553.95	1.75
554.144	1.78
554.337	1.82
554.531	1.72
554.724	1.76
554.918	1.67
555.111	1.69
555.305	1.63
555.498	1.68
555.692	1.63
555.885	1.55
556.079	1.53
556.272	1.51
556.466	1.51
556.659	1.5
556.852	1.49
557.046	1.46
557.239	1.44
557.432	1.36
557.626	1.41
557.819	1.37
558.012	1.39
558.206	1.36
558.399	1.31
558.592	1.29
558.785	1.22
558.979	1.29
559.172	1.26
559.365	1.28
559.558	1.19
559.751	1.2
559.944	1.2
560.138	1.18
560.331	1.16
560.524	1.1
560.717	1.11
560.91	1.06
561.103	1.09
561.296	1.06
561.489	1.08
561.682	1.06
561.875	1.07
562.068	1.05
562.261	1
562.454	1.05
562.647	0.96
562.84	0.99
563.032	0.93
563.225	0.95
563.418	0.93
563.611	0.93
563.804	0.91
563.997	0.83
564.19	0.83
564.382	0.89
564.575	0.84
564.768	0.83
564.961	0.82
565.153	0.8
565.346	0.83
565.539	0.81
565.731	0.82
565.924	0.82
566.117	0.83
566.309	0.79
566.502	0.74
566.695	0.76
566.887	0.74
567.08	0.7
567.272	0.69
567.465	0.68
567.657	0.7
567.85	0.71
568.042	0.71
568.235	0.69
568.427	0.67
568.62	0.67
568.812	0.65
569.005	0.67
569.197	0.59
569.389	0.65
569.582	0.61
569.774	0.63
569.966	0.56
570.159	0.53
570.351	0.56
570.543	0.54
570.736	0.57
570.928	0.52
571.12	0.57
571.312	0.53
571.505	0.5
571.697	0.56
571.889	0.5
572.081	0.51
572.273	0.49
572.465	0.52
572.658	0.49
572.85	0.53
573.042	0.48
573.234	0.47
573.426	0.5
573.618	0.43
573.81	0.47
574.002	0.5
574.194	0.48
574.386	0.39
574.578	0.36
574.77	0.44
574.962	0.45
575.154	0.39
575.346	0.42
575.538	0.42
575.729	0.37
575.921	0.4
576.113	0.4
576.305	0.42
576.497	0.37
576.689	0.36
576.88	0.37
577.072	0.39
577.264	0.35
577.456	0.35
577.647	0.3
577.839	0.33
578.031	0.39
578.223	0.31
578.414	0.3
578.606	0.37
578.798	0.32
578.989	0.32
579.181	0.31
579.372	0.32
579.564	0.29
579.755	0.29
579.947	0.29
580.139	0.33
580.33	0.24
580.522	0.29
580.713	0.23
580.905	0.29
581.096	0.31
581.287	0.29
581.479	0.29
581.67	0.3
581.862	0.25
582.053	0.26
582.244	0.22
582.436	0.28
582.627	0.27
582.818	0.24
583.01	0.22
583.201	0.27
583.392	0.25
583.583	0.23
583.775	0.19
583.966	0.2
584.157	0.23
584.348	0.24
584.54	0.18
584.731	0.27
584.922	0.2
585.113	0.21
585.304	0.23
585.495	0.23
585.686	0.21
585.877	0.24
586.068	0.23
586.259	0.22
586.45	0.24
586.641	0.2
586.832	0.15
587.023	0.2
587.214	0.18
587.405	0.2
587.596	0.15
587.787	0.22
587.978	0.18
588.169	0.17
588.36	0.16
588.551	0.19
588.742	0.17
588.932	0.2
589.123	0.17
589.314	0.2
589.505	0.19
589.696	0.16
589.886	0.16
590.077	0.11
590.268	0.18
590.458	0.12
590.649	0.12
590.84	0.18
591.03	0.15
591.221	0.14
591.412	0.12
591.602	0.18
591.793	0.19
591.984	0.12
592.174	0.13
592.365	0.24
592.555	0.12
592.746	0.14
592.936	0.14
593.127	0.18
593.317	0.17
593.508	0.12
593.698	0.14
593.889	0.14
594.079	0.13
594.269	0.1
594.46	0.12
594.65	0.15
594.84	0.11
595.031	0.11
595.221	0.12
595.411	0.07
595.602	0.16
595.792	0.13
595.982	0.11
596.172	0.19
596.363	0.13
596.553	0.14
596.743	0.11
596.933	0.12
597.123	0.13
597.314	0.11
597.504	0.09
597.694	0.16
597.884	0.14
598.074	0.11
598.264	0.09
598.454	0.13
598.644	0.13
598.834	0.1
599.024	0.07
599.214	0.11
599.404	0.14
599.594	0.08
599.784	0.09
599.974	0.16
600.164	0.14
600.354	0.08
600.544	0.07
600.734	0.11
600.924	0.12
601.114	0.07
601.303	0.1
601.493	0.11
601.683	0.08
601.873	0.1
602.063	0.05
602.252	0.12
602.442	0.04
602.632	0.07
602.821	0.07
603.011	0.13
603.201	0.08
603.39	0.07
603.58	0.07
603.77	0.1
603.959	0.13
604.149	0.09
604.339	0.08
604.528	0.1
604.718	0.11
604.907	0.07
605.097	0.07
605.286	0.04
605.476	0.1
605.665	0.11
605.855	0.06
606.044	0.11
606.234	0.1
606.423	0.06
606.612	0.05
606.802	0.12
606.991	0.1
607.181	0.1
607.37	0.04
607.559	0.05
607.749	0.04
607.938	0.1
608.127	0.08
608.316	0.04
608.506	0.1
608.695	0.07
608.884	0.05
609.073	0.04
609.263	0.08
609.452	0.11
609.641	0.08
609.83	0.03
610.019	0.08
610.208	0.06
610.397	0.08
610.586	0.11
610.775	0.03
610.965	0.07
611.154	0.03
611.343	0.07
611.532	0.07
611.721	0.05
611.91	0.04
612.099	0.09
612.287	0.07
612.476	0.04
612.665	0.06
612.854	0.04
613.043	0.11
613.232	0.05
613.421	0.01
613.61	0.06
613.798	0.05
613.987	0.08
614.176	0.08
614.365	0.1
614.554	0.06
614.742	0.09
614.931	0.03
615.12	0.09
615.309	0.05
615.497	0.11
615.686	0.03
615.875	0.06
616.063	0.02
616.252	0.06
616.44	0.03
616.629	0.09
616.818	0.07
617.006	0.06
617.195	0.06
617.383	0.08
617.572	0.04
617.76	0.03
617.949	0.05
618.137	0.08
618.326	0.08
618.514	0.06
618.703	0.02
618.891	0.15
619.079	-0.01
619.268	0.07
619.456	0.04
619.644	0.11
619.833	0.03
620.021	0.03
620.209	0.01
620.398	0.07
620.586	0.05
620.774	0.08
620.962	0.06
621.151	0.1
621.339	0.04
621.527	0.01
621.715	0.03
621.903	0.01
622.092	-0
622.28	0.07
622.468	0.03
622.656	0.03
622.844	0.12
623.032	0.05
623.22	0.01
623.408	0.08
623.596	0.09
623.784	0.11
623.972	0.01
624.16	0.05
624.348	0.13
624.536	0.05
624.724	0.01
624.912	0.08
625.1	0.06
625.288	0.03
625.476	0.05
625.664	0.06
625.851	0.01
626.039	0.01
626.227	0.06
626.415	0.07
626.603	0.01
626.79	0.07
626.978	0.01
627.166	0.05
627.354	0.03
627.541	0.06
627.729	-0.01
627.917	0.07
628.104	0.06
628.292	0.07
628.48	0.08
628.667	0.04
628.855	0.07
629.042	0.05
629.23	-0
629.418	0.05
629.605	0.03
629.793	0.02
629.98	0.06
630.168	0.03
630.355	0.04
630.543	0.04
630.73	0
630.917	0.07
631.105	0.11
631.292	0.03
631.48	0.07
631.667	0.11
631.854	0.05
632.042	0.06
632.229	0
632.416	0.08
632.604	0.04
632.791	0.01
632.978	0.07
633.165	0.05
633.353	0.07
633.54	0.04
633.727	-0.02
633.914	0.01
634.101	-0.02
634.289	0.06
634.476	0.04
634.663	0
634.85	0.06
635.037	0.04
635.224	-0
635.411	0.08
635.598	0.07
635.785	0.01
635.972	0.04
636.159	0.1
636.346	-0
636.533	0.05
636.72	0.03
636.907	0.02
637.094	0.06
637.281	0.03
637.468	0.04
637.655	-0.01
637.842	0.03
638.029	0.02
638.215	0.06
638.402	0.06
638.589	0.01
638.776	0.02
638.963	0.02
639.149	0.09
639.336	0.09
639.523	0.03
639.709	0.05
639.896	0.01
640.083	0.07
640.27	0.05
640.456	0.02
640.643	0.05
640.829	-0.02
641.016	0.01
641.203	-0.01
641.389	0.05
641.576	0.07
641.762	0.01
641.949	0.02
642.135	0.04
642.322	0.05
642.508	-0
642.695	0.02
642.881	0.04
643.068	0.02
643.254	0.03
643.441	0.07
643.627	0.03
643.813	0.02
644	0.08
644.186	-0.01
644.372	-0.01
644.559	0.04
644.745	0.04
644.931	0.03
645.118	0.02
645.304	0.08
645.49	0.01
645.676	-0
645.862	0.06
646.049	0.08
646.235	0.07
646.421	0.11
646.607	0.07
646.793	0.04
646.979	-0.02
647.165	0.03
647.352	0.03
647.538	0.07
647.724	0.01
647.91	0.07
648.096	0.06
648.282	0.1
648.468	0.01
648.654	0.07
648.84	0.04
649.026	0.07
649.212	0.05
649.397	0.02
649.583	-0.01
649.769	0.07
649.955	0.04
650.141	0.03
650.327	0.09
650.513	-0.02
650.698	0.06
650.884	-0.04
651.07	0.06
651.256	0.05
651.442	0.05
651.627	0.02
651.813	0.07
651.999	0.06
652.184	0.03
652.37	0.03
652.556	0.01
652.741	0.1
652.927	-0.01
653.113	0.04
653.298	0.03
653.484	0.02
653.669	0
653.855	0.02
654.04	0.09
654.226	0.05
654.412	0.03
654.597	-0
654.782	0.05
654.968	0.09
655.153	0.08
655.339	0.06
655.524	0
655.71	0.04
655.895	0.04
656.08	0.03
656.266	0.1
656.451	0.06
656.636	0.02
656.822	0.06
657.007	0.02
657.192	0.01
657.378	-0.05
657.563	0.05
657.748	0.07
657.933	0.04
658.118	0.01
658.304	0.03
658.489	0.07
658.674	0.04
658.859	0.01
659.044	0.04
659.229	0.08
659.414	0.02
659.599	0.04
659.785	0.01
659.97	0.01
660.155	0.04
660.34	0.03
660.525	0.02
660.71	0.02
660.895	0.07
661.08	-0.02
661.264	0.02
661.449	0.1
661.634	0.09
661.819	0.08
662.004	0.07
662.189	-0.07
662.374	0.03
662.559	-0.01
662.743	-0.01
662.928	0.04
663.113	0.01
663.298	-0.01
663.483	0.03
663.667	0.08
663.852	-0.04
664.037	0.05
664.221	0
664.406	0.09
664.591	0.06
664.775	0.03
664.96	0.01
665.145	0.06
665.329	0.08
665.514	0.03
665.698	0.03
665.883	-0.03
666.068	0.12
666.252	0.06
666.437	0.04
666.621	0.04
666.806	0.1
666.99	0.03
667.174	0.05
667.359	0.13
667.543	0.02
667.728	0.04
667.912	-0.02
668.096	0.05
668.281	0.04
668.465	0.05
668.649	0.04
668.834	0.01
669.018	0.02
669.202	0.02
669.387	-0.01
669.571	0.1
669.755	0.01
669.939	0.01
670.124	0.05
670.308	0.11
670.492	0.08
670.676	0.06
670.86	0.03
671.044	0.03
671.228	0.07
671.413	0.04
671.597	0.03
671.781	0
671.965	0.08
672.149	0
672.333	0.04
672.517	0.04
672.701	0.06
672.885	0.01
673.069	-0.01
673.253	0.11
673.437	0
673.621	0.02
673.804	0.03
673.988	0.08
674.172	0.06
674.356	0.03
674.54	0.08
674.724	0.13
674.908	0.07
675.091	0.07
675.275	0.02
675.459	0.09
675.643	0.09
675.826	0.07
676.01	0.05
676.194	0.04
676.377	0.08
676.561	0.08
676.745	0.05
676.928	0.05
677.112	0.09
677.296	0.05
677.479	0.03
677.663	0.02
677.846	0.11
678.03	0.03
678.213	0.02
678.397	0.06
678.58	0.01
678.764	0.02
678.947	-0.01
679.131	0.02
679.314	0.11
679.498	0.06
679.681	0.07
679.865	0.11
680.048	0.07
680.231	0.01
680.415	0.05
680.598	0.02
680.781	0.01
680.965	0.06
681.148	0.05
681.331	-0.01
681.514	0.09
681.698	0.01
681.881	0.07
682.064	0.07
682.247	0.04
682.43	-0
682.614	0.07
682.797	0.13
682.98	0.11
683.163	-0.03
683.346	0.07
683.529	0.01
683.712	0.03
683.895	0.08
684.078	-0.01
684.261	0.05
684.444	0.09
684.627	0.06
684.81	0.02
684.993	0.1
685.176	0.1
685.359	-0
685.542	0.01
685.725	0.12
685.908	0.08
686.091	0.03
686.274	0.1
686.457	0.1
686.639	0.03
686.822	0.1
687.005	0.05
687.188	0.09
687.371	0.1
687.553	0.07
687.736	0.09
687.919	0.14
688.102	0.12
688.284	0.04
688.467	0.06
688.65	0.04
688.832	0.05
689.015	0.02
689.197	-0.04
689.38	0.12
689.563	0.13
689.745	0.04
689.928	-0.03
690.11	0.08
690.293	0.07
690.475	0.02
690.658	0.07
690.84	0.01
691.023	0.07
691.205	0.01
691.388	0.04
691.57	0.1
691.752	0.12
691.935	-0.01
692.117	0.03
692.3	0.01
692.482	0.05
692.664	0.04
692.847	0.06
693.029	0.07
693.211	0.1
693.393	0.04
693.576	0.06
693.758	0.04
693.94	0.03
694.122	0.05
694.304	0.05
694.487	0.04
694.669	0.12
694.851	0.02
695.033	0.04
695.215	0.07
695.397	-0.02
695.579	0.09
695.761	0.02
695.943	-0.04
696.125	0.11
696.308	0.05
696.49	-0.05
696.671	0.18
696.853	0.05
697.035	0.18
697.217	0.07
697.399	0.06
697.581	0
697.763	0.07
697.945	-0.01
698.127	0.02
698.309	0.09
698.491	0.04
698.672	0.09
698.854	0.09
699.036	0.14
699.218	0.01
699.399	0.11
699.581	0.09
699.763	0.01
699.945	-0
700.126	0.07
700.308	0.07
700.49	0.07
700.671	-0.03
700.853	0.01
701.035	0.04
701.216	0.04
701.398	-0.01
701.579	0.03
701.761	0.09
701.943	0.04
702.124	-0
702.306	0.01
702.487	0.2
702.669	0.07
702.85	0.01
703.031	-0.08
703.213	0.14
703.394	0.07
703.576	0.03
703.757	0.1
703.938	0.11
704.12	0.16
704.301	0.06
704.483	0.01
704.664	0.06
704.845	0.16
705.026	0.07
705.208	0.08
705.389	0.11
705.57	0.1
705.751	0.04
705.933	0.08
706.114	0.1
706.295	0.02
706.476	0.01
706.657	0.18
706.838	0.07
707.02	0.13
707.201	0.03
707.382	-0
707.563	0.06
707.744	0.02
707.925	0.04
708.106	-0.01
708.287	0.08
708.468	0.18
708.649	0.01
708.83	0.08
709.011	0.03
709.192	0.1
709.373	-0.02
709.554	0.08
709.734	0.13
709.915	0.1
710.096	0.04
710.277	-0.07
710.458	0.06
710.639	0.12
710.819	-0.11
711	0.02
711.181	0.12
711.362	0.08
711.542	0.01
711.723	0.02
711.904	0.1
712.085	0.03
712.265	0.1
712.446	-0.05
712.627	0.04
712.807	0.06
712.988	-0
713.168	0.03
713.349	0.08
713.53	-0.08
713.71	-0.02
713.891	-0.02
714.071	0.06
714.252	-0.02
714.432	0.04
714.613	-0.07
714.793	0.01
714.974	0.16
715.154	0.11
715.334	0.16
715.515	0.17
715.695	-0.04
715.876	0.04
716.056	0.01
716.236	0.06
716.417	-0.03
716.597	-0.02
716.777	0.18
716.957	-0.01
717.138	0.03
717.318	0.04
717.498	-0.01
717.678	0.09
717.859	0.09
718.039	-0.01
718.219	0.08
718.399	0.13
718.579	-0.02
718.759	-0.05
718.939	0.06
719.12	0.05
719.3	0.04
719.48	-0.07
719.66	-0.06
719.84	0.12
720.02	0.04
720.2	-0.02
720.38	0.06
720.56	0.11
720.74	-0.06
720.92	0.05
721.1	0.18
721.279	0.06
721.459	0.03
721.639	-0.06
721.819	0.08
721.999	-0.04
722.179	0.02
722.359	-0.05
722.538	0.04
722.718	0.02
722.898	0.03
723.078	0.06
723.257	0.05
723.437	0.07
723.617	0.09
723.797	0.01
723.976	0.06
724.156	0.09
724.336	0.22
724.515	0.14
724.695	-0.06
724.874	0.08
725.054	0.13
725.234	-0.04
725.413	0.11
725.593	-0.01
725.772	0
725.952	0.05
726.131	0.09
726.311	0.06
726.49	0.04
726.67	-0.09
726.849	0.01
727.028	0.03
727.208	0.06
727.387	0.07
727.567	-0.01
727.746	0.05
727.925	0.02
728.105	-0.02
728.284	0.02
728.463	-0.04
728.643	0.04
728.822	-0.04
729.001	0.02
729.18	0.02
729.359	0.04
729.539	0.03
729.718	0.05
729.897	0.14
730.076	0.07
730.255	0
730.434	0.07
730.614	0.1
730.793	0.15
730.972	0.04
731.151	0.01
731.33	0.19
731.509	0.16
731.688	0.05
731.867	-0.01
732.046	-0.18
732.225	0.25
732.404	-0.06
732.583	-0.1
732.762	0.15
732.941	0.17
733.12	0.12
733.298	0.04
733.477	0.08
733.656	0.08
733.835	0.07
734.014	0.15
734.193	0.01
734.371	0.12
734.55	0.11
734.729	-0.07
734.908	0.06
735.086	0.12
735.265	0.06
735.444	-0.11
735.623	-0.05
735.801	-0.06
735.98	0.02
736.159	0.12
736.337	0.13
736.516	0.19
736.694	0.12
736.873	0
737.052	0.17
737.23	0.16
737.409	-0.03
737.587	0.25
737.766	-0.12
737.944	0.05
738.123	0.11
738.301	0.13
738.479	0.1
738.658	0.05
738.836	-0.15
739.015	0.14
739.193	0.15
739.371	0.07
739.55	0.07
739.728	0
739.906	0.2
740.085	0.16
740.263	0.11
740.441	-0.14
740.62	0.25
740.798	0.23
740.976	-0.05
741.154	-0.03
741.332	0.23
741.511	-0.03
741.689	0.15
741.867	0.16
742.045	0.02
742.223	0.13
742.401	0.01
742.579	0.1
742.757	0.1
742.935	-0.06
743.114	0.04
743.292	0.03
743.47	0.1
743.648	0.02
743.826	0.07
744.004	0.14
744.181	0.08
744.359	0.02
744.537	0.06
744.715	0.08
744.893	0.13
745.071	0.03
745.249	0.12
745.427	0.03
745.605	0.06
745.782	0.08
745.96	0.18
746.138	0.1
746.316	0.09
746.493	0.03
746.671	0.07
746.849	0.06
747.027	0.13
747.204	-0.04
747.382	0.08
747.56	-0.08
747.737	-0.04
747.915	0.01
748.093	0.09
748.27	0.09
748.448	-0.04
748.625	-0.01
748.803	-0
748.98	0.09
749.158	0.12
749.335	0.23
749.513	0.02
749.69	0.02
749.868	0.11
750.045	0.11
750.223	0.05
750.4	-0.1
750.578	0.18
750.755	0.02
750.932	-0.05
751.11	0.09
751.287	-0.01
751.464	0.27
751.642	0.04
751.819	0.08
751.996	0.09
752.173	0.04
752.351	-0.07
752.528	0.02
752.705	-0.03
752.882	-0.05
753.06	0.09
753.237	0.11
753.414	0.26
753.591	0.14
753.768	0.15
753.945	-0.06
754.122	0.01
754.299	0.04
754.476	-0.04
754.654	0.07
754.831	0.02
755.008	0.15
755.185	0.06
755.362	-0.12
755.539	0.13
755.716	0.05
755.892	0.04
756.069	0.13
756.246	0.08
756.423	-0.01
756.6	0.13
756.777	0.05
756.954	0.12
757.131	0.04
757.307	-0.06
757.484	-0.02
757.661	0.07
757.838	0.11
758.015	-0.06
758.191	0.09
758.368	0.15
758.545	0.26
758.721	0.19
758.898	-0.09
759.075	0.12
759.251	0.21
759.428	0.17
759.605	-0.16
759.781	0.1
759.958	0.02
760.134	0.14
760.311	0.01
760.488	0.02
760.664	0.26
760.841	0.01
761.017	-0.01
761.194	0.15
761.37	0.17
761.547	0.03
761.723	0.04
761.899	0.08
762.076	-0.12
762.252	-0.08
762.429	0.03
762.605	0.2
762.781	0.02
762.958	0.1
763.134	-0.11
763.31	-0.04
763.486	0.07
763.663	-0.19
763.839	0.12
764.015	-0.19
764.191	0.07
764.368	0.15
764.544	0.01
764.72	0.09
764.896	0.12
765.072	0.08
765.248	0.07
765.425	0.03
765.601	0.06
765.777	0.09
765.953	-0.17
766.129	0.01
766.305	-0.13
766.481	0.14
766.657	-0.08
766.833	0.23
767.009	-0.05
767.185	0
767.361	0.15
767.537	-0.1
767.713	0.13
767.889	-0.06
768.065	0.04
768.24	-0.22
768.416	0.11
768.592	0.07
768.768	0.04
768.944	-0.03
769.12	-0.11
769.295	-0.01
769.471	-0.03
769.647	0.05
769.823	0.38
769.998	-0.05
770.174	-0.02
770.35	0.24
770.525	0.36
770.701	0.11
770.877	0.16
771.052	-0.17
771.228	0.14
771.403	0.17
771.579	0.21
771.755	0.31
771.93	-0.08
772.106	-0.14
772.281	-0.03
772.457	0.04
772.632	0.11
772.808	-0.14
772.983	-0.07
773.159	-0.17
773.334	0.25
773.509	0.01
773.685	0.04
773.86	0.36
774.036	0.25
774.211	0.02
774.386	-0.08
774.562	0.04
774.737	0.15
774.912	-0.05
775.087	0.22
775.263	0.04
775.438	0.09
775.613	-0.09
775.788	0.07
775.964	0.14
776.139	0.38
776.314	-0.04
776.489	0.28
776.664	0.14
776.839	0.02
777.014	0.11
777.19	0.1
777.365	0.17
777.54	0.32
777.715	0.03
777.89	0.07
778.065	0.06
778.24	0.12
778.415	0.13
778.59	-0.14
778.765	0.03
778.94	0.09
779.115	0.1
779.289	0.06
779.464	0.17
779.639	0.11
779.814	-0.08
779.989	-0.19
780.164	0.26
780.339	0.2
780.513	-0.02
780.688	-0.09
780.863	0.1
781.038	0.06
781.212	0.01
781.387	-0.04
781.562	0.47
781.737	0.03
781.911	0.2
782.086	-0.11
782.261	0.04
782.435	0.29
782.61	-0.05
782.784	-0.03
782.959	0.19
783.134	-0.03
783.308	-0.07
783.483	0.07
783.657	0.45
783.832	0.29
784.006	-0.29
784.181	0.27
784.355	-0.01
784.53	-0.24
784.704	-0.21
784.878	0.33
785.053	0.35
785.227	0.34
785.402	0.63
785.576	-0.4
785.75	0.1
785.925	-0.2
786.099	0.09
786.273	0.1
786.448	0.39
786.622	0.34
786.796	0.05
786.97	0.06
787.145	0.55
787.319	-0.35
787.493	0.11
787.667	-0.29
787.841	-0.14
788.015	0.39
788.19	-0.1
788.364	0.14
788.538	0.16
788.712	0.2
788.886	0.01
789.06	0.1
789.234	0.32
789.408	-0.17
789.582	-0.11
789.756	0.09
789.93	0.05
790.104	-0.12
790.278	0.09
790.452	-0.19
790.626	0.26
790.8	-0.22
790.973	0.33
791.147	0.47
791.321	0.33
791.495	0.26
791.669	-0.02
791.843	0.18
792.016	-0.09
792.19	0.69
792.364	0.05
792.538	0.41
792.711	0.25
792.885	-0.12
793.059	-0.02
793.233	-0.44
793.406	0.27
793.58	0.17
793.754	0.11
793.927	0.02
794.101	0.22
794.274	-0.03
794.448	0.26
794.622	-0.21
794.795	0.44
794.969	-0.1
795.142	0.38
795.316	0.1
795.489	-0.37
795.663	0.62
795.836	0.07
796.009	-0.24
796.183	0.69
796.356	0.3
796.53	-0.18
796.703	0.06
796.876	0.45
797.05	0.37
797.223	0.11
797.396	-0.03
797.57	0.21
797.743	0.53
797.916	0.28
798.09	0.03
798.263	0.37
798.436	0.21
798.609	-0.1
798.782	-0.05
798.956	0.16
799.129	-0.13
799.302	-0.06
799.475	-0.34
799.648	0.01
799.821	0
799.994	0.12
800.167	-0.15
800.34	0.21
800.514	0.05
800.687	0.08
800.86	-0.23
801.033	0.07
801.206	0.36
801.379	-0.18
801.551	0.2
801.724	0.44
801.897	0.57
802.07	-0.29
802.243	-0.22
802.416	0.38
802.589	-0.03
802.762	0.09
802.935	0.1
803.107	0.27
803.28	0.57
803.453	0.23
803.626	0.27
803.798	0.39
803.971	0.17
804.144	0.36
804.317	0.01
804.489	0.25
804.662	-0.04
804.835	-0.09
805.007	-0.41
805.18	0.44
805.353	0.24
805.525	0.14
805.698	-0.37
805.87	0.29
806.043	0.5
806.215	-0.36
806.388	-0.19
806.56	0.17
806.733	0.38
806.905	0.34
807.078	-0.14
807.25	-0.27
807.423	0.33
807.595	-0.1
807.768	0.39
807.94	0.34
808.112	0.13
808.285	0.18
808.457	-0.09
808.629	-0.21
808.802	0.45
808.974	0.49
809.146	-0.16
809.318	-0.12
809.491	0.5
809.663	0.13
809.835	0.23
810.007	0.3
810.18	-0.06
810.352	-0.26
810.524	-0.15
810.696	0.25
810.868	0.38
811.04	-0.2
811.212	-0.02
811.384	0.56
811.556	0.03
811.728	-0.08
811.901	0.66
812.073	-0.05
812.245	0.22
812.417	0.24
812.589	-0.59
812.76	0.18
812.932	0.54
813.104	0.33
813.276	-0.24
813.448	0.44
813.62	0.15
813.792	0.26
813.964	0.08
814.136	0.05
814.307	0.02
814.479	-0.59
814.651	-0.16
814.823	0.5
814.995	-0.07
815.166	0.09
815.338	-0.35
815.51	-0.42
815.681	0.64
815.853	0.17
816.025	0.02
816.196	0.29
816.368	0.28
816.54	-0.36
816.711	0.17
816.883	0.6
817.054	1.22
817.226	-0.41
817.398	0.18
817.569	0.2
817.741	0.38
817.912	-0
818.084	-0.28
818.255	0.13
818.426	0.28
818.598	-0.19
818.769	-0.53
818.941	0.83
819.112	0.56
819.283	0.21
819.455	-0.19
819.626	0.02
819.798	0.56
819.969	0.2
820.14	0.1
820.311	0.3
820.483	0.26
820.654	0.38
820.825	0.08
820.996	-0.25
821.168	-0.22
821.339	0.1
821.51	0.01
821.681	-0.08
821.852	-0.01
822.023	-0.65
822.195	-0.23
822.366	0.54
822.537	-0.2
822.708	-0.17
822.879	0.07
823.05	0.68
823.221	0.08
823.392	0.46
823.563	-0
823.734	0.16
823.905	0.42
824.076	0.04
824.247	-0.41
824.418	-0.21
824.589	1.05
824.759	-0.1
824.93	0.11
825.101	-0.59
825.272	0.72
825.443	0.73
825.614	0.43
825.784	-0.59
825.955	1.25
826.126	0.85
826.297	0.33
826.467	1.26
826.638	0.88
826.809	-0.46
826.98	0.26
827.15	-0.31
827.321	0.36
827.492	1.22
827.662	0.56
827.833	1.33
828.003	0.66
828.174	-0.34
828.345	-0.91
828.515	1.1
828.686	0.2
828.856	0.15
829.027	0.38
829.197	0.11
829.368	0.93
829.538	-0.38
829.709	-0.26
829.879	0.44
830.049	-0.16
830.22	-0.52
830.39	-0.11
830.56	0.19
830.731	-0.42
830.901	-0.3
831.072	0.39
831.242	0.33
831.412	0.03
831.582	0.06
831.753	-0.39
831.923	0.33
832.093	0.3
832.263	0.08
832.434	-0.5
832.604	0.23
832.774	0.46
832.944	-0.63
833.114	-0.67
833.284	0.88
833.454	-0.59
833.624	-0.55
833.795	-0.02
833.965	0.76
834.135	0.63
834.305	-0.78
834.475	-0.4
834.645	0.21
834.815	-0.38
834.985	-0.76
835.155	-0.43
835.325	0.63
835.494	0.04
835.664	0.34
835.834	-0.49
836.004	0.2
836.174	-0.19
836.344	-0.52
836.514	-0.63
836.684	-0.43
836.853	0.51
837.023	0.56
837.193	-0.4
837.363	0.57
837.532	0.92
837.702	0.22
837.872	-0.34
838.041	0.97
838.211	1.08
838.381	-0.04
838.55	-0.08
838.72	2.56
838.89	1.57
839.059	-0.96
839.229	-0.84
839.398	1.48
839.568	0.57
839.738	0.25
839.907	0.67
840.077	0.35
840.246	-0.12
840.416	-0.85
840.585	-1.12
840.755	0.86
840.924	0.69
841.093	-0.61
841.263	-0.05
841.432	-0.03
841.602	-0.85
841.771	-0.6
841.94	0.23
842.11	1.98
842.279	1.85
842.448	-0.84
842.617	-0.49
842.787	1.13
842.956	-1.02
843.125	0.49
843.294	0.61
843.464	1.62
843.633	0.61
843.802	-0.73
843.971	-0.27
844.14	1.24
844.309	0.89
844.479	-0.09
844.648	-0.2
844.817	-0.27
844.986	0.82
845.155	0.12
845.324	-0.1
845.493	0.26
845.662	-0.5
845.831	0.57
846	0.19
846.169	-0.43
846.338	1.22
846.507	0.86
846.676	0.73
846.844	0.2
847.013	1
847.182	0.62
847.351	-0.56
847.52	-0.11
847.689	0.61
847.858	0.39
848.026	-0.56
848.195	0.44
848.364	0.25
848.533	-0.68
848.701	-0.31
848.87	-0.3
849.039	1.44
849.207	0.25
849.376	1.01
849.545	1.33
849.713	-0.14
849.882	-0.28
850.051	-0.08
850.219	0.73
850.388	1.21
850.556	-0.66
850.725	-0.34
850.893	0.57
851.062	0.02
851.23	0.03
851.399	-1.61
851.567	-0.1
851.736	0.09
851.904	-0.76
852.073	0.36
852.241	0.83
852.41	0.24
852.578	-0.23
852.746	-0.22
852.915	1.45
853.083	0.02
853.251	-0.56
853.42	-0.59
853.588	0.36
853.756	1.4
853.924	-0.11
854.093	-0.48
854.261	-0.05
854.429	-1.42
854.597	0.23
854.765	-0.9
854.934	0.85
855.102	0.94
855.27	0.14
855.438	0.87
855.606	0.44
855.774	1.95
855.942	-1.04
856.11	-1.98
856.278	0.52
856.446	1.38
856.614	-0.15
856.782	-0.23
856.95	0.57
857.118	0.85
857.286	0.03
857.454	-0.77
857.622	0.91
857.79	0.64
857.958	-1.25
858.126	0.01
858.294	-2.72
858.462	0.26
858.629	-0.2
858.797	-0.32
858.965	-0.54
859.133	-0.12
859.301	-0.26
859.468	0.65
859.636	0.08
859.804	3.2
859.971	0.41
860.139	-0.65
860.307	1.38
860.474	0.44
860.642	-1.42
860.81	0.11
860.977	0.25
861.145	2.17
861.313	-0.32
861.48	-1.2
861.648	0.4
861.815	0.52
861.983	-1.77
862.15	-0.43
862.318	1.25
862.485	1.49
862.653	-1.09
862.82	-1.07
862.988	2.56
863.155	-0.26
863.322	-1.23
863.49	-1.59
863.657	-0.65
863.824	2.52
863.992	0.38
864.159	-0.01
864.326	1.82
864.494	0.02
864.661	2.61
864.828	-1.73
864.996	1.03
865.163	1.81
865.33	-0.08
865.497	-1.85
865.664	-0.05
865.832	-1.87
865.999	-0.71
866.166	-1.04
866.333	-0.27
866.5	-0.86
866.667	0.32
866.834	-0.94
867.001	1.99
867.168	-2.24
867.335	-0.3
867.502	-1
867.669	-0.29
867.836	1.4
868.003	-0.21
868.17	0.62
868.337	0.04
868.504	2.55
868.671	-0.76
868.838	-1.23
869.005	-0.15
869.172	1.38
869.339	1.47
869.505	0.21
869.672	-0.21
869.839	2.75
870.006	1.43
870.173	-1.5
870.339	0.62
870.506	1.32
870.673	-1.03
870.84	0.78
871.006	0.79
871.173	-0.72
871.34	-1.01
871.506	-1.37
871.673	0.63
871.839	-0.74
872.006	0.62
872.173	0.26
872.339	2.86
872.506	2.1
872.672	0.38
872.839	-1.42
873.005	-0.37
873.172	4.38
873.338	1.49
873.505	0.58
873.671	-1.64
873.838	1.18
874.004	-1.79
874.171	-1.49
874.337	1.29
874.503	2.3
874.67	-1.07
874.836	0.86
875.002	3.29
875.169	0.32
875.335	0.73
875.501	-0.99
875.668	1.21
875.834	-0.17
876	0.05
876.166	1.55
876.332	1.66
876.499	3.15
876.665	-0.5
876.831	-0.81
876.997	2.76
877.163	0.71
877.329	-1.03
877.495	0.03
877.662	0.1
877.828	2.45
877.994	-0.74
878.16	-1.87
878.326	-1.36
878.492	2.14
878.658	0.01
878.824	-1.07
878.99	3.12
879.156	0.01
879.322	3.02
879.487	-0.55
879.653	0.2
879.819	1.59
879.985	-1.72
880.151	0.22
880.317	0.63
880.483	0.12
880.648	0.81
880.814	-3.59
880.98	0.78
881.146	-1.15
881.312	-1.56
881.477	-1.77
881.643	0.29
881.809	2.53
881.974	2.46
882.14	-2.45
882.306	0.59
882.471	2.44
882.637	-0.16
882.803	1.83
882.968	2.63
883.134	3.19
883.299	0.48
883.465	-1.58
883.63	1.58
883.796	2.43
883.961	2.7
884.127	0.42
884.292	-3.01
884.458	-1.63
884.623	-1.63
