Data from Apollo_Calib_20240827__AbsoluteIrradiance__305__04-14-00-868.txt Node

Date: Wed Aug 28 04:14:00 BST 2024
User: biology
Spectrometer: FLMT08252
Trigger mode: 0
Integration Time (sec): 5.000000E-1
Scans to average: 5
Electric dark correction enabled: true
Nonlinearity correction enabled: false
Boxcar width: 0
XAxis mode: Wavelengths
Number of Pixels in Spectrum: 3648
>>>>>Begin Spectral Data<<<<<
179.588	-0
179.809	-0
180.03	-0
180.251	-0
180.473	-0
180.694	0
180.915	0
181.136	-0
181.357	0
181.578	-0
181.799	0
182.02	-0
182.241	0
182.462	-0
182.683	0
182.904	-0
183.125	-0
183.346	0
183.567	0
183.788	-0
184.009	-0
184.23	0
184.451	0
184.672	-0
184.892	-0
185.113	0
185.334	0
185.555	-0
185.776	-0
185.996	0
186.217	0
186.438	0
186.659	-0
186.879	-0
187.1	0
187.321	-0
187.541	-0
187.762	-0
187.983	0
188.203	-0
188.424	-0
188.644	-0
188.865	0
189.086	-0
189.306	-0
189.527	0
189.747	0
189.968	-0
190.188	0
190.409	-0
190.629	0
190.849	-0
191.07	-0
191.29	0
191.511	0
191.731	-0
191.951	-0
192.172	-0
192.392	-0
192.612	-0
192.833	-0
193.053	0
193.273	0
193.493	-0
193.714	-0
193.934	0
194.154	0
194.374	0
194.594	-0
194.815	0
195.035	0
195.255	-0
195.475	-0
195.695	0
195.915	0
196.135	-0
196.355	0
196.575	0
196.795	-0
197.015	-0
197.235	-0
197.455	-0
197.675	0
197.895	-0
198.115	-0
198.335	0
198.555	-0
198.775	-0
198.995	0
199.214	0
199.434	0
199.654	-0
199.874	-0
200.094	0.82
200.313	0.08
200.533	-0.34
200.753	-1.04
200.973	0.94
201.192	0.64
201.412	-0.7
201.632	-0.35
201.851	0.93
202.071	-0.59
202.291	-1.26
202.51	-0.79
202.73	-0.01
202.95	-0.19
203.169	-0.67
203.389	0.1
203.608	-0.05
203.828	-0.75
204.047	-0.26
204.267	-0.14
204.486	0.4
204.706	0.11
204.925	0.12
205.145	-0.51
205.364	0.38
205.583	0.48
205.803	-0.65
206.022	-0.49
206.242	0.01
206.461	0.23
206.68	-0.49
206.9	-0.09
207.119	0.32
207.338	0.83
207.557	-0.16
207.777	-0.41
207.996	-0.27
208.215	0.46
208.434	-0.28
208.654	-0.3
208.873	0.28
209.092	0.52
209.311	-0.25
209.53	-0.28
209.749	-0.25
209.968	-0.24
210.187	-0.39
210.407	-0.58
210.626	-0.27
210.845	0.16
211.064	-0.19
211.283	-0.4
211.502	0.3
211.721	-0.3
211.94	-0.05
212.159	-0.09
212.377	0.17
212.596	0.16
212.815	-0.14
213.034	-0.04
213.253	0.25
213.472	0.06
213.691	-0.08
213.91	-0.36
214.128	-0.17
214.347	0.51
214.566	-0.37
214.785	-0.23
215.003	0.12
215.222	0.06
215.441	-0.14
215.66	-0.41
215.878	-0.16
216.097	0.22
216.316	-0.22
216.534	-0.22
216.753	0.07
216.972	-0.18
217.19	-0.09
217.409	-0.1
217.627	-0.02
217.846	-0.2
218.064	-0.02
218.283	-0.18
218.501	0.31
218.72	0.12
218.938	-0.33
219.157	-0.19
219.375	0.16
219.594	-0.05
219.812	-0.15
220.031	-0.31
220.249	0.18
220.467	0.23
220.686	-0.2
220.904	-0.2
221.122	-0.26
221.341	0.24
221.559	-0.03
221.777	-0.17
221.995	-0.08
222.214	0.14
222.432	-0.15
222.65	0.2
222.868	-0.03
223.086	0.07
223.305	-0.01
223.523	-0.17
223.741	0.31
223.959	-0.02
224.177	-0.22
224.395	-0.15
224.613	-0.09
224.831	0.19
225.049	-0.12
225.267	-0.15
225.485	-0.05
225.703	-0.11
225.921	-0.08
226.139	-0.06
226.357	0.09
226.575	-0.06
226.793	-0.16
227.011	0.56
227.229	0
227.447	0.21
227.665	-0.19
227.883	-0.21
228.1	0.02
228.318	0.02
228.536	-0.32
228.754	-0.21
228.972	0.01
229.189	0.01
229.407	-0.21
229.625	-0.03
229.843	0.21
230.06	0.13
230.278	-0.09
230.496	-0.08
230.713	0.07
230.931	0.23
231.149	-0.08
231.366	-0.24
231.584	-0.13
231.801	0.37
232.019	-0.11
232.236	-0.34
232.454	0
232.671	0.11
232.889	-0.08
233.106	-0.13
233.324	-0.09
233.541	-0.09
233.759	-0.1
233.976	-0.2
234.194	-0.14
234.411	0.03
234.628	-0.16
234.846	-0.17
235.063	-0.13
235.28	0.07
235.498	-0.15
235.715	-0.16
235.932	0.08
236.149	-0.02
236.367	-0.07
236.584	-0.12
236.801	-0.13
237.018	0.12
237.236	0.02
237.453	-0.23
237.67	0
237.887	-0.03
238.104	-0.08
238.321	-0.06
238.538	-0.23
238.755	0.09
238.973	-0.2
239.19	0.01
239.407	0.05
239.624	-0.05
239.841	-0.14
240.058	-0.08
240.275	-0.02
240.492	-0.04
240.709	-0.08
240.925	-0.09
241.142	-0.13
241.359	-0.11
241.576	-0.16
241.793	-0.09
242.01	-0.02
242.227	0.1
242.444	-0.07
242.66	0.11
242.877	0.04
243.094	-0.03
243.311	0.02
243.527	-0.03
243.744	0.04
243.961	0.03
244.178	-0.05
244.394	-0.04
244.611	0.04
244.828	0.17
245.044	-0.04
245.261	-0.07
245.477	0.04
245.694	0.04
245.911	-0.12
246.127	-0.05
246.344	0.15
246.56	0.13
246.777	-0.06
246.993	-0.05
247.21	-0.05
247.426	0.08
247.643	-0.06
247.859	-0.1
248.076	-0.08
248.292	0.19
248.508	-0.01
248.725	0.05
248.941	0.05
249.157	0.12
249.374	-0.12
249.59	0.02
249.806	0.01
250.023	0.08
250.239	-0.06
250.455	-0.13
250.671	-0.01
250.888	-0.02
251.104	0.05
251.32	-0.07
251.536	-0.04
251.752	-0.09
251.969	0.02
252.185	-0
252.401	0.19
252.617	-0.03
252.833	0
253.049	-0.01
253.265	0.01
253.481	-0.01
253.697	-0.07
253.913	-0.08
254.129	-0.04
254.345	0.02
254.561	-0.1
254.777	-0.1
254.993	0.03
255.209	0.06
255.425	-0.04
255.641	-0.12
255.857	0.08
256.073	0.04
256.288	-0.16
256.504	-0.07
256.72	0.04
256.936	0.11
257.152	-0.03
257.367	-0.13
257.583	-0.01
257.799	0.11
258.015	-0.05
258.23	-0.06
258.446	0.12
258.662	0.02
258.877	-0.15
259.093	-0.11
259.309	0.01
259.524	-0.01
259.74	-0.08
259.955	-0.19
260.171	-0.06
260.387	0.03
260.602	0.01
260.818	-0.03
261.033	-0.12
261.249	-0
261.464	-0.02
261.68	-0.11
261.895	-0.02
262.11	0.01
262.326	-0.05
262.541	-0.22
262.757	0.04
262.972	0.06
263.187	0.05
263.403	0.01
263.618	0.1
263.833	0.03
264.049	-0.05
264.264	-0.02
264.479	0.03
264.694	0.12
264.91	-0.12
265.125	-0.04
265.34	0.01
265.555	0.16
265.77	-0.02
265.986	-0.07
266.201	0.08
266.416	0.09
266.631	-0.04
266.846	-0.02
267.061	0.06
267.276	0.09
267.491	-0.18
267.706	0.02
267.921	0.05
268.136	-0.02
268.351	0.01
268.566	-0.08
268.781	0.14
268.996	0.03
269.211	-0.01
269.426	-0.04
269.641	-0.01
269.856	0.02
270.071	-0.07
270.285	-0.14
270.5	0.14
270.715	0.02
270.93	-0.04
271.145	-0
271.359	-0
271.574	-0.05
271.789	-0.06
272.004	0.01
272.218	-0.02
272.433	0.03
272.648	-0.07
272.862	0.09
273.077	-0.04
273.292	-0.02
273.506	-0.07
273.721	-0.08
273.936	0.01
274.15	0.08
274.365	-0
274.579	0.03
274.794	0.07
275.008	0.08
275.223	-0.15
275.437	-0.02
275.652	0.05
275.866	0.03
276.081	0.02
276.295	0.01
276.509	-0.03
276.724	-0.03
276.938	-0.08
277.153	0.06
277.367	0.08
277.581	-0.05
277.796	-0.07
278.01	-0.07
278.224	0.1
278.438	0.12
278.653	-0.05
278.867	-0.06
279.081	-0.18
279.295	-0.03
279.51	0.03
279.724	-0.16
279.938	0.01
280.152	0.01
280.366	-0.04
280.58	0.01
280.794	0.06
281.008	-0
281.222	0.02
281.437	0.07
281.651	-0.02
281.865	0.12
282.079	-0.04
282.293	-0.14
282.507	-0.03
282.721	-0
282.935	0
283.148	-0.05
283.362	-0.03
283.576	-0.04
283.79	-0.01
284.004	-0.03
284.218	0.03
284.432	-0.06
284.646	-0.03
284.859	-0.07
285.073	-0
285.287	-0.01
285.501	0.02
285.714	-0.04
285.928	0.06
286.142	0.03
286.356	-0.07
286.569	-0.05
286.783	0.09
286.997	0.03
287.21	-0
287.424	-0.02
287.637	-0.04
287.851	-0.04
288.065	0.03
288.278	0.02
288.492	0.02
288.705	-0.06
288.919	0
289.132	-0.04
289.346	0.05
289.559	-0.06
289.773	-0.05
289.986	-0.01
290.2	-0.04
290.413	0.08
290.626	-0.05
290.84	-0.02
291.053	-0.06
291.267	0.12
291.48	-0.01
291.693	-0
291.906	-0.05
292.12	-0.08
292.333	-0.06
292.546	0
292.76	0.07
292.973	0.02
293.186	0.04
293.399	-0.03
293.612	0.05
293.826	-0
294.039	-0.03
294.252	0.02
294.465	0.03
294.678	0
294.891	-0
295.104	-0.09
295.317	-0.03
295.53	0.02
295.743	-0.01
295.956	0.06
296.169	0.09
296.382	0.06
296.595	-0.01
296.808	-0.04
297.021	0.05
297.234	0.07
297.447	0
297.66	0.04
297.873	0.06
298.086	0.03
298.299	-0.05
298.511	-0.05
298.724	0.01
298.937	-0.07
299.15	-0.02
299.363	0.02
299.575	0.06
299.788	0.04
300.001	-0.02
300.213	-0.03
300.426	-0.02
300.639	-0
300.852	-0.03
301.064	0.06
301.277	0.09
301.489	0.03
301.702	0.05
301.915	-0.03
302.127	0.01
302.34	0.01
302.552	0.04
302.765	-0.06
302.977	0.01
303.19	-0.05
303.402	-0.03
303.615	-0.05
303.827	-0
304.04	0.02
304.252	0.01
304.464	-0.03
304.677	0.11
304.889	0
305.102	-0.03
305.314	-0.02
305.526	0.05
305.739	0
305.951	-0.04
306.163	-0.03
306.375	0.09
306.588	0.04
306.8	-0.05
307.012	-0.07
307.224	0.04
307.436	0.09
307.649	-0.1
307.861	-0
308.073	0.05
308.285	-0.02
308.497	-0.09
308.709	-0.01
308.921	-0.02
309.133	0.02
309.346	-0.01
309.558	0.03
309.77	0.08
309.982	0.04
310.194	0.03
310.406	-0.04
310.617	0.1
310.829	0.02
311.041	0.05
311.253	-0.04
311.465	0.01
311.677	-0.01
311.889	-0.02
312.101	0.02
312.313	0.05
312.524	0.07
312.736	-0.06
312.948	-0.03
313.16	0.09
313.372	0.06
313.583	0
313.795	-0.04
314.007	-0.03
314.218	0.04
314.43	0.03
314.642	-0.03
314.853	-0.08
315.065	0.01
315.277	0.01
315.488	-0
315.7	0.03
315.912	0.05
316.123	-0.01
316.335	-0.03
316.546	0.1
316.758	0
316.969	-0.04
317.181	0.01
317.392	0.01
317.604	0.08
317.815	-0.06
318.026	-0.06
318.238	-0
318.449	0.01
318.661	-0.07
318.872	-0.03
319.083	-0.03
319.295	0.02
319.506	-0.01
319.717	0.01
319.929	-0
320.14	0
320.351	0.02
320.562	-0.02
320.774	-0.03
320.985	-0.02
321.196	-0.05
321.407	-0.07
321.618	0.05
321.829	0.01
322.041	0.01
322.252	0
322.463	0.01
322.674	-0.01
322.885	-0.07
323.096	-0.05
323.307	-0.02
323.518	0.03
323.729	-0.04
323.94	-0.02
324.151	-0.03
324.362	0.02
324.573	0.02
324.784	0
324.995	0.05
325.206	0.02
325.417	-0.03
325.628	-0.02
325.838	-0.02
326.049	-0.01
326.26	0.03
326.471	-0.01
326.682	0
326.892	-0
327.103	-0.08
327.314	-0.04
327.525	0.07
327.735	0.01
327.946	-0.04
328.157	-0.06
328.368	-0.01
328.578	-0.01
328.789	-0.01
328.999	-0.03
329.21	-0
329.421	0.03
329.631	-0.06
329.842	0.01
330.052	0
330.263	0.04
330.473	0.04
330.684	-0.01
330.894	-0.02
331.105	0.02
331.315	-0.02
331.526	-0.11
331.736	0.09
331.947	0.03
332.157	0.03
332.367	-0.06
332.578	0.08
332.788	0.03
332.999	0.04
333.209	-0.01
333.419	-0.06
333.629	0.03
333.84	0.03
334.05	-0.04
334.26	0.07
334.47	0.02
334.681	-0.03
334.891	0
335.101	0.02
335.311	0.09
335.521	-0
335.732	-0.05
335.942	0.07
336.152	0.01
336.362	-0.02
336.572	0.03
336.782	0.02
336.992	-0.01
337.202	-0.02
337.412	-0.05
337.622	0.02
337.832	-0.01
338.042	0.01
338.252	-0.04
338.462	-0.05
338.672	-0
338.882	0
339.092	-0.02
339.302	0.09
339.511	0.04
339.721	-0.04
339.931	-0.09
340.141	0.05
340.351	0.08
340.561	0.02
340.77	0.01
340.98	0
341.19	0.04
341.4	-0
341.609	-0.06
341.819	-0
342.029	-0.02
342.238	0.01
342.448	-0.03
342.658	0
342.867	-0.01
343.077	0.02
343.286	0.03
343.496	-0
343.706	0.03
343.915	-0.04
344.125	-0.04
344.334	-0
344.544	-0.1
344.753	-0.02
344.963	0
345.172	-0.04
345.381	-0.01
345.591	-0.04
345.8	-0
346.01	0.07
346.219	0.05
346.428	-0.14
346.638	-0.01
346.847	-0.01
347.056	0.07
347.266	-0.01
347.475	-0.02
347.684	-0
347.893	0.01
348.103	0.03
348.312	-0.01
348.521	-0.03
348.73	-0
348.94	-0.01
349.149	-0.03
349.358	-0.01
349.567	-0.02
349.776	-0.06
349.985	-0.04
350.194	0.05
350.403	0.06
350.612	-0.07
350.821	-0.05
351.03	0
351.239	-0.04
351.448	0.01
351.657	-0.06
351.866	0.07
352.075	0.04
352.284	-0.03
352.493	-0.04
352.702	0.07
352.911	0.02
353.12	0.01
353.329	-0.02
353.538	0.04
353.746	-0
353.955	-0.02
354.164	0.02
354.373	-0.03
354.582	0.07
354.79	-0
354.999	0.06
355.208	-0.01
355.416	0.05
355.625	-0.01
355.834	-0.05
356.042	0.03
356.251	-0.06
356.46	-0.04
356.668	0.01
356.877	0.09
357.085	0.06
357.294	-0.1
357.503	0.01
357.711	-0.03
357.92	0.11
358.128	0.04
358.337	-0.02
358.545	0.01
358.754	-0.01
358.962	0.02
359.17	-0.03
359.379	0.02
359.587	0.04
359.796	0.02
360.004	0.02
360.212	0.03
360.421	0.04
360.629	-0.03
360.837	0
361.046	0.07
361.254	0.11
361.462	-0.04
361.67	-0.02
361.879	0.04
362.087	0.04
362.295	-0.01
362.503	-0
362.711	-0.06
362.92	0
363.128	0
363.336	-0.05
363.544	-0.06
363.752	-0.04
363.96	-0.04
364.168	-0.06
364.376	-0.01
364.584	0.02
364.792	0.09
365	0.02
365.208	0.01
365.416	-0.04
365.624	0.02
365.832	-0.03
366.04	0.05
366.248	0.02
366.456	-0
366.664	0.05
366.872	0
367.079	-0.04
367.287	0.02
367.495	0.02
367.703	-0.02
367.911	0.01
368.118	0.02
368.326	0.01
368.534	-0.06
368.742	0.06
368.949	-0.04
369.157	-0.03
369.365	0.03
369.572	0.02
369.78	-0.02
369.988	0.05
370.195	0.01
370.403	0.04
370.61	0
370.818	0.01
371.026	0.09
371.233	-0.02
371.441	-0.02
371.648	-0.02
371.856	0.04
372.063	0.02
372.271	-0.04
372.478	-0.05
372.685	-0.03
372.893	0.02
373.1	-0.01
373.308	-0.04
373.515	0.09
373.722	0.05
373.93	0
374.137	0
374.344	0.07
374.552	0.04
374.759	0.05
374.966	0.02
375.173	0.02
375.381	0.01
375.588	-0.04
375.795	-0.1
376.002	-0
376.209	-0.02
376.417	0
376.624	0.01
376.831	0.02
377.038	-0.01
377.245	-0.08
377.452	-0.01
377.659	-0
377.866	-0.02
378.073	-0
378.28	-0.03
378.487	0.05
378.694	0
378.901	-0.02
379.108	0.01
379.315	0.05
379.522	0.09
379.729	0.02
379.936	-0.05
380.143	0.04
380.35	0.01
380.557	-0.03
380.763	-0.02
380.97	-0
381.177	0.02
381.384	-0.01
381.591	-0.06
381.797	-0.01
382.004	0.03
382.211	0.01
382.418	0.01
382.624	0.01
382.831	0.06
383.038	-0
383.244	0
383.451	-0.02
383.658	0.06
383.864	-0.04
384.071	-0.03
384.277	0.05
384.484	-0.06
384.69	0.07
384.897	-0.04
385.103	-0.04
385.31	-0.04
385.516	-0
385.723	-0.05
385.929	-0.04
386.136	-0.04
386.342	0.03
386.549	0.01
386.755	0.04
386.961	0.01
387.168	-0.02
387.374	-0
387.58	-0.01
387.787	-0.02
387.993	0.04
388.199	-0.04
388.406	-0.02
388.612	-0.01
388.818	-0.05
389.024	-0.03
389.231	0.02
389.437	0.09
389.643	0.03
389.849	-0.04
390.055	0.01
390.261	-0.02
390.467	0.03
390.674	-0.03
390.88	-0.01
391.086	0.01
391.292	-0.06
391.498	0.04
391.704	0.03
391.91	-0.02
392.116	-0.06
392.322	-0.11
392.528	0.02
392.734	0.02
392.94	0.01
393.146	-0
393.352	0.02
393.557	-0
393.763	-0.06
393.969	0
394.175	0.04
394.381	-0
394.587	-0.01
394.792	-0.05
394.998	0.03
395.204	0.02
395.41	-0.07
395.615	0.05
395.821	-0
396.027	0.03
396.233	-0.04
396.438	0.01
396.644	0.04
396.85	0.06
397.055	-0.03
397.261	0.02
397.466	-0.03
397.672	-0.05
397.878	0.05
398.083	0.06
398.289	-0.04
398.494	0.08
398.7	0.04
398.905	-0.05
399.111	0.05
399.316	-0.04
399.522	-0.02
399.727	-0.01
399.932	0.01
400.138	0.01
400.343	0.04
400.549	0.03
400.754	0
400.959	0.02
401.165	-0.02
401.37	-0
401.575	-0.02
401.78	0.02
401.986	-0.03
402.191	-0.04
402.396	-0.04
402.601	0.04
402.807	0.02
403.012	0
403.217	0.06
403.422	-0.01
403.627	-0.01
403.832	-0.06
404.037	0.05
404.243	0.02
404.448	-0.03
404.653	0
404.858	-0.01
405.063	0.05
405.268	-0.01
405.473	-0.02
405.678	-0.05
405.883	0.14
406.088	0.04
406.293	-0.06
406.498	-0.04
406.703	0.06
406.907	-0.02
407.112	-0.02
407.317	-0.01
407.522	-0
407.727	-0.06
407.932	-0.01
408.136	0.05
408.341	-0.01
408.546	0.06
408.751	-0.01
408.956	-0.02
409.16	0.04
409.365	-0.01
409.57	-0.03
409.774	-0
409.979	0.03
410.184	0
410.388	-0.04
410.593	0.09
410.798	0
411.002	-0.01
411.207	0.03
411.411	0.01
411.616	-0.08
411.82	-0.02
412.025	0.05
412.229	-0.02
412.434	0.11
412.638	0
412.843	-0.02
413.047	0.02
413.252	-0.03
413.456	-0.02
413.66	0.04
413.865	-0.03
414.069	0.1
414.273	-0.02
414.478	-0.04
414.682	-0.01
414.886	-0.03
415.091	-0.04
415.295	-0.09
415.499	0
415.703	-0
415.908	0.04
416.112	-0.11
416.316	0.04
416.52	-0.02
416.724	-0.07
416.929	-0.02
417.133	0.08
417.337	-0
417.541	-0.01
417.745	-0.03
417.949	0.03
418.153	0.02
418.357	-0.08
418.561	0.06
418.765	0.01
418.969	0.11
419.173	0.09
419.377	-0.01
419.581	0.07
419.785	0.03
419.989	-0.05
420.193	-0.02
420.397	0.01
420.601	0.04
420.804	0.06
421.008	0.02
421.212	0.07
421.416	0.06
421.62	-0.02
421.823	0.01
422.027	0.12
422.231	0.01
422.435	-0
422.638	0.05
422.842	0.04
423.046	-0.01
423.249	0.06
423.453	0.06
423.657	0.07
423.86	-0.01
424.064	0.01
424.268	0.08
424.471	0.03
424.675	0.11
424.878	0.12
425.082	0.06
425.285	0.12
425.489	0.05
425.692	-0
425.896	0
426.099	0.1
426.303	0.05
426.506	-0.07
426.71	0.06
426.913	0.11
427.116	0.1
427.32	0.03
427.523	0.08
427.726	0.17
427.93	0.02
428.133	0.08
428.336	0.03
428.54	0.02
428.743	0.07
428.946	0.13
429.149	0.03
429.353	0.06
429.556	0.09
429.759	0.07
429.962	0.02
430.165	0.11
430.368	0.09
430.571	0.03
430.775	0.09
430.978	0.06
431.181	0.13
431.384	0.07
431.587	0.05
431.79	0.03
431.993	0.02
432.196	0.05
432.399	0.07
432.602	0.16
432.805	0.06
433.008	0.09
433.211	-0
433.414	0.1
433.616	0.14
433.819	0.07
434.022	-0.01
434.225	0.15
434.428	0.13
434.631	0.23
434.833	0.09
435.036	0.06
435.239	0.26
435.442	0.13
435.645	0.15
435.847	0.15
436.05	0.13
436.253	0.13
436.455	0.1
436.658	0.14
436.861	0.19
437.063	0.11
437.266	0.14
437.468	0.19
437.671	0.28
437.874	0.17
438.076	0.08
438.279	0.09
438.481	0.18
438.684	0.11
438.886	0.22
439.089	0.12
439.291	0.24
439.494	0.18
439.696	0.18
439.899	0.2
440.101	0.23
440.303	0.14
440.506	0.3
440.708	0.24
440.91	0.29
441.113	0.21
441.315	0.29
441.517	0.21
441.72	0.36
441.922	0.25
442.124	0.26
442.326	0.32
442.529	0.4
442.731	0.29
442.933	0.38
443.135	0.36
443.337	0.33
443.539	0.32
443.742	0.29
443.944	0.36
444.146	0.34
444.348	0.32
444.55	0.36
444.752	0.37
444.954	0.33
445.156	0.41
445.358	0.33
445.56	0.53
445.762	0.4
445.964	0.49
446.166	0.4
446.368	0.42
446.57	0.47
446.772	0.46
446.974	0.39
447.175	0.46
447.377	0.41
447.579	0.51
447.781	0.33
447.983	0.51
448.184	0.46
448.386	0.54
448.588	0.42
448.79	0.45
448.991	0.47
449.193	0.42
449.395	0.44
449.597	0.54
449.798	0.44
450	0.48
450.202	0.43
450.403	0.46
450.605	0.44
450.806	0.39
451.008	0.27
451.21	0.39
451.411	0.42
451.613	0.38
451.814	0.39
452.016	0.37
452.217	0.37
452.419	0.41
452.62	0.35
452.821	0.37
453.023	0.41
453.224	0.38
453.426	0.26
453.627	0.31
453.828	0.32
454.03	0.25
454.231	0.34
454.432	0.25
454.634	0.41
454.835	0.26
455.036	0.23
455.238	0.3
455.439	0.35
455.64	0.19
455.841	0.18
456.042	0.32
456.244	0.27
456.445	0.21
456.646	0.14
456.847	0.17
457.048	0.24
457.249	0.26
457.45	0.38
457.651	0.17
457.852	0.21
458.054	0.2
458.255	0.17
458.456	0.2
458.657	0.18
458.858	0.1
459.058	0.18
459.259	0.19
459.46	0.15
459.661	0.16
459.862	0.21
460.063	0.13
460.264	0.2
460.465	0.11
460.666	0.22
460.866	0.14
461.067	0.12
461.268	0.06
461.469	0.09
461.67	0.13
461.87	0.11
462.071	0.07
462.272	0.11
462.473	0.15
462.673	0.17
462.874	0.02
463.075	0.16
463.275	0.05
463.476	0.13
463.676	0.14
463.877	0.11
464.078	0.11
464.278	0.14
464.479	0.08
464.679	0.08
464.88	0.06
465.08	0.13
465.281	0.02
465.481	0.04
465.682	0.09
465.882	0.15
466.083	0.08
466.283	0.08
466.483	0.05
466.684	0.03
466.884	0.05
467.085	0.08
467.285	0.08
467.485	0.04
467.686	0.03
467.886	0.03
468.086	0.03
468.286	0.1
468.487	0.09
468.687	-0
468.887	0.06
469.087	0.12
469.287	0.02
469.488	-0
469.688	0.08
469.888	0.09
470.088	0.11
470.288	0.09
470.488	0.07
470.688	-0.02
470.888	0.06
471.088	0.02
471.288	0.07
471.488	0.01
471.688	0.06
471.888	0
472.088	0.1
472.288	0.07
472.488	0.01
472.688	0.01
472.888	0.03
473.088	0.05
473.288	0.05
473.488	0.03
473.688	0.1
473.887	0.05
474.087	-0.02
474.287	0.05
474.487	-0.03
474.687	0.09
474.886	0.02
475.086	0.05
475.286	0.03
475.486	0.03
475.685	0.02
475.885	0.02
476.085	-0.01
476.284	0.05
476.484	0.02
476.684	0.04
476.883	0.02
477.083	0.04
477.282	-0
477.482	0.03
477.681	0.06
477.881	0.01
478.08	0.01
478.28	-0.03
478.479	0.06
478.679	0.04
478.878	-0.01
479.078	0.02
479.277	0.03
479.477	0.01
479.676	0.04
479.875	0.02
480.075	-0.04
480.274	0.03
480.473	0.04
480.673	-0.02
480.872	0.06
481.071	0.02
481.271	0.04
481.47	-0.03
481.669	0.02
481.868	0.01
482.067	-0.01
482.267	-0.02
482.466	0.01
482.665	-0.01
482.864	-0.04
483.063	-0.03
483.262	0.05
483.461	0.06
483.661	0.03
483.86	-0.03
484.059	0.04
484.258	0.01
484.457	0.01
484.656	0.02
484.855	0.07
485.054	-0.05
485.253	-0.01
485.452	-0.04
485.651	-0
485.849	-0.02
486.048	-0.01
486.247	-0.02
486.446	0.02
486.645	-0.05
486.844	-0.03
487.043	-0
487.241	0.03
487.44	-0.03
487.639	-0
487.838	0.03
488.037	0
488.235	0.06
488.434	0
488.633	-0.02
488.831	0.02
489.03	0.05
489.229	-0
489.427	0
489.626	0.03
489.825	0.06
490.023	0
490.222	-0.02
490.42	0.04
490.619	0.05
490.817	0.03
491.016	-0.01
491.214	0.03
491.413	0
491.611	-0.01
491.81	-0.02
492.008	0.04
492.207	0.01
492.405	0.01
492.604	-0.02
492.802	-0.02
493	0
493.199	-0.04
493.397	0
493.595	0.03
493.794	-0.02
493.992	0.04
494.19	0
494.388	0.03
494.587	0
494.785	-0.01
494.983	-0.03
495.181	-0.01
495.379	0.01
495.578	-0.01
495.776	0.01
495.974	0.02
496.172	-0.02
496.37	-0.02
496.568	-0.03
496.766	-0.01
496.964	0.02
497.162	0
497.36	-0.01
497.558	0.01
497.756	0.02
497.954	0
498.152	-0.02
498.35	-0.01
498.548	-0.01
498.746	0.01
498.944	-0.05
499.142	-0.01
499.34	-0.01
499.538	-0
499.736	-0.03
499.933	0.04
500.131	0.04
500.329	-0
500.527	0.02
500.725	0.05
500.922	0.02
501.12	-0.01
501.318	0
501.516	-0.04
501.713	-0.01
501.911	-0.01
502.109	-0.04
502.306	0.01
502.504	-0
502.701	-0.01
502.899	0
503.097	0.06
503.294	0.01
503.492	-0
503.689	0.02
503.887	0.01
504.084	0.04
504.282	0.01
504.479	-0.02
504.677	0.01
504.874	-0.02
505.072	0
505.269	0.01
505.466	0.02
505.664	0.02
505.861	-0.02
506.059	-0.01
506.256	0.03
506.453	-0.01
506.651	0.03
506.848	0.02
507.045	0.03
507.242	0.03
507.44	-0
507.637	0.01
507.834	-0.01
508.031	0.01
508.229	-0.05
508.426	0.01
508.623	0.04
508.82	0.01
509.017	-0.03
509.214	-0.01
509.411	-0.01
509.608	-0.02
509.805	-0
510.003	-0.02
510.2	-0.03
510.397	0.01
510.594	-0.02
510.791	-0.02
510.988	-0
511.184	0.02
511.381	-0.01
511.578	-0.02
511.775	0.01
511.972	-0.02
512.169	-0.02
512.366	-0.01
512.563	0.04
512.76	-0.02
512.956	-0
513.153	-0.01
513.35	0
513.547	-0.02
513.744	-0.01
513.94	-0.05
514.137	-0
514.334	0.01
514.53	0
514.727	0
514.924	0.06
515.12	-0.01
515.317	-0.02
515.514	-0.03
515.71	-0.01
515.907	-0.01
516.103	-0
516.3	-0
516.497	0.03
516.693	0.03
516.89	0.01
517.086	-0.02
517.283	0.05
517.479	-0.01
517.676	-0.01
517.872	-0.01
518.068	-0.02
518.265	0.01
518.461	-0.03
518.658	-0.04
518.854	0.02
519.05	-0.03
519.247	-0.02
519.443	0.01
519.639	0.01
519.836	0
520.032	0.01
520.228	-0.01
520.424	0.04
520.621	0.02
520.817	-0.01
521.013	0.02
521.209	-0
521.405	0.07
521.601	0.01
521.798	0
521.994	0.04
522.19	-0.01
522.386	-0.05
522.582	-0.01
522.778	0
522.974	-0
523.17	0.02
523.366	0.01
523.562	0.03
523.758	0
523.954	-0.02
524.15	-0.01
524.346	0.03
524.542	-0
524.738	-0.04
524.934	0
525.129	-0.01
525.325	0.01
525.521	0
525.717	0.01
525.913	0.01
526.109	0.02
526.304	0
526.5	0
526.696	0.02
526.892	0.01
527.087	0.02
527.283	-0.02
527.479	0.03
527.674	-0.04
527.87	-0
528.066	-0.01
528.261	-0.01
528.457	0.01
528.653	-0.02
528.848	0
529.044	0.02
529.239	-0.01
529.435	0.03
529.63	0.01
529.826	0.05
530.021	-0.01
530.217	0.01
530.412	-0.02
530.608	-0.02
530.803	0.03
530.999	0.02
531.194	-0.05
531.389	0.01
531.585	-0.04
531.78	-0
531.975	-0
532.171	0.01
532.366	-0.01
532.561	-0.02
532.757	-0.02
532.952	-0.01
533.147	0.02
533.342	0.01
533.538	0
533.733	0.02
533.928	0.01
534.123	0
534.318	-0.03
534.513	0
534.709	-0.01
534.904	-0.02
535.099	-0.02
535.294	0.02
535.489	-0
535.684	-0.01
535.879	-0.03
536.074	0
536.269	-0.02
536.464	-0
536.659	-0.01
536.854	-0.01
537.049	0.02
537.244	0.03
537.439	-0.03
537.634	0.02
537.828	0.02
538.023	-0.02
538.218	-0.04
538.413	0.01
538.608	-0.03
538.803	0.02
538.997	-0.04
539.192	0.03
539.387	0.03
539.582	0.01
539.776	-0
539.971	-0
540.166	-0.02
540.36	-0.03
540.555	0.01
540.75	-0.01
540.944	0
541.139	-0.04
541.334	-0.02
541.528	0.02
541.723	0.03
541.917	-0.02
542.112	-0.03
542.306	-0.01
542.501	-0
542.695	0
542.89	-0.03
543.084	-0.02
543.279	-0.01
543.473	0.02
543.668	-0.01
543.862	-0.01
544.056	-0
544.251	-0.02
544.445	0
544.64	-0.03
544.834	-0.03
545.028	0
545.222	0.01
545.417	0.01
545.611	0.01
545.805	0
546	-0.01
546.194	-0.01
546.388	-0.01
546.582	0.02
546.776	-0
546.97	0.01
547.165	0.01
547.359	0.02
547.553	-0.02
547.747	0.02
547.941	0.02
548.135	-0.01
548.329	0.01
548.523	0.01
548.717	0
548.911	-0.01
549.105	0.01
549.299	0.01
549.493	-0
549.687	0.01
549.881	0.03
550.075	-0
550.269	-0.03
550.463	-0.01
550.657	-0.03
550.85	0.02
551.044	-0.03
551.238	-0.01
551.432	-0.01
551.626	-0.04
551.82	-0.02
552.013	-0.04
552.207	-0.03
552.401	0.02
552.594	0.01
552.788	-0.01
552.982	-0.02
553.176	-0.02
553.369	0.02
553.563	0.03
553.756	-0.05
553.95	-0.04
554.144	0.01
554.337	0.03
554.531	-0.01
554.724	0.01
554.918	-0.03
555.111	0.02
555.305	0
555.498	0.04
555.692	0.03
555.885	-0.02
556.079	-0
556.272	-0.02
556.466	0.02
556.659	0.01
556.852	0
557.046	-0.03
557.239	0.05
557.432	-0.02
557.626	-0.04
557.819	0.01
558.012	0.01
558.206	0.01
558.399	0.01
558.592	0
558.785	0.01
558.979	0.01
559.172	-0.02
559.365	0.02
559.558	0.01
559.751	-0.02
559.944	-0.02
560.138	-0.02
560.331	-0.02
560.524	-0.01
560.717	-0.02
560.91	0.01
561.103	0.01
561.296	0.01
561.489	0.01
561.682	-0
561.875	0.01
562.068	0
562.261	-0.02
562.454	0.05
562.647	-0.02
562.84	-0.01
563.032	-0.02
563.225	0.02
563.418	0.01
563.611	-0.04
563.804	-0
563.997	-0.03
564.19	-0.02
564.382	0.01
564.575	-0.02
564.768	-0.01
564.961	0.01
565.153	-0.02
565.346	0.01
565.539	0.03
565.731	0.01
565.924	0.03
566.117	0.02
566.309	0.02
566.502	-0.01
566.695	-0.02
566.887	0.01
567.08	-0.02
567.272	-0.01
567.465	-0.01
567.657	-0.01
567.85	-0
568.042	0.01
568.235	0.03
568.427	-0.01
568.62	-0
568.812	-0.01
569.005	0.01
569.197	-0.02
569.389	-0
569.582	0.01
569.774	0.01
569.966	-0.04
570.159	-0.02
570.351	0.02
570.543	-0.01
570.736	0
570.928	-0.02
571.12	0.01
571.312	-0.04
571.505	-0.05
571.697	0.03
571.889	-0.02
572.081	-0.03
572.273	-0.03
572.465	0.02
572.658	-0.01
572.85	0
573.042	-0.01
573.234	-0.01
573.426	0.04
573.618	-0.03
573.81	-0
574.002	0.03
574.194	0.03
574.386	-0.03
574.578	-0.1
574.77	-0.03
574.962	-0.02
575.154	-0.04
575.346	-0
575.538	0.01
575.729	-0.04
575.921	-0.02
576.113	-0.01
576.305	0.03
576.497	-0.01
576.689	-0.02
576.88	-0.03
577.072	0.03
577.264	-0.02
577.456	0
577.647	-0.08
577.839	-0
578.031	0.02
578.223	-0.04
578.414	-0.01
578.606	0.01
578.798	0.02
578.989	-0.04
579.181	-0.01
579.372	-0
579.564	-0.01
579.755	-0.01
579.947	0
580.139	0.02
580.33	-0.06
580.522	-0.02
580.713	-0.1
580.905	-0
581.096	0.01
581.287	0.01
581.479	-0.03
581.67	0.01
581.862	0.01
582.053	-0.02
582.244	-0.06
582.436	0
582.627	0.01
582.818	-0.04
583.01	-0.04
583.201	0.03
583.392	0.03
583.583	0.02
583.775	-0.03
583.966	-0.02
584.157	-0.01
584.348	-0.02
584.54	-0.05
584.731	0.02
584.922	0
585.113	-0.03
585.304	0.02
585.495	0.05
585.686	-0
585.877	0
586.068	-0.04
586.259	0.01
586.45	0.02
586.641	-0.03
586.832	-0.08
587.023	-0
587.214	-0.01
587.405	-0
587.596	-0.04
587.787	0.04
587.978	0
588.169	-0.05
588.36	-0.02
588.551	-0.01
588.742	-0.03
588.932	-0.01
589.123	-0.02
589.314	0.06
589.505	0.01
589.696	-0
589.886	-0.03
590.077	-0.02
590.268	-0.01
590.458	-0.06
590.649	-0.06
590.84	0.02
591.03	-0.02
591.221	-0.04
591.412	-0.04
591.602	-0.02
591.793	0.03
591.984	-0.05
592.174	-0.01
592.365	0.06
592.555	-0.02
592.746	0.01
592.936	0.04
593.127	0
593.317	0.01
593.508	-0.03
593.698	-0.01
593.889	0.02
594.079	0
594.269	-0.03
594.46	-0.02
594.65	0.01
594.84	0
595.031	-0.04
595.221	-0.02
595.411	-0.02
595.602	0.03
595.792	0
595.982	-0.02
596.172	0.05
596.363	-0.01
596.553	0.01
596.743	-0.02
596.933	0
597.123	0.04
597.314	-0.03
597.504	-0
597.694	0.02
597.884	0.01
598.074	-0.01
598.264	-0.01
598.454	0.02
598.644	-0.01
598.834	0.02
599.024	-0.06
599.214	-0.04
599.404	0.05
599.594	-0.04
599.784	-0.03
599.974	0.05
600.164	0.04
600.354	-0.06
600.544	-0.06
600.734	0
600.924	0.03
601.114	-0.03
601.303	0.01
601.493	0.01
601.683	0
601.873	0.01
602.063	-0.07
602.252	0.05
602.442	-0.07
602.632	-0.02
602.821	-0.07
603.011	0.02
603.201	-0.01
603.39	-0.05
603.58	-0.06
603.77	-0
603.959	0.06
604.149	-0.01
604.339	-0.02
604.528	0.02
604.718	0.02
604.907	-0.01
605.097	-0.02
605.286	-0.04
605.476	0.02
605.665	0.01
605.855	-0.01
606.044	0.04
606.234	0.01
606.423	-0.01
606.612	-0.03
606.802	-0
606.991	0.01
607.181	0.01
607.37	-0.03
607.559	-0.01
607.749	-0.05
607.938	-0.01
608.127	-0.01
608.316	-0.02
608.506	0.01
608.695	-0.03
608.884	-0.04
609.073	-0
609.263	0
609.452	0.02
609.641	0
609.83	-0.03
610.019	-0.01
610.208	-0.06
610.397	-0.03
610.586	0.02
610.775	-0.02
610.965	-0.04
611.154	-0.04
611.343	0.02
611.532	-0.01
611.721	-0.04
611.91	-0.04
612.099	0.04
612.287	-0.01
612.476	-0.04
612.665	-0.01
612.854	-0.03
613.043	0.02
613.232	-0.04
613.421	-0.06
613.61	-0
613.798	-0.02
613.987	0.03
614.176	-0.02
614.365	0.06
614.554	0
614.742	0.02
614.931	-0.05
615.12	0.04
615.309	-0.03
615.497	-0.01
615.686	-0.04
615.875	-0.03
616.063	-0.02
616.252	-0
616.44	-0.03
616.629	-0.03
616.818	0.04
617.006	-0.01
617.195	-0.01
617.383	0.03
617.572	-0
617.76	0
617.949	-0.03
618.137	0.03
618.326	0.03
618.514	-0.01
618.703	-0.04
618.891	0.03
619.079	-0.08
619.268	0.02
619.456	-0.04
619.644	0.03
619.833	0.01
620.021	-0.04
620.209	-0.05
620.398	0.02
620.586	-0.03
620.774	-0
620.962	0
621.151	0.03
621.339	-0.02
621.527	-0.04
621.715	-0.04
621.903	-0.02
622.092	-0.05
622.28	0.02
622.468	-0.04
622.656	0.02
622.844	0.03
623.032	-0.06
623.22	-0.05
623.408	0.02
623.596	0.01
623.784	0.01
623.972	-0.05
624.16	-0.03
624.348	0.04
624.536	-0.02
624.724	-0.03
624.912	0.06
625.1	0.03
625.288	-0.04
625.476	-0.04
625.664	-0
625.851	-0.02
626.039	-0
626.227	0.01
626.415	-0.01
626.603	-0.07
626.79	-0.03
626.978	-0.02
627.166	0.02
627.354	-0.03
627.541	-0.06
627.729	-0.09
627.917	0.02
628.104	0.05
628.292	-0
628.48	0.03
628.667	0.02
628.855	0.01
629.042	0.03
629.23	-0.01
629.418	-0.04
629.605	-0.06
629.793	-0.02
629.98	-0.06
630.168	-0
630.355	-0.01
630.543	-0.01
630.73	-0.02
630.917	0.03
631.105	0.07
631.292	-0.04
631.48	-0.02
631.667	0.06
631.854	0.01
632.042	-0.04
632.229	-0.04
632.416	-0.03
632.604	-0.03
632.791	-0.02
632.978	0.04
633.165	-0.02
633.353	0.07
633.54	0.02
633.727	-0.06
633.914	-0.05
634.101	-0.07
634.289	0.01
634.476	-0.06
634.663	-0.05
634.85	0.01
635.037	-0.06
635.224	-0.08
635.411	0.04
635.598	0.05
635.785	-0
635.972	-0.03
636.159	0.01
636.346	-0.05
636.533	-0.01
636.72	-0.05
636.907	-0.01
637.094	0.03
637.281	-0.02
637.468	0.02
637.655	-0.02
637.842	-0.02
638.029	-0.03
638.215	0.01
638.402	-0.01
638.589	-0.03
638.776	-0.04
638.963	-0.05
639.149	0.02
639.336	0.06
639.523	-0.03
639.709	-0.02
639.896	-0.04
640.083	0.06
640.27	-0.01
640.456	-0.02
640.643	0.01
640.829	-0.06
641.016	-0.02
641.203	-0.05
641.389	0.04
641.576	0.01
641.762	-0.02
641.949	-0.04
642.135	0.02
642.322	-0.01
642.508	-0.04
642.695	-0.02
642.881	-0.05
643.068	-0.01
643.254	0
643.441	0.03
643.627	-0.02
643.813	-0.06
644	0.02
644.186	-0.04
644.372	0.01
644.559	0.02
644.745	-0.02
644.931	-0.02
645.118	-0.03
645.304	-0.01
645.49	-0.04
645.676	-0.04
645.862	-0.02
646.049	0.06
646.235	0
646.421	0.04
646.607	0.04
646.793	-0.03
646.979	-0.07
647.165	-0.01
647.352	0.01
647.538	0.04
647.724	-0.02
647.91	0.03
648.096	0.01
648.282	0.02
648.468	-0.03
648.654	-0.02
648.84	0.01
649.026	-0.03
649.212	-0.01
649.397	-0.06
649.583	-0.05
649.769	-0.01
649.955	-0.02
650.141	0.01
650.327	0.07
650.513	-0.02
650.698	0.03
650.884	-0.12
651.07	0.01
651.256	-0.01
651.442	0.01
651.627	-0.03
651.813	-0.02
651.999	0
652.184	0
652.37	-0
652.556	-0.02
652.741	0.02
652.927	-0.06
653.113	-0.05
653.298	0.02
653.484	-0.03
653.669	-0.06
653.855	-0.01
654.04	0.05
654.226	-0
654.412	-0.03
654.597	-0.04
654.782	0.01
654.968	0.04
655.153	-0.03
655.339	-0.06
655.524	-0.06
655.71	0.02
655.895	-0.03
656.08	-0
656.266	0.02
656.451	0.04
656.636	-0.04
656.822	-0.03
657.007	-0.02
657.192	0.01
657.378	-0.06
657.563	-0
657.748	0
657.933	0.02
658.118	-0.04
658.304	-0.03
658.489	0.04
658.674	-0.02
658.859	-0.04
659.044	-0
659.229	0.01
659.414	-0.03
659.599	-0.01
659.785	-0.08
659.97	-0.02
660.155	-0.01
660.34	0.01
660.525	0
660.71	-0.05
660.895	0.04
661.08	-0.07
661.264	-0.03
661.449	0.04
661.634	0.06
661.819	0.01
662.004	0.03
662.189	-0.09
662.374	-0.02
662.559	-0.04
662.743	-0.06
662.928	0
663.113	-0.04
663.298	-0.07
663.483	-0.02
663.667	0.01
663.852	-0.07
664.037	0.04
664.221	-0.03
664.406	0
664.591	0.02
664.775	-0.03
664.96	-0.03
665.145	-0.02
665.329	0.02
665.514	-0.05
665.698	-0.04
665.883	-0.07
666.068	0.03
666.252	-0.02
666.437	-0.05
666.621	-0.01
666.806	0.03
666.99	-0.04
667.174	-0.06
667.359	0.07
667.543	-0.05
667.728	-0.02
667.912	-0.08
668.096	0.05
668.281	-0.03
668.465	-0.04
668.649	-0.01
668.834	-0.04
669.018	-0.06
669.202	-0.02
669.387	-0.05
669.571	-0.02
669.755	-0.07
669.939	-0
670.124	-0.03
670.308	0.04
670.492	0.01
670.676	-0.01
670.86	-0.03
671.044	-0.02
671.228	0.02
671.413	-0.08
671.597	-0.06
671.781	-0.01
671.965	0.03
672.149	-0.01
672.333	-0.07
672.517	-0.07
672.701	-0.02
672.885	0.01
673.069	-0.05
673.253	0.03
673.437	-0.02
673.621	-0.02
673.804	0
673.988	0.01
674.172	0.01
674.356	-0.04
674.54	-0.02
674.724	0.08
674.908	-0.05
675.091	0.02
675.275	-0.02
675.459	-0
675.643	-0.04
675.826	0.01
676.01	-0.02
676.194	-0.05
676.377	0.04
676.561	0.05
676.745	0.01
676.928	-0.02
677.112	-0.02
677.296	-0.04
677.479	-0.02
677.663	-0.03
677.846	0.01
678.03	-0.01
678.213	-0.01
678.397	0
678.58	-0.04
678.764	-0.05
678.947	-0.01
679.131	-0.04
679.314	0.02
679.498	-0.01
679.681	-0.03
679.865	0.04
680.048	-0.02
680.231	-0.02
680.415	-0.02
680.598	-0.02
680.781	0.04
680.965	-0.01
681.148	-0.01
681.331	0.03
681.514	0.03
681.698	-0.06
681.881	-0.01
682.064	-0.01
682.247	0.02
682.43	-0.05
682.614	0.07
682.797	0.02
682.98	0
683.163	-0.1
683.346	-0.01
683.529	-0.02
683.712	-0.06
683.895	0.01
684.078	-0.07
684.261	-0
684.444	0.02
684.627	0.03
684.81	-0.06
684.993	-0.01
685.176	-0.02
685.359	-0.05
685.542	-0.06
685.725	0.05
685.908	-0.04
686.091	-0.01
686.274	-0
686.457	0.04
686.639	-0.02
686.822	0.06
687.005	0.02
687.188	0.01
687.371	0.09
687.553	0.04
687.736	-0.04
687.919	0.01
688.102	0.06
688.284	0.02
688.467	0.01
688.65	-0.01
688.832	-0.03
689.015	-0.02
689.197	-0.1
689.38	0.07
689.563	0.08
689.745	-0.07
689.928	-0.07
690.11	-0.04
690.293	0.03
690.475	-0.07
690.658	-0.02
690.84	-0
691.023	-0.04
691.205	-0.02
691.388	0.03
691.57	0.03
691.752	0.05
691.935	-0.11
692.117	-0.05
692.3	-0.03
692.482	-0.01
692.664	-0.04
692.847	-0
693.029	0.05
693.211	0.04
693.393	0
693.576	-0.05
693.758	-0
693.94	0.01
694.122	-0.03
694.304	-0.03
694.487	0.02
694.669	0.08
694.851	-0.08
695.033	-0.05
695.215	-0.03
695.397	-0.06
695.579	-0.02
695.761	-0.08
695.943	-0.12
696.125	0.04
696.308	0.04
696.49	-0.12
696.671	0.15
696.853	-0.05
697.035	0.15
697.217	-0.03
697.399	0.02
697.581	-0.02
697.763	-0.02
697.945	-0.04
698.127	-0.03
698.309	0.04
698.491	0.02
698.672	0.03
698.854	0.08
699.036	0.07
699.218	-0.07
699.399	0.05
699.581	0.01
699.763	0.02
699.945	-0.03
700.126	-0.06
700.308	0.02
700.49	-0.01
700.671	-0.15
700.853	-0.02
701.035	-0.03
701.216	0.03
701.398	-0.08
701.579	0
701.761	0.03
701.943	-0.06
702.124	-0.06
702.306	-0.03
702.487	0.14
702.669	-0.04
702.85	-0.06
703.031	-0.09
703.213	0.12
703.394	0.1
703.576	-0.04
703.757	0.1
703.938	0.03
704.12	0.12
704.301	0.04
704.483	-0.07
704.664	0.05
704.845	0.12
705.026	0
705.208	-0
705.389	-0.02
705.57	-0.02
705.751	-0.05
705.933	0.02
706.114	0.07
706.295	-0.02
706.476	-0.07
706.657	0.03
706.838	0.01
707.02	0.04
707.201	-0.04
707.382	-0.07
707.563	0.04
707.744	-0.04
707.925	-0.08
708.106	-0.04
708.287	0.02
708.468	0.15
708.649	-0.03
708.83	0.04
709.011	-0.05
709.192	0.01
709.373	-0.06
709.554	0.02
709.734	-0.03
709.915	0.04
710.096	-0.03
710.277	-0.18
710.458	0
710.639	0.04
710.819	-0.06
711	-0.05
711.181	0.03
711.362	0.07
711.542	-0.02
711.723	-0.01
711.904	0.09
712.085	-0.01
712.265	0.07
712.446	-0.11
712.627	-0.03
712.807	0.07
712.988	0
713.168	-0.14
713.349	0
713.53	-0.12
713.71	-0.05
713.891	-0.07
714.071	-0.02
714.252	-0.05
714.432	-0.03
714.613	-0.11
714.793	0
714.974	0.06
715.154	0.03
715.334	0.05
715.515	0.14
715.695	-0.1
715.876	-0.05
716.056	0.02
716.236	-0.08
716.417	-0.07
716.597	-0.04
716.777	0.16
716.957	-0.03
717.138	0.05
717.318	-0.05
717.498	-0.14
717.678	0.03
717.859	-0
718.039	-0.12
718.219	-0.04
718.399	0.05
718.579	-0.06
718.759	-0.06
718.939	0.07
719.12	0.04
719.3	0
719.48	-0.17
719.66	-0.13
719.84	0.08
720.02	0.07
720.2	-0.02
720.38	-0.01
720.56	0.08
720.74	-0.07
720.92	0.06
721.1	0.07
721.279	0.08
721.459	0.03
721.639	-0.11
721.819	-0.01
721.999	0
722.179	0.05
722.359	-0.08
722.538	0.02
722.718	0.07
722.898	-0.06
723.078	0.03
723.257	-0.05
723.437	0.02
723.617	0.04
723.797	-0.03
723.976	-0.01
724.156	-0.02
724.336	0.06
724.515	0.16
724.695	-0.17
724.874	-0.04
725.054	0.09
725.234	-0.1
725.413	0.02
725.593	0.01
725.772	0.01
725.952	-0.01
726.131	0.02
726.311	-0
726.49	0
726.67	-0.1
726.849	-0.09
727.028	0.07
727.208	-0
727.387	0
727.567	-0.06
727.746	0.04
727.925	-0.02
728.105	-0.16
728.284	-0.08
728.463	-0.11
728.643	0.05
728.822	-0.14
729.001	-0.04
729.18	0
729.359	0.04
729.539	-0.02
729.718	-0.01
729.897	0.05
730.076	-0.01
730.255	-0.09
730.434	-0.08
730.614	0.01
730.793	0.04
730.972	-0.05
731.151	-0.03
731.33	0.07
731.509	0.06
731.688	0.02
731.867	-0.01
732.046	-0.18
732.225	0.24
732.404	-0.09
732.583	-0.03
732.762	0.03
732.941	-0.02
733.12	0.08
733.298	-0.07
733.477	0.08
733.656	-0.05
733.835	-0.11
734.014	-0.01
734.193	-0.05
734.371	0.06
734.55	0.04
734.729	-0.14
734.908	-0.01
735.086	-0.02
735.265	0.06
735.444	-0.12
735.623	-0.11
735.801	-0.17
735.98	-0.01
736.159	-0.11
736.337	0.08
736.516	0.1
736.694	0.07
736.873	-0.05
737.052	0.05
737.23	0.09
737.409	-0.06
737.587	0.1
737.766	-0.28
737.944	-0.12
738.123	-0.02
738.301	-0.02
738.479	0.02
738.658	0.04
738.836	-0.18
739.015	-0.13
739.193	0.17
739.371	-0.15
739.55	0.01
739.728	-0.02
739.906	0.11
740.085	0.11
740.263	-0.02
740.441	-0.25
740.62	0.24
740.798	0.02
740.976	-0.08
741.154	-0.08
741.332	0.16
741.511	-0.04
741.689	-0.01
741.867	0.13
742.045	0.12
742.223	0.02
742.401	-0.15
742.579	-0.03
742.757	-0.03
742.935	-0.19
743.114	-0.14
743.292	-0.04
743.47	-0.03
743.648	-0.03
743.826	-0.03
744.004	-0
744.181	0.08
744.359	-0.06
744.537	0.06
744.715	0.05
744.893	-0.01
745.071	-0.01
745.249	-0.03
745.427	-0.08
745.605	0.12
745.782	-0.01
745.96	0.13
746.138	0.01
746.316	0.07
746.493	-0.03
746.671	0.02
746.849	-0.08
747.027	0.1
747.204	-0.08
747.382	-0.01
747.56	-0.13
747.737	0.04
747.915	-0.09
748.093	0.01
748.27	-0.08
748.448	-0.01
748.625	-0.16
748.803	-0.01
748.98	-0.14
749.158	0.03
749.335	0.02
749.513	-0.01
749.69	-0.1
749.868	0.04
750.045	0.03
750.223	-0.08
750.4	-0.19
750.578	0.17
750.755	-0.12
750.932	-0.13
751.11	0.09
751.287	-0.22
751.464	0.11
751.642	-0.16
751.819	0.08
751.996	-0.01
752.173	-0.03
752.351	-0.17
752.528	0.01
752.705	-0.07
752.882	-0.04
753.06	0.03
753.237	0.09
753.414	0.06
753.591	0.29
753.768	0.01
753.945	-0.11
754.122	-0.09
754.299	0.21
754.476	-0.06
754.654	0.07
754.831	0.07
755.008	0.1
755.185	-0.08
755.362	-0.09
755.539	-0.01
755.716	-0.08
755.892	0.07
756.069	-0.01
756.246	-0.16
756.423	-0
756.6	0.14
756.777	-0.09
756.954	0.11
757.131	-0.01
757.307	-0.05
757.484	-0.15
757.661	0
757.838	0.02
758.015	-0.15
758.191	0.1
758.368	-0.01
758.545	0.16
758.721	0
758.898	-0.14
759.075	0.08
759.251	0.06
759.428	-0.01
759.605	-0.14
759.781	-0.03
759.958	0.04
760.134	0.09
760.311	-0.16
760.488	0.08
760.664	0.18
760.841	-0.06
761.017	-0.15
761.194	0.06
761.37	0.15
761.547	-0.01
761.723	-0.01
761.899	0.16
762.076	-0.06
762.252	-0.13
762.429	-0.01
762.605	0.17
762.781	-0.02
762.958	0.09
763.134	0.01
763.31	-0.09
763.486	0.32
763.663	-0.24
763.839	0.02
764.015	-0.14
764.191	-0.08
764.368	-0
764.544	-0.1
764.72	0.07
764.896	0.01
765.072	0.12
765.248	-0.1
765.425	-0.01
765.601	-0.01
765.777	0.05
765.953	-0.24
766.129	0.01
766.305	-0.02
766.481	0.09
766.657	0.08
766.833	0.15
767.009	-0.17
767.185	-0.08
767.361	0.02
767.537	-0.16
767.713	0.23
767.889	-0.1
768.065	-0.04
768.24	0.13
768.416	0.16
768.592	-0.09
768.768	-0.01
768.944	0.12
769.12	-0.27
769.295	-0.09
769.471	-0
769.647	-0.07
769.823	0.01
769.998	0
770.174	-0.05
770.35	0.29
770.525	0.22
770.701	-0
770.877	0.07
771.052	-0.11
771.228	0.13
771.403	-0.04
771.579	-0.09
771.755	0.22
771.93	-0.01
772.106	-0.15
772.281	-0.12
772.457	0.1
772.632	0.06
772.808	-0.11
772.983	0.02
773.159	-0.22
773.334	0.18
773.509	0.03
773.685	-0.13
773.86	0.53
774.036	0.16
774.211	-0.1
774.386	-0.04
774.562	0.08
774.737	0.05
774.912	-0.27
775.087	0.03
775.263	0.02
775.438	0.08
775.613	-0.15
775.788	-0.03
775.964	0.08
776.139	0.36
776.314	-0.25
776.489	0.06
776.664	0.03
776.839	-0.12
777.014	0.21
777.19	0.12
777.365	0.07
777.54	0.19
777.715	-0.1
777.89	-0.07
778.065	-0.09
778.24	0.07
778.415	0.1
778.59	-0.11
778.765	-0.01
778.94	-0.06
779.115	-0.19
779.289	-0.14
779.464	-0.03
779.639	-0.03
779.814	-0.21
779.989	-0.2
780.164	0.16
780.339	0.09
780.513	-0.09
780.688	-0.21
780.863	-0.17
781.038	0.13
781.212	-0.21
781.387	-0.06
781.562	0.29
781.737	-0.09
781.911	0.2
782.086	-0.12
782.261	-0.13
782.435	0.37
782.61	-0.01
782.784	-0.11
782.959	0.1
783.134	-0.09
783.308	-0.21
783.483	-0.08
783.657	0.36
783.832	0.18
784.006	-0.32
784.181	-0.19
784.355	0.24
784.53	-0.29
784.704	-0.1
784.878	0.24
785.053	0.05
785.227	0.15
785.402	0.4
785.576	-0.29
785.75	-0.01
785.925	-0.08
786.099	0.07
786.273	0.06
786.448	0.12
786.622	0.01
786.796	0.02
786.97	-0.17
787.145	0.52
787.319	-0.15
787.493	-0.15
787.667	-0.43
787.841	-0.05
788.015	0.09
788.19	-0.01
788.364	0.2
788.538	0.37
788.712	0.34
788.886	-0.15
789.06	0.38
789.234	0.14
789.408	-0.26
789.582	-0.26
789.756	-0.11
789.93	0.01
790.104	0.01
790.278	0.05
790.452	-0.2
790.626	0.1
790.8	-0.06
790.973	0.13
791.147	0.29
791.321	0.1
791.495	0.12
791.669	0.04
791.843	-0.04
792.016	-0.12
792.19	0.62
792.364	-0.25
792.538	0.46
792.711	0.16
792.885	-0.28
793.059	-0.32
793.233	-0.44
793.406	0.27
793.58	-0
793.754	0.09
793.927	-0.06
794.101	0.41
794.274	-0.1
794.448	0.34
794.622	-0.55
794.795	0.11
794.969	-0.05
795.142	0.34
795.316	-0.33
795.489	-0.2
795.663	0.27
795.836	-0.12
796.009	-0.23
796.183	0.23
796.356	0.2
796.53	-0.08
796.703	-0.17
796.876	0.6
797.05	-0.01
797.223	-0.07
797.396	0.17
797.57	-0.05
797.743	0.66
797.916	-0.15
798.09	0.01
798.263	0.15
798.436	0.12
798.609	-0.07
798.782	-0.13
798.956	0.13
799.129	-0.14
799.302	-0.07
799.475	-0.34
799.648	0.03
799.821	-0.47
799.994	-0.02
800.167	-0.33
800.34	0.01
800.514	0.04
800.687	-0.02
800.86	-0.04
801.033	-0.02
801.206	0.11
801.379	-0.46
801.551	0.02
801.724	0.4
801.897	0.67
802.07	0
802.243	-0.5
802.416	-0.24
802.589	-0.09
802.762	0.15
802.935	-0.07
803.107	-0.03
803.28	0.4
803.453	0.26
803.626	-0.03
803.798	0.02
803.971	-0.21
804.144	-0.01
804.317	-0.06
804.489	0.34
804.662	0.17
804.835	0.11
805.007	-0.17
805.18	0.59
805.353	0.07
805.525	-0.48
805.698	-0.32
805.87	0.2
806.043	0
806.215	-0.2
806.388	0.02
806.56	0.14
806.733	0.32
806.905	0.07
807.078	-0.29
807.25	-0.04
807.423	0.24
807.595	0.1
807.768	-0.03
807.94	0.49
808.112	0.49
808.285	-0.05
808.457	-0.21
808.629	0.04
808.802	0.28
808.974	0.14
809.146	-0.21
809.318	-0.14
809.491	0.12
809.663	0.41
809.835	-0.06
810.007	0.18
810.18	0.09
810.352	-0.33
810.524	-0.23
810.696	0.29
810.868	0.49
811.04	-0.39
811.212	-0.01
811.384	0.3
811.556	0.38
811.728	0.1
811.901	0.81
812.073	0.26
812.245	0.27
812.417	0.1
812.589	-0.58
812.76	-0.03
812.932	0.42
813.104	0.04
813.276	0.08
813.448	0.36
813.62	0.12
813.792	0.04
813.964	-0.03
814.136	0.4
814.307	-0.06
814.479	-0.2
814.651	-0.35
814.823	0.61
814.995	-0.04
815.166	0.25
815.338	0.01
815.51	-0.75
815.681	1.01
815.853	-0.07
816.025	-0.52
816.196	0.3
816.368	0.09
816.54	-0.33
816.711	-0.43
816.883	-0.27
817.054	1.37
817.226	-0.38
817.398	-0.07
817.569	0.05
817.741	0.43
817.912	0.14
818.084	-0.13
818.255	0.01
818.426	-0.04
818.598	0.3
818.769	-0.07
818.941	0.41
819.112	0.59
819.283	0.09
819.455	-0.2
819.626	0.08
819.798	0.27
819.969	0.32
820.14	-0.07
820.311	-0.36
820.483	-0.12
820.654	-0.09
820.825	0.16
820.996	0.08
821.168	-0.21
821.339	0.11
821.51	-0.33
821.681	-0.43
821.852	0.26
822.023	-0.3
822.195	-0.99
822.366	0.26
822.537	0.12
822.708	0.16
822.879	-0.44
823.05	0.84
823.221	0.49
823.392	0.23
823.563	-0.26
823.734	-0.11
823.905	-0.2
824.076	-0.42
824.247	-0.17
824.418	-0.48
824.589	0.54
824.759	-0.14
824.93	-0.4
825.101	-0.24
825.272	0.49
825.443	0.28
825.614	0.74
825.784	-1.08
825.955	1.06
826.126	0.58
826.297	0.05
826.467	0.59
826.638	0.77
826.809	-1.2
826.98	0.57
827.15	-0.18
827.321	0.16
827.492	0.83
827.662	-0.14
827.833	1.19
828.003	0.29
828.174	-0.08
828.345	-1.01
828.515	0.42
828.686	0.31
828.856	0.16
829.027	0.25
829.197	0.09
829.368	0.12
829.538	-0.57
829.709	-0.34
829.879	0.05
830.049	0.46
830.22	-0.33
830.39	-0.37
830.56	0.96
830.731	-0.13
830.901	-0.66
831.072	-0.24
831.242	0.12
831.412	0.38
831.582	-0.25
831.753	-0.77
831.923	0.43
832.093	0.48
832.263	-0.21
832.434	-0.43
832.604	-0.92
832.774	0.55
832.944	-0.1
833.114	-0.19
833.284	0.14
833.454	-0.43
833.624	-0.7
833.795	0.01
833.965	0.62
834.135	0.69
834.305	-0.97
834.475	-0.83
834.645	-0.2
834.815	-0.17
834.985	-0.67
835.155	-0.4
835.325	0.18
835.494	0.49
835.664	-0.4
835.834	0.1
836.004	0.32
836.174	0.01
836.344	0.34
836.514	-1.54
836.684	-0.05
836.853	0.39
837.023	0.12
837.193	-0.01
837.363	1.43
837.532	0.44
837.702	-0.4
837.872	-0.16
838.041	0.1
838.211	1.13
838.381	-0.8
838.55	-0.13
838.72	2
838.89	1.46
839.059	-0.52
839.229	-0.61
839.398	1.86
839.568	0.23
839.738	0.05
839.907	0.77
840.077	0.76
840.246	-0.72
840.416	-0.91
840.585	-0.97
840.755	0.89
840.924	1.26
841.093	-0.42
841.263	-0.45
841.432	0.43
841.602	-0.25
841.771	-0.76
841.94	-0.15
842.11	1.99
842.279	0.82
842.448	-0.96
842.617	-0.61
842.787	1.3
842.956	-1.17
843.125	-0.16
843.294	0.23
843.464	0.89
843.633	-0.33
843.802	-0.79
843.971	-0.19
844.14	0.03
844.309	0.09
844.479	-0.84
844.648	-1
844.817	-0.61
844.986	0.29
845.155	-0.44
845.324	-0.38
845.493	-0.39
845.662	-0.49
845.831	0.69
846	0.95
846.169	-0.44
846.338	1.55
846.507	0.15
846.676	0.97
846.844	-0.74
847.013	0.16
847.182	0.36
847.351	-0.3
847.52	0.25
847.689	1.23
847.858	-0.39
848.026	-0.96
848.195	-0.4
848.364	0.5
848.533	-0.4
848.701	-1.04
848.87	-0.06
849.039	1.21
849.207	0.72
849.376	1.54
849.545	0.74
849.713	-0.36
849.882	-0.72
850.051	-0.93
850.219	-0.14
850.388	0.71
850.556	-1.14
850.725	-0.94
850.893	0.44
851.062	-0.21
851.23	0.28
851.399	-1.26
851.567	-0.08
851.736	0.06
851.904	-1.53
852.073	-0.45
852.241	1.29
852.41	0.41
852.578	-0.64
852.746	0
852.915	0.42
853.083	-0.95
853.251	-1.39
853.42	-0.47
853.588	-0.54
853.756	1.17
853.924	-0.71
854.093	-1.17
854.261	0.21
854.429	-1.87
854.597	1
854.765	-1.87
854.934	0.02
855.102	1.43
855.27	0.62
855.438	0.09
855.606	1.44
855.774	1.02
855.942	-1.87
856.11	-1.69
856.278	-0.01
856.446	1.46
856.614	0.3
856.782	-0.91
856.95	0.93
857.118	1.21
857.286	1.09
857.454	-0.81
857.622	2.09
857.79	-0.09
857.958	-1.4
858.126	-1.28
858.294	-2.44
858.462	0.37
858.629	-0.84
858.797	-1.17
858.965	-0.01
859.133	-0.62
859.301	0.56
859.468	0.1
859.636	-0.14
859.804	1.3
859.971	1.38
860.139	-1.88
860.307	1.18
860.474	0.82
860.642	-1.07
860.81	-0.13
860.977	-0.55
861.145	2.98
861.313	0.6
861.48	-0.17
861.648	0.79
861.815	0.52
861.983	-1.33
862.15	-0.52
862.318	1.94
862.485	1.33
862.653	-1.41
862.82	-1.46
862.988	3.73
863.155	0.62
863.322	-0.94
863.49	-2.85
863.657	-1.54
863.824	2.09
863.992	-0.33
864.159	0.47
864.326	0.24
864.494	-0.36
864.661	2.81
864.828	-1.86
864.996	1.4
865.163	0.85
865.33	-0.03
865.497	-2.51
865.664	-1.26
865.832	-1.69
865.999	-0.3
866.166	-1.89
866.333	0.42
866.5	0.29
866.667	-0.81
866.834	-0.82
867.001	1.05
867.168	-1.83
867.335	0.18
867.502	-1.35
867.669	-1.66
867.836	3.83
868.003	-0.38
868.17	0.43
868.337	-1.31
868.504	2.26
868.671	-1.32
868.838	-0.98
869.005	-1.06
869.172	0.89
869.339	0.24
869.505	-0.79
869.672	-0.03
869.839	2.22
870.006	-0.44
870.173	-1.4
870.339	0.46
870.506	4.49
870.673	-1.48
870.84	1.8
871.006	-0.06
871.173	-0.92
871.34	0.42
871.506	-1.52
871.673	0.91
871.839	-1.43
872.006	0.12
872.173	-1.07
872.339	-0.11
872.506	1.58
872.672	-0.73
872.839	-2.14
873.005	0.57
873.172	2
873.338	2.34
873.505	0.15
873.671	0.05
873.838	1.6
874.004	-2.67
874.171	-1.52
874.337	1.41
874.503	3.1
874.67	-0.08
874.836	-0.74
875.002	1.64
875.169	-0.03
875.335	-0.4
875.501	0.48
875.668	0.83
875.834	0.39
876	-0.85
876.166	0.63
876.332	0.4
876.499	2.73
876.665	0.18
876.831	0.93
876.997	4.43
877.163	0.63
877.329	-1.02
877.495	-0.56
877.662	0.24
877.828	0.61
877.994	-0.31
878.16	-0.99
878.326	-0.09
878.492	-0.77
878.658	-2.07
878.824	0.78
878.99	-0.2
879.156	-2.55
879.322	3.74
879.487	-1.45
879.653	0.41
879.819	0.58
879.985	-2.43
880.151	-0.22
880.317	1.12
880.483	-0.15
880.648	2.24
880.814	-1.96
880.98	0.23
881.146	-1.95
881.312	-2.43
881.477	-0.11
881.643	0.21
881.809	1.4
881.974	1.15
882.14	-1.42
882.306	0.7
882.471	3.36
882.637	-0.67
882.803	1.43
882.968	3.76
883.134	3.41
883.299	-1.57
883.465	0.94
883.63	1.91
883.796	2.04
883.961	0.15
884.127	0.86
884.292	-2.8
884.458	-1.51
884.623	-1.51
