Data from Apollo_Calib_20240827__AbsoluteIrradiance__55__00-04-02-546.txt Node

Date: Wed Aug 28 00:04:02 BST 2024
User: biology
Spectrometer: FLMT08252
Trigger mode: 0
Integration Time (sec): 5.000000E-1
Scans to average: 5
Electric dark correction enabled: true
Nonlinearity correction enabled: false
Boxcar width: 0
XAxis mode: Wavelengths
Number of Pixels in Spectrum: 3648
>>>>>Begin Spectral Data<<<<<
179.588	-0
179.809	-0
180.03	-0
180.251	-0
180.473	-0
180.694	0
180.915	0
181.136	-0
181.357	-0
181.578	0
181.799	0
182.02	-0
182.241	0
182.462	-0
182.683	0
182.904	-0
183.125	-0
183.346	0
183.567	0
183.788	-0
184.009	-0
184.23	0
184.451	0
184.672	-0
184.892	-0
185.113	0
185.334	0
185.555	-0
185.776	-0
185.996	0
186.217	0
186.438	-0
186.659	-0
186.879	0
187.1	-0
187.321	-0
187.541	-0
187.762	-0
187.983	0
188.203	-0
188.424	-0
188.644	-0
188.865	-0
189.086	-0
189.306	-0
189.527	-0
189.747	-0
189.968	-0
190.188	0
190.409	-0
190.629	0
190.849	-0
191.07	-0
191.29	0
191.511	-0
191.731	-0
191.951	-0
192.172	0
192.392	-0
192.612	-0
192.833	-0
193.053	-0
193.273	0
193.493	-0
193.714	-0
193.934	0
194.154	0
194.374	-0
194.594	0
194.815	-0
195.035	0
195.255	-0
195.475	-0
195.695	0
195.915	0
196.135	-0
196.355	0
196.575	0
196.795	0
197.015	-0
197.235	-0
197.455	-0
197.675	0
197.895	-0
198.115	-0
198.335	0
198.555	-0
198.775	0
198.995	0
199.214	0
199.434	-0
199.654	-0
199.874	-0
200.094	0.8
200.313	-0.37
200.533	-0.18
200.753	-0.91
200.973	0.55
201.192	0.04
201.412	-1.16
201.632	-0.76
201.851	0.83
202.071	-0.55
202.291	-0.66
202.51	-0.47
202.73	0
202.95	-0.38
203.169	-0.54
203.389	-0.5
203.608	0.19
203.828	-0.36
204.047	-0.81
204.267	0.13
204.486	-0
204.706	0.13
204.925	-0.48
205.145	-0.35
205.364	0.1
205.583	0.68
205.803	-0.45
206.022	-0.45
206.242	0.02
206.461	-0.17
206.68	-0.47
206.9	-0.21
207.119	0.46
207.338	0.46
207.557	-0.14
207.777	-0.38
207.996	-0.2
208.215	0.34
208.434	-0.3
208.654	-0.77
208.873	-0.21
209.092	0.45
209.311	-0.34
209.53	-0.24
209.749	-0.12
209.968	-0.38
210.187	-0.25
210.407	-0.42
210.626	-0.26
210.845	0.03
211.064	-0.11
211.283	-0.29
211.502	0.05
211.721	-0.11
211.94	-0.24
212.159	0.06
212.377	0.18
212.596	0.08
212.815	0.07
213.034	-0.13
213.253	0.06
213.472	0.23
213.691	-0.32
213.91	-0.24
214.128	-0.16
214.347	0.1
214.566	-0.48
214.785	-0.52
215.003	0.17
215.222	-0.01
215.441	-0.07
215.66	-0.37
215.878	-0.09
216.097	0.1
216.316	-0.26
216.534	-0.24
216.753	-0.2
216.972	-0.06
217.19	-0.07
217.409	-0.18
217.627	-0.37
217.846	-0.01
218.064	-0.07
218.283	-0.09
218.501	0.22
218.72	0.2
218.938	-0.1
219.157	-0.17
219.375	0.11
219.594	-0.12
219.812	-0.2
220.031	-0.27
220.249	0.15
220.467	0.25
220.686	-0.11
220.904	-0.3
221.122	-0.06
221.341	0.41
221.559	0.09
221.777	-0.23
221.995	0.03
222.214	-0.03
222.432	-0.1
222.65	0.1
222.868	0.02
223.086	0.07
223.305	0.16
223.523	-0.13
223.741	0.12
223.959	0.03
224.177	-0.26
224.395	-0.09
224.613	0.06
224.831	0.12
225.049	-0.16
225.267	-0.05
225.485	0.01
225.703	-0.01
225.921	-0.05
226.139	-0.12
226.357	0.05
226.575	0.02
226.793	-0.19
227.011	0.56
227.229	-0.13
227.447	0.06
227.665	-0.03
227.883	-0.22
228.1	-0.09
228.318	0.04
228.536	-0.3
228.754	-0.18
228.972	0.07
229.189	0.22
229.407	-0.16
229.625	-0.02
229.843	0.06
230.06	0.06
230.278	-0.13
230.496	-0.07
230.713	-0.02
230.931	0.12
231.149	-0.13
231.366	-0.3
231.584	-0.06
231.801	0.21
232.019	-0.08
232.236	-0.24
232.454	-0.05
232.671	0.06
232.889	-0.13
233.106	-0.22
233.324	0.02
233.541	-0.15
233.759	0
233.976	-0.11
234.194	-0.08
234.411	-0.02
234.628	-0.11
234.846	-0.12
235.063	-0.02
235.28	-0.04
235.498	-0.05
235.715	-0.15
235.932	0.09
236.149	-0.04
236.367	-0.12
236.584	-0.01
236.801	-0.11
237.018	0.11
237.236	0.05
237.453	-0.24
237.67	-0.03
237.887	-0.1
238.104	-0.08
238.321	-0.22
238.538	-0.16
238.755	0.07
238.973	-0.14
239.19	-0.05
239.407	0.03
239.624	-0.01
239.841	-0.15
240.058	-0.06
240.275	0.04
240.492	0.01
240.709	-0.08
240.925	-0.13
241.142	-0.07
241.359	-0.12
241.576	-0.1
241.793	-0.14
242.01	-0.04
242.227	0.16
242.444	0.05
242.66	0.01
242.877	0.01
243.094	-0.11
243.311	0.03
243.527	-0.07
243.744	-0.01
243.961	-0.02
244.178	-0.1
244.394	-0.05
244.611	0.05
244.828	0.21
245.044	-0.15
245.261	-0.07
245.477	0.05
245.694	0.01
245.911	-0.12
246.127	0.04
246.344	0.18
246.56	0.11
246.777	-0.18
246.993	-0.08
247.21	-0.04
247.426	0.17
247.643	-0.09
247.859	-0.12
248.076	-0.03
248.292	0.15
248.508	-0.06
248.725	0.08
248.941	-0.04
249.157	0
249.374	-0.13
249.59	-0.04
249.806	-0.03
250.023	0.02
250.239	-0.14
250.455	-0.09
250.671	-0.03
250.888	0.01
251.104	0.11
251.32	-0.09
251.536	-0.08
251.752	0.02
251.969	0.03
252.185	0.04
252.401	0.17
252.617	0.02
252.833	-0.09
253.049	0.02
253.265	-0.03
253.481	-0.01
253.697	-0.06
253.913	-0.06
254.129	-0.04
254.345	-0.01
254.561	0.04
254.777	-0.03
254.993	0.06
255.209	-0.01
255.425	0
255.641	-0.11
255.857	-0
256.073	0.04
256.288	-0.14
256.504	-0.08
256.72	-0.05
256.936	0.18
257.152	-0.02
257.367	-0.08
257.583	-0.02
257.799	-0
258.015	-0.07
258.23	-0.1
258.446	0.1
258.662	-0.01
258.877	-0.06
259.093	-0.12
259.309	-0.01
259.524	0.04
259.74	-0.07
259.955	-0.09
260.171	-0.03
260.387	0
260.602	0.04
260.818	-0.02
261.033	-0.07
261.249	-0.09
261.464	-0.1
261.68	-0.11
261.895	-0.03
262.11	0.06
262.326	-0.08
262.541	-0.09
262.757	0.08
262.972	-0.03
263.187	0.06
263.403	-0
263.618	0.09
263.833	0.07
264.049	-0.07
264.264	0.01
264.479	0.08
264.694	0.04
264.91	-0.12
265.125	-0.06
265.34	0.06
265.555	0.13
265.77	-0.05
265.986	-0.02
266.201	0.04
266.416	0.04
266.631	-0.04
266.846	0.03
267.061	0.02
267.276	0.09
267.491	-0.22
267.706	-0
267.921	0.01
268.136	0.05
268.351	-0.01
268.566	-0.13
268.781	0.08
268.996	-0.03
269.211	-0.03
269.426	-0.06
269.641	-0.05
269.856	-0.03
270.071	-0.1
270.285	-0.03
270.5	0.01
270.715	0.08
270.93	-0.03
271.145	-0
271.359	0.02
271.574	0
271.789	-0.02
272.004	-0.02
272.218	-0.04
272.433	0.08
272.648	-0.04
272.862	0.06
273.077	-0.05
273.292	-0
273.506	-0.08
273.721	-0.04
273.936	0.04
274.15	0.07
274.365	-0.06
274.579	0.04
274.794	-0.01
275.008	0.03
275.223	-0.14
275.437	-0.05
275.652	0.12
275.866	0.05
276.081	-0.03
276.295	0.08
276.509	0.01
276.724	-0.03
276.938	-0.02
277.153	0
277.367	-0.01
277.581	-0.1
277.796	-0.01
278.01	-0.05
278.224	0.03
278.438	0.12
278.653	-0.02
278.867	-0.11
279.081	0.03
279.295	-0.02
279.51	0.01
279.724	-0.12
279.938	0.05
280.152	-0.02
280.366	-0.07
280.58	-0.03
280.794	0.07
281.008	0.03
281.222	0.1
281.437	0.1
281.651	0.05
281.865	0.07
282.079	-0.06
282.293	-0.1
282.507	-0.03
282.721	-0.02
282.935	-0.02
283.148	-0.13
283.362	-0.03
283.576	-0.1
283.79	-0.04
284.004	-0.07
284.218	0.04
284.432	-0.1
284.646	-0.01
284.859	-0.05
285.073	-0.01
285.287	-0.02
285.501	-0.02
285.714	-0.08
285.928	-0.04
286.142	-0.03
286.356	-0.08
286.569	-0.06
286.783	0.09
286.997	0.04
287.21	0.01
287.424	0.01
287.637	0.02
287.851	-0
288.065	0.01
288.278	-0.04
288.492	-0.02
288.705	-0.01
288.919	0.02
289.132	-0.12
289.346	0.07
289.559	-0.08
289.773	-0.07
289.986	-0.01
290.2	-0.01
290.413	0.02
290.626	-0.01
290.84	-0.05
291.053	0.01
291.267	0.11
291.48	-0
291.693	0.01
291.906	-0.01
292.12	-0.05
292.333	-0.03
292.546	-0.04
292.76	0.07
292.973	-0.02
293.186	0.05
293.399	-0.01
293.612	0.02
293.826	-0.02
294.039	0
294.252	-0.03
294.465	0.02
294.678	0.04
294.891	-0.01
295.104	-0.05
295.317	0
295.53	0.02
295.743	-0
295.956	0.01
296.169	0.07
296.382	0.03
296.595	0.01
296.808	-0.05
297.021	0.01
297.234	0.04
297.447	0
297.66	-0.01
297.873	-0
298.086	0.04
298.299	-0.08
298.511	-0.05
298.724	0.05
298.937	-0.07
299.15	-0.01
299.363	0
299.575	0.02
299.788	0.06
300.001	0.01
300.213	-0.02
300.426	-0.04
300.639	-0.04
300.852	-0.02
301.064	0.02
301.277	0.08
301.489	0.06
301.702	-0.05
301.915	0.01
302.127	-0.02
302.34	0.02
302.552	0.02
302.765	-0.07
302.977	0.06
303.19	-0.07
303.402	-0.02
303.615	0.02
303.827	-0.02
304.04	-0.02
304.252	0.02
304.464	-0.03
304.677	0.07
304.889	0.05
305.102	-0.04
305.314	-0.01
305.526	0.02
305.739	0.04
305.951	-0.04
306.163	-0
306.375	0.08
306.588	-0.08
306.8	-0.01
307.012	-0.06
307.224	-0.04
307.436	0.07
307.649	-0.04
307.861	0.04
308.073	0.04
308.285	-0.04
308.497	-0.05
308.709	-0.01
308.921	0.02
309.133	0.06
309.346	-0.01
309.558	-0.03
309.77	0.02
309.982	0.06
310.194	0.04
310.406	-0.04
310.617	0.08
310.829	0.04
311.041	0
311.253	-0.07
311.465	0
311.677	0.01
311.889	0.03
312.101	-0.04
312.313	0.09
312.524	0.07
312.736	-0.01
312.948	-0.04
313.16	0.06
313.372	0.04
313.583	0.02
313.795	-0.01
314.007	-0.02
314.218	0.02
314.43	0.03
314.642	-0.04
314.853	-0.08
315.065	-0
315.277	-0
315.488	-0
315.7	0.12
315.912	-0.02
316.123	-0.03
316.335	0.01
316.546	0.07
316.758	-0
316.969	-0.01
317.181	0.01
317.392	0.01
317.604	0.03
317.815	-0.04
318.026	-0.07
318.238	-0
318.449	0.01
318.661	-0.06
318.872	-0.08
319.083	-0.07
319.295	0.02
319.506	-0
319.717	-0.01
319.929	0.03
320.14	-0.02
320.351	0.01
320.562	-0.02
320.774	0.03
320.985	-0.01
321.196	-0.04
321.407	-0.07
321.618	-0
321.829	-0.02
322.041	0.02
322.252	-0.02
322.463	0.05
322.674	-0.02
322.885	-0.07
323.096	-0.02
323.307	-0.01
323.518	-0.02
323.729	-0.05
323.94	-0.04
324.151	-0.01
324.362	-0.03
324.573	-0.01
324.784	-0.07
324.995	0.04
325.206	0.01
325.417	-0.02
325.628	-0.02
325.838	0.02
326.049	0.03
326.26	0.02
326.471	-0.03
326.682	0.01
326.892	-0
327.103	-0.03
327.314	-0.02
327.525	0.04
327.735	-0.03
327.946	0.02
328.157	-0.01
328.368	0.05
328.578	-0.03
328.789	0.06
328.999	-0.04
329.21	0.03
329.421	0.03
329.631	-0.02
329.842	-0.02
330.052	0.01
330.263	0.02
330.473	0.02
330.684	-0.01
330.894	-0.02
331.105	0.03
331.315	-0.03
331.526	-0.07
331.736	0.06
331.947	0.02
332.157	0.02
332.367	-0.07
332.578	-0.01
332.788	0.11
332.999	0.05
333.209	0.01
333.419	-0.03
333.629	0.02
333.84	0.01
334.05	0
334.26	0.03
334.47	-0.02
334.681	0.05
334.891	-0.05
335.101	0.05
335.311	0.08
335.521	-0
335.732	-0.08
335.942	0.06
336.152	-0.02
336.362	0.03
336.572	-0.02
336.782	0
336.992	-0.03
337.202	-0.02
337.412	-0.08
337.622	-0.01
337.832	0.02
338.042	-0.02
338.252	-0.02
338.462	-0.03
338.672	0.01
338.882	-0.03
339.092	0.03
339.302	0.07
339.511	0.02
339.721	-0.05
339.931	-0.05
340.141	0.03
340.351	0.06
340.561	-0
340.77	0.02
340.98	0.02
341.19	0.05
341.4	-0.02
341.609	-0.05
341.819	-0.03
342.029	-0.08
342.238	0.01
342.448	-0.03
342.658	0.04
342.867	0.01
343.077	-0.01
343.286	-0.02
343.496	0.03
343.706	0.1
343.915	-0.03
344.125	-0.02
344.334	-0
344.544	-0.03
344.753	-0.05
344.963	-0.04
345.172	-0.03
345.381	-0.01
345.591	-0.02
345.8	0
346.01	0.03
346.219	0.03
346.428	-0.13
346.638	-0.04
346.847	-0.04
347.056	0.02
347.266	-0.06
347.475	-0.03
347.684	0.04
347.893	0.02
348.103	0.04
348.312	0
348.521	-0
348.73	0.03
348.94	-0.03
349.149	-0.02
349.358	-0.05
349.567	-0.06
349.776	-0.08
349.985	-0.01
350.194	0.04
350.403	0.07
350.612	-0.04
350.821	-0.02
351.03	0.01
351.239	-0.07
351.448	-0.01
351.657	-0.04
351.866	0.05
352.075	0.01
352.284	0.05
352.493	-0.01
352.702	0.04
352.911	0.04
353.12	-0.02
353.329	-0.05
353.538	-0.03
353.746	-0.04
353.955	-0.03
354.164	0.03
354.373	-0.04
354.582	0.01
354.79	0.05
354.999	0.04
355.208	0
355.416	0.09
355.625	-0.06
355.834	-0.03
356.042	0.04
356.251	-0.05
356.46	-0.06
356.668	0.02
356.877	0.06
357.085	0.05
357.294	-0.11
357.503	0.04
357.711	0.01
357.92	0.13
358.128	0
358.337	-0.02
358.545	0
358.754	-0.03
358.962	0.01
359.17	-0.02
359.379	0.02
359.587	0.01
359.796	-0.03
360.004	0.05
360.212	0.01
360.421	0.05
360.629	-0.01
360.837	-0.02
361.046	0.04
361.254	0.1
361.462	0
361.67	-0.03
361.879	0.02
362.087	0.1
362.295	-0.01
362.503	-0.01
362.711	0
362.92	0.04
363.128	-0.02
363.336	-0.04
363.544	-0.06
363.752	-0.02
363.96	-0.04
364.168	-0.03
364.376	0
364.584	-0.01
364.792	0.05
365	0.02
365.208	0.02
365.416	0.04
365.624	-0
365.832	-0.05
366.04	0.09
366.248	-0
366.456	0
366.664	0
366.872	0.04
367.079	-0.03
367.287	0
367.495	-0.01
367.703	-0.01
367.911	-0.03
368.118	-0.02
368.326	-0.04
368.534	-0.05
368.742	0.06
368.949	-0.07
369.157	-0.03
369.365	0.01
369.572	-0.03
369.78	-0.11
369.988	0.04
370.195	0.02
370.403	0
370.61	-0.03
370.818	0.01
371.026	0.04
371.233	-0.04
371.441	0.04
371.648	-0.03
371.856	0.02
372.063	-0.02
372.271	-0.03
372.478	-0.04
372.685	-0.05
372.893	0.04
373.1	-0.02
373.308	-0.02
373.515	0.06
373.722	0.04
373.93	-0.05
374.137	0.03
374.344	0.06
374.552	0.01
374.759	0.02
374.966	-0.04
375.173	-0.05
375.381	0.03
375.588	-0.01
375.795	-0.04
376.002	-0.02
376.209	-0.05
376.417	-0.01
376.624	0.03
376.831	0.01
377.038	-0.01
377.245	-0.08
377.452	-0.06
377.659	0.02
377.866	-0.01
378.073	-0.02
378.28	-0.03
378.487	0.07
378.694	0.01
378.901	-0.02
379.108	0.01
379.315	0.01
379.522	0.1
379.729	-0
379.936	-0.03
380.143	0.01
380.35	0.05
380.557	-0.01
380.763	0
380.97	-0
381.177	0.03
381.384	0.02
381.591	-0.03
381.797	0.01
382.004	0.05
382.211	-0
382.418	0.01
382.624	0.05
382.831	0.04
383.038	-0
383.244	0.01
383.451	-0.02
383.658	0.06
383.864	-0.03
384.071	-0.04
384.277	0.05
384.484	-0
384.69	0.06
384.897	-0.02
385.103	-0.04
385.31	-0.05
385.516	-0.04
385.723	-0.04
385.929	0.01
386.136	-0.01
386.342	-0.01
386.549	-0.01
386.755	0.05
386.961	-0.03
387.168	-0.04
387.374	0.02
387.58	0.02
387.787	-0.02
387.993	0.01
388.199	-0.02
388.406	-0.01
388.612	-0.01
388.818	-0.02
389.024	-0.03
389.231	0.04
389.437	0.04
389.643	-0.01
389.849	0.04
390.055	-0
390.261	-0.01
390.467	-0.03
390.674	-0.07
390.88	-0.02
391.086	-0
391.292	-0.06
391.498	0.01
391.704	0.03
391.91	-0.05
392.116	-0.03
392.322	-0.1
392.528	0.03
392.734	-0
392.94	-0.04
393.146	-0.02
393.352	-0.03
393.557	-0.02
393.763	-0.01
393.969	-0.02
394.175	-0.01
394.381	0.03
394.587	-0.02
394.792	0.03
394.998	0.05
395.204	0.05
395.41	-0.03
395.615	-0
395.821	-0.02
396.027	0.04
396.233	-0.05
396.438	-0.03
396.644	0.03
396.85	0.02
397.055	-0.02
397.261	-0.01
397.466	0.07
397.672	0.04
397.878	0.04
398.083	-0.03
398.289	-0.07
398.494	0.03
398.7	0.02
398.905	-0.06
399.111	0.08
399.316	-0.04
399.522	0.02
399.727	-0.03
399.932	-0.04
400.138	-0.02
400.343	0.05
400.549	0.04
400.754	0.02
400.959	-0.01
401.165	0
401.37	-0.01
401.575	0.1
401.78	-0.01
401.986	-0.01
402.191	-0.07
402.396	-0.03
402.601	0.06
402.807	-0
403.012	-0.03
403.217	0
403.422	0.01
403.627	-0.04
403.832	-0.02
404.037	0.02
404.243	0.02
404.448	-0.01
404.653	-0.01
404.858	-0.03
405.063	-0
405.268	-0.03
405.473	-0.07
405.678	-0.03
405.883	0.16
406.088	0.02
406.293	-0.04
406.498	-0
406.703	0.01
406.907	-0.05
407.112	-0.04
407.317	0.02
407.522	0.04
407.727	-0.06
407.932	0.03
408.136	0.07
408.341	-0.04
408.546	0
408.751	-0.03
408.956	-0.06
409.16	-0.02
409.365	-0.06
409.57	0.01
409.774	0
409.979	0.04
410.184	0
410.388	-0.02
410.593	0.07
410.798	0.02
411.002	-0.1
411.207	0.06
411.411	0.01
411.616	-0.05
411.82	-0
412.025	0.03
412.229	-0.04
412.434	0.06
412.638	-0.06
412.843	-0.06
413.047	0
413.252	-0.03
413.456	-0.01
413.66	0.02
413.865	-0.05
414.069	0.03
414.273	-0.04
414.478	-0.06
414.682	-0.04
414.886	-0.06
415.091	-0.04
415.295	-0.09
415.499	0.02
415.703	-0.04
415.908	0.02
416.112	-0.08
416.316	0
416.52	-0.05
416.724	-0.12
416.929	-0.1
417.133	0.07
417.337	-0.03
417.541	-0.02
417.745	-0.07
417.949	0.01
418.153	0.02
418.357	-0.07
418.561	0.05
418.765	-0.02
418.969	0.14
419.173	-0
419.377	-0.04
419.581	0.06
419.785	-0.03
419.989	-0.08
420.193	-0.02
420.397	-0.01
420.601	0.06
420.804	0.05
421.008	0.02
421.212	0.02
421.416	0.01
421.62	-0.03
421.823	-0.05
422.027	0.08
422.231	-0.01
422.435	0.01
422.638	0.03
422.842	0
423.046	-0.03
423.249	-0.05
423.453	-0.01
423.657	0.04
423.86	-0.01
424.064	-0.01
424.268	0.04
424.471	-0.02
424.675	0.11
424.878	0.08
425.082	0.03
425.285	0.01
425.489	-0.02
425.692	-0
425.896	-0.05
426.099	0.02
426.303	-0.08
426.506	-0.06
426.71	0.03
426.913	0.06
427.116	0.04
427.32	-0.03
427.523	0.03
427.726	0.07
427.93	-0.05
428.133	-0.04
428.336	-0.1
428.54	-0.06
428.743	0.04
428.946	0.04
429.149	-0.02
429.353	0.02
429.556	-0.04
429.759	-0
429.962	-0.04
430.165	0
430.368	0.01
430.571	-0.02
430.775	0.02
430.978	-0.04
431.181	0.03
431.384	0.02
431.587	-0.01
431.79	0.02
431.993	-0.04
432.196	-0.01
432.399	-0.04
432.602	0.04
432.805	-0.01
433.008	0.01
433.211	-0.11
433.414	0.03
433.616	0.08
433.819	-0.06
434.022	-0.09
434.225	0.08
434.428	0
434.631	0.1
434.833	-0
435.036	-0.01
435.239	0.06
435.442	0
435.645	-0.03
435.847	-0.02
436.05	0.06
436.253	-0.02
436.455	-0.04
436.658	0.04
436.861	0.1
437.063	-0
437.266	-0.01
437.468	0.01
437.671	0.18
437.874	0.03
438.076	-0.05
438.279	-0.07
438.481	0.03
438.684	-0.02
438.886	0.07
439.089	-0.07
439.291	-0.01
439.494	0.05
439.696	-0.02
439.899	0.02
440.101	0.06
440.303	-0.05
440.506	0.1
440.708	0.04
440.91	0.01
441.113	-0.04
441.315	0.06
441.517	-0.02
441.72	0.05
441.922	-0.02
442.124	0.02
442.326	0.07
442.529	0.13
442.731	0
442.933	0.1
443.135	0.03
443.337	0.02
443.539	0.02
443.742	-0
443.944	0.03
444.146	-0
444.348	-0.03
444.55	0.03
444.752	-0.01
444.954	0.01
445.156	0.06
445.358	0.03
445.56	0.08
445.762	0.05
445.964	0.08
446.166	0.04
446.368	0.05
446.57	0.16
446.772	0.03
446.974	0.09
447.175	0.06
447.377	0.06
447.579	0.04
447.781	-0.05
447.983	0.13
448.184	0.04
448.386	0.09
448.588	0
448.79	0.1
448.991	-0.01
449.193	0.02
449.395	0.04
449.597	0.1
449.798	0.06
450	0.07
450.202	0.08
450.403	0.04
450.605	0.07
450.806	0.07
451.008	-0.05
451.21	0.03
451.411	0.05
451.613	0.04
451.814	0.02
452.016	0.1
452.217	0.08
452.419	0.11
452.62	0.02
452.821	0.09
453.023	0.15
453.224	0.07
453.426	0.01
453.627	0.05
453.828	0.13
454.03	0.02
454.231	0.06
454.432	0.02
454.634	0.18
454.835	0.06
455.036	-0.01
455.238	0.08
455.439	0.14
455.64	-0.04
455.841	0
456.042	0.13
456.244	0.03
456.445	0.02
456.646	-0.02
456.847	0.03
457.048	0.08
457.249	0.09
457.45	0.26
457.651	-0.01
457.852	0.11
458.054	0.03
458.255	-0.01
458.456	0.05
458.657	-0.01
458.858	0.02
459.058	-0.01
459.259	0.08
459.46	-0.01
459.661	-0.01
459.862	0.15
460.063	-0.03
460.264	0.04
460.465	-0.06
460.666	0.11
460.866	-0.02
461.067	0.03
461.268	0
461.469	-0.02
461.67	0.07
461.87	-0
462.071	-0.04
462.272	-0.01
462.473	-0
462.673	0.05
462.874	-0.01
463.075	0.02
463.275	0.01
463.476	0.01
463.676	0.02
463.877	0.01
464.078	0.01
464.278	0.08
464.479	0.02
464.679	0.05
464.88	0
465.08	0.06
465.281	-0.03
465.481	-0.06
465.682	-0.03
465.882	-0.01
466.083	-0
466.283	0.01
466.483	0
466.684	-0.02
466.884	-0.02
467.085	-0.02
467.285	0.09
467.485	-0.06
467.686	-0.01
467.886	-0.04
468.086	-0
468.286	0.05
468.487	0.01
468.687	-0.06
468.887	-0.01
469.087	0.01
469.287	0.02
469.488	-0.06
469.688	0.02
469.888	0.05
470.088	0.06
470.288	0.04
470.488	0.07
470.688	-0.04
470.888	-0.01
471.088	-0.01
471.288	0.03
471.488	0.02
471.688	0
471.888	-0.02
472.088	0.05
472.288	0.07
472.488	-0.04
472.688	-0.02
472.888	0.04
473.088	0.01
473.288	0.03
473.488	0.01
473.688	0.08
473.887	-0.02
474.087	-0.04
474.287	0
474.487	-0.02
474.687	0.03
474.886	-0.05
475.086	-0.03
475.286	0
475.486	0.01
475.685	0.03
475.885	-0.03
476.085	-0.02
476.284	0.04
476.484	-0.03
476.684	-0
476.883	0.04
477.083	0.01
477.282	-0.01
477.482	0.07
477.681	0.06
477.881	-0.01
478.08	-0.04
478.28	-0.02
478.479	0.02
478.679	0.08
478.878	-0.02
479.078	-0.01
479.277	-0.02
479.477	-0.02
479.676	0.04
479.875	-0.02
480.075	-0.05
480.274	0.01
480.473	0.01
480.673	-0.04
480.872	0.03
481.071	-0.01
481.271	0.04
481.47	-0.02
481.669	0.01
481.868	-0.03
482.067	-0.05
482.267	-0.03
482.466	-0.04
482.665	-0.03
482.864	-0.04
483.063	-0.03
483.262	0.02
483.461	0.04
483.661	0.04
483.86	0.01
484.059	0.02
484.258	0.02
484.457	-0.04
484.656	-0.02
484.855	0.04
485.054	-0.03
485.253	-0.03
485.452	-0.05
485.651	-0.02
485.849	0.03
486.048	-0.03
486.247	-0.04
486.446	-0.01
486.645	-0.07
486.844	-0.03
487.043	-0.02
487.241	0.03
487.44	-0.03
487.639	-0.04
487.838	0.03
488.037	-0.01
488.235	0.03
488.434	0.01
488.633	-0.03
488.831	0.01
489.03	0.01
489.229	0.03
489.427	-0.02
489.626	0.03
489.825	0.04
490.023	-0.03
490.222	-0.02
490.42	0.04
490.619	0.04
490.817	-0
491.016	-0.03
491.214	0.03
491.413	-0.03
491.611	-0.02
491.81	-0.02
492.008	0
492.207	0.04
492.405	-0
492.604	-0.05
492.802	-0.03
493	0.02
493.199	-0
493.397	-0
493.595	-0.02
493.794	-0.01
493.992	0.03
494.19	-0.02
494.388	0.03
494.587	-0.01
494.785	0.01
494.983	-0.03
495.181	-0.01
495.379	-0
495.578	-0.01
495.776	0.01
495.974	0.02
496.172	0.01
496.37	-0.02
496.568	-0.05
496.766	-0.02
496.964	0.04
497.162	-0.02
497.36	-0.03
497.558	0.03
497.756	0.01
497.954	0
498.152	-0.05
498.35	-0.01
498.548	-0.02
498.746	-0
498.944	-0.03
499.142	-0.02
499.34	-0.05
499.538	0
499.736	-0.01
499.933	0.01
500.131	0.03
500.329	-0.02
500.527	0.01
500.725	0.03
500.922	0.01
501.12	0.01
501.318	-0.01
501.516	-0.05
501.713	-0.01
501.911	-0.01
502.109	-0.04
502.306	0
502.504	-0.01
502.701	-0.02
502.899	-0.03
503.097	0.03
503.294	-0.03
503.492	-0.01
503.689	0.01
503.887	0
504.084	0.05
504.282	-0.02
504.479	-0.05
504.677	0
504.874	-0.02
505.072	-0.02
505.269	0
505.466	0.02
505.664	-0.01
505.861	-0.06
506.059	-0.03
506.256	0.02
506.453	-0.02
506.651	0.03
506.848	0.01
507.045	0
507.242	0
507.44	-0.02
507.637	-0.02
507.834	0
508.031	0.03
508.229	-0.03
508.426	-0.01
508.623	0.02
508.82	-0.02
509.017	-0.03
509.214	-0
509.411	-0.01
509.608	-0.04
509.805	-0.01
510.003	-0.02
510.2	-0.02
510.397	0.03
510.594	-0.02
510.791	-0.03
510.988	-0.02
511.184	-0
511.381	-0.01
511.578	-0.03
511.775	0.02
511.972	-0.03
512.169	-0.02
512.366	-0.01
512.563	0.02
512.76	-0
512.956	-0.02
513.153	-0.01
513.35	-0.01
513.547	-0.02
513.744	-0.02
513.94	-0.03
514.137	0.01
514.334	0
514.53	-0.01
514.727	0.01
514.924	0.02
515.12	-0.03
515.317	-0.04
515.514	-0.03
515.71	-0.04
515.907	-0.01
516.103	0.02
516.3	0
516.497	0.03
516.693	0.01
516.89	-0
517.086	-0.03
517.283	0.05
517.479	-0.01
517.676	-0
517.872	-0.01
518.068	-0.01
518.265	-0.01
518.461	0
518.658	-0.04
518.854	-0.01
519.05	-0.01
519.247	-0.03
519.443	0.02
519.639	0.01
519.836	-0.01
520.032	-0
520.228	0
520.424	0.02
520.621	0.01
520.817	-0.02
521.013	0.02
521.209	0
521.405	0.05
521.601	0
521.798	0.01
521.994	0.04
522.19	-0.04
522.386	-0.02
522.582	-0.01
522.778	-0
522.974	-0.02
523.17	-0.01
523.366	0.02
523.562	0.03
523.758	-0.01
523.954	-0.01
524.15	-0.02
524.346	0.02
524.542	-0.01
524.738	-0.01
524.934	0.01
525.129	-0.07
525.325	-0.01
525.521	-0
525.717	0
525.913	0
526.109	-0.01
526.304	0.01
526.5	-0
526.696	0.01
526.892	-0.01
527.087	-0
527.283	-0.06
527.479	-0.01
527.674	-0.02
527.87	-0
528.066	-0.01
528.261	0.01
528.457	-0
528.653	-0.02
528.848	-0.02
529.044	0.01
529.239	0
529.435	0.03
529.63	-0
529.826	0.04
530.021	0.02
530.217	0.02
530.412	-0.03
530.608	-0.03
530.803	-0
530.999	-0.02
531.194	-0.05
531.389	0
531.585	-0.03
531.78	-0.03
531.975	-0.01
532.171	0
532.366	-0.01
532.561	-0.01
532.757	-0.03
532.952	-0.01
533.147	0
533.342	-0
533.538	-0.01
533.733	0.01
533.928	-0.01
534.123	-0.02
534.318	-0.03
534.513	-0.01
534.709	0
534.904	-0.01
535.099	-0.03
535.294	0
535.489	0
535.684	-0.01
535.879	-0.04
536.074	-0.01
536.269	-0.02
536.464	0.01
536.659	-0
536.854	0
537.049	0
537.244	-0.01
537.439	-0.02
537.634	0.02
537.828	0.01
538.023	-0
538.218	-0.05
538.413	0
538.608	-0.03
538.803	0.01
538.997	-0.04
539.192	0.01
539.387	0.02
539.582	0.01
539.776	0.01
539.971	-0.04
540.166	-0.01
540.36	-0.05
540.555	-0.01
540.75	-0
540.944	-0.02
541.139	-0.05
541.334	-0.01
541.528	0.03
541.723	-0
541.917	-0.03
542.112	-0.05
542.306	-0.01
542.501	-0.02
542.695	0.02
542.89	-0.03
543.084	-0.03
543.279	-0.02
543.473	-0.01
543.668	-0.02
543.862	-0.01
544.056	0.02
544.251	-0.02
544.445	0
544.64	-0.02
544.834	-0.04
545.028	-0.03
545.222	-0.02
545.417	0.02
545.611	-0.01
545.805	-0.01
546	-0.01
546.194	-0
546.388	-0.03
546.582	0.02
546.776	-0.01
546.97	-0.03
547.165	0.01
547.359	0.02
547.553	-0.04
547.747	-0.02
547.941	0.02
548.135	-0
548.329	0.02
548.523	0.03
548.717	-0.01
548.911	-0.03
549.105	-0.02
549.299	-0.02
549.493	0.02
549.687	0
549.881	0.01
550.075	0.01
550.269	-0.04
550.463	0.01
550.657	-0.01
550.85	-0
551.044	-0.05
551.238	-0.02
551.432	-0.02
551.626	-0.04
551.82	-0
552.013	-0.02
552.207	0.01
552.401	0.03
552.594	-0.01
552.788	-0.01
552.982	0
553.176	-0.02
553.369	-0
553.563	0.01
553.756	-0.04
553.95	-0.03
554.144	0.02
554.337	0.02
554.531	0.01
554.724	-0.01
554.918	0
555.111	0.01
555.305	-0.01
555.498	0.03
555.692	0.03
555.885	-0.03
556.079	0.01
556.272	-0.04
556.466	0.02
556.659	-0
556.852	-0.02
557.046	-0.01
557.239	0.02
557.432	-0.03
557.626	-0.01
557.819	0.02
558.012	0.03
558.206	-0.01
558.399	0
558.592	0
558.785	-0.01
558.979	0.01
559.172	-0
559.365	0.02
559.558	0.01
559.751	-0.01
559.944	0.03
560.138	-0.03
560.331	-0.02
560.524	-0.01
560.717	-0.01
560.91	-0.02
561.103	0.01
561.296	0
561.489	-0.01
561.682	-0
561.875	0.02
562.068	0.01
562.261	-0.01
562.454	0.04
562.647	0
562.84	0.01
563.032	-0.03
563.225	0.01
563.418	-0.02
563.611	-0.02
563.804	-0
563.997	-0.06
564.19	-0.05
564.382	0.02
564.575	-0.02
564.768	0
564.961	-0.02
565.153	-0.02
565.346	0.01
565.539	0
565.731	0.02
565.924	0.03
566.117	0.03
566.309	0
566.502	0.01
566.695	-0.01
566.887	-0.01
567.08	-0.04
567.272	-0.03
567.465	-0.03
567.657	0.02
567.85	-0.01
568.042	0.03
568.235	0.03
568.427	-0
568.62	0.03
568.812	0.02
569.005	-0.01
569.197	-0.04
569.389	0.03
569.582	-0
569.774	0.02
569.966	-0.04
570.159	-0.02
570.351	-0
570.543	-0.02
570.736	-0
570.928	-0.04
571.12	0.01
571.312	-0.02
571.505	-0.03
571.697	0.03
571.889	-0.03
572.081	-0.02
572.273	-0.01
572.465	0.01
572.658	-0.01
572.85	0
573.042	-0
573.234	-0.01
573.426	0.01
573.618	-0.04
573.81	0
574.002	0.03
574.194	0.05
574.386	-0.05
574.578	-0.07
574.77	-0.05
574.962	-0.01
575.154	-0.06
575.346	-0.01
575.538	0
575.729	-0.02
575.921	-0.03
576.113	-0.01
576.305	0.04
576.497	-0.03
576.689	-0.01
576.88	-0.04
577.072	0.01
577.264	-0.01
577.456	-0.02
577.647	-0.08
577.839	-0.03
578.031	0.05
578.223	-0.04
578.414	-0.03
578.606	0.03
578.798	0
578.989	-0.04
579.181	-0.04
579.372	0.01
579.564	-0.01
579.755	-0.01
579.947	-0
580.139	0.02
580.33	-0.08
580.522	-0.02
580.713	-0.06
580.905	-0.03
581.096	0.04
581.287	-0.01
581.479	-0.02
581.67	0.01
581.862	0.01
582.053	-0.03
582.244	-0.05
582.436	-0.03
582.627	-0.02
582.818	-0.01
583.01	-0.05
583.201	-0
583.392	0.02
583.583	0.01
583.775	-0.03
583.966	-0.03
584.157	-0.02
584.348	-0.01
584.54	-0.04
584.731	0.02
584.922	0.01
585.113	-0.04
585.304	0.04
585.495	0.02
585.686	-0
585.877	-0.01
586.068	-0.02
586.259	-0.02
586.45	-0.03
586.641	-0.04
586.832	-0.07
587.023	-0.01
587.214	-0.01
587.405	-0.01
587.596	-0.04
587.787	0.02
587.978	0.03
588.169	-0.04
588.36	-0.02
588.551	-0.01
588.742	-0.03
588.932	-0.01
589.123	-0
589.314	0.04
589.505	0.02
589.696	-0
589.886	-0.03
590.077	-0.05
590.268	-0.02
590.458	-0.06
590.649	-0.06
590.84	0.01
591.03	-0.04
591.221	-0.06
591.412	-0.04
591.602	0.02
591.793	0.01
591.984	-0.04
592.174	-0.01
592.365	0.02
592.555	-0.02
592.746	-0.01
592.936	-0
593.127	0.01
593.317	0.04
593.508	-0.05
593.698	-0.03
593.889	0.01
594.079	0.01
594.269	-0.04
594.46	-0.02
594.65	-0.01
594.84	-0.01
595.031	-0.05
595.221	0
595.411	-0.04
595.602	0.02
595.792	-0.02
595.982	-0.02
596.172	0.05
596.363	-0
596.553	-0.01
596.743	-0.01
596.933	-0.02
597.123	0.03
597.314	-0.05
597.504	-0.02
597.694	0.01
597.884	0
598.074	-0.05
598.264	-0.04
598.454	-0
598.644	-0.01
598.834	-0.03
599.024	-0.05
599.214	-0.02
599.404	0.02
599.594	-0.04
599.784	-0.02
599.974	0.05
600.164	0.03
600.354	-0.04
600.544	-0.05
600.734	0.01
600.924	0.03
601.114	-0
601.303	0
601.493	0.01
601.683	-0.01
601.873	-0.01
602.063	-0.06
602.252	0.05
602.442	-0.05
602.632	-0.04
602.821	-0.05
603.011	0.03
603.201	-0.02
603.39	-0.05
603.58	-0.04
603.77	-0.01
603.959	0.02
604.149	-0
604.339	-0.02
604.528	0.01
604.718	0.03
604.907	-0.03
605.097	-0.02
605.286	0.01
605.476	0.01
605.665	0.02
605.855	0.01
606.044	0.03
606.234	-0.02
606.423	-0.01
606.612	-0.05
606.802	0.03
606.991	0.03
607.181	-0.02
607.37	-0.06
607.559	-0.05
607.749	-0.05
607.938	-0.02
608.127	-0.02
608.316	-0.03
608.506	-0
608.695	-0.01
608.884	-0.06
609.073	-0
609.263	0.03
609.452	0.03
609.641	-0.01
609.83	-0.03
610.019	-0.03
610.208	-0.02
610.397	-0.01
610.586	0.01
610.775	-0.03
610.965	-0.04
611.154	-0.03
611.343	-0.01
611.532	-0.01
611.721	-0.01
611.91	-0.05
612.099	0.02
612.287	-0.02
612.476	-0.04
612.665	0.01
612.854	-0.02
613.043	0.03
613.232	-0.02
613.421	-0.05
613.61	0
613.798	-0.01
613.987	0.03
614.176	-0
614.365	0.03
614.554	0
614.742	0.01
614.931	-0.04
615.12	0.03
615.309	-0.01
615.497	-0
615.686	-0.03
615.875	-0.02
616.063	0.01
616.252	-0.04
616.44	-0.02
616.629	0
616.818	-0.01
617.006	-0.03
617.195	-0.01
617.383	0.04
617.572	-0.01
617.76	-0.02
617.949	-0.02
618.137	0.01
618.326	0.02
618.514	-0.01
618.703	-0.03
618.891	0.04
619.079	-0.06
619.268	-0.01
619.456	-0.02
619.644	0.04
619.833	-0.02
620.021	-0.03
620.209	-0.06
620.398	0
620.586	-0
620.774	0.01
620.962	-0.01
621.151	0.04
621.339	0.01
621.527	-0.06
621.715	-0.07
621.903	-0.05
622.092	-0.05
622.28	-0.02
622.468	-0.01
622.656	-0.01
622.844	0.02
623.032	-0.02
623.22	-0.09
623.408	0.04
623.596	0.01
623.784	0.02
623.972	-0.03
624.16	0.01
624.348	0.07
624.536	-0.03
624.724	-0.02
624.912	0.04
625.1	0.04
625.288	-0
625.476	-0.02
625.664	0.02
625.851	-0.02
626.039	-0
626.227	-0.01
626.415	0.01
626.603	-0.08
626.79	-0.04
626.978	-0.02
627.166	0.02
627.354	-0.01
627.541	-0.02
627.729	-0.07
627.917	0.02
628.104	0.05
628.292	0.03
628.48	-0.02
628.667	0.02
628.855	0.03
629.042	0.01
629.23	-0.03
629.418	-0.02
629.605	-0.04
629.793	0
629.98	-0.04
630.168	-0
630.355	-0.01
630.543	0.04
630.73	-0.04
630.917	0.04
631.105	0.07
631.292	-0.03
631.48	-0.02
631.667	0.08
631.854	-0
632.042	0
632.229	-0.06
632.416	-0.02
632.604	-0
632.791	-0.05
632.978	0.02
633.165	0.05
633.353	0.06
633.54	0.08
633.727	-0.07
633.914	0
634.101	-0.04
634.289	0.04
634.476	-0.02
634.663	-0.02
634.85	0.02
635.037	-0.03
635.224	-0.04
635.411	0.04
635.598	0.06
635.785	0.02
635.972	-0.02
636.159	0.04
636.346	-0
636.533	0.02
636.72	0
636.907	0
637.094	0.04
637.281	-0.03
637.468	0.04
637.655	0.02
637.842	0.01
638.029	-0.02
638.215	0.03
638.402	0.04
638.589	-0.02
638.776	-0.04
638.963	-0.02
639.149	0.07
639.336	0.1
639.523	0.01
639.709	-0.01
639.896	-0.03
640.083	0.07
640.27	0.02
640.456	0
640.643	0.03
640.829	0.02
641.016	0.02
641.203	-0.03
641.389	0.06
641.576	0
641.762	0.02
641.949	-0.03
642.135	0.04
642.322	0.05
642.508	-0.04
642.695	0
642.881	0.01
643.068	0.02
643.254	0.01
643.441	0.07
643.627	0.02
643.813	0.02
644	0.06
644.186	0
644.372	0.03
644.559	0.09
644.745	0.02
644.931	0.01
645.118	0
645.304	0.02
645.49	0.02
645.676	0.01
645.862	0.05
646.049	0.1
646.235	0.05
646.421	0.1
646.607	0.11
646.793	0.04
646.979	-0.02
647.165	0.06
647.352	0.04
647.538	0.07
647.724	0.06
647.91	0.04
648.096	0.05
648.282	0.12
648.468	0.02
648.654	0.05
648.84	0.04
649.026	0
649.212	0.05
649.397	0.02
649.583	0.02
649.769	0.07
649.955	0.06
650.141	0.06
650.327	0.11
650.513	0.07
650.698	0.07
650.884	-0.02
651.07	0.07
651.256	0.09
651.442	0.06
651.627	0.06
651.813	0.07
651.999	0.1
652.184	0.06
652.37	0.06
652.556	0.06
652.741	0.13
652.927	0
653.113	0.08
653.298	0.06
653.484	0.05
653.669	0.04
653.855	0.07
654.04	0.09
654.226	0.11
654.412	0.07
654.597	0.05
654.782	0.09
654.968	0.1
655.153	0.11
655.339	0.06
655.524	0.02
655.71	0.13
655.895	0.08
656.08	0.05
656.266	0.17
656.451	0.13
656.636	0
656.822	0.09
657.007	0.04
657.192	0.07
657.378	0.04
657.563	0.1
657.748	0.1
657.933	0.11
658.118	0.06
658.304	0.1
658.489	0.12
658.674	0.1
658.859	0.07
659.044	0.12
659.229	0.14
659.414	0.08
659.599	0.09
659.785	0.08
659.97	0.07
660.155	0.09
660.34	0.09
660.525	0.06
660.71	0.08
660.895	0.11
661.08	0.07
661.264	0.07
661.449	0.11
661.634	0.17
661.819	0.09
662.004	0.11
662.189	0.03
662.374	0.04
662.559	0
662.743	-0.01
662.928	0.06
663.113	0.04
663.298	0.01
663.483	0.02
663.667	0.06
663.852	0.04
664.037	0.08
664.221	0
664.406	0.05
664.591	0.07
664.775	0.01
664.96	-0.02
665.145	0.06
665.329	0.11
665.514	0.01
665.698	0.01
665.883	-0.02
666.068	0.1
666.252	0.01
666.437	0.01
666.621	0.02
666.806	0.01
666.99	-0.01
667.174	0.01
667.359	0.07
667.543	-0.01
667.728	-0.01
667.912	-0.06
668.096	0.04
668.281	-0.02
668.465	-0.02
668.649	0.01
668.834	-0.04
669.018	0.02
669.202	0.02
669.387	-0.01
669.571	0.02
669.755	-0.03
669.939	-0.02
670.124	-0.03
670.308	0.07
670.492	0.05
670.676	0.01
670.86	-0.01
671.044	-0.01
671.228	0.03
671.413	-0.04
671.597	-0.05
671.781	-0.05
671.965	0.04
672.149	-0.01
672.333	0.01
672.517	-0.01
672.701	0.04
672.885	0.02
673.069	-0.05
673.253	0.05
673.437	-0.04
673.621	-0.04
673.804	-0.03
673.988	-0
674.172	-0
674.356	-0.06
674.54	-0.04
674.724	0.07
674.908	-0.03
675.091	-0
675.275	0
675.459	0.01
675.643	0.08
675.826	-0.01
676.01	-0.02
676.194	-0.01
676.377	0.05
676.561	0.02
676.745	-0.03
676.928	0.03
677.112	0.01
677.296	-0.04
677.479	-0.03
677.663	-0.01
677.846	0.03
678.03	0.01
678.213	-0.03
678.397	0.01
678.58	-0.01
678.764	-0.03
678.947	-0.03
679.131	-0.04
679.314	0.01
679.498	-0.02
679.681	-0.02
679.865	0.04
680.048	-0.02
680.231	-0.03
680.415	-0.04
680.598	-0.03
680.781	-0.04
680.965	-0.03
681.148	-0.01
681.331	-0
681.514	-0.01
681.698	-0.01
681.881	-0.05
682.064	-0.02
682.247	-0.01
682.43	-0.08
682.614	0.02
682.797	0.02
682.98	0.02
683.163	-0.04
683.346	0.01
683.529	-0.06
683.712	-0.03
683.895	0
684.078	-0.08
684.261	-0.04
684.444	0.01
684.627	0
684.81	-0.03
684.993	-0.05
685.176	0.04
685.359	-0.08
685.542	-0.07
685.725	0.06
685.908	-0.01
686.091	-0.03
686.274	0.06
686.457	0.02
686.639	0.02
686.822	0.02
687.005	-0.02
687.188	0.05
687.371	0.07
687.553	0.02
687.736	0.02
687.919	0.11
688.102	0.06
688.284	-0.03
688.467	-0
688.65	-0.03
688.832	-0.03
689.015	-0.01
689.197	-0.1
689.38	0.11
689.563	0.07
689.745	-0.04
689.928	-0.05
690.11	-0.06
690.293	0.04
690.475	-0.07
690.658	0.05
690.84	-0.02
691.023	-0.03
691.205	-0.07
691.388	-0.02
691.57	0.05
691.752	0.06
691.935	-0.08
692.117	-0.03
692.3	-0.01
692.482	0.01
692.664	-0.03
692.847	0.03
693.029	0.07
693.211	0.04
693.393	-0.07
693.576	-0.04
693.758	-0.01
693.94	-0.03
694.122	-0.01
694.304	-0
694.487	-0.05
694.669	0.06
694.851	-0.08
695.033	-0.02
695.215	-0.09
695.397	-0
695.579	-0
695.761	-0.08
695.943	-0.12
696.125	0.07
696.308	0.01
696.49	-0.13
696.671	0.09
696.853	-0.04
697.035	0.13
697.217	-0.04
697.399	0.02
697.581	-0.03
697.763	-0.05
697.945	-0
698.127	0.04
698.309	0.05
698.491	0.01
698.672	0.03
698.854	0
699.036	0.04
699.218	0
699.399	0.01
699.581	-0.02
699.763	0.05
699.945	-0.06
700.126	-0.05
700.308	-0.01
700.49	-0
700.671	-0.07
700.853	-0.05
701.035	-0.04
701.216	-0.01
701.398	-0.05
701.579	-0.02
701.761	0.03
701.943	-0.03
702.124	-0.07
702.306	0.01
702.487	0.16
702.669	-0.02
702.85	0.02
703.031	-0.13
703.213	0.06
703.394	0.06
703.576	-0.08
703.757	0.1
703.938	0.05
704.12	0.21
704.301	-0.01
704.483	-0.07
704.664	0.06
704.845	0.06
705.026	0.04
705.208	-0.01
705.389	-0.01
705.57	0
705.751	-0.05
705.933	0.01
706.114	0.06
706.295	0.05
706.476	-0.02
706.657	0.09
706.838	0.05
707.02	0.08
707.201	-0.08
707.382	-0.07
707.563	0.03
707.744	-0.07
707.925	-0.07
708.106	-0.03
708.287	-0
708.468	0.12
708.649	0.02
708.83	0.04
709.011	-0.01
709.192	0.12
709.373	-0.13
709.554	-0.02
709.734	0.02
709.915	0.13
710.096	0.01
710.277	-0.13
710.458	0.01
710.639	0.1
710.819	-0.09
711	-0.04
711.181	0.12
711.362	-0
711.542	0.05
711.723	0.03
711.904	0.05
712.085	0.06
712.265	0.02
712.446	-0.08
712.627	0
712.807	-0.01
712.988	0.02
713.168	-0.07
713.349	0.04
713.53	-0.04
713.71	-0.02
713.891	-0.07
714.071	0.02
714.252	0.03
714.432	0.07
714.613	-0.06
714.793	0.02
714.974	0.05
715.154	0.07
715.334	-0.01
715.515	0.1
715.695	-0.02
715.876	0.05
716.056	-0.06
716.236	-0.03
716.417	0.02
716.597	-0.04
716.777	0.15
716.957	-0.01
717.138	0.04
717.318	-0.01
717.498	-0.13
717.678	0.02
717.859	0.02
718.039	-0.06
718.219	0.05
718.399	0.03
718.579	-0.04
718.759	-0.07
718.939	0.01
719.12	0.02
719.3	0.06
719.48	-0.13
719.66	-0.13
719.84	0.08
720.02	0.06
720.2	-0.06
720.38	-0.03
720.56	0.2
720.74	-0.01
720.92	0.04
721.1	0.06
721.279	0.12
721.459	0.01
721.639	-0.08
721.819	0.11
721.999	0.01
722.179	0.1
722.359	-0.01
722.538	0.04
722.718	-0.02
722.898	-0.06
723.078	0.03
723.257	-0.04
723.437	0.04
723.617	0.09
723.797	-0.04
723.976	0.03
724.156	0.06
724.336	0.1
724.515	0.21
724.695	-0.06
724.874	0.1
725.054	0.11
725.234	0.03
725.413	0.11
725.593	0.02
725.772	-0.03
725.952	0.05
726.131	-0.02
726.311	-0
726.49	0.04
726.67	-0.14
726.849	0.02
727.028	0.11
727.208	0.06
727.387	0.09
727.567	-0.02
727.746	0.08
727.925	-0.04
728.105	-0.05
728.284	0.05
728.463	0
728.643	0.05
728.822	-0.06
729.001	-0.01
729.18	0.1
729.359	0.05
729.539	0.02
729.718	0.01
729.897	0.18
730.076	0.11
730.255	-0
730.434	0.05
730.614	0.14
730.793	0.26
730.972	0.01
731.151	0.14
731.33	0.2
731.509	0.12
731.688	0.07
731.867	0.06
732.046	-0.07
732.225	0.25
732.404	-0.02
732.583	-0.01
732.762	0.16
732.941	0.06
733.12	0.13
733.298	0.1
733.477	0.23
733.656	0.05
733.835	-0.02
734.014	0.19
734.193	0.06
734.371	0.07
734.55	0.1
734.729	-0.11
734.908	0.09
735.086	0.13
735.265	0.13
735.444	-0.07
735.623	-0.1
735.801	-0.02
735.98	0.09
736.159	0.03
736.337	0.2
736.516	0.14
736.694	0.01
736.873	0.02
737.052	0.28
737.23	0.13
737.409	0.07
737.587	0.26
737.766	-0.09
737.944	0.19
738.123	0.18
738.301	0.14
738.479	0.07
738.658	0.01
738.836	-0.07
739.015	0.14
739.193	0.29
739.371	-0.04
739.55	0.11
739.728	-0.04
739.906	0.21
740.085	0.32
740.263	0.04
740.441	-0.15
740.62	0.26
740.798	0.11
740.976	0.06
741.154	0.07
741.332	0.22
741.511	-0.05
741.689	0.05
741.867	0.15
742.045	-0.02
742.223	-0.01
742.401	-0.07
742.579	0.01
742.757	0.04
742.935	-0.15
743.114	-0.02
743.292	0.06
743.47	0.12
743.648	0.13
743.826	-0.09
744.004	0.03
744.181	0.16
744.359	0.02
744.537	0.08
744.715	0.05
744.893	0.08
745.071	0.11
745.249	-0.02
745.427	0.04
745.605	0.07
745.782	-0.05
745.96	0.09
746.138	0.08
746.316	0.1
746.493	-0.05
746.671	0
746.849	-0.01
747.027	0.09
747.204	-0.02
747.382	0.16
747.56	-0.05
747.737	0.04
747.915	-0.12
748.093	0.04
748.27	-0.14
748.448	0.01
748.625	0.02
748.803	-0.1
748.98	0.03
749.158	-0.07
749.335	0.05
749.513	0.01
749.69	-0.11
749.868	-0.03
750.045	0.11
750.223	0.01
750.4	-0.19
750.578	0.14
750.755	-0.03
750.932	-0.1
751.11	0.01
751.287	-0.13
751.464	0.09
751.642	-0.07
751.819	0.01
751.996	0.03
752.173	-0.04
752.351	-0.06
752.528	-0.02
752.705	-0.05
752.882	-0.14
753.06	0.04
753.237	0.07
753.414	0.2
753.591	0.23
753.768	0.02
753.945	-0.18
754.122	-0.09
754.299	0.09
754.476	-0.11
754.654	0.04
754.831	0.03
755.008	0.03
755.185	-0.12
755.362	0.02
755.539	0.03
755.716	-0.06
755.892	-0.05
756.069	-0.06
756.246	0.01
756.423	-0.01
756.6	0.1
756.777	0.01
756.954	0.12
757.131	0.1
757.307	-0.02
757.484	-0.09
757.661	0.02
757.838	0.08
758.015	-0.18
758.191	0.13
758.368	-0.02
758.545	0.22
758.721	0.09
758.898	0
759.075	0.12
759.251	0.07
759.428	-0.01
759.605	-0.13
759.781	-0.1
759.958	-0.02
760.134	-0.08
760.311	0.01
760.488	0.14
760.664	0.09
760.841	-0.04
761.017	-0.29
761.194	0.06
761.37	-0.05
761.547	-0.09
761.723	-0.1
761.899	0.04
762.076	-0.09
762.252	-0.12
762.429	-0.09
762.605	0.08
762.781	0.01
762.958	0.06
763.134	-0.18
763.31	-0.07
763.486	0.06
763.663	-0.3
763.839	-0
764.015	-0.19
764.191	-0.03
764.368	-0.04
764.544	-0.05
764.72	0.08
764.896	0.01
765.072	0.08
765.248	-0.11
765.425	-0.04
765.601	0.05
765.777	0.06
765.953	-0.19
766.129	-0.18
766.305	-0.21
766.481	0.03
766.657	0.01
766.833	0.16
767.009	-0.14
767.185	-0.15
767.361	0.02
767.537	-0.15
767.713	0.12
767.889	-0.11
768.065	0.04
768.24	-0.23
768.416	0.02
768.592	-0.15
768.768	0.02
768.944	0.02
769.12	-0.19
769.295	-0.05
769.471	-0.02
769.647	-0.07
769.823	0.09
769.998	-0.1
770.174	-0.14
770.35	0.26
770.525	0.16
770.701	0.13
770.877	-0.03
771.052	-0.12
771.228	0.21
771.403	-0.02
771.579	0.13
771.755	0.28
771.93	-0.11
772.106	-0.01
772.281	-0.18
772.457	-0.08
772.632	0.05
772.808	-0.2
772.983	-0.02
773.159	-0.1
773.334	0.22
773.509	0
773.685	-0.02
773.86	0.32
774.036	0.2
774.211	0.12
774.386	-0.16
774.562	-0.04
774.737	0.1
774.912	-0.18
775.087	0.04
775.263	0.06
775.438	-0.02
775.613	-0.07
775.788	-0.12
775.964	0.28
776.139	0.32
776.314	-0.36
776.489	0.07
776.664	0.04
776.839	-0.05
777.014	0.25
777.19	0.08
777.365	0.07
777.54	0.26
777.715	-0.06
777.89	-0
778.065	-0.08
778.24	-0.07
778.415	0.11
778.59	-0.14
778.765	-0.06
778.94	0.16
779.115	-0.04
779.289	-0.19
779.464	0.13
779.639	-0.06
779.814	-0.2
779.989	-0.17
780.164	0.12
780.339	0.2
780.513	-0.06
780.688	-0.14
780.863	-0.18
781.038	-0.05
781.212	-0.27
781.387	-0.01
781.562	0.31
781.737	0.09
781.911	0.19
782.086	-0.25
782.261	-0.04
782.435	0.17
782.61	-0.12
782.784	-0.14
782.959	0.32
783.134	-0.12
783.308	-0.17
783.483	-0.29
783.657	0.16
783.832	0.08
784.006	-0.39
784.181	-0.12
784.355	0.08
784.53	0.09
784.704	-0.16
784.878	0.17
785.053	0.06
785.227	0.23
785.402	0.36
785.576	-0.27
785.75	0.13
785.925	-0.14
786.099	-0.04
786.273	-0.04
786.448	0.02
786.622	-0
786.796	0.01
786.97	-0.09
787.145	0.63
787.319	-0.24
787.493	-0.05
787.667	-0.39
787.841	-0.04
788.015	0
788.19	-0.24
788.364	-0.05
788.538	-0.03
788.712	0.17
788.886	-0.01
789.06	0.22
789.234	0.04
789.408	-0.37
789.582	-0.17
789.756	-0.21
789.93	-0.15
790.104	-0.16
790.278	-0.12
790.452	-0.3
790.626	0.23
790.8	-0.09
790.973	-0
791.147	0.18
791.321	0.33
791.495	0.2
791.669	0.01
791.843	0.1
792.016	0.09
792.19	0.53
792.364	-0.21
792.538	0.6
792.711	0.22
792.885	-0.01
793.059	-0.39
793.233	-0.58
793.406	0.08
793.58	-0.08
793.754	0.29
793.927	-0
794.101	0.14
794.274	0.15
794.448	0.09
794.622	-0.25
794.795	0.22
794.969	-0.29
795.142	0.19
795.316	0.11
795.489	-0.11
795.663	0.3
795.836	-0.13
796.009	-0.32
796.183	0.43
796.356	0.21
796.53	-0.06
796.703	-0.19
796.876	0.5
797.05	-0.28
797.223	-0.23
797.396	0.09
797.57	0.08
797.743	0.11
797.916	0.14
798.09	-0.03
798.263	0.15
798.436	-0.08
798.609	-0.07
798.782	-0.18
798.956	0.11
799.129	-0.04
799.302	-0.24
799.475	-0.25
799.648	-0.28
799.821	-0.22
799.994	-0.17
800.167	-0.42
800.34	-0.02
800.514	0.1
800.687	0.04
800.86	-0.17
801.033	0.15
801.206	0.03
801.379	-0.4
801.551	0.27
801.724	0.5
801.897	0.52
802.07	-0.11
802.243	-0.34
802.416	-0.18
802.589	-0.04
802.762	-0.04
802.935	-0.22
803.107	0.55
803.28	0.06
803.453	0.06
803.626	-0.32
803.798	-0.07
803.971	-0.33
804.144	0.21
804.317	0.21
804.489	0.47
804.662	0.01
804.835	-0.15
805.007	-0.13
805.18	-0.05
805.353	0.39
805.525	-0.16
805.698	-0.15
805.87	0.37
806.043	0.12
806.215	-0.35
806.388	-0.48
806.56	0.02
806.733	0.19
806.905	0.14
807.078	-0.29
807.25	-0.18
807.423	0.18
807.595	-0.02
807.768	-0.05
807.94	0.1
808.112	0.01
808.285	0.13
808.457	0
808.629	-0.36
808.802	-0.01
808.974	0.05
809.146	-0.24
809.318	-0.35
809.491	0.01
809.663	0.12
809.835	-0.15
810.007	-0.08
810.18	0.1
810.352	-0.41
810.524	-0.36
810.696	0.19
810.868	0.41
811.04	-0.25
811.212	-0.09
811.384	0.31
811.556	-0.12
811.728	-0.08
811.901	0.61
812.073	-0.02
812.245	0.27
812.417	-0.16
812.589	-0.89
812.76	0.49
812.932	0.16
813.104	0.38
813.276	-0.26
813.448	0.28
813.62	0.16
813.792	0.3
813.964	0.44
814.136	0.45
814.307	0.09
814.479	-0.28
814.651	-0.21
814.823	0.83
814.995	-0
815.166	0.14
815.338	-0.31
815.51	-0.34
815.681	0.77
815.853	-0.14
816.025	0.1
816.196	0.42
816.368	-0.02
816.54	-0.75
816.711	-0.48
816.883	0.28
817.054	0.81
817.226	-1.09
817.398	-0.1
817.569	0.15
817.741	0.15
817.912	-0.42
818.084	-0.26
818.255	0.15
818.426	-0.12
818.598	-0.37
818.769	-0.34
818.941	0.33
819.112	0.67
819.283	0.17
819.455	-0.35
819.626	0.11
819.798	0.29
819.969	0.02
820.14	-0.1
820.311	-0.29
820.483	0.32
820.654	0.15
820.825	-0.05
820.996	-0.49
821.168	-0.9
821.339	-0.5
821.51	-0.41
821.681	0.01
821.852	-0.04
822.023	-0.24
822.195	-1.4
822.366	0.27
822.537	-0.33
822.708	-0.06
822.879	-0.78
823.05	0.45
823.221	-0.32
823.392	-0.29
823.563	-0.06
823.734	0.11
823.905	-0.18
824.076	0.09
824.247	-0.4
824.418	-0.36
824.589	0.5
824.759	-0.89
824.93	-0.52
825.101	-0.49
825.272	0.24
825.443	0.94
825.614	0.45
825.784	-1.3
825.955	0.64
826.126	0.64
826.297	-0.16
826.467	0.95
826.638	0.85
826.809	-0.85
826.98	-0.27
827.15	0.59
827.321	-0.43
827.492	0.73
827.662	-0.46
827.833	0.95
828.003	0.66
828.174	-0.53
828.345	-0.18
828.515	0.5
828.686	0.06
828.856	0.09
829.027	-0.36
829.197	-0.45
829.368	0.11
829.538	-0.14
829.709	-0.3
829.879	0.18
830.049	0.11
830.22	-0.48
830.39	-0.09
830.56	0.12
830.731	0.05
830.901	-0.31
831.072	0.04
831.242	-0.08
831.412	-0.16
831.582	-0.84
831.753	-0.69
831.923	0.73
832.093	-0.13
832.263	-0.27
832.434	-0.58
832.604	-0.32
832.774	-0.03
832.944	-0.73
833.114	-0.22
833.284	0.18
833.454	-0.16
833.624	-0.66
833.795	-0.67
833.965	0.5
834.135	0.73
834.305	-0.93
834.475	-0.9
834.645	-0.14
834.815	0.08
834.985	-0.8
835.155	-0.2
835.325	0.34
835.494	0.16
835.664	-0.04
835.834	-0.8
836.004	-0.44
836.174	0.44
836.344	-0.16
836.514	-1.07
836.684	-0.44
836.853	-0.38
837.023	0.62
837.193	-0.22
837.363	0.65
837.532	0.46
837.702	-0.27
837.872	-0.65
838.041	0.98
838.211	0.97
838.381	-0.64
838.55	-0.11
838.72	1.78
838.89	1.05
839.059	-0.72
839.229	-0.26
839.398	0.77
839.568	-0.54
839.738	0.04
839.907	0.76
840.077	0.95
840.246	-0.03
840.416	-0.72
840.585	-1
840.755	0.92
840.924	1.07
841.093	-1.44
841.263	-0.79
841.432	0.9
841.602	-0.42
841.771	-0.79
841.94	-0.35
842.11	1.52
842.279	1.93
842.448	-0.25
842.617	-0.41
842.787	0.83
842.956	-0.66
843.125	-0.07
843.294	0.03
843.464	0.36
843.633	0
843.802	-0.65
843.971	-0.1
844.14	0.52
844.309	1.51
844.479	-0.51
844.648	-1.18
844.817	-0.63
844.986	0.04
845.155	-0.86
845.324	-0.52
845.493	-0.31
845.662	-0.15
845.831	-0.19
846	0.52
846.169	-0.01
846.338	1.37
846.507	0.42
846.676	0.86
846.844	-0.24
847.013	0.87
847.182	-0.47
847.351	-0.41
847.52	0.28
847.689	0.22
847.858	-0.14
848.026	-0.63
848.195	-0.42
848.364	-1.26
848.533	-0.7
848.701	-0.3
848.87	-0.01
849.039	0.49
849.207	1.26
849.376	0.71
849.545	1.11
849.713	-0.99
849.882	-0.47
850.051	0.48
850.219	-0.32
850.388	-0.13
850.556	0.14
850.725	-0.4
850.893	-0.6
851.062	-0.17
851.23	0.09
851.399	-2.12
851.567	-0.04
851.736	-0.76
851.904	-1.54
852.073	-1.41
852.241	0.68
852.41	-0.02
852.578	-0.34
852.746	-0.46
852.915	-0.82
853.083	-0.22
853.251	-1.36
853.42	-0.45
853.588	-0.51
853.756	0.59
853.924	-0.18
854.093	-0.69
854.261	-0.68
854.429	-1.44
854.597	-0.95
854.765	-1.68
854.934	0.18
855.102	1.82
855.27	-1.11
855.438	0.61
855.606	0.34
855.774	1.65
855.942	-1.7
856.11	-1.33
856.278	-0.39
856.446	0.65
856.614	-1.05
856.782	-0.81
856.95	0.94
857.118	0.24
857.286	0.77
857.454	-0.81
857.622	1.72
857.79	0.66
857.958	-1.11
858.126	-0.61
858.294	-0.44
858.462	-0.62
858.629	-1.31
858.797	-0.71
858.965	0.23
859.133	0.12
859.301	0.64
859.468	0.61
859.636	-0.57
859.804	1.13
859.971	0.66
860.139	-1.25
860.307	1.2
860.474	0.26
860.642	-1.25
860.81	-0.59
860.977	-0.02
861.145	0.91
861.313	-0.85
861.48	1.18
861.648	0.46
861.815	-0.83
861.983	-1.58
862.15	-0.3
862.318	0.65
862.485	1.38
862.653	-1.08
862.82	-0.5
862.988	0.66
863.155	0.54
863.322	-1.21
863.49	-0.93
863.657	-0.31
863.824	2.47
863.992	0.46
864.159	-0.26
864.326	1.79
864.494	-0.46
864.661	1.82
864.828	-0.79
864.996	1.7
865.163	1.36
865.33	-1.2
865.497	-1.73
865.664	-1.96
865.832	-2.95
865.999	-1.14
866.166	-1.13
866.333	-0.79
866.5	-1.97
866.667	-0.94
866.834	0.08
867.001	1.79
867.168	-1.6
867.335	-1.73
867.502	-2.65
867.669	0.63
867.836	1.19
868.003	-1.09
868.17	-0.1
868.337	-0.38
868.504	0.58
868.671	-2.13
868.838	-0.62
869.005	-0.55
869.172	0.29
869.339	0.68
869.505	1.69
869.672	0.78
869.839	0.63
870.006	-0.29
870.173	0.48
870.339	0.29
870.506	1.43
870.673	-1.04
870.84	0.46
871.006	0.8
871.173	1.04
871.34	1.51
871.506	-1.87
871.673	0.22
871.839	-2.82
872.006	-0.45
872.173	-0.49
872.339	0.57
872.506	0.59
872.672	-0.59
872.839	-2.74
873.005	-0.63
873.172	2.82
873.338	0.86
873.505	1.63
873.671	1.12
873.838	1.28
874.004	-1.83
874.171	-0.83
874.337	0.59
874.503	-0.01
874.67	0.35
874.836	-0.77
875.002	-0.29
875.169	2.46
875.335	-0.24
875.501	-1.73
875.668	1.33
875.834	-1.29
876	-0.55
876.166	0.31
876.332	1.59
876.499	3.67
876.665	-2.33
876.831	1.45
876.997	3.19
877.163	1.75
877.329	0.87
877.495	-0.54
877.662	0.79
877.828	-0.67
877.994	-1.19
878.16	-3.71
878.326	-0.23
878.492	-0.09
878.658	-0.77
878.824	1.14
878.99	1.85
879.156	-0.52
879.322	2.17
879.487	-0.24
879.653	-0.48
879.819	0.75
879.985	-1.91
880.151	-1.26
880.317	0.75
880.483	-0.39
880.648	0.77
880.814	-3.61
880.98	1.09
881.146	-3.93
881.312	-0.52
881.477	-1.12
881.643	1.08
881.809	2.76
881.974	2.15
882.14	-3.19
882.306	1.31
882.471	1.81
882.637	-2.44
882.803	0.16
882.968	2.72
883.134	2.47
883.299	-1.34
883.465	0.27
883.63	0.38
883.796	1.16
883.961	1.06
884.127	1.49
884.292	-3.76
884.458	-0.77
884.623	-0.77
