Data from Apollo_Calib_20240827__AbsoluteIrradiance__219__02-48-02-166.txt Node

Date: Wed Aug 28 02:48:02 BST 2024
User: biology
Spectrometer: FLMT08252
Trigger mode: 0
Integration Time (sec): 5.000000E-1
Scans to average: 5
Electric dark correction enabled: true
Nonlinearity correction enabled: false
Boxcar width: 0
XAxis mode: Wavelengths
Number of Pixels in Spectrum: 3648
>>>>>Begin Spectral Data<<<<<
179.588	-0
179.809	-0
180.03	-0
180.251	-0
180.473	-0
180.694	0
180.915	0
181.136	-0
181.357	0
181.578	-0
181.799	-0
182.02	-0
182.241	-0
182.462	-0
182.683	0
182.904	-0
183.125	-0
183.346	0
183.567	0
183.788	-0
184.009	-0
184.23	0
184.451	0
184.672	-0
184.892	-0
185.113	0
185.334	0
185.555	-0
185.776	-0
185.996	0
186.217	0
186.438	-0
186.659	-0
186.879	0
187.1	-0
187.321	-0
187.541	-0
187.762	0
187.983	-0
188.203	0
188.424	-0
188.644	-0
188.865	-0
189.086	-0
189.306	-0
189.527	-0
189.747	-0
189.968	-0
190.188	0
190.409	0
190.629	-0
190.849	-0
191.07	-0
191.29	0
191.511	-0
191.731	-0
191.951	-0
192.172	-0
192.392	-0
192.612	-0
192.833	-0
193.053	-0
193.273	-0
193.493	-0
193.714	-0
193.934	0
194.154	0
194.374	-0
194.594	-0
194.815	0
195.035	-0
195.255	-0
195.475	-0
195.695	0
195.915	0
196.135	-0
196.355	0
196.575	0
196.795	-0
197.015	-0
197.235	-0
197.455	-0
197.675	0
197.895	-0
198.115	-0
198.335	0
198.555	-0
198.775	0
198.995	0
199.214	0
199.434	0
199.654	-0
199.874	-0
200.094	1.49
200.313	-0.42
200.533	-0.71
200.753	-1.31
200.973	1.08
201.192	0.81
201.412	-0.86
201.632	-0.67
201.851	0.42
202.071	-0.61
202.291	-0.74
202.51	-0.61
202.73	0.52
202.95	0.1
203.169	-0.97
203.389	-0.18
203.608	-0.47
203.828	-0.79
204.047	-0.04
204.267	0.18
204.486	-0.17
204.706	0.36
204.925	-0.13
205.145	-0.43
205.364	-0.2
205.583	0.34
205.803	-0.43
206.022	-0.41
206.242	-0.32
206.461	-0.16
206.68	-0.52
206.9	-0.07
207.119	0.58
207.338	0.27
207.557	-0.38
207.777	-0.36
207.996	-0.21
208.215	0.25
208.434	-0.29
208.654	-0.42
208.873	-0.03
209.092	0.45
209.311	-0.41
209.53	-0.36
209.749	-0.41
209.968	-0.44
210.187	0.04
210.407	-0.56
210.626	-0.27
210.845	-0.07
211.064	-0.01
211.283	-0.31
211.502	0.43
211.721	-0.12
211.94	-0.02
212.159	0.1
212.377	0.02
212.596	0.24
212.815	0.05
213.034	0.11
213.253	0.18
213.472	0.42
213.691	-0.32
213.91	-0.4
214.128	-0.13
214.347	0.31
214.566	-0.6
214.785	-0.4
215.003	0.17
215.222	-0.06
215.441	-0.16
215.66	-0.51
215.878	-0.06
216.097	0.09
216.316	-0.27
216.534	-0.3
216.753	-0.02
216.972	0.02
217.19	-0.17
217.409	-0.33
217.627	-0.18
217.846	-0.12
218.064	-0.19
218.283	-0.21
218.501	0.46
218.72	0.33
218.938	-0.26
219.157	-0.22
219.375	0.26
219.594	-0.32
219.812	-0.37
220.031	-0.34
220.249	0.13
220.467	0.15
220.686	-0.18
220.904	-0.42
221.122	-0.14
221.341	0.44
221.559	-0.09
221.777	-0.26
221.995	-0.15
222.214	0.15
222.432	-0.21
222.65	0.05
222.868	0
223.086	0.08
223.305	-0.07
223.523	-0.07
223.741	0.26
223.959	-0.04
224.177	-0.31
224.395	-0.17
224.613	-0.04
224.831	0.09
225.049	-0.19
225.267	-0.15
225.485	-0.07
225.703	-0.16
225.921	-0.14
226.139	-0.15
226.357	-0.02
226.575	0.1
226.793	-0.09
227.011	0.48
227.229	0.03
227.447	0.17
227.665	-0.21
227.883	-0.29
228.1	-0.12
228.318	0.07
228.536	-0.33
228.754	-0.12
228.972	0.08
229.189	0.09
229.407	-0.22
229.625	-0.19
229.843	0.18
230.06	0.08
230.278	-0.14
230.496	-0.03
230.713	0.06
230.931	0.09
231.149	-0.09
231.366	-0.27
231.584	-0.02
231.801	0.24
232.019	-0.18
232.236	-0.19
232.454	-0.28
232.671	0.04
232.889	0.01
233.106	-0.15
233.324	-0.14
233.541	-0.1
233.759	0.01
233.976	-0.09
234.194	-0.1
234.411	-0.08
234.628	-0.12
234.846	-0.09
235.063	0.03
235.28	0.02
235.498	-0.13
235.715	-0.2
235.932	0.01
236.149	-0.12
236.367	-0.08
236.584	-0.09
236.801	-0.04
237.018	0.09
237.236	-0.02
237.453	-0.22
237.67	0.12
237.887	0.01
238.104	0
238.321	-0.13
238.538	-0.06
238.755	0.11
238.973	-0.25
239.19	-0.04
239.407	0.07
239.624	-0.06
239.841	-0.12
240.058	-0.14
240.275	0.04
240.492	-0.02
240.709	-0.1
240.925	-0.08
241.142	-0.03
241.359	-0.2
241.576	-0.03
241.793	-0.15
242.01	-0.06
242.227	0.04
242.444	0.08
242.66	0.03
242.877	-0.08
243.094	-0.16
243.311	0.03
243.527	-0.04
243.744	0
243.961	0.04
244.178	-0.15
244.394	-0.08
244.611	0.06
244.828	0.13
245.044	-0.15
245.261	-0.1
245.477	0.04
245.694	-0.01
245.911	-0.01
246.127	-0.04
246.344	0.06
246.56	0.02
246.777	-0.11
246.993	-0.1
247.21	0.05
247.426	0.1
247.643	-0.16
247.859	-0.13
248.076	-0.15
248.292	0.19
248.508	-0.06
248.725	-0.09
248.941	0.02
249.157	0.08
249.374	-0.12
249.59	-0.07
249.806	-0.13
250.023	0.18
250.239	-0.13
250.455	-0.13
250.671	0.02
250.888	0.05
251.104	-0.02
251.32	-0.17
251.536	-0.06
251.752	-0.05
251.969	-0.05
252.185	-0.04
252.401	0.16
252.617	0.03
252.833	-0.08
253.049	-0.06
253.265	-0.02
253.481	-0.06
253.697	-0.11
253.913	-0.1
254.129	0.04
254.345	0
254.561	-0.09
254.777	-0.07
254.993	0.01
255.209	-0.05
255.425	-0.09
255.641	-0.07
255.857	0.02
256.073	-0.03
256.288	-0.13
256.504	-0.07
256.72	-0.03
256.936	0.12
257.152	-0.08
257.367	-0.1
257.583	-0.02
257.799	0.09
258.015	-0.05
258.23	-0.06
258.446	0.12
258.662	-0.03
258.877	-0.06
259.093	-0.13
259.309	0.02
259.524	-0.01
259.74	-0.07
259.955	-0.16
260.171	-0.04
260.387	-0.05
260.602	0.06
260.818	-0.01
261.033	-0.03
261.249	-0.06
261.464	-0.03
261.68	-0.15
261.895	0.03
262.11	0.06
262.326	-0.05
262.541	-0.12
262.757	0.03
262.972	0.02
263.187	0.03
263.403	-0.01
263.618	0.05
263.833	-0.05
264.049	-0.05
264.264	-0.03
264.479	-0.02
264.694	0.14
264.91	-0.13
265.125	-0.06
265.34	0.03
265.555	0.09
265.77	0.04
265.986	-0.1
266.201	-0.02
266.416	0.03
266.631	-0.03
266.846	-0.03
267.061	0
267.276	0.03
267.491	-0.14
267.706	0.04
267.921	0.04
268.136	-0.04
268.351	-0.06
268.566	-0.11
268.781	0.07
268.996	0.04
269.211	-0.03
269.426	-0.04
269.641	-0.09
269.856	0.01
270.071	-0.11
270.285	-0.11
270.5	0.08
270.715	0.07
270.93	-0.01
271.145	-0.02
271.359	0.08
271.574	-0.07
271.789	-0.03
272.004	-0.08
272.218	-0.04
272.433	0.03
272.648	-0.06
272.862	0.05
273.077	-0.06
273.292	-0.06
273.506	-0.09
273.721	-0.02
273.936	0.02
274.15	0.06
274.365	-0.02
274.579	0
274.794	0.09
275.008	0.03
275.223	-0.11
275.437	-0.02
275.652	0.04
275.866	0.03
276.081	-0.05
276.295	-0.01
276.509	-0.02
276.724	-0
276.938	0.01
277.153	0.01
277.367	0.11
277.581	-0.05
277.796	-0.12
278.01	-0.04
278.224	0.08
278.438	0.11
278.653	-0.12
278.867	-0.05
279.081	-0.16
279.295	-0.06
279.51	-0.04
279.724	-0.09
279.938	-0.01
280.152	0
280.366	-0.05
280.58	-0.03
280.794	0.06
281.008	0.02
281.222	-0.01
281.437	0.1
281.651	-0
281.865	0.04
282.079	-0.05
282.293	-0.09
282.507	-0.06
282.721	0.01
282.935	-0.04
283.148	-0.1
283.362	-0.05
283.576	-0.03
283.79	-0.02
284.004	-0.08
284.218	0.04
284.432	-0.04
284.646	-0.01
284.859	-0.03
285.073	-0.02
285.287	0.01
285.501	0.01
285.714	-0.07
285.928	-0.06
286.142	0
286.356	-0.08
286.569	-0.08
286.783	0.06
286.997	0.09
287.21	-0.03
287.424	0.05
287.637	-0.03
287.851	-0
288.065	0.02
288.278	-0.01
288.492	-0.02
288.705	-0.03
288.919	0.06
289.132	-0.09
289.346	0.01
289.559	-0.12
289.773	-0.1
289.986	-0.01
290.2	-0.02
290.413	0.05
290.626	-0.06
290.84	-0.03
291.053	-0.02
291.267	0.05
291.48	-0.03
291.693	0
291.906	-0.04
292.12	-0.04
292.333	-0.04
292.546	-0.03
292.76	0.09
292.973	-0.03
293.186	0.03
293.399	-0.08
293.612	0.05
293.826	-0.02
294.039	-0.03
294.252	-0.05
294.465	-0
294.678	0.06
294.891	0.01
295.104	-0.07
295.317	-0.02
295.53	-0.01
295.743	-0
295.956	0.01
296.169	0.08
296.382	0.04
296.595	-0
296.808	-0.03
297.021	0.02
297.234	0.04
297.447	-0.05
297.66	0.01
297.873	0.05
298.086	0.02
298.299	-0.06
298.511	-0.03
298.724	-0.06
298.937	-0.05
299.15	-0.03
299.363	-0.03
299.575	0.04
299.788	0.01
300.001	-0.04
300.213	-0.1
300.426	-0.01
300.639	-0.02
300.852	-0.07
301.064	0.01
301.277	0.05
301.489	0.06
301.702	0.07
301.915	-0
302.127	0
302.34	0.04
302.552	0.03
302.765	-0.06
302.977	0.06
303.19	-0.06
303.402	0.01
303.615	-0.04
303.827	-0.05
304.04	-0.01
304.252	0.03
304.464	-0.02
304.677	0.09
304.889	-0.02
305.102	-0.05
305.314	-0.03
305.526	0.03
305.739	0.05
305.951	-0.03
306.163	-0.03
306.375	0.06
306.588	-0.06
306.8	-0.05
307.012	-0.04
307.224	-0.03
307.436	0.05
307.649	-0.1
307.861	-0
308.073	0.02
308.285	-0.01
308.497	-0.06
308.709	-0.03
308.921	0.02
309.133	0.06
309.346	-0.01
309.558	-0.04
309.77	0.04
309.982	0.07
310.194	0.04
310.406	-0.04
310.617	0.1
310.829	0.02
311.041	0.01
311.253	-0.09
311.465	-0.05
311.677	-0.01
311.889	-0.01
312.101	-0.02
312.313	0.06
312.524	0.04
312.736	-0.08
312.948	-0.04
313.16	0.02
313.372	0.02
313.583	-0.02
313.795	-0.03
314.007	-0.02
314.218	0.03
314.43	-0.05
314.642	-0.06
314.853	-0.04
315.065	0.04
315.277	-0.03
315.488	-0.02
315.7	0.03
315.912	0.03
316.123	-0.04
316.335	0
316.546	0.08
316.758	-0.04
316.969	-0.01
317.181	-0.02
317.392	-0
317.604	0.06
317.815	-0.06
318.026	-0.06
318.238	-0.08
318.449	-0
318.661	-0.08
318.872	-0.06
319.083	-0.1
319.295	0.01
319.506	-0.06
319.717	-0.02
319.929	0.04
320.14	-0.04
320.351	-0.03
320.562	-0.01
320.774	-0.04
320.985	-0.03
321.196	-0.08
321.407	-0.08
321.618	0.06
321.829	0.01
322.041	0.01
322.252	-0
322.463	-0.03
322.674	-0.01
322.885	-0.05
323.096	-0.03
323.307	-0.03
323.518	0
323.729	-0.05
323.94	-0.02
324.151	-0.01
324.362	0.02
324.573	0.02
324.784	-0.05
324.995	0.04
325.206	0.03
325.417	-0.03
325.628	-0.02
325.838	0.01
326.049	-0.01
326.26	-0.03
326.471	-0.07
326.682	0.03
326.892	-0.03
327.103	-0.05
327.314	-0.04
327.525	0.08
327.735	0.04
327.946	-0.03
328.157	-0.04
328.368	0.03
328.578	-0.06
328.789	0.02
328.999	-0.01
329.21	-0.03
329.421	-0.02
329.631	-0.06
329.842	-0.09
330.052	0
330.263	0.05
330.473	0.02
330.684	0.01
330.894	-0.02
331.105	0.01
331.315	-0.03
331.526	-0.08
331.736	0.05
331.947	-0.01
332.157	-0
332.367	-0.06
332.578	0.03
332.788	0.05
332.999	0.06
333.209	-0.02
333.419	-0.08
333.629	-0.02
333.84	0.01
334.05	-0.02
334.26	0.07
334.47	0.03
334.681	0.02
334.891	-0.03
335.101	0.02
335.311	0.05
335.521	-0.04
335.732	-0.08
335.942	0.06
336.152	0.04
336.362	0.01
336.572	-0
336.782	0.03
336.992	-0.05
337.202	-0.03
337.412	-0.05
337.622	-0.02
337.832	0.02
338.042	0.03
338.252	-0.04
338.462	-0.02
338.672	-0.02
338.882	-0
339.092	-0.03
339.302	0.06
339.511	0.02
339.721	-0.06
339.931	-0.08
340.141	0.02
340.351	0.02
340.561	-0
340.77	-0.01
340.98	0.01
341.19	0.04
341.4	-0.03
341.609	-0.06
341.819	-0.05
342.029	-0.04
342.238	-0.01
342.448	-0.04
342.658	0.02
342.867	-0.03
343.077	0
343.286	0.01
343.496	0.02
343.706	0.04
343.915	-0.04
344.125	-0.04
344.334	-0.01
344.544	-0.06
344.753	-0.06
344.963	-0.04
345.172	-0.03
345.381	-0.01
345.591	-0.06
345.8	0
346.01	0.06
346.219	0.04
346.428	-0.18
346.638	-0.02
346.847	0.02
347.056	0.05
347.266	-0.05
347.475	0.02
347.684	-0.02
347.893	0.03
348.103	0.05
348.312	-0.01
348.521	-0.02
348.73	-0.02
348.94	-0.01
349.149	-0.02
349.358	-0.02
349.567	-0.06
349.776	-0.03
349.985	-0.07
350.194	0.03
350.403	0.06
350.612	-0.06
350.821	-0.02
351.03	-0.01
351.239	-0.09
351.448	0
351.657	0.01
351.866	0.08
352.075	-0
352.284	-0.06
352.493	-0.07
352.702	0.07
352.911	0.06
353.12	0.02
353.329	-0.03
353.538	0.01
353.746	0.01
353.955	-0.06
354.164	-0
354.373	0.01
354.582	0.03
354.79	-0.02
354.999	0.02
355.208	-0.04
355.416	0.07
355.625	-0.05
355.834	-0.05
356.042	0.03
356.251	-0.05
356.46	-0.01
356.668	-0.02
356.877	0.11
357.085	0.02
357.294	-0.03
357.503	0.03
357.711	-0.01
357.92	0.16
358.128	-0.03
358.337	-0.02
358.545	0.02
358.754	-0.04
358.962	0.02
359.17	-0.06
359.379	0.01
359.587	0.05
359.796	-0.01
360.004	0.04
360.212	0.06
360.421	0.04
360.629	-0.01
360.837	-0.02
361.046	0.03
361.254	0.13
361.462	-0.02
361.67	-0.04
361.879	-0
362.087	0.08
362.295	0.05
362.503	-0.01
362.711	-0.03
362.92	-0.03
363.128	-0.02
363.336	-0.03
363.544	-0.06
363.752	-0.02
363.96	-0.01
364.168	-0.04
364.376	-0
364.584	0
364.792	0.01
365	-0.02
365.208	0.01
365.416	0.06
365.624	-0.01
365.832	-0.02
366.04	0.04
366.248	0.02
366.456	0
366.664	-0
366.872	-0.01
367.079	-0.04
367.287	0.01
367.495	-0.01
367.703	-0.02
367.911	0
368.118	-0.03
368.326	-0.04
368.534	-0.04
368.742	0.06
368.949	-0.04
369.157	-0.04
369.365	0.02
369.572	-0.02
369.78	-0.05
369.988	0.03
370.195	-0.01
370.403	0.02
370.61	-0.02
370.818	-0.02
371.026	0.01
371.233	-0.03
371.441	-0.01
371.648	-0.07
371.856	0.01
372.063	0.03
372.271	-0.03
372.478	-0.01
372.685	-0.02
372.893	0.01
373.1	-0.03
373.308	-0.03
373.515	0.08
373.722	0.01
373.93	-0.01
374.137	0.02
374.344	0.06
374.552	0.09
374.759	0.03
374.966	0.01
375.173	-0.01
375.381	0.07
375.588	0.01
375.795	-0.07
376.002	-0.06
376.209	-0.04
376.417	0.02
376.624	-0.02
376.831	0.01
377.038	-0.04
377.245	-0.09
377.452	-0.05
377.659	0
377.866	-0.05
378.073	-0.06
378.28	-0.05
378.487	0.04
378.694	0.01
378.901	-0
379.108	0.01
379.315	0.02
379.522	0.1
379.729	-0
379.936	-0.02
380.143	0.02
380.35	-0.03
380.557	-0.04
380.763	-0.04
380.97	-0
381.177	0.02
381.384	0.02
381.591	0.03
381.797	-0.02
382.004	0.03
382.211	0.02
382.418	-0.02
382.624	0.02
382.831	0.05
383.038	-0.03
383.244	0.03
383.451	-0.04
383.658	0.01
383.864	-0.02
384.071	-0.02
384.277	0.03
384.484	-0.02
384.69	-0.01
384.897	-0.11
385.103	0.01
385.31	-0.04
385.516	-0.03
385.723	-0.04
385.929	-0.01
386.136	-0.03
386.342	0.01
386.549	-0.04
386.755	0.07
386.961	-0.01
387.168	-0.05
387.374	0.03
387.58	0.02
387.787	0.01
387.993	-0.02
388.199	-0.04
388.406	-0.06
388.612	-0.01
388.818	-0.03
389.024	-0.06
389.231	-0.03
389.437	0.08
389.643	0.02
389.849	-0
390.055	0.01
390.261	-0.03
390.467	-0.01
390.674	-0.09
390.88	-0.01
391.086	0.02
391.292	-0.06
391.498	0.02
391.704	-0.02
391.91	-0.02
392.116	-0.06
392.322	-0.11
392.528	0.03
392.734	-0.03
392.94	-0.02
393.146	-0.02
393.352	-0.03
393.557	-0.04
393.763	-0.03
393.969	0
394.175	-0.06
394.381	0.03
394.587	-0.07
394.792	-0.02
394.998	0.03
395.204	0.03
395.41	-0.03
395.615	0.02
395.821	-0.03
396.027	0.03
396.233	-0.04
396.438	0.02
396.644	0.07
396.85	-0
397.055	-0.04
397.261	0.03
397.466	0.08
397.672	0
397.878	0.01
398.083	0.04
398.289	-0.05
398.494	0.02
398.7	0.02
398.905	-0.09
399.111	0.1
399.316	-0.1
399.522	-0.01
399.727	-0.02
399.932	-0.04
400.138	0.02
400.343	0.01
400.549	-0.02
400.754	-0.01
400.959	-0.02
401.165	-0.02
401.37	0
401.575	0.06
401.78	-0.02
401.986	-0.03
402.191	-0.03
402.396	-0.02
402.601	0.01
402.807	-0
403.012	-0.04
403.217	0.05
403.422	-0.04
403.627	-0
403.832	-0
404.037	0.01
404.243	0.01
404.448	-0.06
404.653	-0.1
404.858	0.03
405.063	0.01
405.268	-0
405.473	-0.06
405.678	-0
405.883	0.18
406.088	0.01
406.293	-0.04
406.498	-0.05
406.703	0.06
406.907	-0.03
407.112	-0.08
407.317	-0.04
407.522	0
407.727	-0.08
407.932	-0.02
408.136	0.06
408.341	0.03
408.546	-0.01
408.751	0.04
408.956	-0.05
409.16	0.07
409.365	0.01
409.57	-0.08
409.774	0.01
409.979	0.03
410.184	0.02
410.388	-0.03
410.593	0.05
410.798	0.04
411.002	-0.07
411.207	0.01
411.411	0.04
411.616	-0.02
411.82	-0.05
412.025	0.03
412.229	-0.03
412.434	0.06
412.638	0.03
412.843	-0.01
413.047	-0.01
413.252	-0.02
413.456	-0.05
413.66	0.05
413.865	-0.03
414.069	0.09
414.273	-0.05
414.478	-0.03
414.682	-0.04
414.886	-0.04
415.091	-0.1
415.295	-0.08
415.499	0.06
415.703	-0.04
415.908	0.06
416.112	-0.1
416.316	0.04
416.52	0
416.724	-0.05
416.929	-0.02
417.133	0.12
417.337	-0.01
417.541	-0.03
417.745	-0.02
417.949	-0.02
418.153	0.02
418.357	-0.06
418.561	0.11
418.765	0.01
418.969	0.1
419.173	0
419.377	-0.01
419.581	0.08
419.785	0.01
419.989	-0.09
420.193	0.02
420.397	-0.03
420.601	0.05
420.804	0.03
421.008	0.03
421.212	0.08
421.416	0.05
421.62	-0.03
421.823	0.03
422.027	0.07
422.231	0.04
422.435	0.01
422.638	0.02
422.842	0.04
423.046	-0.01
423.249	0.07
423.453	0.02
423.657	0.03
423.86	-0.05
424.064	-0.01
424.268	0.04
424.471	0.03
424.675	0.09
424.878	0.08
425.082	0
425.285	0.1
425.489	-0
425.692	-0.01
425.896	-0.01
426.099	0.06
426.303	-0.07
426.506	-0.08
426.71	0.03
426.913	0.1
427.116	0.09
427.32	0.03
427.523	0
427.726	0.1
427.93	-0.04
428.133	-0
428.336	-0.03
428.54	-0.07
428.743	0.05
428.946	0.05
429.149	-0.01
429.353	0.02
429.556	-0.04
429.759	0.04
429.962	-0.06
430.165	0.01
430.368	-0.01
430.571	-0.02
430.775	0
430.978	-0.02
431.181	0.04
431.384	-0.02
431.587	0.02
431.79	0.01
431.993	0.03
432.196	0.02
432.399	-0.03
432.602	0.05
432.805	0.02
433.008	-0.03
433.211	-0.05
433.414	0.01
433.616	0.03
433.819	0
434.022	-0.12
434.225	0.1
434.428	-0.01
434.631	0.08
434.833	-0.04
435.036	-0.03
435.239	0.05
435.442	0.01
435.645	-0.05
435.847	-0.04
436.05	0.06
436.253	-0.02
436.455	-0.1
436.658	-0.02
436.861	0.04
437.063	-0.07
437.266	-0.01
437.468	0.01
437.671	0.08
437.874	-0.01
438.076	-0.05
438.279	-0.07
438.481	-0.01
438.684	-0.03
438.886	0.02
439.089	-0.09
439.291	0.02
439.494	-0.02
439.696	-0.08
439.899	-0
440.101	0.01
440.303	-0.08
440.506	0.01
440.708	-0.01
440.91	-0
441.113	-0.05
441.315	0.02
441.517	-0.06
441.72	0.06
441.922	-0.08
442.124	-0.06
442.326	0.05
442.529	0.08
442.731	-0.01
442.933	0.05
443.135	-0.04
443.337	-0.07
443.539	-0.06
443.742	-0.01
443.944	0.01
444.146	-0.03
444.348	0
444.55	-0.03
444.752	-0.02
444.954	-0.06
445.156	-0.02
445.358	-0.01
445.56	0.03
445.762	-0.03
445.964	-0.02
446.166	-0.04
446.368	-0.06
446.57	0.05
446.772	-0.03
446.974	-0.06
447.175	0.02
447.377	-0.02
447.579	-0.01
447.781	-0.12
447.983	0.07
448.184	0
448.386	0.02
448.588	-0.09
448.79	0.02
448.991	-0.04
449.193	-0.04
449.395	-0.03
449.597	0.01
449.798	0
450	-0.02
450.202	0.01
450.403	-0.01
450.605	-0
450.806	-0.03
451.008	-0.1
451.21	-0
451.411	0.01
451.613	-0.04
451.814	0
452.016	0.02
452.217	-0.02
452.419	0.03
452.62	-0.04
452.821	0.01
453.023	-0.01
453.224	0.05
453.426	-0.02
453.627	0.01
453.828	0.01
454.03	0.02
454.231	0.01
454.432	-0.12
454.634	0.05
454.835	-0.07
455.036	-0.07
455.238	0.05
455.439	0.09
455.64	-0.12
455.841	-0.04
456.042	0.01
456.244	0.04
456.445	-0.05
456.646	-0.1
456.847	0
457.048	0.02
457.249	0.04
457.45	0.18
457.651	-0.07
457.852	0.02
458.054	0
458.255	-0.04
458.456	-0
458.657	-0.02
458.858	-0.06
459.058	-0.02
459.259	0.08
459.46	0
459.661	-0.02
459.862	0.06
460.063	-0.02
460.264	0.05
460.465	-0.1
460.666	0.09
460.866	-0.04
461.067	0.01
461.268	-0.04
461.469	-0.06
461.67	0
461.87	-0.05
462.071	-0.04
462.272	-0.07
462.473	0
462.673	-0.01
462.874	-0.09
463.075	0
463.275	-0.04
463.476	-0.01
463.676	0.01
463.877	0.04
464.078	-0.04
464.278	0.03
464.479	0.01
464.679	-0.04
464.88	-0.04
465.08	0.04
465.281	-0.04
465.481	-0.05
465.682	-0.01
465.882	0.01
466.083	-0.06
466.283	-0.01
466.483	-0.01
466.684	-0.09
466.884	-0.07
467.085	-0.04
467.285	0.05
467.485	-0.04
467.686	-0.03
467.886	-0.08
468.086	-0.01
468.286	-0.04
468.487	-0
468.687	-0.02
468.887	0.01
469.087	0.04
469.287	-0.04
469.488	-0.05
469.688	0.02
469.888	0.04
470.088	0.05
470.288	0.03
470.488	0.04
470.688	-0.05
470.888	-0.02
471.088	-0.03
471.288	0.05
471.488	0.02
471.688	0.01
471.888	-0.01
472.088	0.05
472.288	0.02
472.488	-0.04
472.688	-0.02
472.888	-0.02
473.088	0.02
473.288	0.01
473.488	0
473.688	0.1
473.887	-0.04
474.087	-0.07
474.287	0.01
474.487	-0.06
474.687	0
474.886	-0.03
475.086	-0.01
475.286	-0.04
475.486	-0.01
475.685	0
475.885	-0.01
476.085	-0.01
476.284	0.01
476.484	0.01
476.684	0.04
476.883	0.09
477.083	-0.01
477.282	-0.03
477.482	0.06
477.681	0.03
477.881	-0.01
478.08	-0.05
478.28	-0.01
478.479	0.01
478.679	0.09
478.878	-0.03
479.078	-0.02
479.277	-0.04
479.477	-0
479.676	0.03
479.875	0
480.075	-0.1
480.274	0.01
480.473	0.01
480.673	-0.05
480.872	0.04
481.071	-0.03
481.271	0.05
481.47	-0.02
481.669	-0.04
481.868	-0.01
482.067	-0.04
482.267	-0.04
482.466	-0
482.665	-0.05
482.864	-0.06
483.063	-0.04
483.262	-0.01
483.461	0.06
483.661	0.01
483.86	-0.02
484.059	0
484.258	-0.01
484.457	-0.01
484.656	-0.02
484.855	0.05
485.054	-0.05
485.253	-0.04
485.452	-0.02
485.651	-0.03
485.849	-0.05
486.048	-0.05
486.247	-0.05
486.446	-0
486.645	-0.05
486.844	-0.02
487.043	-0.04
487.241	-0
487.44	-0.03
487.639	-0.01
487.838	-0.01
488.037	-0.01
488.235	0.05
488.434	-0.04
488.633	-0.03
488.831	-0.01
489.03	0.01
489.229	0.02
489.427	-0.02
489.626	0.02
489.825	0.06
490.023	-0.02
490.222	-0.01
490.42	0.03
490.619	0.02
490.817	-0.01
491.016	-0.02
491.214	0.03
491.413	-0.02
491.611	-0.01
491.81	-0.01
492.008	0.01
492.207	0.01
492.405	0.01
492.604	-0.08
492.802	-0.02
493	0.01
493.199	-0.03
493.397	-0.02
493.595	-0
493.794	-0.04
493.992	0.03
494.19	0.02
494.388	0
494.587	-0.03
494.785	0
494.983	-0.03
495.181	0
495.379	-0.02
495.578	-0.02
495.776	-0.01
495.974	0.02
496.172	-0.01
496.37	-0.02
496.568	-0.04
496.766	-0.02
496.964	0.04
497.162	-0.01
497.36	-0.06
497.558	0
497.756	0.01
497.954	-0.02
498.152	-0.03
498.35	-0.01
498.548	-0.01
498.746	0
498.944	-0.04
499.142	-0.04
499.34	-0.04
499.538	-0
499.736	-0.04
499.933	0.05
500.131	0.03
500.329	-0.01
500.527	0
500.725	0.02
500.922	0.01
501.12	0.01
501.318	-0.01
501.516	-0.05
501.713	-0
501.911	-0.03
502.109	-0.06
502.306	0
502.504	-0
502.701	-0.03
502.899	-0.03
503.097	0.01
503.294	-0
503.492	-0.02
503.689	-0.01
503.887	0.02
504.084	0.04
504.282	-0.01
504.479	-0.04
504.677	0
504.874	-0.06
505.072	-0.01
505.269	-0.03
505.466	0
505.664	0.02
505.861	-0.05
506.059	-0.02
506.256	0.01
506.453	-0.02
506.651	0.02
506.848	0.02
507.045	-0.01
507.242	-0.02
507.44	-0.03
507.637	0
507.834	-0.02
508.031	0.01
508.229	-0.04
508.426	-0.01
508.623	0.03
508.82	-0.03
509.017	-0.03
509.214	-0.01
509.411	-0
509.608	-0.04
509.805	-0
510.003	-0.02
510.2	-0.02
510.397	0.04
510.594	-0.05
510.791	-0.04
510.988	-0.01
511.184	0.04
511.381	-0.01
511.578	-0.01
511.775	0.03
511.972	-0.03
512.169	0
512.366	-0.02
512.563	0.01
512.76	-0.01
512.956	-0.01
513.153	-0.01
513.35	-0.01
513.547	-0.05
513.744	-0.05
513.94	-0.05
514.137	-0
514.334	-0.01
514.53	-0.01
514.727	-0.01
514.924	0.04
515.12	-0.02
515.317	-0.04
515.514	-0.03
515.71	-0.01
515.907	-0.02
516.103	-0.02
516.3	0.01
516.497	0.01
516.693	0.03
516.89	-0.01
517.086	-0.03
517.283	0.05
517.479	0
517.676	-0
517.872	-0.01
518.068	-0.02
518.265	-0.02
518.461	-0
518.658	-0.02
518.854	-0
519.05	-0
519.247	-0.03
519.443	0.01
519.639	-0
519.836	-0.01
520.032	-0.01
520.228	-0
520.424	0.03
520.621	0.01
520.817	-0.03
521.013	0.03
521.209	-0.01
521.405	0.04
521.601	-0
521.798	-0.01
521.994	0.02
522.19	-0.02
522.386	-0.02
522.582	-0.01
522.778	-0.02
522.974	-0.01
523.17	-0.02
523.366	0.01
523.562	0.02
523.758	-0.01
523.954	-0.03
524.15	-0.02
524.346	0.01
524.542	-0.01
524.738	-0.04
524.934	-0.03
525.129	-0.01
525.325	-0.01
525.521	-0.01
525.717	0.03
525.913	-0
526.109	-0.01
526.304	0.02
526.5	0.01
526.696	0.02
526.892	-0.01
527.087	-0
527.283	-0.04
527.479	-0
527.674	-0.03
527.87	-0.01
528.066	-0.03
528.261	0
528.457	0.02
528.653	-0.03
528.848	-0.02
529.044	0.01
529.239	-0.02
529.435	0.02
529.63	0
529.826	0.05
530.021	-0
530.217	0.02
530.412	-0.01
530.608	-0.01
530.803	-0
530.999	-0.02
531.194	-0.04
531.389	-0.01
531.585	-0.05
531.78	-0.01
531.975	-0.01
532.171	0.02
532.366	-0.02
532.561	-0.03
532.757	-0.03
532.952	-0.01
533.147	0.02
533.342	-0.02
533.538	-0.03
533.733	0.04
533.928	0
534.123	-0
534.318	-0.04
534.513	-0.02
534.709	-0
534.904	-0.02
535.099	-0.02
535.294	-0.01
535.489	-0.01
535.684	-0.01
535.879	-0.04
536.074	0.01
536.269	-0.04
536.464	-0.03
536.659	-0.01
536.854	-0
537.049	-0.01
537.244	0.01
537.439	-0.02
537.634	0.01
537.828	0.01
538.023	-0.01
538.218	-0.06
538.413	-0.01
538.608	-0.02
538.803	0.01
538.997	-0.05
539.192	-0.01
539.387	-0.01
539.582	-0.01
539.776	-0.03
539.971	-0.01
540.166	0
540.36	-0.05
540.555	-0.01
540.75	-0.04
540.944	0.01
541.139	-0.06
541.334	-0.04
541.528	0.02
541.723	0.02
541.917	-0.03
542.112	-0.04
542.306	-0
542.501	-0.03
542.695	0
542.89	-0.04
543.084	0
543.279	-0.04
543.473	-0.02
543.668	-0.02
543.862	-0.01
544.056	0.01
544.251	-0.03
544.445	0
544.64	-0.02
544.834	-0.01
545.028	-0.02
545.222	0
545.417	-0
545.611	-0.01
545.805	0
546	-0.02
546.194	-0
546.388	-0.02
546.582	-0.01
546.776	-0.02
546.97	-0
547.165	0.01
547.359	0.02
547.553	-0.01
547.747	-0.01
547.941	0
548.135	-0.01
548.329	0.01
548.523	0.02
548.717	-0.02
548.911	-0.02
549.105	0
549.299	-0.01
549.493	0.02
549.687	0
549.881	0.01
550.075	-0
550.269	-0.06
550.463	0.01
550.657	-0.03
550.85	-0.03
551.044	-0.02
551.238	-0
551.432	-0.01
551.626	-0.05
551.82	-0.01
552.013	-0.03
552.207	-0.03
552.401	0.01
552.594	-0.01
552.788	-0.03
552.982	-0.01
553.176	-0.04
553.369	-0
553.563	0.01
553.756	-0.05
553.95	-0.02
554.144	-0
554.337	0.02
554.531	0.01
554.724	0.01
554.918	-0.01
555.111	-0.01
555.305	-0.02
555.498	0.05
555.692	0
555.885	-0.01
556.079	-0.01
556.272	-0.03
556.466	0.02
556.659	-0
556.852	-0
557.046	-0.02
557.239	0.04
557.432	-0.06
557.626	-0.03
557.819	-0
558.012	0.01
558.206	-0.01
558.399	0
558.592	0.02
558.785	-0.03
558.979	0.01
559.172	0.01
559.365	-0
559.558	-0.01
559.751	-0.02
559.944	-0.03
560.138	-0.01
560.331	-0
560.524	-0.01
560.717	-0.01
560.91	-0
561.103	-0.02
561.296	0
561.489	-0.01
561.682	-0.01
561.875	0.04
562.068	-0
562.261	0.01
562.454	0.03
562.647	0
562.84	-0
563.032	-0
563.225	0
563.418	-0.01
563.611	-0.01
563.804	-0.02
563.997	-0.05
564.19	-0.02
564.382	0.01
564.575	0
564.768	-0.01
564.961	-0
565.153	-0.03
565.346	0.02
565.539	0.02
565.731	0.01
565.924	0.02
566.117	0.01
566.309	0.01
566.502	-0.02
566.695	-0.02
566.887	-0.02
567.08	-0.02
567.272	-0.02
567.465	-0.01
567.657	0.01
567.85	0.01
568.042	0.02
568.235	0.01
568.427	-0.02
568.62	-0.01
568.812	0.01
569.005	-0.01
569.197	-0.05
569.389	-0.01
569.582	0.01
569.774	0
569.966	-0.01
570.159	-0.04
570.351	0.02
570.543	-0.04
570.736	-0.01
570.928	-0.04
571.12	-0.02
571.312	-0.01
571.505	-0.05
571.697	0.02
571.889	-0.02
572.081	-0.02
572.273	-0.05
572.465	0.03
572.658	-0.02
572.85	0
573.042	-0.03
573.234	-0.01
573.426	0.04
573.618	-0.04
573.81	-0.01
574.002	0.02
574.194	0.03
574.386	-0.05
574.578	-0.07
574.77	-0.04
574.962	0
575.154	-0.03
575.346	-0.02
575.538	-0.01
575.729	-0.03
575.921	-0.04
576.113	-0.03
576.305	0.03
576.497	-0.02
576.689	-0.01
576.88	-0.05
577.072	0.01
577.264	0
577.456	-0.04
577.647	-0.08
577.839	-0.02
578.031	0.01
578.223	-0.05
578.414	-0.05
578.606	0
578.798	0
578.989	-0.04
579.181	-0.02
579.372	0
579.564	-0
579.755	0
579.947	-0
580.139	0.02
580.33	-0.06
580.522	-0.03
580.713	-0.08
580.905	0.02
581.096	0
581.287	-0.01
581.479	-0.04
581.67	0.01
581.862	-0.02
582.053	-0.04
582.244	-0.06
582.436	-0.01
582.627	-0.01
582.818	-0.04
583.01	-0.05
583.201	0.02
583.392	0.03
583.583	-0
583.775	-0.01
583.966	-0.04
584.157	-0.03
584.348	-0.05
584.54	-0.04
584.731	0.04
584.922	0
585.113	-0.06
585.304	0.03
585.495	0.01
585.686	-0.01
585.877	0.02
586.068	-0.01
586.259	0.03
586.45	-0
586.641	-0.01
586.832	-0.05
587.023	0.01
587.214	0.01
587.405	-0
587.596	-0.03
587.787	0.02
587.978	-0.02
588.169	-0.06
588.36	-0.03
588.551	-0.01
588.742	-0.03
588.932	-0
589.123	-0
589.314	0.01
589.505	0.01
589.696	-0.01
589.886	-0.03
590.077	-0.06
590.268	-0.02
590.458	-0.04
590.649	-0.02
590.84	-0.01
591.03	-0.05
591.221	-0.07
591.412	-0.05
591.602	0.01
591.793	0.02
591.984	-0.03
592.174	-0
592.365	0.02
592.555	-0.07
592.746	0.01
592.936	-0
593.127	-0
593.317	0.01
593.508	-0.01
593.698	-0.04
593.889	-0.01
594.079	-0.02
594.269	-0.02
594.46	-0.03
594.65	-0.03
594.84	-0.03
595.031	-0.03
595.221	-0.02
595.411	-0.06
595.602	0.01
595.792	-0.04
595.982	-0.01
596.172	0.03
596.363	-0
596.553	-0.02
596.743	-0.01
596.933	-0.02
597.123	0.01
597.314	-0.04
597.504	-0.05
597.694	0.03
597.884	-0
598.074	-0.04
598.264	-0.04
598.454	-0.01
598.644	-0.02
598.834	-0.01
599.024	-0.08
599.214	-0.04
599.404	0.03
599.594	-0.03
599.784	-0.02
599.974	0.03
600.164	0.02
600.354	-0.06
600.544	-0.05
600.734	0.01
600.924	0.03
601.114	-0.05
601.303	-0.02
601.493	0.02
601.683	-0.03
601.873	-0
602.063	-0.06
602.252	0.01
602.442	-0.07
602.632	-0.02
602.821	-0.06
603.011	-0.01
603.201	-0.04
603.39	-0.04
603.58	-0.02
603.77	-0.02
603.959	0.01
604.149	0.01
604.339	-0.02
604.528	0.03
604.718	-0.01
604.907	-0.01
605.097	-0.03
605.286	-0.04
605.476	0.01
605.665	0
605.855	-0.01
606.044	0.04
606.234	-0
606.423	-0.03
606.612	-0.05
606.802	-0.04
606.991	-0
607.181	-0
607.37	-0.06
607.559	-0.04
607.749	-0.06
607.938	-0
608.127	-0.05
608.316	-0.04
608.506	-0.01
608.695	-0.03
608.884	-0.04
609.073	-0.02
609.263	0.02
609.452	0.01
609.641	0
609.83	-0.05
610.019	-0.01
610.208	-0.03
610.397	-0.04
610.586	-0.02
610.775	-0.03
610.965	-0.01
611.154	-0.04
611.343	0.01
611.532	-0.02
611.721	-0.05
611.91	-0.03
612.099	0.02
612.287	-0
612.476	-0.04
612.665	-0
612.854	-0.01
613.043	0.01
613.232	-0.06
613.421	-0.05
613.61	-0
613.798	-0.04
613.987	0.01
614.176	-0.03
614.365	0.02
614.554	-0.03
614.742	0.01
614.931	-0.03
615.12	0.01
615.309	-0.04
615.497	-0.01
615.686	-0.04
615.875	-0.03
616.063	-0.01
616.252	-0.02
616.44	-0.05
616.629	-0
616.818	0.01
617.006	-0.01
617.195	-0.01
617.383	0.01
617.572	-0.05
617.76	-0.02
617.949	-0.03
618.137	-0.02
618.326	0
618.514	-0.04
618.703	-0.05
618.891	0.05
619.079	-0.07
619.268	0.02
619.456	-0.04
619.644	0.02
619.833	-0.04
620.021	-0.03
620.209	-0.06
620.398	0
620.586	0.01
620.774	0
620.962	-0.02
621.151	0.06
621.339	-0.03
621.527	-0.03
621.715	-0.06
621.903	-0.05
622.092	-0.05
622.28	-0
622.468	-0.03
622.656	-0.03
622.844	-0.01
623.032	-0.06
623.22	-0.05
623.408	0.01
623.596	0.01
623.784	-0.01
623.972	-0.04
624.16	-0.02
624.348	0.04
624.536	-0.03
624.724	-0.03
624.912	0.04
625.1	0.01
625.288	-0.04
625.476	-0.05
625.664	0.04
625.851	-0.02
626.039	-0.02
626.227	-0
626.415	-0.03
626.603	-0.06
626.79	-0.01
626.978	-0
627.166	0.03
627.354	-0.01
627.541	-0.03
627.729	-0.07
627.917	-0.02
628.104	0.02
628.292	0.01
628.48	-0.04
628.667	-0.01
628.855	0
629.042	-0.01
629.23	-0.03
629.418	-0.02
629.605	-0
629.793	-0
629.98	-0.04
630.168	-0.03
630.355	-0.01
630.543	-0.01
630.73	-0.06
630.917	0.01
631.105	0.02
631.292	-0.03
631.48	-0.03
631.667	0.09
631.854	0.02
632.042	-0.01
632.229	-0.07
632.416	-0
632.604	-0.01
632.791	-0.06
632.978	0.02
633.165	0.01
633.353	0.05
633.54	0.01
633.727	-0.07
633.914	-0.06
634.101	-0.02
634.289	0.01
634.476	-0.05
634.663	-0.05
634.85	-0.03
635.037	-0.05
635.224	-0.09
635.411	-0.01
635.598	0.01
635.785	-0.01
635.972	-0.04
636.159	0.03
636.346	-0.05
636.533	-0.01
636.72	-0.04
636.907	-0.03
637.094	0.02
637.281	-0.02
637.468	0.01
637.655	-0.04
637.842	0.02
638.029	-0.04
638.215	-0.02
638.402	0.02
638.589	-0.04
638.776	-0.03
638.963	-0.06
639.149	0.02
639.336	0.06
639.523	-0.03
639.709	-0.04
639.896	0.01
640.083	0.02
640.27	0
640.456	-0.05
640.643	-0.01
640.829	-0.03
641.016	-0.01
641.203	-0.08
641.389	-0
641.576	0.01
641.762	-0.01
641.949	-0.06
642.135	-0.02
642.322	0
642.508	-0.06
642.695	-0.02
642.881	0.01
643.068	-0.02
643.254	-0.05
643.441	-0
643.627	-0
643.813	-0.05
644	0.01
644.186	-0.03
644.372	0
644.559	0.02
644.745	-0.01
644.931	-0.06
645.118	-0.04
645.304	-0.02
645.49	-0.04
645.676	-0.03
645.862	-0.01
646.049	0.03
646.235	-0.02
646.421	0.06
646.607	0.03
646.793	-0.02
646.979	-0.06
647.165	-0
647.352	-0.02
647.538	0.01
647.724	-0.03
647.91	0.01
648.096	0.04
648.282	0.01
648.468	-0.04
648.654	0
648.84	0.01
649.026	-0.03
649.212	-0.01
649.397	-0.07
649.583	-0.03
649.769	0.01
649.955	-0
650.141	-0.02
650.327	0.06
650.513	-0.06
650.698	-0.01
650.884	-0.1
651.07	0
651.256	0.02
651.442	-0.05
651.627	-0.03
651.813	-0.01
651.999	-0.02
652.184	0
652.37	0.01
652.556	-0.05
652.741	0.05
652.927	-0.09
653.113	-0.02
653.298	-0.01
653.484	-0.04
653.669	-0.06
653.855	-0.03
654.04	-0.01
654.226	-0.01
654.412	-0.03
654.597	-0.06
654.782	-0.01
654.968	0.01
655.153	-0.01
655.339	-0.03
655.524	-0.03
655.71	0.06
655.895	-0.04
656.08	-0.03
656.266	0.04
656.451	0.01
656.636	-0.05
656.822	-0.01
657.007	-0.03
657.192	-0.02
657.378	-0.08
657.563	-0.02
657.748	-0.03
657.933	-0.01
658.118	-0.04
658.304	-0.02
658.489	0.01
658.674	0.01
658.859	-0.08
659.044	-0.02
659.229	-0
659.414	-0.05
659.599	-0.02
659.785	-0.06
659.97	-0.05
660.155	0.01
660.34	-0.04
660.525	-0.02
660.71	-0.03
660.895	0.01
661.08	-0.03
661.264	-0.04
661.449	0.03
661.634	0.01
661.819	0.01
662.004	-0
662.189	-0.12
662.374	-0.04
662.559	-0.05
662.743	-0.08
662.928	-0.07
663.113	-0
663.298	-0.08
663.483	-0.04
663.667	-0.04
663.852	-0.03
664.037	0.03
664.221	-0.03
664.406	0.02
664.591	0.01
664.775	0.02
664.96	-0.02
665.145	-0.01
665.329	0.02
665.514	-0.05
665.698	-0.02
665.883	-0.06
666.068	0.09
666.252	-0.05
666.437	-0.08
666.621	-0.01
666.806	-0
666.99	-0.03
667.174	-0.03
667.359	0.06
667.543	-0.02
667.728	-0.03
667.912	-0.08
668.096	0.02
668.281	-0.07
668.465	-0.06
668.649	-0.02
668.834	-0.07
669.018	-0.04
669.202	-0.02
669.387	-0.04
669.571	0.04
669.755	-0.04
669.939	-0.02
670.124	-0.03
670.308	0.03
670.492	0.04
670.676	-0.02
670.86	-0.01
671.044	-0.04
671.228	0.02
671.413	-0.05
671.597	-0.06
671.781	-0.06
671.965	-0.03
672.149	-0.01
672.333	-0
672.517	-0.07
672.701	-0.01
672.885	-0.02
673.069	-0.08
673.253	0.01
673.437	-0.03
673.621	-0.07
673.804	-0.03
673.988	0
674.172	-0.05
674.356	-0.05
674.54	-0.05
674.724	0.06
674.908	-0.03
675.091	0.03
675.275	-0.06
675.459	0.03
675.643	0.07
675.826	0.03
676.01	-0.01
676.194	0.02
676.377	0.01
676.561	-0.02
676.745	-0.01
676.928	-0.01
677.112	0.04
677.296	-0.07
677.479	-0.05
677.663	-0.08
677.846	0.03
678.03	-0.07
678.213	-0.06
678.397	0.02
678.58	-0.06
678.764	-0.04
678.947	-0.06
679.131	-0.07
679.314	0.01
679.498	-0.1
679.681	-0.01
679.865	0.03
680.048	-0
680.231	-0.03
680.415	-0.05
680.598	-0.01
680.781	-0.06
680.965	-0.08
681.148	0
681.331	-0.07
681.514	0.01
681.698	-0.03
681.881	-0.02
682.064	0.01
682.247	0.02
682.43	-0.1
682.614	0.04
682.797	0.03
682.98	0.02
683.163	-0.05
683.346	-0.01
683.529	-0.04
683.712	-0.07
683.895	-0.04
684.078	-0.1
684.261	-0.03
684.444	-0.01
684.627	0.01
684.81	-0.05
684.993	-0.05
685.176	0.03
685.359	-0.07
685.542	-0.02
685.725	0.05
685.908	0.01
686.091	-0.08
686.274	0.03
686.457	0.03
686.639	-0.06
686.822	0.03
687.005	-0.02
687.188	-0.01
687.371	0.1
687.553	0
687.736	-0.02
687.919	0.06
688.102	0.04
688.284	-0.07
688.467	-0.05
688.65	-0.01
688.832	-0.05
689.015	-0.02
689.197	-0.09
689.38	0.05
689.563	0.08
689.745	-0.03
689.928	-0.06
690.11	-0.01
690.293	0.03
690.475	-0.13
690.658	0.01
690.84	-0.03
691.023	-0.01
691.205	-0.04
691.388	0.01
691.57	0.02
691.752	-0.01
691.935	-0.1
692.117	-0.06
692.3	0
692.482	-0.02
692.664	-0.01
692.847	-0.01
693.029	0.05
693.211	0.01
693.393	-0.04
693.576	0
693.758	-0.01
693.94	-0.04
694.122	-0.06
694.304	-0.02
694.487	-0.02
694.669	0.06
694.851	-0.05
695.033	0.02
695.215	-0.04
695.397	-0.05
695.579	-0
695.761	-0.05
695.943	-0.11
696.125	0.04
696.308	0.05
696.49	-0.15
696.671	0.1
696.853	-0.04
697.035	0.09
697.217	-0.05
697.399	-0.01
697.581	-0.08
697.763	-0.01
697.945	-0.05
698.127	0.01
698.309	0.05
698.491	-0.01
698.672	-0.01
698.854	0.01
699.036	0.1
699.218	-0.04
699.399	0.04
699.581	0.02
699.763	0.02
699.945	-0.04
700.126	-0.07
700.308	-0.01
700.49	-0.01
700.671	-0.08
700.853	-0.03
701.035	-0.06
701.216	-0.01
701.398	-0.04
701.579	-0.01
701.761	0.04
701.943	0.01
702.124	-0.13
702.306	-0.07
702.487	0.13
702.669	-0.01
702.85	-0.06
703.031	-0.12
703.213	0.03
703.394	0.05
703.576	-0.02
703.757	0.04
703.938	0.01
704.12	0.18
704.301	-0.03
704.483	-0.07
704.664	-0.03
704.845	0.1
705.026	0
705.208	-0.01
705.389	0.03
705.57	0.03
705.751	-0.06
705.933	-0.01
706.114	0.06
706.295	-0.01
706.476	-0.13
706.657	0.04
706.838	0
707.02	0.01
707.201	-0.02
707.382	-0.06
707.563	0.02
707.744	-0.02
707.925	-0.08
708.106	-0.1
708.287	0.01
708.468	0.07
708.649	0
708.83	0.01
709.011	-0.06
709.192	-0.01
709.373	-0.12
709.554	0
709.734	0.03
709.915	0.06
710.096	-0.04
710.277	-0.13
710.458	-0.07
710.639	-0
710.819	-0.14
711	-0.04
711.181	0.05
711.362	0.04
711.542	0.06
711.723	-0.06
711.904	0.03
712.085	0.01
712.265	-0
712.446	-0.07
712.627	-0.03
712.807	-0.07
712.988	-0.02
713.168	-0.08
713.349	0.02
713.53	-0.15
713.71	-0.1
713.891	-0.09
714.071	0.02
714.252	-0.05
714.432	-0.07
714.613	-0.13
714.793	0.03
714.974	0.08
715.154	0.11
715.334	-0.01
715.515	0.02
715.695	-0.1
715.876	-0.03
716.056	-0.02
716.236	-0.08
716.417	-0.08
716.597	-0.01
716.777	0.11
716.957	-0.05
717.138	0
717.318	-0
717.498	-0.12
717.678	0.06
717.859	0.04
718.039	-0.11
718.219	-0.07
718.399	-0
718.579	-0.12
718.759	-0.16
718.939	-0
719.12	0.02
719.3	0.03
719.48	-0.19
719.66	-0.09
719.84	0.08
720.02	0.03
720.2	-0.01
720.38	-0
720.56	0.05
720.74	-0
720.92	0.02
721.1	0.06
721.279	0.06
721.459	0.01
721.639	-0.11
721.819	-0.04
721.999	-0.03
722.179	-0.06
722.359	-0.15
722.538	-0.05
722.718	-0.06
722.898	-0.06
723.078	-0.01
723.257	-0.07
723.437	-0.03
723.617	-0.02
723.797	-0.02
723.976	-0.03
724.156	0.05
724.336	0.13
724.515	0.09
724.695	-0.12
724.874	-0.04
725.054	0.02
725.234	-0.06
725.413	0.01
725.593	-0.03
725.772	0.01
725.952	-0.02
726.131	-0.08
726.311	0.03
726.49	-0.03
726.67	-0.06
726.849	-0.1
727.028	-0.03
727.208	-0.05
727.387	0.01
727.567	-0.11
727.746	-0.09
727.925	-0.05
728.105	-0.09
728.284	-0.06
728.463	-0.29
728.643	0.06
728.822	-0.07
729.001	-0.06
729.18	-0.04
729.359	0.02
729.539	-0.06
729.718	-0.04
729.897	0.04
730.076	0.04
730.255	-0.09
730.434	-0.08
730.614	0.03
730.793	0.04
730.972	-0.08
731.151	0.02
731.33	0.01
731.509	0.08
731.688	-0.04
731.867	-0.06
732.046	-0.18
732.225	0.16
732.404	-0.09
732.583	-0.1
732.762	0.06
732.941	0.11
733.12	-0.07
733.298	-0.04
733.477	-0.04
733.656	-0.06
733.835	-0.14
734.014	0.05
734.193	0.04
734.371	0.08
734.55	0.01
734.729	-0.14
734.908	0.04
735.086	-0.01
735.265	0.07
735.444	-0.22
735.623	-0.08
735.801	-0.15
735.98	-0.09
736.159	-0.02
736.337	0.07
736.516	-0.02
736.694	0.02
736.873	-0.02
737.052	0.17
737.23	0.11
737.409	-0.13
737.587	0.11
737.766	-0.21
737.944	-0.11
738.123	-0.04
738.301	0.06
738.479	-0.04
738.658	-0.04
738.836	-0.18
739.015	-0.07
739.193	0.05
739.371	0.06
739.55	-0.11
739.728	-0.07
739.906	0.09
740.085	0.28
740.263	0.02
740.441	-0.27
740.62	0.06
740.798	-0
740.976	-0.18
741.154	-0.04
741.332	0.11
741.511	-0.02
741.689	0.05
741.867	-0
742.045	0.09
742.223	-0.09
742.401	-0.17
742.579	-0.04
742.757	-0.02
742.935	-0.11
743.114	-0.07
743.292	-0.13
743.47	-0.05
743.648	-0.05
743.826	0.04
744.004	0.02
744.181	0.07
744.359	-0.08
744.537	0.03
744.715	-0.06
744.893	-0.1
745.071	0
745.249	-0.12
745.427	-0.11
745.605	-0.02
745.782	-0.04
745.96	0
746.138	0.08
746.316	0.03
746.493	-0.09
746.671	-0.04
746.849	-0.08
747.027	0.17
747.204	-0.09
747.382	0.05
747.56	-0.23
747.737	-0
747.915	-0.14
748.093	-0.05
748.27	-0.11
748.448	-0.09
748.625	-0.15
748.803	-0.11
748.98	-0.06
749.158	0.02
749.335	0.05
749.513	-0.12
749.69	-0.13
749.868	-0.06
750.045	0.06
750.223	-0.1
750.4	-0.21
750.578	0.18
750.755	0.02
750.932	-0.09
751.11	0.16
751.287	-0.11
751.464	0.09
751.642	-0.04
751.819	0.08
751.996	-0.05
752.173	-0.11
752.351	-0.01
752.528	0.04
752.705	-0.04
752.882	-0.05
753.06	-0.1
753.237	0.11
753.414	0.09
753.591	0.17
753.768	-0.01
753.945	-0.06
754.122	-0.07
754.299	-0.01
754.476	-0.04
754.654	0.03
754.831	0.03
755.008	0.01
755.185	-0.11
755.362	-0.24
755.539	0.03
755.716	-0.09
755.892	-0.08
756.069	0.04
756.246	0.02
756.423	-0.09
756.6	-0.04
756.777	-0.09
756.954	0.06
757.131	-0.07
757.307	-0.2
757.484	-0.18
757.661	-0.04
757.838	-0.01
758.015	-0.14
758.191	-0.06
758.368	-0.01
758.545	0.15
758.721	-0.05
758.898	-0.23
759.075	0.03
759.251	0.01
759.428	0.02
759.605	-0.08
759.781	-0.11
759.958	0.02
760.134	-0.02
760.311	0
760.488	0.03
760.664	0.15
760.841	-0.05
761.017	-0.11
761.194	-0.01
761.37	0.06
761.547	0.06
761.723	0.01
761.899	0.06
762.076	-0.07
762.252	-0.14
762.429	-0.11
762.605	0.14
762.781	-0.05
762.958	0.22
763.134	-0.03
763.31	-0.04
763.486	0.13
763.663	-0.25
763.839	-0.07
764.015	-0.23
764.191	-0.08
764.368	-0.13
764.544	-0.13
764.72	-0.04
764.896	0.17
765.072	0.06
765.248	-0.12
765.425	-0.04
765.601	-0.05
765.777	-0.1
765.953	-0.18
766.129	-0.09
766.305	-0.05
766.481	-0.04
766.657	0.04
766.833	0.04
767.009	-0.22
767.185	-0.09
767.361	0.04
767.537	-0.19
767.713	0.11
767.889	-0.02
768.065	-0.05
768.24	-0.16
768.416	-0
768.592	-0.18
768.768	0.02
768.944	-0.01
769.12	-0.13
769.295	-0.19
769.471	-0.14
769.647	-0
769.823	0.12
769.998	-0.15
770.174	-0.04
770.35	0.42
770.525	0.2
770.701	-0.04
770.877	-0.01
771.052	-0.12
771.228	0.13
771.403	-0.01
771.579	0.07
771.755	0.23
771.93	-0.02
772.106	-0.15
772.281	-0.33
772.457	-0.02
772.632	0.07
772.808	-0.16
772.983	-0.11
773.159	-0.23
773.334	0.15
773.509	0.01
773.685	-0.15
773.86	0.35
774.036	0.04
774.211	-0.02
774.386	-0.18
774.562	-0.09
774.737	-0.02
774.912	-0.34
775.087	0.07
775.263	-0.1
775.438	-0.19
775.613	-0.12
775.788	0.01
775.964	0.15
776.139	0.44
776.314	-0.2
776.489	0.07
776.664	0.02
776.839	-0.11
777.014	-0.01
777.19	0.09
777.365	0.18
777.54	0.19
777.715	-0.13
777.89	-0.01
778.065	-0.16
778.24	0
778.415	0.07
778.59	-0.27
778.765	-0.11
778.94	0.08
779.115	-0.07
779.289	-0.04
779.464	0.04
779.639	-0.01
779.814	-0.19
779.989	-0.27
780.164	0.15
780.339	0.08
780.513	-0.32
780.688	-0.29
780.863	-0.02
781.038	0.07
781.212	-0.35
781.387	0.04
781.562	0.17
781.737	0.13
781.911	0.22
782.086	-0.13
782.261	-0.11
782.435	0.24
782.61	-0.14
782.784	-0.17
782.959	0.22
783.134	-0.06
783.308	-0.31
783.483	-0.22
783.657	0.41
783.832	0.19
784.006	-0.17
784.181	0.01
784.355	0.25
784.53	-0.19
784.704	-0.23
784.878	0.2
785.053	-0.02
785.227	0.26
785.402	0.32
785.576	-0.26
785.75	0.03
785.925	-0.08
786.099	-0.17
786.273	0.16
786.448	0.21
786.622	0.15
786.796	-0.23
786.97	-0.11
787.145	0.47
787.319	-0.21
787.493	-0.21
787.667	-0.55
787.841	-0.1
788.015	0.38
788.19	-0.04
788.364	-0.09
788.538	0.08
788.712	-0.03
788.886	-0.2
789.06	0.11
789.234	0.11
789.408	-0.28
789.582	-0.07
789.756	-0.02
789.93	-0.05
790.104	-0.25
790.278	-0.04
790.452	-0.41
790.626	0.18
790.8	-0.27
790.973	0.12
791.147	0.15
791.321	0.18
791.495	0.26
791.669	0.09
791.843	0.11
792.016	0.05
792.19	0.56
792.364	-0.28
792.538	0.4
792.711	0.23
792.885	-0.23
793.059	-0.17
793.233	-0.49
793.406	0.31
793.58	0.15
793.754	0.03
793.927	-0.04
794.101	0.29
794.274	-0.04
794.448	0.13
794.622	-0.29
794.795	0.18
794.969	-0.25
795.142	0.27
795.316	-0.21
795.489	-0.29
795.663	0.21
795.836	-0.33
796.009	-0.57
796.183	0.33
796.356	-0.14
796.53	-0.04
796.703	-0.15
796.876	0.57
797.05	-0.02
797.223	-0.21
797.396	0.17
797.57	0.21
797.743	0.34
797.916	-0.08
798.09	0.03
798.263	0.22
798.436	0.08
798.609	-0.32
798.782	-0.14
798.956	-0.02
799.129	-0.08
799.302	-0.03
799.475	-0.19
799.648	-0.16
799.821	-0.08
799.994	-0.04
800.167	-0.46
800.34	-0.11
800.514	0.01
800.687	-0.36
800.86	-0.42
801.033	0.11
801.206	0.06
801.379	-0.35
801.551	0.25
801.724	0.02
801.897	0.43
802.07	-0.1
802.243	-0.58
802.416	-0.03
802.589	-0.48
802.762	0.06
802.935	-0.05
803.107	0.14
803.28	0.32
803.453	0.14
803.626	-0.04
803.798	0.08
803.971	-0.25
804.144	0.04
804.317	-0
804.489	0.18
804.662	-0.08
804.835	-0.27
805.007	-0.39
805.18	0.23
805.353	0.35
805.525	-0.36
805.698	-0.31
805.87	0.46
806.043	0.19
806.215	-0.4
806.388	-0.2
806.56	0.18
806.733	0.36
806.905	-0.22
807.078	-0.3
807.25	-0.18
807.423	0.37
807.595	-0.14
807.768	0.18
807.94	0.26
808.112	-0.07
808.285	-0.04
808.457	-0.29
808.629	-0.23
808.802	0.32
808.974	-0.2
809.146	-0.39
809.318	-0.56
809.491	0.03
809.663	0.25
809.835	-0.41
810.007	0.09
810.18	-0.07
810.352	-0.63
810.524	-0.21
810.696	0.21
810.868	0.13
811.04	-0.26
811.212	-0.29
811.384	0.31
811.556	0.1
811.728	-0.09
811.901	0.57
812.073	-0.28
812.245	-0.01
812.417	-0.26
812.589	-0.87
812.76	0.06
812.932	0.45
813.104	0.46
813.276	0.1
813.448	0.35
813.62	0.01
813.792	0.03
813.964	0.17
814.136	-0
814.307	-0.39
814.479	-0.2
814.651	-0.4
814.823	0.49
814.995	-0.01
815.166	0.3
815.338	-0.56
815.51	-0.81
815.681	1.17
815.853	-0.11
816.025	-0.25
816.196	0.24
816.368	0.67
816.54	-0.49
816.711	-0.17
816.883	0.21
817.054	0.87
817.226	-1.18
817.398	0.17
817.569	-0.03
817.741	0.3
817.912	-0.28
818.084	0.14
818.255	0.47
818.426	-0.25
818.598	-0.19
818.769	-0.25
818.941	0.63
819.112	0.61
819.283	0.19
819.455	-0.45
819.626	-0.07
819.798	0.38
819.969	0.17
820.14	-0.38
820.311	-0.55
820.483	0.21
820.654	-0.16
820.825	0.27
820.996	-0.17
821.168	-0.33
821.339	-0.27
821.51	-0.8
821.681	-0.37
821.852	0.25
822.023	-0.46
822.195	-0.65
822.366	0.51
822.537	-0.03
822.708	0.05
822.879	-0.09
823.05	1.02
823.221	-0.69
823.392	-0.19
823.563	-0.15
823.734	-0
823.905	-0.08
824.076	-0.22
824.247	-0.24
824.418	-0.35
824.589	0.6
824.759	-0.13
824.93	-0.61
825.101	-0.83
825.272	0.74
825.443	0.1
825.614	1.19
825.784	-0.82
825.955	1.24
826.126	0.1
826.297	0.29
826.467	0.98
826.638	0.94
826.809	-0.97
826.98	0.1
827.15	0.06
827.321	0.18
827.492	0.61
827.662	0.35
827.833	0.64
828.003	0.57
828.174	-0.83
828.345	-0.89
828.515	0.92
828.686	-0.01
828.856	-0.6
829.027	0.1
829.197	0.06
829.368	0.26
829.538	-0.38
829.709	-0.38
829.879	0.05
830.049	-0.04
830.22	-0.71
830.39	-0.34
830.56	0.67
830.731	-0.44
830.901	-0.59
831.072	-0.22
831.242	0.13
831.412	-0.14
831.582	-0.98
831.753	-0.95
831.923	0.36
832.093	0.09
832.263	-0.28
832.434	-0.87
832.604	-0.65
832.774	0.09
832.944	0.09
833.114	-0.34
833.284	0.56
833.454	-0.49
833.624	-0.24
833.795	-0.92
833.965	0.39
834.135	0.99
834.305	-1.08
834.475	-0.51
834.645	-0.12
834.815	0.12
834.985	-0.85
835.155	0.18
835.325	0.6
835.494	0.04
835.664	-0.49
835.834	-1.15
836.004	-0.14
836.174	0.22
836.344	-0.02
836.514	-1.05
836.684	-0.57
836.853	0.19
837.023	-0.02
837.193	0.05
837.363	0.65
837.532	0.73
837.702	-0.8
837.872	-0.96
838.041	0.52
838.211	0.62
838.381	-0.62
838.55	-0.26
838.72	1.62
838.89	0.83
839.059	-0.55
839.229	-1.24
839.398	0.79
839.568	0.15
839.738	-0.74
839.907	0.61
840.077	0.45
840.246	-0.62
840.416	-0.89
840.585	-0.93
840.755	1.23
840.924	0.62
841.093	-0.59
841.263	-0.84
841.432	0.06
841.602	-0.35
841.771	-0.29
841.94	-1.08
842.11	2.1
842.279	1.12
842.448	-0.8
842.617	-0.5
842.787	0.61
842.956	-1.14
843.125	-0.04
843.294	-0.56
843.464	0.79
843.633	0.13
843.802	-1.27
843.971	0.28
844.14	-0
844.309	0.25
844.479	-0.71
844.648	-0.74
844.817	-0.12
844.986	0.2
845.155	-0.33
845.324	-0.91
845.493	-0.11
845.662	-0.93
845.831	0.33
846	0.32
846.169	-0.44
846.338	0.94
846.507	0.34
846.676	0.55
846.844	-0.23
847.013	0.78
847.182	0.03
847.351	-0.18
847.52	-0.8
847.689	0.88
847.858	-0.4
848.026	-1.38
848.195	-0.22
848.364	-0.66
848.533	-0.79
848.701	-0.71
848.87	0.32
849.039	1.36
849.207	0.76
849.376	-0.01
849.545	1.58
849.713	-0.25
849.882	0.07
850.051	-1.11
850.219	-0.34
850.388	-0.37
850.556	-1.09
850.725	-1.3
850.893	-0.02
851.062	-1.01
851.23	0.77
851.399	-2.1
851.567	-0.65
851.736	0.07
851.904	-0.68
852.073	-1.03
852.241	0.68
852.41	-0.29
852.578	-1.55
852.746	-0.67
852.915	0.29
853.083	-0.69
853.251	-1.42
853.42	-0.61
853.588	0.37
853.756	1.16
853.924	0.24
854.093	-0.49
854.261	-0.25
854.429	-1.05
854.597	0.29
854.765	-1.2
854.934	1.2
855.102	2.49
855.27	0.33
855.438	0.14
855.606	1.3
855.774	0.84
855.942	-2.18
856.11	-2.38
856.278	-1.06
856.446	1.06
856.614	-1.2
856.782	-1.7
856.95	0.06
857.118	1.17
857.286	0.52
857.454	-0.57
857.622	0.67
857.79	1.17
857.958	-0.99
858.126	-0.7
858.294	-3.67
858.462	-0.14
858.629	-0.3
858.797	-0.89
858.965	0.17
859.133	1
859.301	-0.4
859.468	0.28
859.636	0.53
859.804	1.26
859.971	1.31
860.139	-1.15
860.307	0.65
860.474	-0.35
860.642	-1.84
860.81	-1.12
860.977	-1.32
861.145	1.12
861.313	-0.88
861.48	-0.36
861.648	0.54
861.815	-0.28
861.983	-0.77
862.15	-0.16
862.318	0.83
862.485	1.11
862.653	-1.08
862.82	-1.14
862.988	2.09
863.155	0.5
863.322	-0.79
863.49	-2.13
863.657	-0.63
863.824	1.56
863.992	0.52
864.159	-0.59
864.326	2.26
864.494	-1.35
864.661	2.13
864.828	-2.27
864.996	0.68
865.163	1.92
865.33	-0.66
865.497	-3.85
865.664	-1.49
865.832	-3.35
865.999	-0.94
866.166	-0.79
866.333	-0.95
866.5	0.05
866.667	0.19
866.834	-0.17
867.001	1.89
867.168	-2.48
867.335	-1.15
867.502	-0.76
867.669	0.02
867.836	1.67
868.003	-1.36
868.17	0.62
868.337	2.29
868.504	3.06
868.671	-2.08
868.838	-1.49
869.005	0.24
869.172	0.16
869.339	-1.09
869.505	0.94
869.672	-1.08
869.839	1.67
870.006	0.35
870.173	-1.29
870.339	1.46
870.506	1.68
870.673	-0.36
870.84	0.24
871.006	-0.79
871.173	-0.73
871.34	-0.41
871.506	-3.75
871.673	1.05
871.839	-2.15
872.006	1.3
872.173	0.58
872.339	1.01
872.506	1.08
872.672	-1.69
872.839	-2.06
873.005	0.24
873.172	1.51
873.338	0.59
873.505	-0.6
873.671	-0.21
873.838	-0.48
874.004	-2.2
874.171	-0.78
874.337	1.05
874.503	2.02
874.67	-0.82
874.836	-0.91
875.002	3
875.169	-0.2
875.335	0.64
875.501	-0.87
875.668	-0.22
875.834	-1.57
876	-1.9
876.166	1.22
876.332	0.24
876.499	1.72
876.665	-0.59
876.831	-0.03
876.997	1.78
877.163	-0.91
877.329	-2.1
877.495	-0.61
877.662	-0.14
877.828	0.14
877.994	-0.47
878.16	-3.3
878.326	-1.03
878.492	-0.29
878.658	-0.47
878.824	1.64
878.99	2.18
879.156	-0.76
879.322	2.45
879.487	-0.95
879.653	-0.24
879.819	-2.1
879.985	-2.19
880.151	-0.48
880.317	0.74
880.483	-1.09
880.648	1.88
880.814	-3.07
880.98	-0.05
881.146	-1.93
881.312	-1.98
881.477	-0.78
881.643	1.21
881.809	3.11
881.974	0.37
882.14	-3.19
882.306	-0.95
882.471	4.38
882.637	-1.29
882.803	0.36
882.968	3.09
883.134	2.89
883.299	0.46
883.465	1.17
883.63	0.44
883.796	1.52
883.961	2.46
884.127	1.85
884.292	-4.37
884.458	-2.02
884.623	-2.02
