Data from Apollo_Calib_20240827__AbsoluteIrradiance__595__09-04-01-805.txt Node

Date: Wed Aug 28 09:04:01 BST 2024
User: biology
Spectrometer: FLMT08252
Trigger mode: 0
Integration Time (sec): 5.000000E-1
Scans to average: 5
Electric dark correction enabled: true
Nonlinearity correction enabled: false
Boxcar width: 0
XAxis mode: Wavelengths
Number of Pixels in Spectrum: 3648
>>>>>Begin Spectral Data<<<<<
179.588	-0
179.809	-0
180.03	-0
180.251	-0
180.473	-0
180.694	0
180.915	0
181.136	-0
181.357	0
181.578	-0
181.799	-0
182.02	-0
182.241	0
182.462	-0
182.683	0
182.904	-0
183.125	0
183.346	0
183.567	0
183.788	0
184.009	-0
184.23	0
184.451	0
184.672	0
184.892	0
185.113	0
185.334	0
185.555	0
185.776	0
185.996	0
186.217	0
186.438	0
186.659	0
186.879	0
187.1	0
187.321	0
187.541	0
187.762	0
187.983	0
188.203	0
188.424	0
188.644	0
188.865	0
189.086	0
189.306	0
189.527	0
189.747	0
189.968	-0
190.188	0
190.409	0
190.629	0
190.849	0
191.07	0
191.29	0
191.511	0
191.731	-0
191.951	0
192.172	0
192.392	0
192.612	0
192.833	0
193.053	0
193.273	0
193.493	-0
193.714	0
193.934	0
194.154	0
194.374	0
194.594	0
194.815	0
195.035	0
195.255	0
195.475	0
195.695	0
195.915	0
196.135	0
196.355	0
196.575	0
196.795	0
197.015	-0
197.235	0
197.455	0
197.675	0
197.895	0
198.115	0
198.335	0
198.555	0
198.775	0
198.995	0
199.214	0
199.434	0
199.654	0
199.874	0
200.094	1.92
200.313	0.51
200.533	0.75
200.753	-0.01
200.973	1.35
201.192	0.96
201.412	-0.28
201.632	0.53
201.851	1.2
202.071	0.33
202.291	0.2
202.51	-0.03
202.73	1.37
202.95	0.51
203.169	-0.15
203.389	0.66
203.608	0.59
203.828	-0.25
204.047	0.37
204.267	0.96
204.486	0.71
204.706	0.75
204.925	0.6
205.145	0.11
205.364	0.91
205.583	0.91
205.803	0.17
206.022	0.33
206.242	0.39
206.461	0.49
206.68	-0.07
206.9	0.58
207.119	1.03
207.338	0.85
207.557	0.37
207.777	0.2
207.996	0.26
208.215	1.03
208.434	0.14
208.654	0.12
208.873	0.47
209.092	0.84
209.311	0.03
209.53	0.02
209.749	0.34
209.968	0.17
210.187	0.28
210.407	-0.32
210.626	0.02
210.845	0.6
211.064	0.35
211.283	0.17
211.502	0.42
211.721	0.25
211.94	0.36
212.159	0.36
212.377	0.54
212.596	0.78
212.815	0.3
213.034	0.41
213.253	0.74
213.472	0.59
213.691	0.2
213.91	0
214.128	0.34
214.347	0.67
214.566	-0.04
214.785	-0.08
215.003	0.54
215.222	0.3
215.441	0.31
215.66	-0.01
215.878	0.4
216.097	0.57
216.316	0.03
216.534	0.33
216.753	0.45
216.972	0.13
217.19	0.23
217.409	0.14
217.627	0.15
217.846	0.2
218.064	0.39
218.283	0.19
218.501	0.75
218.72	0.32
218.938	0.12
219.157	0.16
219.375	0.55
219.594	0.24
219.812	0.07
220.031	0.1
220.249	0.44
220.467	0.42
220.686	0.17
220.904	0.16
221.122	0.02
221.341	0.63
221.559	0.36
221.777	-0
221.995	-0.01
222.214	0.24
222.432	0.07
222.65	0.35
222.868	0.29
223.086	0.24
223.305	0.29
223.523	0.13
223.741	0.48
223.959	-0
224.177	0.09
224.395	0.24
224.613	0.15
224.831	0.46
225.049	0.09
225.267	0.01
225.485	0.17
225.703	0.21
225.921	0.14
226.139	0.08
226.357	0.22
226.575	0.3
226.793	0.05
227.011	0.64
227.229	0.13
227.447	0.3
227.665	0.09
227.883	-0.02
228.1	0.14
228.318	0.09
228.536	-0.11
228.754	0.12
228.972	0.15
229.189	0.26
229.407	0.1
229.625	0.15
229.843	0.37
230.06	0.25
230.278	0.22
230.496	0.29
230.713	0.1
230.931	0.31
231.149	0.19
231.366	-0.07
231.584	0.16
231.801	0.6
232.019	0.12
232.236	-0.05
232.454	0.05
232.671	0.18
232.889	0.15
233.106	0.14
233.324	0.07
233.541	0.17
233.759	0.13
233.976	0.1
234.194	0.17
234.411	0.16
234.628	-0.03
234.846	0.14
235.063	0.11
235.28	0.03
235.498	0.15
235.715	0.1
235.932	0.32
236.149	0.15
236.367	0.03
236.584	0.22
236.801	0
237.018	0.24
237.236	0.22
237.453	-0.03
237.67	0.34
237.887	0.16
238.104	0.11
238.321	0.06
238.538	-0.02
238.755	0.27
238.973	0.04
239.19	0.1
239.407	0.31
239.624	0.08
239.841	-0.01
240.058	-0.01
240.275	0.14
240.492	0.17
240.709	0.14
240.925	0.09
241.142	0.07
241.359	-0.06
241.576	0.05
241.793	0.05
242.01	0.1
242.227	0.18
242.444	0.25
242.66	0.2
242.877	0.11
243.094	0.04
243.311	0.15
243.527	0.1
243.744	0.15
243.961	0.11
244.178	0.08
244.394	0.07
244.611	0.21
244.828	0.32
245.044	0.07
245.261	0.12
245.477	0.13
245.694	0.17
245.911	0.06
246.127	0.14
246.344	0.23
246.56	0.14
246.777	0.17
246.993	0.16
247.21	0.13
247.426	0.15
247.643	0.07
247.859	0.07
248.076	-0.01
248.292	0.35
248.508	0.18
248.725	0.14
248.941	0.14
249.157	0.29
249.374	0.12
249.59	0.17
249.806	0.09
250.023	0.15
250.239	0.04
250.455	0.05
250.671	0.1
250.888	0.16
251.104	0.14
251.32	0.06
251.536	0.09
251.752	0.09
251.969	0.09
252.185	0.07
252.401	0.25
252.617	0.1
252.833	0.07
253.049	0.1
253.265	0.11
253.481	0.21
253.697	0.07
253.913	0.03
254.129	0.11
254.345	0.16
254.561	0.12
254.777	0.11
254.993	0.16
255.209	0.2
255.425	0.05
255.641	0.03
255.857	0.2
256.073	0.14
256.288	-0.04
256.504	0.06
256.72	0.17
256.936	0.22
257.152	0.12
257.367	0.01
257.583	0.08
257.799	0.2
258.015	0.02
258.23	0.09
258.446	0.2
258.662	0.12
258.877	0.02
259.093	0.11
259.309	0.08
259.524	0.13
259.74	0.05
259.955	0.04
260.171	0.09
260.387	0.12
260.602	0.21
260.818	0.17
261.033	0.01
261.249	0.1
261.464	0.02
261.68	0.07
261.895	0.14
262.11	0.19
262.326	0.06
262.541	-0.01
262.757	0.12
262.972	0.12
263.187	0.08
263.403	0.14
263.618	0.15
263.833	0.1
264.049	0.06
264.264	0.12
264.479	0.2
264.694	0.24
264.91	0.04
265.125	0.1
265.34	0.19
265.555	0.25
265.77	0.09
265.986	0.09
266.201	0.12
266.416	0.23
266.631	0.04
266.846	0.07
267.061	0.1
267.276	0.09
267.491	-0.05
267.706	0.11
267.921	0.14
268.136	0.12
268.351	0.06
268.566	0.04
268.781	0.13
268.996	0.09
269.211	0.07
269.426	-0.01
269.641	0.08
269.856	0.14
270.071	0.05
270.285	0.01
270.5	0.15
270.715	0.19
270.93	0.1
271.145	0.08
271.359	0.15
271.574	0.04
271.789	0.1
272.004	0.04
272.218	0.1
272.433	0.13
272.648	0.01
272.862	0.12
273.077	0.1
273.292	0.12
273.506	0.03
273.721	0.04
273.936	0.13
274.15	0.18
274.365	0.05
274.579	0.19
274.794	0.16
275.008	0.16
275.223	-0
275.437	0.1
275.652	0.12
275.866	0.08
276.081	0.07
276.295	0.13
276.509	0.03
276.724	0.09
276.938	0.04
277.153	0.12
277.367	0.17
277.581	0.03
277.796	0.04
278.01	0.03
278.224	0.15
278.438	0.21
278.653	0.03
278.867	0.06
279.081	0.12
279.295	0.06
279.51	0.07
279.724	0.04
279.938	0.11
280.152	0.05
280.366	0.03
280.58	0.1
280.794	0.09
281.008	0.07
281.222	0.15
281.437	0.18
281.651	0.14
281.865	0.17
282.079	0.11
282.293	-0.05
282.507	0.07
282.721	0.09
282.935	0.09
283.148	-0.03
283.362	0.03
283.576	0.05
283.79	0.08
284.004	-0
284.218	0.13
284.432	0.04
284.646	0.05
284.859	0.04
285.073	0.13
285.287	0.09
285.501	0.08
285.714	0.03
285.928	0.08
286.142	0.12
286.356	0.02
286.569	0.01
286.783	0.16
286.997	0.08
287.21	0.06
287.424	0.11
287.637	0.05
287.851	0.11
288.065	0.12
288.278	0.05
288.492	0.11
288.705	0.07
288.919	0.11
289.132	0.01
289.346	0.16
289.559	-0.04
289.773	0
289.986	0.08
290.2	0.08
290.413	0.09
290.626	0
290.84	0.02
291.053	0.07
291.267	0.12
291.48	0.07
291.693	0.12
291.906	0.07
292.12	0.08
292.333	0.05
292.546	0.08
292.76	0.17
292.973	0.08
293.186	0.06
293.399	0.07
293.612	0.08
293.826	0.08
294.039	0.06
294.252	0.07
294.465	0.08
294.678	0.12
294.891	0.08
295.104	0.04
295.317	0.04
295.53	0.1
295.743	0.04
295.956	0.04
296.169	0.15
296.382	0.12
296.595	0.07
296.808	-0
297.021	0.08
297.234	0.11
297.447	0.09
297.66	0.09
297.873	0.14
298.086	0.07
298.299	0.02
298.511	0.01
298.724	0.07
298.937	0.03
299.15	0.02
299.363	0.08
299.575	0.11
299.788	0.07
300.001	0.06
300.213	0.06
300.426	0.07
300.639	0.01
300.852	0.05
301.064	0.08
301.277	0.15
301.489	0.1
301.702	0.13
301.915	0.07
302.127	0.07
302.34	0.09
302.552	0.08
302.765	0.04
302.977	0.14
303.19	0.02
303.402	0.07
303.615	0.04
303.827	0.05
304.04	0.03
304.252	0.06
304.464	0.05
304.677	0.17
304.889	0.07
305.102	0.05
305.314	0.02
305.526	0.07
305.739	0.11
305.951	0.01
306.163	0.05
306.375	0.14
306.588	0.03
306.8	0.02
307.012	0.01
307.224	0.1
307.436	0.12
307.649	-0.04
307.861	0.11
308.073	0.12
308.285	0.03
308.497	0.01
308.709	0.09
308.921	0.07
309.133	0.14
309.346	0.03
309.558	0.08
309.77	0.11
309.982	0.11
310.194	0.09
310.406	0.05
310.617	0.11
310.829	0.07
311.041	0.08
311.253	0.02
311.465	0.03
311.677	0.09
311.889	0.05
312.101	0.05
312.313	0.13
312.524	0.1
312.736	-0.01
312.948	0.07
313.16	0.16
313.372	0.05
313.583	0.02
313.795	0.07
314.007	0.01
314.218	0.11
314.43	0.08
314.642	0.07
314.853	0.04
315.065	0.09
315.277	0.05
315.488	0.04
315.7	0.13
315.912	0.09
316.123	0.03
316.335	0.04
316.546	0.17
316.758	0.06
316.969	0.07
317.181	0.08
317.392	0.06
317.604	0.1
317.815	0.01
318.026	-0
318.238	0.06
318.449	0.09
318.661	-0.04
318.872	0.01
319.083	0.02
319.295	0.1
319.506	0.05
319.717	0.08
319.929	0.08
320.14	0.07
320.351	0.09
320.562	0.07
320.774	0.04
320.985	0.08
321.196	0
321.407	0.02
321.618	0.09
321.829	0.06
322.041	0.07
322.252	0.09
322.463	0.07
322.674	0.06
322.885	0.02
323.096	0.03
323.307	0.05
323.518	0.07
323.729	0.04
323.94	0.06
324.151	0.03
324.362	0.1
324.573	0.09
324.784	0.05
324.995	0.12
325.206	0.1
325.417	0.06
325.628	0
325.838	0.07
326.049	0.09
326.26	0.13
326.471	0.07
326.682	0.07
326.892	0.11
327.103	-0.01
327.314	0.02
327.525	0.13
327.735	0.06
327.946	0.11
328.157	0.01
328.368	0.09
328.578	0.08
328.789	0.12
328.999	0.02
329.21	0.05
329.421	0.04
329.631	0.06
329.842	0.03
330.052	0.09
330.263	0.12
330.473	0.12
330.684	0.02
330.894	0.02
331.105	0.12
331.315	0.05
331.526	0.03
331.736	0.17
331.947	0.1
332.157	0.08
332.367	0.02
332.578	0.12
332.788	0.14
332.999	0.06
333.209	0.11
333.419	0.04
333.629	0.09
333.84	0.11
334.05	0.07
334.26	0.11
334.47	0.06
334.681	0.09
334.891	0.02
335.101	0.09
335.311	0.14
335.521	0.08
335.732	0.01
335.942	0.12
336.152	0.09
336.362	0.07
336.572	0.1
336.782	0.06
336.992	0.06
337.202	0.04
337.412	0.06
337.622	0.05
337.832	0.07
338.042	0.06
338.252	0.03
338.462	0.04
338.672	0.04
338.882	-0.02
339.092	0.05
339.302	0.1
339.511	0.11
339.721	0.05
339.931	0.01
340.141	0.08
340.351	0.1
340.561	0.06
340.77	0.09
340.98	0.07
341.19	0.05
341.4	0.05
341.609	-0
341.819	0.05
342.029	0.02
342.238	0.07
342.448	0.02
342.658	0.11
342.867	0.09
343.077	0.1
343.286	0.09
343.496	0.06
343.706	0.09
343.915	-0
344.125	0.08
344.334	0.1
344.544	0.02
344.753	-0.01
344.963	0.07
345.172	0.06
345.381	0.05
345.591	0.04
345.8	0.03
346.01	0.13
346.219	0.12
346.428	-0.08
346.638	0.05
346.847	0.04
347.056	0.14
347.266	0.01
347.475	0.06
347.684	0.08
347.893	0.1
348.103	0.07
348.312	0.02
348.521	0.05
348.73	0.04
348.94	0.05
349.149	0.05
349.358	0.07
349.567	0.06
349.776	-0.01
349.985	0.06
350.194	0.1
350.403	0.05
350.612	0.02
350.821	0.04
351.03	0.08
351.239	0.01
351.448	0.06
351.657	0.03
351.866	0.13
352.075	0.07
352.284	0.09
352.493	0.01
352.702	0.14
352.911	0.09
353.12	0.08
353.329	0.01
353.538	0.08
353.746	0.08
353.955	0.06
354.164	0.1
354.373	0.06
354.582	0.1
354.79	0.09
354.999	0.1
355.208	0.05
355.416	0.13
355.625	0.02
355.834	0.07
356.042	0.08
356.251	0.05
356.46	0.02
356.668	0.06
356.877	0.16
357.085	0.1
357.294	-0.04
357.503	0.06
357.711	0.03
357.92	0.16
358.128	0.07
358.337	0.05
358.545	0.1
358.754	0.03
358.962	0.1
359.17	0.04
359.379	0.09
359.587	0.06
359.796	0.04
360.004	0.06
360.212	0.08
360.421	0.13
360.629	0.04
360.837	0.03
361.046	0.08
361.254	0.19
361.462	0.06
361.67	0.03
361.879	0.06
362.087	0.12
362.295	0.06
362.503	0.02
362.711	0.01
362.92	0.03
363.128	0.02
363.336	0.04
363.544	-0
363.752	0.01
363.96	0.04
364.168	0.02
364.376	0.04
364.584	0.06
364.792	0.09
365	0.09
365.208	0.04
365.416	0.06
365.624	0.06
365.832	0.05
366.04	0.13
366.248	0.06
366.456	0.06
366.664	0.07
366.872	0.09
367.079	0.03
367.287	0.03
367.495	0.07
367.703	0.08
367.911	0.08
368.118	0.05
368.326	0.05
368.534	0.01
368.742	0.08
368.949	-0.01
369.157	0.02
369.365	0.07
369.572	0.03
369.78	0.03
369.988	0.11
370.195	0.07
370.403	0.08
370.61	0.08
370.818	0.08
371.026	0.12
371.233	0.01
371.441	0.07
371.648	0.03
371.856	0.09
372.063	0.03
372.271	0.06
372.478	0.03
372.685	0.07
372.893	0.12
373.1	0.04
373.308	0.05
373.515	0.14
373.722	0.03
373.93	0.04
374.137	0.12
374.344	0.11
374.552	0.12
374.759	0.04
374.966	0.01
375.173	0.03
375.381	0.09
375.588	0.07
375.795	-0
376.002	0.03
376.209	-0
376.417	0.03
376.624	0.05
376.831	0.07
377.038	0.05
377.245	-0.03
377.452	0.04
377.659	0.05
377.866	0.03
378.073	0.05
378.28	0.07
378.487	0.09
378.694	0.09
378.901	0.05
379.108	0.07
379.315	0.09
379.522	0.13
379.729	0.08
379.936	0.01
380.143	0.05
380.35	0.05
380.557	0.03
380.763	0.04
380.97	0.04
381.177	0.09
381.384	0.01
381.591	0.04
381.797	0.07
382.004	0.07
382.211	0.11
382.418	0.06
382.624	0.12
382.831	0.09
383.038	0.06
383.244	0.07
383.451	0.06
383.658	0.08
383.864	0.08
384.071	0.04
384.277	0.11
384.484	-0.03
384.69	0.11
384.897	0.02
385.103	0.05
385.31	0.03
385.516	0.09
385.723	0.02
385.929	0.07
386.136	-0.02
386.342	0.07
386.549	0.03
386.755	0.11
386.961	0.06
387.168	0.02
387.374	0.08
387.58	0.1
387.787	0.06
387.993	0.07
388.199	0.05
388.406	0.04
388.612	0.03
388.818	0.05
389.024	0.02
389.231	0.05
389.437	0.09
389.643	0.06
389.849	0.04
390.055	0.05
390.261	0.03
390.467	0.07
390.674	0.03
390.88	0.05
391.086	0.06
391.292	0.02
391.498	0.11
391.704	0.06
391.91	0.09
392.116	0.03
392.322	-0.02
392.528	0.06
392.734	0.05
392.94	0.06
393.146	0.02
393.352	0.01
393.557	0.06
393.763	0.02
393.969	0.09
394.175	0.06
394.381	0.07
394.587	0.02
394.792	-0.01
394.998	0.1
395.204	0.11
395.41	0.01
395.615	0.09
395.821	0.07
396.027	0.09
396.233	-0.01
396.438	0.07
396.644	0.11
396.85	0.08
397.055	0.01
397.261	0.06
397.466	0.14
397.672	-0
397.878	0.08
398.083	0.08
398.289	0.03
398.494	0.05
398.7	0.09
398.905	-0
399.111	0.12
399.316	0.02
399.522	0.06
399.727	0.08
399.932	0.03
400.138	-0.01
400.343	0.11
400.549	0.03
400.754	0.04
400.959	0.06
401.165	0.05
401.37	0.1
401.575	0.01
401.78	0.04
401.986	0.06
402.191	0.01
402.396	0.07
402.601	0.07
402.807	0.06
403.012	0.05
403.217	0.08
403.422	0.04
403.627	0.03
403.832	0.02
404.037	0.11
404.243	0.09
404.448	0.05
404.653	0.03
404.858	0.07
405.063	0.1
405.268	0.03
405.473	0.01
405.678	0.04
405.883	0.18
406.088	0.06
406.293	0.02
406.498	0.03
406.703	0.09
406.907	0.04
407.112	0.02
407.317	0.06
407.522	0.1
407.727	0.01
407.932	0.08
408.136	0.15
408.341	0.02
408.546	0.05
408.751	0.05
408.956	0.02
409.16	0.09
409.365	0.06
409.57	0.06
409.774	0.04
409.979	0.07
410.184	0.06
410.388	0.01
410.593	0.09
410.798	0.05
411.002	0.05
411.207	0.1
411.411	0.08
411.616	-0.04
411.82	0.08
412.025	0.04
412.229	0.04
412.434	0.1
412.638	0.12
412.843	0.02
413.047	0.1
413.252	-0
413.456	0.06
413.66	0.11
413.865	0.04
414.069	0.13
414.273	0.06
414.478	-0.01
414.682	0.08
414.886	0.02
415.091	-0.02
415.295	-0.03
415.499	0.03
415.703	0.12
415.908	0.09
416.112	-0.02
416.316	0.07
416.52	0.02
416.724	-0.01
416.929	0.05
417.133	0.15
417.337	-0.02
417.541	0.02
417.745	0.04
417.949	0.07
418.153	0.06
418.357	-0.01
418.561	0.15
418.765	0.06
418.969	0.19
419.173	0.08
419.377	0.02
419.581	0.17
419.785	0
419.989	-0.01
420.193	-0.01
420.397	0.04
420.601	0.09
420.804	0.12
421.008	0.06
421.212	0.07
421.416	0.11
421.62	0.01
421.823	0.04
422.027	0.16
422.231	0.09
422.435	0.06
422.638	0.07
422.842	0.05
423.046	0.02
423.249	0.12
423.453	0.07
423.657	0.06
423.86	0.04
424.064	0.04
424.268	0.12
424.471	0.04
424.675	0.11
424.878	0.11
425.082	0.07
425.285	0.13
425.489	0.03
425.692	0.11
425.896	0.03
426.099	0.06
426.303	0.01
426.506	0
426.71	0.06
426.913	0.14
427.116	0.12
427.32	0.08
427.523	0.04
427.726	0.14
427.93	0.01
428.133	0.04
428.336	0.03
428.54	0
428.743	0.04
428.946	0.08
429.149	0.06
429.353	0.05
429.556	0.02
429.759	0.07
429.962	0.04
430.165	0.02
430.368	0.05
430.571	0.03
430.775	0.06
430.978	0.04
431.181	0.09
431.384	0.04
431.587	0.05
431.79	0.07
431.993	0.1
432.196	0.06
432.399	0.05
432.602	0.15
432.805	-0.01
433.008	0.08
433.211	0
433.414	0.08
433.616	0.07
433.819	0.07
434.022	-0.04
434.225	0.15
434.428	0.1
434.631	0.16
434.833	0.05
435.036	0.05
435.239	0.09
435.442	0.06
435.645	0.02
435.847	0.05
436.05	0.11
436.253	0.04
436.455	-0.03
436.658	0.01
436.861	0.2
437.063	0.02
437.266	0.04
437.468	0.08
437.671	0.17
437.874	0.06
438.076	-0.05
438.279	-0.03
438.481	0.05
438.684	0.05
438.886	0.11
439.089	0.01
439.291	0.06
439.494	0.09
439.696	0.02
439.899	0.04
440.101	0.09
440.303	-0.04
440.506	0.08
440.708	0.02
440.91	0.09
441.113	0.01
441.315	0.06
441.517	0.02
441.72	0.11
441.922	0.03
442.124	-0.01
442.326	0.09
442.529	0.11
442.731	0.02
442.933	0.12
443.135	0.06
443.337	0.04
443.539	0.03
443.742	0.04
443.944	0.08
444.146	0.04
444.348	0.06
444.55	0.05
444.752	0.09
444.954	0.02
445.156	0.05
445.358	0.02
445.56	0.06
445.762	0.06
445.964	0.03
446.166	0.03
446.368	0.04
446.57	0.14
446.772	0.04
446.974	0.03
447.175	0.05
447.377	0.08
447.579	0.03
447.781	0.03
447.983	0.14
448.184	0
448.386	0.03
448.588	-0.01
448.79	0.05
448.991	0.01
449.193	0.04
449.395	0.07
449.597	0.06
449.798	0.06
450	0.07
450.202	0.07
450.403	0.05
450.605	0.05
450.806	0.07
451.008	-0.01
451.21	0.03
451.411	0.12
451.613	0.05
451.814	0.03
452.016	0.12
452.217	0.07
452.419	0.06
452.62	0.04
452.821	0.11
453.023	0.16
453.224	0.1
453.426	0.06
453.627	0.05
453.828	0.09
454.03	-0
454.231	0.05
454.432	0.04
454.634	0.11
454.835	0.03
455.036	-0.03
455.238	0.11
455.439	0.15
455.64	0.04
455.841	-0.03
456.042	0.15
456.244	0.1
456.445	0.03
456.646	-0.01
456.847	-0.01
457.048	0.1
457.249	0.1
457.45	0.27
457.651	0.02
457.852	0.08
458.054	0.08
458.255	0.06
458.456	0.06
458.657	0.09
458.858	-0.01
459.058	0.09
459.259	0.09
459.46	0.08
459.661	0.03
459.862	0.21
460.063	0.02
460.264	0.1
460.465	0.03
460.666	0.18
460.866	0.04
461.067	0.05
461.268	0.05
461.469	0.06
461.67	0.09
461.87	0.02
462.071	0.02
462.272	0.04
462.473	0.02
462.673	0.11
462.874	0.07
463.075	0.07
463.275	-0
463.476	0.04
463.676	0.03
463.877	0.08
464.078	0.02
464.278	0.09
464.479	0.06
464.679	0.05
464.88	0.02
465.08	0.12
465.281	-0.02
465.481	0.06
465.682	0.03
465.882	0.06
466.083	0.1
466.283	0.09
466.483	0.06
466.684	0.02
466.884	0.04
467.085	0.03
467.285	0.08
467.485	0.07
467.686	0.08
467.886	0.01
468.086	0.03
468.286	0.08
468.487	0.08
468.687	0.01
468.887	0.06
469.087	0.11
469.287	0.06
469.488	-0.02
469.688	0.07
469.888	0.08
470.088	0.12
470.288	0.11
470.488	0.08
470.688	0.03
470.888	0.07
471.088	0.01
471.288	0.09
471.488	0.07
471.688	0.08
471.888	0.05
472.088	0.1
472.288	0.06
472.488	0.01
472.688	0.05
472.888	0.05
473.088	0.04
473.288	0.04
473.488	0.07
473.688	0.12
473.887	0.02
474.087	-0
474.287	0.04
474.487	0.05
474.687	0.1
474.886	0
475.086	0.06
475.286	0.04
475.486	0.05
475.685	0.06
475.885	0.05
476.085	0.06
476.284	0.05
476.484	0.03
476.684	0.07
476.883	0.1
477.083	0.05
477.282	0.02
477.482	0.09
477.681	0.09
477.881	0.04
478.08	-0
478.28	0
478.479	0.07
478.679	0.1
478.878	0.01
479.078	0.02
479.277	0.06
479.477	0.01
479.676	0.08
479.875	0.03
480.075	-0.01
480.274	0.05
480.473	0.06
480.673	0.06
480.872	0.05
481.071	0.04
481.271	0.03
481.47	0.03
481.669	0.06
481.868	0.02
482.067	0
482.267	0.02
482.466	0.02
482.665	-0.01
482.864	-0
483.063	-0
483.262	0.04
483.461	0.09
483.661	0.08
483.86	0.03
484.059	0.04
484.258	0.05
484.457	0.05
484.656	0.02
484.855	0.07
485.054	0
485.253	0.01
485.452	-0.01
485.651	0.04
485.849	0.05
486.048	-0
486.247	-0.02
486.446	0.04
486.645	0.02
486.844	0
487.043	0.02
487.241	0.05
487.44	-0
487.639	0.03
487.838	0.05
488.037	0.03
488.235	0.08
488.434	0.05
488.633	0.01
488.831	0.06
489.03	0.07
489.229	0.06
489.427	0.02
489.626	0.07
489.825	0.08
490.023	0.04
490.222	0.01
490.42	0.03
490.619	0.06
490.817	0.05
491.016	-0.01
491.214	0.07
491.413	0.01
491.611	0.03
491.81	0.04
492.008	0.05
492.207	0.04
492.405	0.03
492.604	-0.01
492.802	0.02
493	0.03
493.199	0.02
493.397	0.02
493.595	0.04
493.794	-0
493.992	0.08
494.19	0.03
494.388	0.04
494.587	0.02
494.785	0.04
494.983	-0
495.181	0.05
495.379	0.02
495.578	0.02
495.776	0.04
495.974	0.04
496.172	0.03
496.37	0.01
496.568	-0.01
496.766	0.02
496.964	0.05
497.162	0.04
497.36	0.02
497.558	0.03
497.756	0.04
497.954	0.03
498.152	0.02
498.35	0.02
498.548	0.01
498.746	0.01
498.944	0
499.142	-0
499.34	-0
499.538	0.03
499.736	-0.01
499.933	0.04
500.131	0.07
500.329	0.05
500.527	0.06
500.725	0.08
500.922	0.04
501.12	0.03
501.318	0.05
501.516	0.02
501.713	0.05
501.911	0.02
502.109	0.01
502.306	0.04
502.504	0.03
502.701	0.01
502.899	0.02
503.097	0.09
503.294	0.03
503.492	0.02
503.689	0.05
503.887	0.07
504.084	0.07
504.282	0.03
504.479	-0.01
504.677	0.03
504.874	0
505.072	0.02
505.269	0.03
505.466	0.03
505.664	0.02
505.861	-0
506.059	0
506.256	0.04
506.453	0.02
506.651	0.08
506.848	0.03
507.045	0.02
507.242	0.02
507.44	-0
507.637	0.03
507.834	0.02
508.031	0.06
508.229	-0.01
508.426	0.03
508.623	0.04
508.82	-0
509.017	-0
509.214	0.01
509.411	0.04
509.608	0.02
509.805	0.04
510.003	0.02
510.2	-0
510.397	0.04
510.594	0.01
510.791	0.02
510.988	0.03
511.184	0.04
511.381	0.03
511.578	0.02
511.775	0.06
511.972	-0
512.169	0.04
512.366	0.02
512.563	0.02
512.76	0
512.956	0.06
513.153	0.02
513.35	0.02
513.547	0.02
513.744	-0.01
513.94	-0
514.137	0.04
514.334	0.03
514.53	0.02
514.727	0.03
514.924	0.1
515.12	0
515.317	0
515.514	0.03
515.71	-0
515.907	0.03
516.103	0.06
516.3	0.07
516.497	0.06
516.693	0.06
516.89	0.02
517.086	0
517.283	0.06
517.479	0.02
517.676	0.02
517.872	0.01
518.068	0.01
518.265	0.02
518.461	-0.01
518.658	-0.01
518.854	0.04
519.05	0.01
519.247	0
519.443	0.04
519.639	0.05
519.836	0.03
520.032	0.01
520.228	0.01
520.424	0.07
520.621	0.05
520.817	0.02
521.013	0.04
521.209	0.04
521.405	0.06
521.601	0.03
521.798	0.04
521.994	0.06
522.19	0.01
522.386	-0.03
522.582	0.01
522.778	0.02
522.974	0.01
523.17	0.02
523.366	0.03
523.562	0.05
523.758	0.02
523.954	0
524.15	0.03
524.346	0.04
524.542	0.03
524.738	0.01
524.934	0.02
525.129	-0.05
525.325	0.06
525.521	0.04
525.717	0.05
525.913	0.02
526.109	0.03
526.304	0.02
526.5	0.04
526.696	0.05
526.892	0.02
527.087	0.05
527.283	0
527.479	0.04
527.674	0.01
527.87	0.03
528.066	0.01
528.261	0.04
528.457	0.05
528.653	0.01
528.848	0.02
529.044	0.05
529.239	0.01
529.435	0.06
529.63	0.04
529.826	0.05
530.021	0.03
530.217	0.02
530.412	0.02
530.608	0.01
530.803	0.01
530.999	0.01
531.194	-0.03
531.389	0.02
531.585	-0.01
531.78	0.02
531.975	0.02
532.171	0.04
532.366	-0
532.561	0.03
532.757	0.02
532.952	0.01
533.147	0.03
533.342	0.01
533.538	0.03
533.733	0.06
533.928	0.04
534.123	0.02
534.318	0
534.513	0.02
534.709	0.02
534.904	0.01
535.099	-0
535.294	0.02
535.489	0.04
535.684	0.02
535.879	0.01
536.074	0.03
536.269	-0
536.464	0.01
536.659	0.04
536.854	0.03
537.049	0.05
537.244	0.04
537.439	0.01
537.634	0.05
537.828	0.04
538.023	0.04
538.218	-0.01
538.413	0.04
538.608	0
538.803	0.06
538.997	-0.02
539.192	0.07
539.387	0.02
539.582	0.02
539.776	0.03
539.971	0.01
540.166	0.04
540.36	-0.02
540.555	0.04
540.75	0.02
540.944	0.03
541.139	-0.01
541.334	0.02
541.528	0.03
541.723	0.07
541.917	0.03
542.112	-0.02
542.306	0.01
542.501	0.03
542.695	0.05
542.89	0.02
543.084	0.05
543.279	0.03
543.473	0.01
543.668	0.03
543.862	0.03
544.056	0.07
544.251	0.04
544.445	0.04
544.64	0.01
544.834	0.01
545.028	0.04
545.222	0.04
545.417	0.05
545.611	0.05
545.805	0.03
546	0.01
546.194	0.03
546.388	0.03
546.582	0.06
546.776	0.05
546.97	0.02
547.165	0.03
547.359	0.07
547.553	-0
547.747	0.03
547.941	0.04
548.135	0.03
548.329	0.06
548.523	0.03
548.717	0.04
548.911	0
549.105	0.04
549.299	0.05
549.493	0.03
549.687	0.02
549.881	0.06
550.075	0.04
550.269	-0.01
550.463	0.06
550.657	0.01
550.85	0.04
551.044	0.03
551.238	0.04
551.432	0.01
551.626	0.01
551.82	0.07
552.013	0
552.207	0.04
552.401	0.05
552.594	0.02
552.788	0.03
552.982	0.04
553.176	0.01
553.369	0.05
553.563	0.05
553.756	-0.01
553.95	0.02
554.144	0.03
554.337	0.07
554.531	0.03
554.724	0.03
554.918	0.03
555.111	0.06
555.305	0.03
555.498	0.08
555.692	0.05
555.885	0.01
556.079	0.04
556.272	0.03
556.466	0.06
556.659	0.05
556.852	0.05
557.046	0.02
557.239	0.08
557.432	0.01
557.626	0.04
557.819	0.04
558.012	0.05
558.206	0.05
558.399	0.04
558.592	0.04
558.785	0.03
558.979	0.07
559.172	0.03
559.365	0.06
559.558	0.06
559.751	0.03
559.944	0.06
560.138	0
560.331	0.05
560.524	0.01
560.717	0.05
560.91	0.03
561.103	0.07
561.296	0.03
561.489	0.05
561.682	0.06
561.875	0.08
562.068	0.05
562.261	0.03
562.454	0.06
562.647	0.05
562.84	0.05
563.032	0.04
563.225	0.06
563.418	0.05
563.611	0.04
563.804	0.04
563.997	0.01
564.19	-0.01
564.382	0
564.575	0.06
564.768	0.05
564.961	0.02
565.153	0.04
565.346	0.05
565.539	0.08
565.731	0.06
565.924	0.08
566.117	0.06
566.309	0.05
566.502	0.03
566.695	0.04
566.887	0.04
567.08	0.03
567.272	0
567.465	0.04
567.657	0.04
567.85	0.05
568.042	0.07
568.235	0.07
568.427	0.05
568.62	0.06
568.812	0.09
569.005	0.06
569.197	-0
569.389	0.06
569.582	0.06
569.774	0.03
569.966	0.02
570.159	0.04
570.351	0.06
570.543	0.02
570.736	0.06
570.928	0
571.12	0.06
571.312	0.03
571.505	0.02
571.697	0.1
571.889	0.02
572.081	0.03
572.273	0.01
572.465	0.07
572.658	0.03
572.85	0.04
573.042	0.05
573.234	0.05
573.426	0.09
573.618	0.01
573.81	0.04
574.002	0.12
574.194	0.07
574.386	0.03
574.578	-0.02
574.77	0.02
574.962	0.04
575.154	0.02
575.346	0.04
575.538	0.07
575.729	0.03
575.921	0.05
576.113	0.03
576.305	0.06
576.497	0.04
576.689	0.04
576.88	0.04
577.072	0.08
577.264	0.04
577.456	0.06
577.647	-0
577.839	0.05
578.031	0.11
578.223	0.01
578.414	0.02
578.606	0.07
578.798	0.06
578.989	0.02
579.181	0.03
579.372	0.06
579.564	0.03
579.755	0.05
579.947	0.07
580.139	0.09
580.33	0.01
580.522	0.03
580.713	-0.01
580.905	0.07
581.096	0.08
581.287	0.06
581.479	0.07
581.67	0.08
581.862	0.05
582.053	0.04
582.244	0
582.436	0.05
582.627	0.06
582.818	0.02
583.01	0.01
583.201	0.08
583.392	0.07
583.583	0.07
583.775	0.06
583.966	0.02
584.157	0.05
584.348	0.06
584.54	0.02
584.731	0.07
584.922	0.06
585.113	0.03
585.304	0.08
585.495	0.06
585.686	0.08
585.877	0.08
586.068	0.08
586.259	0.08
586.45	0.07
586.641	0.04
586.832	0.02
587.023	0.04
587.214	0.06
587.405	0.07
587.596	0.04
587.787	0.1
587.978	0.1
588.169	0.05
588.36	0.03
588.551	0.06
588.742	0.05
588.932	0.08
589.123	0.04
589.314	0.09
589.505	0.06
589.696	0.08
589.886	0.05
590.077	0.04
590.268	0.05
590.458	0.03
590.649	0.06
590.84	0.11
591.03	0.07
591.221	0.03
591.412	0.04
591.602	0.1
591.793	0.11
591.984	0.06
592.174	0.06
592.365	0.16
592.555	0.05
592.746	0.11
592.936	0.1
593.127	0.11
593.317	0.12
593.508	0.08
593.698	0.07
593.889	0.11
594.079	0.1
594.269	0.09
594.46	0.06
594.65	0.08
594.84	0.09
595.031	0.09
595.221	0.11
595.411	0.06
595.602	0.13
595.792	0.08
595.982	0.09
596.172	0.13
596.363	0.12
596.553	0.1
596.743	0.09
596.933	0.11
597.123	0.14
597.314	0.1
597.504	0.11
597.694	0.17
597.884	0.13
598.074	0.12
598.264	0.09
598.454	0.16
598.644	0.11
598.834	0.13
599.024	0.09
599.214	0.12
599.404	0.17
599.594	0.11
599.784	0.11
599.974	0.2
600.164	0.15
600.354	0.11
600.544	0.1
600.734	0.16
600.924	0.17
601.114	0.11
601.303	0.16
601.493	0.14
601.683	0.13
601.873	0.17
602.063	0.13
602.252	0.18
602.442	0.09
602.632	0.14
602.821	0.13
603.011	0.19
603.201	0.13
603.39	0.14
603.58	0.14
603.77	0.17
603.959	0.21
604.149	0.19
604.339	0.17
604.528	0.22
604.718	0.2
604.907	0.19
605.097	0.2
605.286	0.15
605.476	0.23
605.665	0.2
605.855	0.21
606.044	0.27
606.234	0.25
606.423	0.22
606.612	0.22
606.802	0.23
606.991	0.24
607.181	0.23
607.37	0.2
607.559	0.22
607.749	0.19
607.938	0.25
608.127	0.24
608.316	0.25
608.506	0.26
608.695	0.27
608.884	0.25
609.073	0.27
609.263	0.32
609.452	0.32
609.641	0.29
609.83	0.27
610.019	0.31
610.208	0.3
610.397	0.33
610.586	0.33
610.775	0.31
610.965	0.32
611.154	0.3
611.343	0.34
611.532	0.31
611.721	0.35
611.91	0.37
612.099	0.37
612.287	0.34
612.476	0.32
612.665	0.41
612.854	0.39
613.043	0.42
613.232	0.41
613.421	0.38
613.61	0.44
613.798	0.44
613.987	0.49
614.176	0.45
614.365	0.45
614.554	0.48
614.742	0.51
614.931	0.48
615.12	0.54
615.309	0.47
615.497	0.51
615.686	0.49
615.875	0.51
616.063	0.53
616.252	0.56
616.44	0.54
616.629	0.56
616.818	0.59
617.006	0.58
617.195	0.62
617.383	0.62
617.572	0.6
617.76	0.62
617.949	0.67
618.137	0.69
618.326	0.7
618.514	0.66
618.703	0.67
618.891	0.79
619.079	0.67
619.268	0.81
619.456	0.74
619.644	0.83
619.833	0.78
620.021	0.83
620.209	0.77
620.398	0.87
620.586	0.86
620.774	0.92
620.962	0.88
621.151	0.97
621.339	0.92
621.527	0.86
621.715	0.92
621.903	0.96
622.092	0.94
622.28	1.04
622.468	1.03
622.656	1.06
622.844	1.06
623.032	1.09
623.22	1.06
623.408	1.2
623.596	1.15
623.784	1.18
623.972	1.17
624.16	1.2
624.348	1.26
624.536	1.25
624.724	1.25
624.912	1.4
625.1	1.39
625.288	1.37
625.476	1.32
625.664	1.45
625.851	1.4
626.039	1.45
626.227	1.5
626.415	1.5
626.603	1.46
626.79	1.59
626.978	1.6
627.166	1.65
627.354	1.62
627.541	1.69
627.729	1.61
627.917	1.81
628.104	1.82
628.292	1.82
628.48	1.93
628.667	1.87
628.855	1.98
629.042	2.02
629.23	2
629.418	2.06
629.605	2.07
629.793	2.07
629.98	2.11
630.168	2.15
630.355	2.21
630.543	2.33
630.73	2.3
630.917	2.32
631.105	2.43
631.292	2.45
631.48	2.49
631.667	2.63
631.854	2.57
632.042	2.62
632.229	2.56
632.416	2.72
632.604	2.73
632.791	2.7
632.978	2.86
633.165	2.92
633.353	2.99
633.54	3.03
633.727	2.96
633.914	3.03
634.101	3.06
634.289	3.25
634.476	3.16
634.663	3.22
634.85	3.33
635.037	3.35
635.224	3.39
635.411	3.51
635.598	3.53
635.785	3.56
635.972	3.59
636.159	3.65
636.346	3.73
636.533	3.81
636.72	3.92
636.907	3.92
637.094	3.98
637.281	3.91
637.468	4.08
637.655	4.14
637.842	4.23
638.029	4.22
638.215	4.35
638.402	4.45
638.589	4.39
638.776	4.51
638.963	4.58
639.149	4.77
639.336	4.84
639.523	4.9
639.709	4.93
639.896	4.97
640.083	5.04
640.27	5.2
640.456	5.22
640.643	5.33
640.829	5.3
641.016	5.37
641.203	5.54
641.389	5.6
641.576	5.78
641.762	5.73
641.949	5.86
642.135	5.95
642.322	6.03
642.508	6.04
642.695	6.31
642.881	6.35
643.068	6.41
643.254	6.58
643.441	6.67
643.627	6.9
643.813	6.79
644	7.1
644.186	7.02
644.372	7.23
644.559	7.37
644.745	7.4
644.931	7.57
645.118	7.77
645.304	7.76
645.49	7.97
645.676	8.09
645.862	8.19
646.049	8.4
646.235	8.5
646.421	8.78
646.607	8.92
646.793	8.98
646.979	8.96
647.165	9.27
647.352	9.46
647.538	9.49
647.724	9.71
647.91	9.87
648.096	10
648.282	10.26
648.468	10.37
648.654	10.58
648.84	10.65
649.026	10.85
649.212	10.89
649.397	11.2
649.583	11.44
649.769	11.63
649.955	11.73
650.141	12.07
650.327	12.07
650.513	12.47
650.698	12.47
650.884	12.59
651.07	12.88
651.256	13.05
651.442	13.32
651.627	13.24
651.813	13.78
651.999	13.66
652.184	13.96
652.37	14.16
652.556	14.5
652.741	14.55
652.927	14.56
653.113	15.06
653.298	15.21
653.484	15.5
653.669	15.54
653.855	15.85
654.04	15.98
654.226	16.22
654.412	16.26
654.597	16.34
654.782	16.8
654.968	16.89
655.153	17.06
655.339	17.32
655.524	17.43
655.71	17.58
655.895	17.94
656.08	18.1
656.266	18.36
656.451	18.33
656.636	18.4
656.822	18.73
657.007	18.92
657.192	19.02
657.378	19.06
657.563	19.17
657.748	19.29
657.933	19.69
658.118	19.13
658.304	19.66
658.489	19.8
658.674	19.9
658.859	19.65
659.044	19.93
659.229	20
659.414	20.04
659.599	20
659.785	19.93
659.97	19.83
660.155	19.88
660.34	20.02
660.525	19.65
660.71	19.62
660.895	19.49
661.08	19.27
661.264	19.04
661.449	18.93
661.634	18.52
661.819	18.56
662.004	17.99
662.189	17.79
662.374	17.56
662.559	17.06
662.743	16.82
662.928	16.62
663.113	16.17
663.298	15.92
663.483	15.46
663.667	15.08
663.852	14.74
664.037	14.43
664.221	14.08
664.406	13.74
664.591	13.26
664.775	12.95
664.96	12.56
665.145	12.04
665.329	11.82
665.514	11.4
665.698	10.9
665.883	10.48
666.068	10.31
666.252	9.98
666.437	9.65
666.621	9.32
666.806	8.95
666.99	8.6
667.174	8.42
667.359	8.11
667.543	7.78
667.728	7.49
667.912	7.25
668.096	6.99
668.281	6.74
668.465	6.61
668.649	6.33
668.834	5.94
669.018	5.89
669.202	5.77
669.387	5.46
669.571	5.39
669.755	5.03
669.939	4.98
670.124	4.72
670.308	4.63
670.492	4.43
670.676	4.35
670.86	4.21
671.044	3.94
671.228	3.93
671.413	3.76
671.597	3.58
671.781	3.55
671.965	3.49
672.149	3.34
672.333	3.3
672.517	3.06
672.701	2.98
672.885	2.86
673.069	2.66
673.253	2.78
673.437	2.6
673.621	2.51
673.804	2.45
673.988	2.41
674.172	2.25
674.356	2.14
674.54	2.17
674.724	2.19
674.908	2.03
675.091	2.01
675.275	1.9
675.459	1.89
675.643	1.86
675.826	1.77
676.01	1.71
676.194	1.7
676.377	1.6
676.561	1.58
676.745	1.54
676.928	1.48
677.112	1.44
677.296	1.39
677.479	1.32
677.663	1.24
677.846	1.23
678.03	1.19
678.213	1.13
678.397	1.13
678.58	1.07
678.764	1.04
678.947	0.98
679.131	1.03
679.314	1.05
679.498	0.99
679.681	0.95
679.865	0.97
680.048	0.88
680.231	0.89
680.415	0.81
680.598	0.8
680.781	0.8
680.965	0.73
681.148	0.74
681.331	0.7
681.514	0.7
681.698	0.65
681.881	0.67
682.064	0.66
682.247	0.62
682.43	0.56
682.614	0.65
682.797	0.62
682.98	0.57
683.163	0.52
683.346	0.58
683.529	0.51
683.712	0.53
683.895	0.5
684.078	0.45
684.261	0.49
684.444	0.51
684.627	0.44
684.81	0.41
684.993	0.45
685.176	0.43
685.359	0.4
685.542	0.36
685.725	0.46
685.908	0.4
686.091	0.38
686.274	0.45
686.457	0.44
686.639	0.36
686.822	0.44
687.005	0.4
687.188	0.38
687.371	0.46
687.553	0.37
687.736	0.31
687.919	0.42
688.102	0.4
688.284	0.36
688.467	0.29
688.65	0.28
688.832	0.34
689.015	0.26
689.197	0.28
689.38	0.44
689.563	0.38
689.745	0.25
689.928	0.24
690.11	0.27
690.293	0.26
690.475	0.17
690.658	0.32
690.84	0.26
691.023	0.25
691.205	0.21
691.388	0.27
691.57	0.31
691.752	0.31
691.935	0.17
692.117	0.24
692.3	0.22
692.482	0.28
692.664	0.2
692.847	0.24
693.029	0.3
693.211	0.27
693.393	0.18
693.576	0.17
693.758	0.24
693.94	0.18
694.122	0.21
694.304	0.19
694.487	0.19
694.669	0.23
694.851	0.14
695.033	0.19
695.215	0.12
695.397	0.16
695.579	0.15
695.761	0.12
695.943	0.09
696.125	0.22
696.308	0.23
696.49	0.1
696.671	0.27
696.853	0.17
697.035	0.26
697.217	0.15
697.399	0.2
697.581	0.13
697.763	0.13
697.945	0.16
698.127	0.17
698.309	0.25
698.491	0.18
698.672	0.2
698.854	0.18
699.036	0.2
699.218	0.16
699.399	0.23
699.581	0.19
699.763	0.16
699.945	0.16
700.126	0.13
700.308	0.13
700.49	0.19
700.671	0.05
700.853	0.1
701.035	0.13
701.216	0.15
701.398	0.1
701.579	0.14
701.761	0.2
701.943	0.06
702.124	0.08
702.306	0.15
702.487	0.3
702.669	0.18
702.85	0.06
703.031	0.1
703.213	0.2
703.394	0.22
703.576	0.1
703.757	0.24
703.938	0.21
704.12	0.3
704.301	0.09
704.483	0.12
704.664	0.15
704.845	0.22
705.026	0.19
705.208	0.09
705.389	0.11
705.57	0.16
705.751	0.11
705.933	0.15
706.114	0.24
706.295	0.17
706.476	0.08
706.657	0.24
706.838	0.11
707.02	0.15
707.201	0.04
707.382	0.11
707.563	0.14
707.744	0.07
707.925	0.08
708.106	0.12
708.287	0.15
708.468	0.23
708.649	0.14
708.83	0.14
709.011	0.05
709.192	0.21
709.373	0.05
709.554	0.14
709.734	0.2
709.915	0.21
710.096	0.1
710.277	0.01
710.458	0.15
710.639	0.2
710.819	0.03
711	0.07
711.181	0.15
711.362	0.16
711.542	0.09
711.723	0.1
711.904	0.17
712.085	0.12
712.265	0.1
712.446	0.08
712.627	0.1
712.807	0.11
712.988	0.15
713.168	0.04
713.349	0.17
713.53	-0.02
713.71	0.06
713.891	0.11
714.071	0.11
714.252	0.04
714.432	0.08
714.613	0.06
714.793	0.12
714.974	0.22
715.154	0.15
715.334	0.2
715.515	0.18
715.695	0.08
715.876	0.14
716.056	0.06
716.236	0.15
716.417	0.07
716.597	0.05
716.777	0.28
716.957	0.14
717.138	0.11
717.318	0.15
717.498	0.03
717.678	0.14
717.859	0.16
718.039	-0.06
718.219	0.11
718.399	0.18
718.579	0.04
718.759	0.06
718.939	0.18
719.12	0.13
719.3	0.11
719.48	0
719.66	-0
719.84	0.22
720.02	0.04
720.2	-0
720.38	0.2
720.56	0.2
720.74	0.05
720.92	0.14
721.1	0.17
721.279	0.22
721.459	0.1
721.639	0.04
721.819	0.15
721.999	0.07
722.179	0.17
722.359	-0.04
722.538	0.1
722.718	0.12
722.898	0.13
723.078	0.11
723.257	0.13
723.437	0.15
723.617	0.06
723.797	0.08
723.976	0.11
724.156	0.11
724.336	0.14
724.515	0.23
724.695	-0.04
724.874	0.01
725.054	0.22
725.234	0.06
725.413	0.16
725.593	0.04
725.772	0.14
725.952	0.12
726.131	0.12
726.311	0.12
726.49	0.13
726.67	0.01
726.849	0.06
727.028	0.17
727.208	0.05
727.387	0.24
727.567	0.06
727.746	0.04
727.925	0.09
728.105	0.02
728.284	0.11
728.463	-0.22
728.643	0.18
728.822	0.01
729.001	0.08
729.18	0.18
729.359	0.1
729.539	0.13
729.718	0.14
729.897	0.16
730.076	0.03
730.255	0.04
730.434	0.17
730.614	0.09
730.793	0.26
730.972	0.06
731.151	0.08
731.33	0.23
731.509	0.17
731.688	0.16
731.867	0.22
732.046	-0.03
732.225	0.3
732.404	-0.05
732.583	0.07
732.762	0.24
732.941	0.23
733.12	0.15
733.298	0.09
733.477	0.11
733.656	0.1
733.835	0.04
734.014	0.21
734.193	0.17
734.371	0.17
734.55	0.08
734.729	-0.04
734.908	0.09
735.086	0.23
735.265	0.13
735.444	0.04
735.623	-0.01
735.801	0.07
735.98	0.11
736.159	0.11
736.337	0.28
736.516	0.15
736.694	0.1
736.873	0.11
737.052	0.25
737.23	0.18
737.409	0.01
737.587	0.32
737.766	-0.07
737.944	0.05
738.123	0.21
738.301	0.08
738.479	0.18
738.658	0.19
738.836	-0.1
739.015	0.22
739.193	0.23
739.371	0.03
739.55	0.09
739.728	0.08
739.906	0.23
740.085	0.23
740.263	0.07
740.441	-0.04
740.62	0.22
740.798	0.21
740.976	0.05
741.154	0.06
741.332	0.21
741.511	0.03
741.689	0.17
741.867	0.19
742.045	0.1
742.223	0.14
742.401	-0
742.579	0
742.757	0.19
742.935	-0.04
743.114	0.05
743.292	0.1
743.47	0.14
743.648	0.18
743.826	-0.07
744.004	0.14
744.181	0.18
744.359	0.06
744.537	0.13
744.715	0.11
744.893	0.16
745.071	0.1
745.249	0.1
745.427	-0.02
745.605	0.12
745.782	0.1
745.96	0.13
746.138	0.24
746.316	0.2
746.493	0.11
746.671	0.12
746.849	0.11
747.027	0.2
747.204	0.05
747.382	0.1
747.56	-0.02
747.737	0.12
747.915	0.03
748.093	0.12
748.27	0.08
748.448	-0.02
748.625	-0.07
748.803	0.02
748.98	0.15
749.158	0.23
749.335	0.16
749.513	0.01
749.69	0.05
749.868	0.03
750.045	0.07
750.223	0.05
750.4	-0.04
750.578	0.17
750.755	0.17
750.932	0.03
751.11	0.18
751.287	-0.04
751.464	0.23
751.642	0.17
751.819	0.11
751.996	0.15
752.173	0.02
752.351	0.03
752.528	0.19
752.705	0.07
752.882	-0.09
753.06	0.11
753.237	0.13
753.414	0.33
753.591	0.18
753.768	0
753.945	0.05
754.122	0.01
754.299	0.09
754.476	0.1
754.654	0.17
754.831	0.19
755.008	0.14
755.185	0.03
755.362	-0.01
755.539	0.13
755.716	0.11
755.892	0.11
756.069	0.19
756.246	0.12
756.423	0.09
756.6	0.29
756.777	0.12
756.954	0.21
757.131	0.07
757.307	0.01
757.484	0.02
757.661	0.16
757.838	0.12
758.015	0.06
758.191	0.17
758.368	0.09
758.545	0.19
758.721	0.05
758.898	0.03
759.075	0.24
759.251	0.21
759.428	0.08
759.605	-0.14
759.781	0.09
759.958	0.13
760.134	0.1
760.311	0.08
760.488	0.26
760.664	0.14
760.841	0.1
761.017	0.05
761.194	0.19
761.37	0.11
761.547	0.17
761.723	0.17
761.899	0.29
762.076	0.09
762.252	0.02
762.429	0.12
762.605	0.16
762.781	0.08
762.958	0.26
763.134	0.06
763.31	0.05
763.486	0.17
763.663	-0.16
763.839	0.15
764.015	-0.05
764.191	0.04
764.368	0.06
764.544	0.1
764.72	0.16
764.896	0.26
765.072	0.11
765.248	0.13
765.425	0.1
765.601	0.09
765.777	0.16
765.953	-0.12
766.129	0.09
766.305	-0
766.481	0.16
766.657	0.1
766.833	0.28
767.009	-0.03
767.185	-0.04
767.361	0.12
767.537	-0.08
767.713	0.19
767.889	0.12
768.065	0.14
768.24	-0.15
768.416	0.22
768.592	-0.07
768.768	0.03
768.944	0.03
769.12	0.01
769.295	-0.01
769.471	0.06
769.647	-0.04
769.823	0.18
769.998	0.02
770.174	-0.04
770.35	0.48
770.525	0.2
770.701	0.47
770.877	0.15
771.052	0.06
771.228	0.19
771.403	0.13
771.579	0.18
771.755	0.45
771.93	0.01
772.106	0.09
772.281	-0.11
772.457	0.16
772.632	0.15
772.808	-0.02
772.983	-0.03
773.159	0.01
773.334	0.3
773.509	0.16
773.685	0.13
773.86	0.4
774.036	0.38
774.211	0.16
774.386	0.04
774.562	0.14
774.737	0.16
774.912	0.31
775.087	0.16
775.263	0.14
775.438	0.11
775.613	-0.01
775.788	0.14
775.964	0.17
776.139	0.45
776.314	-0.03
776.489	0.05
776.664	0.09
776.839	-0.06
777.014	0.16
777.19	0.18
777.365	0.34
777.54	0.39
777.715	-0
777.89	0.18
778.065	-0.01
778.24	0.15
778.415	0.34
778.59	-0.01
778.765	-0.05
778.94	0.04
779.115	0.12
779.289	0.06
779.464	0.11
779.639	0.14
779.814	-0.03
779.989	-0.14
780.164	0.38
780.339	0.1
780.513	0.07
780.688	-0.11
780.863	0.1
781.038	0.15
781.212	0.05
781.387	0.12
781.562	0.52
781.737	-0.05
781.911	0.36
782.086	0.06
782.261	0.06
782.435	0.33
782.61	0.16
782.784	0.2
782.959	0.34
783.134	-0.04
783.308	0.03
783.483	-0.07
783.657	0.48
783.832	0.24
784.006	0
784.181	-0.02
784.355	0.27
784.53	-0.06
784.704	-0.02
784.878	0.46
785.053	0.19
785.227	0.04
785.402	0.42
785.576	-0.12
785.75	0.29
785.925	0.09
786.099	0.25
786.273	0.21
786.448	0.22
786.622	0.36
786.796	0.07
786.97	0.05
787.145	0.54
787.319	-0.14
787.493	0.07
787.667	-0.18
787.841	0.27
788.015	0.4
788.19	-0.07
788.364	0.13
788.538	0.11
788.712	0.36
788.886	0.07
789.06	0.35
789.234	0.29
789.408	0.06
789.582	0.06
789.756	0.05
789.93	0.07
790.104	0.18
790.278	0.1
790.452	0.05
790.626	0.22
790.8	-0.15
790.973	0.45
791.147	0.55
791.321	0.54
791.495	0.44
791.669	0.41
791.843	0.29
792.016	0.18
792.19	0.47
792.364	0.01
792.538	0.51
792.711	0.42
792.885	-0.02
793.059	0.03
793.233	-0.37
793.406	0.26
793.58	0.11
793.754	0.22
793.927	0.34
794.101	0.47
794.274	0.07
794.448	0.32
794.622	0.03
794.795	0.5
794.969	0
795.142	0.5
795.316	-0.07
795.489	0.16
795.663	0.58
795.836	0.24
796.009	0.24
796.183	0.52
796.356	0.35
796.53	0.19
796.703	0.18
796.876	0.83
797.05	-0.09
797.223	0.21
797.396	0.32
797.57	0.21
797.743	0.48
797.916	0.21
798.09	0.05
798.263	0.6
798.436	0.49
798.609	0.01
798.782	0.14
798.956	0.18
799.129	0.13
799.302	-0.11
799.475	0.16
799.648	0.14
799.821	0.07
799.994	0.2
800.167	-0.39
800.34	0.07
800.514	0.15
800.687	0.01
800.86	0.1
801.033	-0.1
801.206	0.39
801.379	0.17
801.551	0.69
801.724	-0.05
801.897	0.55
802.07	0.14
802.243	-0.11
802.416	0.21
802.589	-0.19
802.762	0.42
802.935	0.4
803.107	0.33
803.28	0.29
803.453	0.53
803.626	0.18
803.798	0.27
803.971	-0.07
804.144	0.37
804.317	0.49
804.489	0.63
804.662	0.02
804.835	0.12
805.007	-0.05
805.18	0.38
805.353	0.35
805.525	0.04
805.698	0.15
805.87	0.24
806.043	0.8
806.215	0.07
806.388	-0.03
806.56	0.22
806.733	0.62
806.905	0.34
807.078	0.25
807.25	0.07
807.423	0.24
807.595	0.58
807.768	0.13
807.94	0.25
808.112	0.14
808.285	-0.01
808.457	0.01
808.629	0.43
808.802	0.59
808.974	0.2
809.146	-0.09
809.318	0.01
809.491	0.3
809.663	0.6
809.835	-0.09
810.007	0.33
810.18	0.14
810.352	-0.17
810.524	0.34
810.696	0.55
810.868	0.8
811.04	-0.07
811.212	0.32
811.384	0.62
811.556	0.13
811.728	0.11
811.901	1.29
812.073	0.2
812.245	0.24
812.417	0.04
812.589	-0.28
812.76	0.14
812.932	0.48
813.104	0.43
813.276	-0.22
813.448	0.9
813.62	0.34
813.792	0.36
813.964	0.34
814.136	0.37
814.307	0.04
814.479	0.25
814.651	0.45
814.823	1.04
814.995	0.06
815.166	0.33
815.338	0.15
815.51	-0.36
815.681	1.28
815.853	0.32
816.025	0.46
816.196	1
816.368	0.8
816.54	0.12
816.711	-0.18
816.883	0.26
817.054	1.22
817.226	-0.24
817.398	0.6
817.569	0.26
817.741	0.87
817.912	0.01
818.084	0.07
818.255	0.8
818.426	0.24
818.598	-0.04
818.769	0.14
818.941	0.52
819.112	0.67
819.283	0.47
819.455	0.02
819.626	0.4
819.798	0.81
819.969	0.46
820.14	0.08
820.311	0.11
820.483	0.14
820.654	0.51
820.825	0.22
820.996	0.18
821.168	0.07
821.339	0.63
821.51	0.15
821.681	-0.03
821.852	0.23
822.023	0.01
822.195	0.18
822.366	0.8
822.537	0.76
822.708	0.24
822.879	-0.26
823.05	1.29
823.221	0.08
823.392	0.86
823.563	0.38
823.734	0.8
823.905	0.21
824.076	-0.09
824.247	-0.19
824.418	0.24
824.589	1.37
824.759	-0.1
824.93	0.61
825.101	0.02
825.272	0.56
825.443	1.13
825.614	0.34
825.784	-1.01
825.955	0.64
826.126	0.73
826.297	0.42
826.467	1.84
826.638	0.79
826.809	-0.38
826.98	0.49
827.15	0.49
827.321	0.76
827.492	0.56
827.662	0.3
827.833	1.12
828.003	0.77
828.174	-0.19
828.345	-0.53
828.515	1.06
828.686	0.92
828.856	0.69
829.027	0.22
829.197	0.77
829.368	0.56
829.538	-0.05
829.709	0.06
829.879	0.57
830.049	0.66
830.22	-0.35
830.39	0.54
830.56	0.9
830.731	0.82
830.901	0.16
831.072	0.74
831.242	0.8
831.412	0.46
831.582	0.6
831.753	-0.58
831.923	0.83
832.093	0.51
832.263	0.08
832.434	-0.35
832.604	0.05
832.774	0.63
832.944	0.42
833.114	-0.21
833.284	0.8
833.454	-0.28
833.624	0.32
833.795	0.39
833.965	0.86
834.135	1.19
834.305	-0.07
834.475	-0.24
834.645	0.52
834.815	0.07
834.985	-0.46
835.155	0.12
835.325	1.08
835.494	1.18
835.664	0.61
835.834	-0.4
836.004	0.61
836.174	0.01
836.344	0.92
836.514	0.14
836.684	0.58
836.853	0.79
837.023	0.69
837.193	-0.24
837.363	0.78
837.532	0.72
837.702	0.36
837.872	-0.13
838.041	0.69
838.211	1.72
838.381	-0.44
838.55	0.1
838.72	2.34
838.89	1.46
839.059	0.81
839.229	-0.04
839.398	2.12
839.568	0.95
839.738	0.57
839.907	0.88
840.077	1.36
840.246	0.68
840.416	0.16
840.585	-0.28
840.755	1.4
840.924	1.12
841.093	0.06
841.263	0.52
841.432	0.27
841.602	-0.09
841.771	0.87
841.94	0.67
842.11	3
842.279	1.44
842.448	0.11
842.617	-0.04
842.787	1.99
842.956	-0.3
843.125	0.52
843.294	1.26
843.464	1.7
843.633	0.24
843.802	-0.62
843.971	1.32
844.14	0.82
844.309	1.31
844.479	-0.46
844.648	-0.03
844.817	0.28
844.986	1.43
845.155	0.1
845.324	0.52
845.493	0.97
845.662	0.38
845.831	0.22
846	0.7
846.169	0.06
846.338	2.07
846.507	0.89
846.676	0.3
846.844	0.04
847.013	1.88
847.182	0.7
847.351	0.16
847.52	0.34
847.689	1.06
847.858	0.32
848.026	-0.12
848.195	0.35
848.364	0.48
848.533	0.11
848.701	-0.21
848.87	-0.33
849.039	1.17
849.207	1.38
849.376	1.03
849.545	1.29
849.713	-0.27
849.882	-0.35
850.051	-0.1
850.219	1.06
850.388	1.84
850.556	0.71
850.725	0.62
850.893	1.59
851.062	0.51
851.23	0.9
851.399	-0.58
851.567	0.58
851.736	1.52
851.904	-0.82
852.073	0.6
852.241	0.67
852.41	1.02
852.578	0.4
852.746	0.33
852.915	1.1
853.083	0.37
853.251	0.57
853.42	0.02
853.588	0.8
853.756	1.81
853.924	1.12
854.093	1.36
854.261	0.65
854.429	-1.23
854.597	1.66
854.765	-0.65
854.934	0.92
855.102	0.78
855.27	1.54
855.438	2.04
855.606	1.18
855.774	1.56
855.942	-1.15
856.11	-0.79
856.278	-0.09
856.446	2.15
856.614	0.53
856.782	0.98
856.95	2.5
857.118	0.98
857.286	0.95
857.454	-0.48
857.622	1.8
857.79	1.43
857.958	-0.28
858.126	1.37
858.294	-2.04
858.462	0.04
858.629	0.08
858.797	0.04
858.965	2.08
859.133	0.14
859.301	1.01
859.468	1.42
859.636	0.54
859.804	2.39
859.971	1.86
860.139	0.08
860.307	2.05
860.474	1.33
860.642	0.79
860.81	-0.26
860.977	-0
861.145	1.47
861.313	0.42
861.48	0.2
861.648	2.38
861.815	0.16
861.983	0.36
862.15	0.15
862.318	2.08
862.485	1.29
862.653	0.26
862.82	0.64
862.988	3.48
863.155	2.94
863.322	0.28
863.49	-0.22
863.657	0.51
863.824	1.32
863.992	1.79
864.159	1.28
864.326	1.63
864.494	0.29
864.661	3.82
864.828	0.69
864.996	0.96
865.163	2.31
865.33	0.61
865.497	-1.39
865.664	-0.02
865.832	-0.24
865.999	0.86
866.166	0.54
866.333	1.31
866.5	-0.29
866.667	2.25
866.834	1.34
867.001	2.56
867.168	-0.3
867.335	0.97
867.502	-0.43
867.669	1.54
867.836	2.29
868.003	0.74
868.17	1.91
868.337	2.78
868.504	4.18
868.671	-1.91
868.838	-0.75
869.005	1.8
869.172	0.59
869.339	0.51
869.505	1.55
869.672	1.39
869.839	3.33
870.006	1.82
870.173	-0.29
870.339	1.62
870.506	3.31
870.673	0.74
870.84	1.54
871.006	2.28
871.173	0.17
871.34	1.24
871.506	0.59
871.673	2.12
871.839	-0.94
872.006	0.76
872.173	1.57
872.339	0.84
872.506	1.5
872.672	1.34
872.839	-2.6
873.005	2.23
873.172	5.2
873.338	2.63
873.505	0.98
873.671	2.33
873.838	2.4
874.004	1.13
874.171	0.17
874.337	0.8
874.503	1.83
874.67	0.34
874.836	1.48
875.002	3.21
875.169	1.09
875.335	0.31
875.501	-0.34
875.668	1.54
875.834	0.83
876	1.52
876.166	2.18
876.332	1.38
876.499	5.71
876.665	-0.86
876.831	2.35
876.997	4.46
877.163	1.22
877.329	1.33
877.495	1.27
877.662	1.46
877.828	2.72
877.994	2.37
878.16	0.03
878.326	-1.3
878.492	1.2
878.658	0.94
878.824	1.76
878.99	1.93
879.156	0.12
879.322	4.08
879.487	1.28
879.653	3.23
879.819	1.52
879.985	0.03
880.151	0.76
880.317	1.88
880.483	2.31
880.648	2.4
880.814	-1.54
880.98	0.29
881.146	-0.83
881.312	-0.1
881.477	1.83
881.643	1.52
881.809	1.8
881.974	5.43
882.14	0.93
882.306	-0.03
882.471	3.44
882.637	1.67
882.803	1.75
882.968	3.62
883.134	4.31
883.299	1.75
883.465	-0.32
883.63	2.74
883.796	2.75
883.961	1.93
884.127	2
884.292	-3.76
884.458	-1.91
884.623	-1.91
