Data from Apollo_Calib_20240827__AbsoluteIrradiance__529__07-58-00-355.txt Node

Date: Wed Aug 28 07:58:00 BST 2024
User: biology
Spectrometer: FLMT08252
Trigger mode: 0
Integration Time (sec): 5.000000E-1
Scans to average: 5
Electric dark correction enabled: true
Nonlinearity correction enabled: false
Boxcar width: 0
XAxis mode: Wavelengths
Number of Pixels in Spectrum: 3648
>>>>>Begin Spectral Data<<<<<
179.588	-0
179.809	-0
180.03	-0
180.251	-0
180.473	-0
180.694	0
180.915	0
181.136	-0
181.357	0
181.578	0
181.799	-0
182.02	-0
182.241	0
182.462	-0
182.683	0
182.904	-0
183.125	-0
183.346	0
183.567	0
183.788	-0
184.009	-0
184.23	-0
184.451	0
184.672	-0
184.892	-0
185.113	0
185.334	0
185.555	-0
185.776	0
185.996	0
186.217	0
186.438	-0
186.659	-0
186.879	0
187.1	-0
187.321	-0
187.541	-0
187.762	-0
187.983	-0
188.203	-0
188.424	0
188.644	0
188.865	0
189.086	-0
189.306	-0
189.527	0
189.747	0
189.968	-0
190.188	0
190.409	-0
190.629	0
190.849	0
191.07	-0
191.29	-0
191.511	-0
191.731	-0
191.951	-0
192.172	-0
192.392	-0
192.612	-0
192.833	-0
193.053	0
193.273	0
193.493	-0
193.714	0
193.934	0
194.154	0
194.374	0
194.594	0
194.815	0
195.035	-0
195.255	-0
195.475	-0
195.695	0
195.915	0
196.135	0
196.355	0
196.575	0
196.795	0
197.015	-0
197.235	-0
197.455	0
197.675	0
197.895	-0
198.115	-0
198.335	0
198.555	0
198.775	0
198.995	0
199.214	0
199.434	0
199.654	-0
199.874	-0
200.094	0.61
200.313	0.33
200.533	-0.31
200.753	-0.86
200.973	0.93
201.192	0.73
201.412	-0.88
201.632	-0.29
201.851	0.78
202.071	-0.62
202.291	-0.19
202.51	-0.6
202.73	0.51
202.95	0.34
203.169	-0.61
203.389	-0.1
203.608	0.1
203.828	-0.39
204.047	-0.22
204.267	-0.2
204.486	0.19
204.706	0.26
204.925	0.16
205.145	-0.08
205.364	0.46
205.583	0.59
205.803	-0.29
206.022	-0.21
206.242	-0.24
206.461	0.16
206.68	-0.13
206.9	0
207.119	0.6
207.338	0.61
207.557	-0.33
207.777	0.03
207.996	0.08
208.215	0.43
208.434	-0.1
208.654	-0.15
208.873	-0.03
209.092	0.46
209.311	-0.09
209.53	0.03
209.749	-0.23
209.968	-0.4
210.187	-0.04
210.407	-0.42
210.626	-0.17
210.845	0.27
211.064	0.19
211.283	-0.21
211.502	-0.06
211.721	-0.09
211.94	-0
212.159	-0.08
212.377	0.31
212.596	0.23
212.815	0.02
213.034	0.07
213.253	0.12
213.472	0.24
213.691	-0.2
213.91	-0.23
214.128	0.2
214.347	0.5
214.566	-0.34
214.785	-0.28
215.003	0.22
215.222	0.17
215.441	-0.07
215.66	-0.09
215.878	-0.03
216.097	0.33
216.316	-0.31
216.534	-0.12
216.753	-0.06
216.972	0
217.19	0
217.409	-0.03
217.627	-0.07
217.846	-0
218.064	0.14
218.283	-0.21
218.501	0.27
218.72	0.12
218.938	-0.25
219.157	-0.27
219.375	0.12
219.594	0.15
219.812	-0.17
220.031	-0.06
220.249	0.41
220.467	0.22
220.686	0.03
220.904	-0.13
221.122	-0.01
221.341	0.23
221.559	0.04
221.777	-0.22
221.995	0
222.214	0.09
222.432	-0.34
222.65	0.12
222.868	0.13
223.086	0.13
223.305	0.04
223.523	-0.06
223.741	0.22
223.959	-0.09
224.177	-0.22
224.395	-0.09
224.613	0.04
224.831	0.12
225.049	-0.14
225.267	-0.06
225.485	0.04
225.703	-0.02
225.921	0
226.139	-0.16
226.357	0.05
226.575	0.01
226.793	-0.11
227.011	0.45
227.229	0.12
227.447	0.22
227.665	-0.07
227.883	-0.13
228.1	-0.01
228.318	-0.1
228.536	-0.19
228.754	-0.1
228.972	0.11
229.189	0.07
229.407	-0.19
229.625	-0.05
229.843	0.17
230.06	0.04
230.278	-0.08
230.496	0.05
230.713	-0.09
230.931	0.11
231.149	-0.02
231.366	-0.17
231.584	-0.04
231.801	0.33
232.019	-0.06
232.236	-0.12
232.454	-0.17
232.671	0.05
232.889	0.08
233.106	-0.14
233.324	-0.04
233.541	0.09
233.759	0.07
233.976	-0.06
234.194	0.03
234.411	0.02
234.628	-0.17
234.846	0.01
235.063	0.02
235.28	-0.06
235.498	0.06
235.715	-0.13
235.932	0.02
236.149	0.04
236.367	-0.15
236.584	-0.01
236.801	-0.14
237.018	0.1
237.236	0.02
237.453	-0.23
237.67	0.13
237.887	-0.02
238.104	-0.05
238.321	-0.1
238.538	-0.09
238.755	0.16
238.973	-0.17
239.19	0.07
239.407	0.06
239.624	-0.06
239.841	-0.03
240.058	-0.01
240.275	0.05
240.492	-0
240.709	-0
240.925	-0.08
241.142	-0.03
241.359	-0.07
241.576	-0.08
241.793	-0.04
242.01	0.01
242.227	0.07
242.444	0.05
242.66	0.08
242.877	0.01
243.094	-0.04
243.311	-0.02
243.527	-0.07
243.744	0.08
243.961	0.14
244.178	-0.03
244.394	0.04
244.611	0.08
244.828	0.19
245.044	-0.06
245.261	-0.07
245.477	0.05
245.694	-0
245.911	-0.04
246.127	-0
246.344	0.12
246.56	0.1
246.777	-0.01
246.993	0.01
247.21	0.01
247.426	0.03
247.643	-0.01
247.859	-0.12
248.076	0.04
248.292	0.15
248.508	-0.08
248.725	0.05
248.941	-0.04
249.157	0.18
249.374	-0.01
249.59	-0
249.806	0.04
250.023	0.04
250.239	-0
250.455	-0.09
250.671	0.01
250.888	-0.02
251.104	0.07
251.32	-0.1
251.536	0
251.752	0.03
251.969	0.03
252.185	0.02
252.401	0.1
252.617	0.04
252.833	-0
253.049	0.05
253.265	0
253.481	0.06
253.697	-0.05
253.913	-0.08
254.129	0.08
254.345	0.05
254.561	0.04
254.777	-0
254.993	0.06
255.209	0.06
255.425	0.01
255.641	-0.07
255.857	0.11
256.073	0.05
256.288	-0.07
256.504	-0.04
256.72	0.03
256.936	0.21
257.152	0.02
257.367	-0.07
257.583	0.02
257.799	0.05
258.015	-0
258.23	0.01
258.446	0.13
258.662	0.03
258.877	-0.06
259.093	-0.01
259.309	0.01
259.524	0
259.74	-0
259.955	-0.06
260.171	0.05
260.387	-0
260.602	0.06
260.818	0.01
261.033	-0.05
261.249	-0.04
261.464	-0.05
261.68	-0.07
261.895	0.1
262.11	0.11
262.326	-0.06
262.541	-0.08
262.757	0.08
262.972	0.04
263.187	0.05
263.403	0.03
263.618	0.03
263.833	0.03
264.049	0.01
264.264	-0.02
264.479	0.04
264.694	0.1
264.91	-0.02
265.125	0.04
265.34	0.08
265.555	0.15
265.77	0.05
265.986	-0.08
266.201	0.05
266.416	0.06
266.631	-0.01
266.846	-0.03
267.061	-0.02
267.276	0.05
267.491	-0.09
267.706	0.01
267.921	-0.02
268.136	0.03
268.351	-0.06
268.566	-0.09
268.781	0.02
268.996	0.07
269.211	0
269.426	-0.05
269.641	-0
269.856	0.01
270.071	-0.04
270.285	-0.05
270.5	0.07
270.715	0.04
270.93	-0.02
271.145	0.05
271.359	0.02
271.574	-0.01
271.789	0.02
272.004	0
272.218	-0.01
272.433	0.06
272.648	-0.05
272.862	0.04
273.077	0.02
273.292	0.01
273.506	0
273.721	-0.05
273.936	0.04
274.15	-0
274.365	0
274.579	0.03
274.794	0.12
275.008	0.06
275.223	-0.06
275.437	0.01
275.652	0.07
275.866	0.06
276.081	-0.05
276.295	0.07
276.509	0
276.724	0.02
276.938	0.06
277.153	0.02
277.367	0.11
277.581	-0.03
277.796	-0.03
278.01	-0.03
278.224	0.06
278.438	0.14
278.653	-0.04
278.867	-0.09
279.081	0.06
279.295	-0.04
279.51	0.03
279.724	-0.09
279.938	-0.02
280.152	-0.01
280.366	-0.01
280.58	0.06
280.794	0.09
281.008	0.09
281.222	0.08
281.437	0.08
281.651	0
281.865	0.09
282.079	-0.02
282.293	-0.07
282.507	-0.04
282.721	-0.02
282.935	0.01
283.148	-0.1
283.362	0
283.576	-0.07
283.79	0.01
284.004	0.02
284.218	0.06
284.432	-0.02
284.646	-0.01
284.859	0.02
285.073	-0.03
285.287	-0
285.501	-0
285.714	0
285.928	0.05
286.142	0.01
286.356	-0.02
286.569	0.01
286.783	0.08
286.997	0.04
287.21	0.04
287.424	0.01
287.637	0.01
287.851	0.01
288.065	-0.02
288.278	-0.01
288.492	0.01
288.705	0
288.919	0.05
289.132	-0.05
289.346	0.05
289.559	-0.07
289.773	0.01
289.986	0.01
290.2	-0
290.413	0.06
290.626	-0.09
290.84	0.03
291.053	-0.01
291.267	0.06
291.48	-0.04
291.693	0.02
291.906	-0.04
292.12	0.02
292.333	-0.01
292.546	0.03
292.76	0.03
292.973	-0
293.186	0.06
293.399	-0.02
293.612	0.09
293.826	0.04
294.039	0.01
294.252	0.05
294.465	0
294.678	0.01
294.891	0.02
295.104	-0.01
295.317	-0.01
295.53	0.04
295.743	0.02
295.956	0.01
296.169	0.06
296.382	0.02
296.595	-0.02
296.808	-0.04
297.021	0.04
297.234	0.03
297.447	0.01
297.66	-0
297.873	0.03
298.086	0.03
298.299	-0.03
298.511	-0.03
298.724	0.01
298.937	-0.07
299.15	0.01
299.363	0.01
299.575	0.03
299.788	0.06
300.001	-0.01
300.213	-0.01
300.426	-0.01
300.639	-0.03
300.852	-0.01
301.064	0.06
301.277	0.07
301.489	0.05
301.702	0.03
301.915	0.02
302.127	0.05
302.34	0.04
302.552	0.04
302.765	-0.02
302.977	0.02
303.19	-0.01
303.402	0.01
303.615	-0.02
303.827	-0.01
304.04	0
304.252	0.05
304.464	0.01
304.677	0.09
304.889	0.02
305.102	-0.01
305.314	-0.03
305.526	0.06
305.739	0.02
305.951	-0.06
306.163	-0.01
306.375	0.08
306.588	0.02
306.8	-0
307.012	-0.05
307.224	-0.01
307.436	0.04
307.649	-0.03
307.861	0.03
308.073	0.04
308.285	0.02
308.497	-0.02
308.709	-0.02
308.921	0.01
309.133	0.08
309.346	0.01
309.558	0.03
309.77	0.08
309.982	0.04
310.194	0.03
310.406	-0.01
310.617	0.07
310.829	0.02
311.041	0
311.253	0
311.465	-0.03
311.677	0.02
311.889	0.03
312.101	-0.01
312.313	0.04
312.524	0.05
312.736	-0.04
312.948	-0.03
313.16	0.14
313.372	-0.01
313.583	0
313.795	0.02
314.007	0.03
314.218	0.03
314.43	-0.01
314.642	-0.01
314.853	-0.01
315.065	0.08
315.277	0.02
315.488	0.03
315.7	0.01
315.912	0.02
316.123	0.04
316.335	0.04
316.546	0.12
316.758	-0
316.969	-0.05
317.181	-0.01
317.392	-0.03
317.604	0.05
317.815	-0.01
318.026	-0.03
318.238	-0.01
318.449	0.02
318.661	-0.05
318.872	-0.05
319.083	-0.05
319.295	0.03
319.506	0.01
319.717	0.01
319.929	0.03
320.14	0.01
320.351	-0.01
320.562	-0.07
320.774	0.01
320.985	0
321.196	-0.05
321.407	-0.03
321.618	0.07
321.829	0.01
322.041	0.02
322.252	0
322.463	0.05
322.674	0.02
322.885	-0.02
323.096	-0.01
323.307	0.04
323.518	0.02
323.729	-0
323.94	-0.01
324.151	-0.04
324.362	0.03
324.573	0.01
324.784	-0.02
324.995	0.05
325.206	0
325.417	0.02
325.628	0.01
325.838	-0.04
326.049	-0.01
326.26	0.08
326.471	-0.02
326.682	0.05
326.892	0.03
327.103	-0.04
327.314	-0.04
327.525	0.06
327.735	0.05
327.946	-0
328.157	0.01
328.368	0.01
328.578	-0.05
328.789	0.04
328.999	0.06
329.21	0.02
329.421	0.03
329.631	-0.03
329.842	-0.03
330.052	0.03
330.263	0.01
330.473	0.03
330.684	-0
330.894	-0
331.105	-0.02
331.315	0.01
331.526	-0.04
331.736	0.07
331.947	0.04
332.157	0.03
332.367	-0.02
332.578	-0.01
332.788	0.06
332.999	0.06
333.209	-0.01
333.419	-0.03
333.629	0
333.84	0.05
334.05	0.02
334.26	0.07
334.47	0.02
334.681	0.08
334.891	-0
335.101	0.04
335.311	0.04
335.521	0.05
335.732	-0.02
335.942	0.04
336.152	0.04
336.362	0.04
336.572	-0
336.782	0.03
336.992	-0.03
337.202	0
337.412	-0
337.622	0.02
337.832	0.01
338.042	-0.01
338.252	-0.02
338.462	-0.01
338.672	0
338.882	-0.04
339.092	-0
339.302	0.09
339.511	0.02
339.721	0.01
339.931	-0.02
340.141	0.01
340.351	0.07
340.561	0.01
340.77	0.05
340.98	0.02
341.19	0.01
341.4	0.01
341.609	-0.06
341.819	0.01
342.029	-0.03
342.238	0.05
342.448	-0.03
342.658	0.01
342.867	0.01
343.077	0.01
343.286	0.02
343.496	0.03
343.706	0.04
343.915	0.01
344.125	0.03
344.334	0.05
344.544	-0.04
344.753	0
344.963	-0.02
345.172	0.01
345.381	-0.02
345.591	-0.05
345.8	0.04
346.01	0.08
346.219	0.05
346.428	-0.09
346.638	0.03
346.847	-0.01
347.056	0.02
347.266	-0.03
347.475	-0.01
347.684	0.05
347.893	0.04
348.103	0.01
348.312	0.02
348.521	-0.03
348.73	-0
348.94	0.04
349.149	0.01
349.358	-0.01
349.567	0
349.776	-0.04
349.985	-0.02
350.194	0.02
350.403	-0.01
350.612	-0.04
350.821	0
351.03	0.02
351.239	-0.03
351.448	-0.02
351.657	-0.04
351.866	0.09
352.075	0
352.284	0.03
352.493	-0.04
352.702	0.04
352.911	0.05
353.12	0.01
353.329	-0.01
353.538	0.01
353.746	-0.01
353.955	-0.03
354.164	0.03
354.373	0.03
354.582	0.03
354.79	0.01
354.999	0.04
355.208	0
355.416	0.05
355.625	-0.02
355.834	-0.01
356.042	-0
356.251	-0.03
356.46	-0.01
356.668	0.01
356.877	0.1
357.085	0.03
357.294	-0.08
357.503	0.03
357.711	-0.02
357.92	0.1
358.128	0.01
358.337	-0.02
358.545	0.04
358.754	0.01
358.962	0.04
359.17	0
359.379	-0.03
359.587	0.05
359.796	0.02
360.004	0.02
360.212	-0.01
360.421	0.08
360.629	-0.03
360.837	-0.04
361.046	0.04
361.254	0.08
361.462	0.02
361.67	-0.01
361.879	0.01
362.087	0.08
362.295	0.02
362.503	-0.04
362.711	-0.03
362.92	-0.04
363.128	-0
363.336	-0.01
363.544	-0.09
363.752	0.02
363.96	-0.01
364.168	-0.02
364.376	-0.02
364.584	-0
364.792	0.04
365	-0
365.208	0
365.416	0.01
365.624	0.02
365.832	0
366.04	0.07
366.248	0.09
366.456	-0
366.664	0.03
366.872	-0.01
367.079	-0
367.287	0.03
367.495	0.05
367.703	0.04
367.911	-0.01
368.118	-0.01
368.326	0.04
368.534	-0.05
368.742	0.07
368.949	-0.06
369.157	-0.01
369.365	0.04
369.572	0.03
369.78	-0.03
369.988	0.03
370.195	0.02
370.403	0.02
370.61	-0.01
370.818	-0
371.026	0.04
371.233	-0.04
371.441	0
371.648	-0.04
371.856	0.03
372.063	0.03
372.271	-0.03
372.478	-0.02
372.685	-0.05
372.893	0.02
373.1	0.04
373.308	-0.02
373.515	0.11
373.722	0.02
373.93	0.01
374.137	0.01
374.344	0.09
374.552	0.04
374.759	0.07
374.966	-0.02
375.173	0.02
375.381	0.05
375.588	-0.01
375.795	-0.03
376.002	0.04
376.209	-0.01
376.417	0
376.624	0
376.831	0.01
377.038	-0.02
377.245	-0.07
377.452	-0.02
377.659	-0.02
377.866	-0.03
378.073	-0.03
378.28	-0.02
378.487	0.02
378.694	0.07
378.901	-0.01
379.108	0.02
379.315	0.01
379.522	0.05
379.729	0.01
379.936	-0.04
380.143	-0.02
380.35	0
380.557	-0.01
380.763	-0.01
380.97	0.02
381.177	0
381.384	0
381.591	0.04
381.797	0.01
382.004	0.04
382.211	0.06
382.418	0.01
382.624	0.04
382.831	0.02
383.038	-0.02
383.244	0.02
383.451	-0
383.658	0.02
383.864	-0.01
384.071	-0.02
384.277	0.08
384.484	-0.06
384.69	0.04
384.897	0.01
385.103	-0.02
385.31	0
385.516	-0.01
385.723	-0.06
385.929	-0.01
386.136	0
386.342	0.02
386.549	-0.01
386.755	0.04
386.961	0.07
387.168	-0.01
387.374	0.01
387.58	-0
387.787	-0.01
387.993	0.07
388.199	0
388.406	-0.01
388.612	0
388.818	-0.03
389.024	-0.02
389.231	0.03
389.437	0.05
389.643	0.03
389.849	-0
390.055	-0.02
390.261	0
390.467	0.09
390.674	-0.04
390.88	0.06
391.086	0.02
391.292	-0.02
391.498	0.05
391.704	-0
391.91	-0
392.116	-0
392.322	-0.08
392.528	0.07
392.734	0.03
392.94	-0.01
393.146	-0.02
393.352	-0.01
393.557	-0.01
393.763	-0.01
393.969	0.04
394.175	-0.01
394.381	0
394.587	-0.02
394.792	-0.01
394.998	0.07
395.204	0.05
395.41	-0.02
395.615	0.04
395.821	-0.04
396.027	-0.02
396.233	-0.03
396.438	-0.01
396.644	0.05
396.85	0.01
397.055	0.01
397.261	0.06
397.466	0.06
397.672	-0.02
397.878	0.02
398.083	-0.01
398.289	-0
398.494	0.03
398.7	0.04
398.905	-0.04
399.111	0.05
399.316	-0.01
399.522	0.01
399.727	0.01
399.932	-0.04
400.138	-0
400.343	0.04
400.549	0.04
400.754	0.04
400.959	0.03
401.165	-0.04
401.37	0.05
401.575	0.07
401.78	0
401.986	-0.03
402.191	0.02
402.396	-0.02
402.601	0
402.807	-0.01
403.012	0.02
403.217	0.07
403.422	-0.01
403.627	0.01
403.832	0.01
404.037	0.02
404.243	0.06
404.448	-0.01
404.653	-0.04
404.858	0.01
405.063	0.03
405.268	-0
405.473	-0.04
405.678	0
405.883	0.12
406.088	0.04
406.293	-0.04
406.498	0.01
406.703	0.03
406.907	-0
407.112	-0.08
407.317	0.04
407.522	0.04
407.727	-0.04
407.932	0.01
408.136	0.07
408.341	0.01
408.546	0
408.751	0.01
408.956	-0.02
409.16	-0.03
409.365	0.02
409.57	-0.02
409.774	-0.02
409.979	0.07
410.184	0.02
410.388	-0.04
410.593	0.01
410.798	0.02
411.002	-0
411.207	0.07
411.411	0.07
411.616	-0.06
411.82	-0.06
412.025	0.06
412.229	0.01
412.434	0.05
412.638	0.04
412.843	-0.03
413.047	0.01
413.252	-0.02
413.456	-0.01
413.66	0.07
413.865	-0.02
414.069	0.04
414.273	-0.05
414.478	-0.05
414.682	-0.03
414.886	-0.04
415.091	-0.05
415.295	-0.07
415.499	0.05
415.703	-0.01
415.908	0.05
416.112	-0.06
416.316	0.02
416.52	-0
416.724	-0.02
416.929	-0
417.133	0.08
417.337	-0.01
417.541	-0.04
417.745	-0.01
417.949	0.04
418.153	0.03
418.357	-0.06
418.561	0.09
418.765	-0.01
418.969	0.1
419.173	-0
419.377	-0.06
419.581	0.11
419.785	-0.04
419.989	-0.1
420.193	-0.02
420.397	0.02
420.601	0.01
420.804	0.04
421.008	-0
421.212	-0.02
421.416	0.03
421.62	-0.02
421.823	0.01
422.027	0.09
422.231	0
422.435	-0.03
422.638	0.02
422.842	0.02
423.046	-0.01
423.249	0.03
423.453	0.05
423.657	0.02
423.86	-0.03
424.064	0.02
424.268	0.04
424.471	-0
424.675	0.09
424.878	0.09
425.082	0.02
425.285	0.03
425.489	0.01
425.692	0.03
425.896	-0
426.099	-0.01
426.303	-0.03
426.506	-0.09
426.71	-0.02
426.913	0.04
427.116	0.03
427.32	0.01
427.523	0.02
427.726	0.1
427.93	-0.04
428.133	0.03
428.336	-0.03
428.54	-0.04
428.743	-0.02
428.946	0.04
429.149	-0
429.353	0
429.556	-0.03
429.759	0.01
429.962	-0.03
430.165	-0.01
430.368	0.01
430.571	-0.02
430.775	0.03
430.978	-0.06
431.181	0.01
431.384	0.03
431.587	-0.01
431.79	0.01
431.993	-0.02
432.196	-0.01
432.399	-0.01
432.602	0.04
432.805	-0.01
433.008	-0.03
433.211	-0.08
433.414	-0
433.616	0.02
433.819	-0.04
434.022	-0.08
434.225	0.08
434.428	0
434.631	0.09
434.833	-0
435.036	-0.02
435.239	0.08
435.442	0.02
435.645	0
435.847	0.02
436.05	0.06
436.253	0.02
436.455	-0.07
436.658	-0.01
436.861	0.07
437.063	-0.06
437.266	-0
437.468	0.02
437.671	0.1
437.874	0.03
438.076	-0.07
438.279	-0.1
438.481	-0.01
438.684	-0.02
438.886	0.03
439.089	-0.08
439.291	-0.01
439.494	0.06
439.696	-0.03
439.899	-0
440.101	-0.02
440.303	-0.06
440.506	0
440.708	-0.04
440.91	0.09
441.113	-0.02
441.315	0.08
441.517	-0.09
441.72	0.02
441.922	-0.04
442.124	-0.03
442.326	0.05
442.529	0.08
442.731	-0.03
442.933	0.09
443.135	-0.01
443.337	-0
443.539	0.02
443.742	0
443.944	0.03
444.146	-0.02
444.348	-0.04
444.55	-0.01
444.752	-0.04
444.954	-0.04
445.156	0.02
445.358	-0.01
445.56	0.05
445.762	0
445.964	0.02
446.166	0
446.368	-0.03
446.57	0.03
446.772	-0
446.974	-0
447.175	-0
447.377	-0.03
447.579	-0.04
447.781	-0.07
447.983	0.08
448.184	0.05
448.386	0.02
448.588	-0.09
448.79	-0.01
448.991	-0.06
449.193	-0.06
449.395	-0.02
449.597	-0.01
449.798	-0.01
450	0.06
450.202	0.01
450.403	0.02
450.605	0.03
450.806	0
451.008	-0.1
451.21	-0.03
451.411	-0.03
451.613	-0.02
451.814	-0
452.016	0.02
452.217	0.01
452.419	0.05
452.62	0.02
452.821	0.04
453.023	0.07
453.224	0.08
453.426	-0
453.627	0.04
453.828	0.11
454.03	-0.06
454.231	0.02
454.432	-0.04
454.634	0.04
454.835	0.01
455.036	-0.1
455.238	0.06
455.439	0.05
455.64	-0.09
455.841	0.01
456.042	0.09
456.244	0.04
456.445	-0.03
456.646	-0.05
456.847	-0.05
457.048	0.03
457.249	0.05
457.45	0.17
457.651	-0.01
457.852	0.09
458.054	-0.01
458.255	-0.01
458.456	0.05
458.657	-0
458.858	-0.04
459.058	0.09
459.259	0.03
459.46	-0.04
459.661	-0.08
459.862	0.12
460.063	-0.06
460.264	0.06
460.465	-0.07
460.666	0.11
460.866	-0.05
461.067	0.02
461.268	-0.02
461.469	-0.02
461.67	0.04
461.87	-0
462.071	-0.01
462.272	-0.08
462.473	0
462.673	0.02
462.874	-0.05
463.075	0.01
463.275	-0.01
463.476	0.02
463.676	0.03
463.877	0
464.078	-0
464.278	0.06
464.479	-0
464.679	0.05
464.88	0.01
465.08	0.08
465.281	0.02
465.481	-0.01
465.682	0.02
465.882	0.04
466.083	0.04
466.283	-0.01
466.483	0.01
466.684	-0.08
466.884	-0.04
467.085	-0.01
467.285	0.02
467.485	-0.02
467.686	0.01
467.886	-0.04
468.086	0
468.286	-0.02
468.487	0.07
468.687	-0.05
468.887	-0.02
469.087	0.01
469.287	0.01
469.488	-0.05
469.688	0.01
469.888	0.03
470.088	0.05
470.288	0.04
470.488	0.04
470.688	-0.04
470.888	-0.05
471.088	-0.04
471.288	0.03
471.488	0.02
471.688	0.05
471.888	-0.02
472.088	0.02
472.288	0.05
472.488	-0.04
472.688	-0.03
472.888	-0
473.088	-0
473.288	0.02
473.488	-0
473.688	0.07
473.887	0.04
474.087	-0.01
474.287	0.03
474.487	-0.02
474.687	0.02
474.886	-0.03
475.086	-0.02
475.286	-0.02
475.486	0.01
475.685	0
475.885	0.01
476.085	-0.01
476.284	0.05
476.484	-0.03
476.684	0.06
476.883	0.04
477.083	0.01
477.282	-0.02
477.482	0.07
477.681	0.08
477.881	0.03
478.08	-0.02
478.28	-0.02
478.479	0.03
478.679	0.08
478.878	-0.02
479.078	-0.04
479.277	-0.01
479.477	-0
479.676	0.05
479.875	-0
480.075	-0.03
480.274	-0
480.473	0.04
480.673	-0.02
480.872	0
481.071	0.05
481.271	0.04
481.47	-0.04
481.669	0
481.868	-0.02
482.067	-0.03
482.267	0.03
482.466	-0.01
482.665	-0.03
482.864	-0.03
483.063	-0
483.262	0
483.461	0.04
483.661	0.04
483.86	-0.01
484.059	-0.02
484.258	-0.02
484.457	0.01
484.656	-0.03
484.855	0.03
485.054	-0.05
485.253	-0.01
485.452	-0.03
485.651	-0.01
485.849	-0.02
486.048	-0.03
486.247	-0.04
486.446	0.01
486.645	-0.03
486.844	-0.03
487.043	0.01
487.241	0
487.44	-0.04
487.639	-0.01
487.838	0.02
488.037	-0
488.235	0.02
488.434	0.01
488.633	-0.01
488.831	0.01
489.03	0.03
489.229	0
489.427	-0.01
489.626	0.02
489.825	0.07
490.023	0.01
490.222	-0.03
490.42	-0.01
490.619	0.04
490.817	0
491.016	-0
491.214	0.02
491.413	0
491.611	-0.03
491.81	0.01
492.008	0.01
492.207	0.03
492.405	0.01
492.604	-0.05
492.802	0.02
493	0.01
493.199	-0.01
493.397	-0
493.595	-0
493.794	-0.01
493.992	0.03
494.19	0.02
494.388	0.01
494.587	-0.01
494.785	0
494.983	-0.03
495.181	0.01
495.379	-0.01
495.578	0.01
495.776	0.04
495.974	0.02
496.172	-0.01
496.37	-0.01
496.568	-0.02
496.766	-0.02
496.964	0.04
497.162	0.01
497.36	-0.05
497.558	0.03
497.756	0.02
497.954	0
498.152	-0.02
498.35	0.02
498.548	0
498.746	0
498.944	-0.04
499.142	-0.02
499.34	-0.02
499.538	0
499.736	-0.01
499.933	0.04
500.131	0.02
500.329	-0
500.527	0.03
500.725	0.04
500.922	0.01
501.12	0
501.318	0.01
501.516	-0.01
501.713	0
501.911	-0
502.109	-0.04
502.306	0.03
502.504	0.01
502.701	-0.01
502.899	0.01
503.097	0.03
503.294	0.01
503.492	-0.01
503.689	-0.02
503.887	0.03
504.084	0.03
504.282	-0.01
504.479	-0.01
504.677	0.01
504.874	-0.03
505.072	0.01
505.269	-0.02
505.466	0.02
505.664	0.03
505.861	-0.04
506.059	-0.03
506.256	0.01
506.453	-0
506.651	0.04
506.848	0.02
507.045	-0.02
507.242	0.01
507.44	0.01
507.637	-0.01
507.834	0
508.031	0.02
508.229	-0.03
508.426	0.02
508.623	0.02
508.82	-0
509.017	-0.03
509.214	0.01
509.411	0.01
509.608	-0.02
509.805	0.03
510.003	-0.01
510.2	-0.01
510.397	0.03
510.594	-0.02
510.791	-0.03
510.988	-0
511.184	0.02
511.381	-0
511.578	-0.03
511.775	0.03
511.972	-0.01
512.169	-0.03
512.366	0.01
512.563	0.02
512.76	-0.01
512.956	0.02
513.153	-0.01
513.35	-0.01
513.547	0
513.744	-0.02
513.94	-0.03
514.137	0.01
514.334	0
514.53	-0
514.727	0.01
514.924	0.06
515.12	-0.02
515.317	-0.01
515.514	-0
515.71	-0.03
515.907	-0.01
516.103	0
516.3	0
516.497	0.03
516.693	0.01
516.89	-0.02
517.086	-0.01
517.283	0.06
517.479	0
517.676	-0.01
517.872	0.01
518.068	0
518.265	0.01
518.461	-0.01
518.658	-0.03
518.854	0.02
519.05	0.01
519.247	-0
519.443	0.02
519.639	-0
519.836	0
520.032	0.01
520.228	-0.02
520.424	0.04
520.621	0.01
520.817	-0.01
521.013	-0
521.209	0
521.405	0.05
521.601	-0.02
521.798	0.01
521.994	0.03
522.19	-0.02
522.386	-0.04
522.582	-0.01
522.778	0.01
522.974	0.02
523.17	-0.01
523.366	-0.03
523.562	0.04
523.758	0.01
523.954	-0.01
524.15	-0
524.346	0.01
524.542	-0.02
524.738	-0.02
524.934	-0.01
525.129	-0.06
525.325	0.03
525.521	0.01
525.717	0.02
525.913	0.01
526.109	-0.02
526.304	0.01
526.5	-0
526.696	0.02
526.892	-0
527.087	-0
527.283	-0.04
527.479	0.02
527.674	-0.02
527.87	-0.01
528.066	0
528.261	0.01
528.457	0.01
528.653	-0
528.848	-0.03
529.044	-0
529.239	-0.01
529.435	0
529.63	0
529.826	0.04
530.021	0.01
530.217	0.03
530.412	-0.02
530.608	-0
530.803	-0
530.999	0
531.194	-0.02
531.389	0.02
531.585	-0.04
531.78	-0
531.975	-0.02
532.171	0.01
532.366	-0
532.561	-0.02
532.757	-0.03
532.952	0.01
533.147	0.02
533.342	-0
533.538	0.01
533.733	0.02
533.928	-0.01
534.123	-0.02
534.318	-0.03
534.513	0.01
534.709	0.01
534.904	-0.01
535.099	0
535.294	-0
535.489	0.02
535.684	0.02
535.879	-0.04
536.074	0.01
536.269	-0.02
536.464	0.03
536.659	0.01
536.854	-0
537.049	0.02
537.244	0.01
537.439	-0.01
537.634	0.02
537.828	0.01
538.023	0.01
538.218	-0.02
538.413	0.01
538.608	-0.03
538.803	0.01
538.997	-0.02
539.192	0.02
539.387	0.02
539.582	0.02
539.776	-0
539.971	0.01
540.166	0
540.36	0
540.555	0.02
540.75	-0.01
540.944	-0
541.139	-0.04
541.334	-0.02
541.528	0.04
541.723	0.01
541.917	0.01
542.112	-0.03
542.306	0
542.501	0.01
542.695	0.03
542.89	-0.02
543.084	0.01
543.279	0.01
543.473	0.02
543.668	0.03
543.862	0
544.056	0.03
544.251	0
544.445	0.01
544.64	0
544.834	-0.02
545.028	0
545.222	0.02
545.417	0.03
545.611	-0
545.805	0.01
546	-0
546.194	0.01
546.388	-0.01
546.582	0.02
546.776	-0
546.97	-0.01
547.165	0.01
547.359	0.03
547.553	-0.02
547.747	-0.01
547.941	0.02
548.135	0.01
548.329	0.04
548.523	0.02
548.717	-0.01
548.911	-0.02
549.105	0.01
549.299	0.01
549.493	0.04
549.687	0.01
549.881	0.02
550.075	-0
550.269	-0.02
550.463	0.01
550.657	0
550.85	0.01
551.044	-0.02
551.238	0.04
551.432	-0.02
551.626	-0.02
551.82	0
552.013	-0
552.207	0.01
552.401	0.01
552.594	0.01
552.788	0
552.982	0.03
553.176	-0.03
553.369	0.01
553.563	0.02
553.756	-0.03
553.95	-0.03
554.144	0.01
554.337	0.02
554.531	0.02
554.724	-0
554.918	-0.01
555.111	0.02
555.305	-0.01
555.498	0.07
555.692	0.04
555.885	-0
556.079	0.01
556.272	-0
556.466	0.03
556.659	0.02
556.852	0.02
557.046	0.01
557.239	0.07
557.432	-0.01
557.626	-0.01
557.819	0.03
558.012	0.03
558.206	0.01
558.399	0.02
558.592	0.02
558.785	-0.02
558.979	0.01
559.172	0.01
559.365	0.02
559.558	0.01
559.751	0.02
559.944	0.02
560.138	-0.01
560.331	0.01
560.524	-0.01
560.717	0.01
560.91	0.02
561.103	0.01
561.296	0.01
561.489	0.02
561.682	0
561.875	0.04
562.068	0.03
562.261	0.02
562.454	0.04
562.647	-0.02
562.84	0.02
563.032	-0.01
563.225	0.04
563.418	0
563.611	0.01
563.804	0.01
563.997	-0.02
564.19	-0.01
564.382	-0.02
564.575	0.01
564.768	0.03
564.961	-0.01
565.153	0
565.346	0.03
565.539	0.03
565.731	0.03
565.924	0.04
566.117	0.03
566.309	0.01
566.502	-0
566.695	0.01
566.887	0.04
567.08	-0.01
567.272	-0.01
567.465	0
567.657	0.02
567.85	0.03
568.042	0.04
568.235	0.02
568.427	0.01
568.62	0.01
568.812	0.05
569.005	0
569.197	-0.02
569.389	0.02
569.582	0.01
569.774	0.03
569.966	-0.01
570.159	-0.04
570.351	0.02
570.543	-0
570.736	0.01
570.928	-0.01
571.12	0.03
571.312	-0.01
571.505	0.01
571.697	0.07
571.889	0.02
572.081	0.01
572.273	0.01
572.465	0.05
572.658	0.02
572.85	0.03
573.042	0.05
573.234	0.02
573.426	0.05
573.618	0
573.81	0.05
574.002	0.04
574.194	0.07
574.386	0.01
574.578	-0.04
574.77	0.01
574.962	0.04
575.154	0
575.346	0.03
575.538	0.04
575.729	0.02
575.921	0.02
576.113	0.03
576.305	0.07
576.497	0.03
576.689	0.03
576.88	0.02
577.072	0.06
577.264	0.05
577.456	0.04
577.647	-0.04
577.839	0.07
578.031	0.08
578.223	0.02
578.414	0
578.606	0.05
578.798	0.08
578.989	0.01
579.181	0.07
579.372	0.05
579.564	0.02
579.755	0.06
579.947	0.06
580.139	0.08
580.33	0.02
580.522	0.03
580.713	-0
580.905	0.06
581.096	0.06
581.287	0.07
581.479	0.08
581.67	0.07
581.862	0.08
582.053	0.07
582.244	0.04
582.436	0.07
582.627	0.09
582.818	0.07
583.01	0.06
583.201	0.11
583.392	0.11
583.583	0.09
583.775	0.08
583.966	0.07
584.157	0.08
584.348	0.07
584.54	0.06
584.731	0.09
584.922	0.09
585.113	0.08
585.304	0.12
585.495	0.13
585.686	0.12
585.877	0.13
586.068	0.13
586.259	0.11
586.45	0.13
586.641	0.1
586.832	0.09
587.023	0.14
587.214	0.12
587.405	0.15
587.596	0.11
587.787	0.17
587.978	0.12
588.169	0.11
588.36	0.11
588.551	0.17
588.742	0.15
588.932	0.16
589.123	0.13
589.314	0.19
589.505	0.19
589.696	0.17
589.886	0.16
590.077	0.11
590.268	0.21
590.458	0.15
590.649	0.15
590.84	0.21
591.03	0.16
591.221	0.18
591.412	0.16
591.602	0.24
591.793	0.21
591.984	0.19
592.174	0.2
592.365	0.28
592.555	0.21
592.746	0.24
592.936	0.27
593.127	0.25
593.317	0.29
593.508	0.26
593.698	0.24
593.889	0.27
594.079	0.27
594.269	0.24
594.46	0.29
594.65	0.28
594.84	0.29
595.031	0.27
595.221	0.31
595.411	0.28
595.602	0.31
595.792	0.35
595.982	0.3
596.172	0.37
596.363	0.35
596.553	0.35
596.743	0.35
596.933	0.34
597.123	0.36
597.314	0.34
597.504	0.36
597.694	0.45
597.884	0.38
598.074	0.38
598.264	0.39
598.454	0.42
598.644	0.41
598.834	0.45
599.024	0.44
599.214	0.42
599.404	0.47
599.594	0.45
599.784	0.42
599.974	0.52
600.164	0.49
600.354	0.46
600.544	0.46
600.734	0.5
600.924	0.57
601.114	0.51
601.303	0.56
601.493	0.56
601.683	0.55
601.873	0.58
602.063	0.55
602.252	0.61
602.442	0.55
602.632	0.6
602.821	0.59
603.011	0.67
603.201	0.62
603.39	0.61
603.58	0.65
603.77	0.71
603.959	0.72
604.149	0.75
604.339	0.67
604.528	0.73
604.718	0.75
604.907	0.75
605.097	0.76
605.286	0.73
605.476	0.8
605.665	0.83
605.855	0.81
606.044	0.86
606.234	0.88
606.423	0.86
606.612	0.87
606.802	0.89
606.991	0.93
607.181	0.93
607.37	0.91
607.559	0.9
607.749	0.91
607.938	0.96
608.127	0.97
608.316	0.99
608.506	1.02
608.695	1.06
608.884	1.03
609.073	1.04
609.263	1.08
609.452	1.1
609.641	1.1
609.83	1.04
610.019	1.14
610.208	1.11
610.397	1.17
610.586	1.22
610.775	1.16
610.965	1.19
611.154	1.25
611.343	1.25
611.532	1.29
611.721	1.31
611.91	1.3
612.099	1.34
612.287	1.33
612.476	1.33
612.665	1.4
612.854	1.41
613.043	1.46
613.232	1.47
613.421	1.45
613.61	1.49
613.798	1.54
613.987	1.6
614.176	1.57
614.365	1.61
614.554	1.65
614.742	1.67
614.931	1.61
615.12	1.75
615.309	1.68
615.497	1.7
615.686	1.74
615.875	1.8
616.063	1.81
616.252	1.87
616.44	1.91
616.629	1.9
616.818	1.93
617.006	1.96
617.195	1.99
617.383	1.99
617.572	2.06
617.76	2.09
617.949	2.09
618.137	2.2
618.326	2.27
618.514	2.17
618.703	2.23
618.891	2.32
619.079	2.24
619.268	2.42
619.456	2.35
619.644	2.52
619.833	2.43
620.021	2.48
620.209	2.51
620.398	2.66
620.586	2.55
620.774	2.68
620.962	2.73
621.151	2.79
621.339	2.83
621.527	2.83
621.715	2.84
621.903	2.89
622.092	2.87
622.28	3.1
622.468	2.98
622.656	3.12
622.844	3.15
623.032	3.21
623.22	3.2
623.408	3.36
623.596	3.34
623.784	3.38
623.972	3.41
624.16	3.49
624.348	3.55
624.536	3.67
624.724	3.55
624.912	3.65
625.1	3.68
625.288	3.77
625.476	3.78
625.664	3.91
625.851	3.85
626.039	3.96
626.227	3.95
626.415	4
626.603	3.98
626.79	4.11
626.978	4.15
627.166	4.18
627.354	4.17
627.541	4.2
627.729	4.21
627.917	4.41
628.104	4.37
628.292	4.35
628.48	4.41
628.667	4.42
628.855	4.51
629.042	4.54
629.23	4.52
629.418	4.53
629.605	4.6
629.793	4.52
629.98	4.61
630.168	4.58
630.355	4.58
630.543	4.6
630.73	4.54
630.917	4.61
631.105	4.74
631.292	4.65
631.48	4.58
631.667	4.7
631.854	4.63
632.042	4.62
632.229	4.52
632.416	4.63
632.604	4.56
632.791	4.51
632.978	4.49
633.165	4.4
633.353	4.47
633.54	4.47
633.727	4.27
633.914	4.27
634.101	4.25
634.289	4.29
634.476	4.15
634.663	4.13
634.85	4.04
635.037	4.02
635.224	3.93
635.411	3.91
635.598	3.77
635.785	3.66
635.972	3.63
636.159	3.62
636.346	3.51
636.533	3.4
636.72	3.35
636.907	3.29
637.094	3.21
637.281	3.04
637.468	3.11
637.655	2.99
637.842	2.93
638.029	2.79
638.215	2.8
638.402	2.72
638.589	2.56
638.776	2.53
638.963	2.41
639.149	2.43
639.336	2.36
639.523	2.28
639.709	2.17
639.896	2.13
640.083	2.04
640.27	2.03
640.456	1.91
640.643	1.85
640.829	1.77
641.016	1.74
641.203	1.63
641.389	1.64
641.576	1.61
641.762	1.53
641.949	1.45
642.135	1.47
642.322	1.4
642.508	1.32
642.695	1.32
642.881	1.24
643.068	1.18
643.254	1.18
643.441	1.17
643.627	1.08
643.813	1.01
644	1.05
644.186	0.92
644.372	0.93
644.559	1
644.745	0.93
644.931	0.9
645.118	0.82
645.304	0.78
645.49	0.78
645.676	0.73
645.862	0.73
646.049	0.76
646.235	0.71
646.421	0.73
646.607	0.69
646.793	0.63
646.979	0.55
647.165	0.62
647.352	0.57
647.538	0.59
647.724	0.54
647.91	0.52
648.096	0.52
648.282	0.51
648.468	0.47
648.654	0.47
648.84	0.46
649.026	0.44
649.212	0.39
649.397	0.38
649.583	0.36
649.769	0.43
649.955	0.38
650.141	0.38
650.327	0.37
650.513	0.31
650.698	0.37
650.884	0.29
651.07	0.35
651.256	0.32
651.442	0.31
651.627	0.29
651.813	0.28
651.999	0.29
652.184	0.28
652.37	0.23
652.556	0.22
652.741	0.27
652.927	0.17
653.113	0.25
653.298	0.24
653.484	0.18
653.669	0.14
653.855	0.2
654.04	0.21
654.226	0.22
654.412	0.19
654.597	0.15
654.782	0.18
654.968	0.18
655.153	0.2
655.339	0.13
655.524	0.12
655.71	0.18
655.895	0.14
656.08	0.14
656.266	0.16
656.451	0.2
656.636	0.08
656.822	0.12
657.007	0.1
657.192	0.1
657.378	0.07
657.563	0.09
657.748	0.12
657.933	0.14
658.118	0.09
658.304	0.1
658.489	0.16
658.674	0.13
658.859	0.08
659.044	0.09
659.229	0.12
659.414	0.09
659.599	0.1
659.785	0.05
659.97	0.07
660.155	0.12
660.34	0.07
660.525	0.07
660.71	0.07
660.895	0.1
661.08	0.05
661.264	0.05
661.449	0.14
661.634	0.13
661.819	0.1
662.004	0.08
662.189	0.01
662.374	0.03
662.559	0.04
662.743	0.02
662.928	0.05
663.113	0.02
663.298	-0.05
663.483	0.07
663.667	0.11
663.852	0
664.037	0.11
664.221	0.04
664.406	0.09
664.591	0.09
664.775	0.09
664.96	-0.02
665.145	0.04
665.329	0.08
665.514	0.03
665.698	0.05
665.883	-0.01
666.068	0.11
666.252	0.06
666.437	0.01
666.621	0.05
666.806	0.06
666.99	0.03
667.174	-0.02
667.359	0.08
667.543	0.04
667.728	0.01
667.912	-0.02
668.096	0.08
668.281	-0
668.465	0.03
668.649	0.04
668.834	-0.03
669.018	0.04
669.202	0.03
669.387	-0.01
669.571	0.08
669.755	-0.01
669.939	0.04
670.124	0.04
670.308	0.07
670.492	0.05
670.676	0.01
670.86	0.02
671.044	-0.01
671.228	0.07
671.413	0.01
671.597	-0.02
671.781	0
671.965	0.02
672.149	0.01
672.333	0.02
672.517	0
672.701	0.08
672.885	0.01
673.069	-0.04
673.253	0.02
673.437	0.03
673.621	0
673.804	0.05
673.988	-0.01
674.172	0.02
674.356	-0.02
674.54	0.05
674.724	0.07
674.908	-0.03
675.091	0.07
675.275	-0.01
675.459	0.06
675.643	0.09
675.826	0
676.01	0.03
676.194	0.02
676.377	0.06
676.561	0.05
676.745	0.03
676.928	0
677.112	0.05
677.296	0.03
677.479	-0.02
677.663	0
677.846	0.03
678.03	-0
678.213	-0.03
678.397	0.04
678.58	-0.02
678.764	-0.02
678.947	-0.05
679.131	-0.04
679.314	0.05
679.498	0.03
679.681	0.04
679.865	0.07
680.048	0.06
680.231	0.03
680.415	0.03
680.598	-0.02
680.781	-0.03
680.965	0.01
681.148	0.03
681.331	0.04
681.514	0.03
681.698	-0.01
681.881	0.04
682.064	0
682.247	-0.02
682.43	-0.05
682.614	0.06
682.797	0.02
682.98	0.04
683.163	-0.04
683.346	0.05
683.529	0.01
683.712	-0.03
683.895	0.05
684.078	-0.02
684.261	0.03
684.444	0.01
684.627	0.04
684.81	-0.02
684.993	0.03
685.176	0.04
685.359	-0.05
685.542	-0.03
685.725	0.12
685.908	0.06
686.091	0.01
686.274	0.09
686.457	0.03
686.639	0.06
686.822	0.07
687.005	0.01
687.188	0.04
687.371	0.11
687.553	0.05
687.736	0.02
687.919	0.09
688.102	0.09
688.284	-0.02
688.467	0.02
688.65	-0.03
688.832	0.06
689.015	0.03
689.197	-0.03
689.38	0.11
689.563	0.09
689.745	-0.03
689.928	0.01
690.11	0.04
690.293	0.03
690.475	-0.02
690.658	0.02
690.84	0.03
691.023	0.01
691.205	-0.01
691.388	0.04
691.57	0.05
691.752	0.05
691.935	-0.03
692.117	-0.02
692.3	0.04
692.482	0.03
692.664	-0
692.847	-0.01
693.029	0.05
693.211	0.03
693.393	0.02
693.576	-0.02
693.758	0.06
693.94	0
694.122	0.01
694.304	0.01
694.487	0
694.669	0.07
694.851	-0.04
695.033	0.02
695.215	0.02
695.397	-0.05
695.579	0.03
695.761	0.01
695.943	-0.08
696.125	0.03
696.308	0.01
696.49	-0.04
696.671	0.08
696.853	0.01
697.035	0.17
697.217	0.05
697.399	0.01
697.581	-0.02
697.763	-0.04
697.945	-0.06
698.127	-0.01
698.309	0.06
698.491	0.03
698.672	0.08
698.854	0.04
699.036	0.01
699.218	-0.03
699.399	0.07
699.581	0.05
699.763	0.09
699.945	0
700.126	-0.08
700.308	-0.02
700.49	0.03
700.671	0
700.853	-0.01
701.035	-0.08
701.216	0.01
701.398	-0.01
701.579	-0.02
701.761	0.04
701.943	-0.03
702.124	-0.11
702.306	-0
702.487	0.07
702.669	0.02
702.85	-0.02
703.031	-0.07
703.213	0.11
703.394	0.01
703.576	-0.05
703.757	0.08
703.938	0.04
704.12	0.11
704.301	0.01
704.483	-0.01
704.664	0.01
704.845	0.04
705.026	0.05
705.208	0
705.389	0.01
705.57	0.03
705.751	-0.02
705.933	0
706.114	0.13
706.295	0.04
706.476	-0.05
706.657	0.09
706.838	0.02
707.02	0.08
707.201	0
707.382	0
707.563	-0
707.744	-0.05
707.925	0.01
708.106	-0.03
708.287	0.01
708.468	0.11
708.649	0.02
708.83	0.07
709.011	-0.03
709.192	0.03
709.373	-0.11
709.554	-0.01
709.734	0.1
709.915	0.05
710.096	0.02
710.277	-0.06
710.458	-0.03
710.639	0.01
710.819	-0.07
711	-0
711.181	0.07
711.362	0.03
711.542	-0.01
711.723	-0.03
711.904	0.05
712.085	-0.05
712.265	0.05
712.446	-0.06
712.627	-0.01
712.807	0.04
712.988	0.01
713.168	-0.03
713.349	0.03
713.53	-0.1
713.71	-0.07
713.891	-0.06
714.071	0.01
714.252	-0.07
714.432	-0.05
714.613	-0.11
714.793	0.03
714.974	0.14
715.154	0.08
715.334	0.09
715.515	0.07
715.695	-0.04
715.876	-0.02
716.056	0.02
716.236	-0.03
716.417	-0.02
716.597	-0.09
716.777	0.13
716.957	0.01
717.138	-0.01
717.318	0.01
717.498	-0.06
717.678	0.04
717.859	-0.05
718.039	-0.04
718.219	0.04
718.399	0.13
718.579	-0.07
718.759	0.04
718.939	0.02
719.12	-0.02
719.3	0.05
719.48	-0.13
719.66	-0.09
719.84	0.06
720.02	-0.04
720.2	-0.06
720.38	0.02
720.56	0.09
720.74	-0.08
720.92	-0.04
721.1	0.05
721.279	0.04
721.459	-0
721.639	-0.16
721.819	0.05
721.999	0.03
722.179	0.04
722.359	-0.08
722.538	-0
722.718	0.05
722.898	-0.09
723.078	0.01
723.257	0.02
723.437	0.1
723.617	0.02
723.797	0.01
723.976	0
724.156	0.09
724.336	-0.02
724.515	0.13
724.695	-0.19
724.874	-0.04
725.054	0.04
725.234	0.01
725.413	0.06
725.593	-0.01
725.772	-0.02
725.952	0
726.131	-0.03
726.311	-0.03
726.49	0.05
726.67	-0.03
726.849	-0.03
727.028	0.01
727.208	-0.04
727.387	0.01
727.567	-0.1
727.746	-0.03
727.925	-0.07
728.105	-0.02
728.284	-0.09
728.463	-0.01
728.643	0.03
728.822	-0.15
729.001	-0.01
729.18	0.02
729.359	0.01
729.539	-0.01
729.718	-0
729.897	0.07
730.076	-0.01
730.255	-0.1
730.434	0.03
730.614	0.04
730.793	-0.04
730.972	-0.04
731.151	0.04
731.33	0.07
731.509	0.02
731.688	0.02
731.867	-0.01
732.046	-0.09
732.225	0.09
732.404	-0.06
732.583	-0.08
732.762	-0.04
732.941	0.03
733.12	0.04
733.298	0.01
733.477	0.03
733.656	0.01
733.835	-0.1
734.014	0.1
734.193	0.05
734.371	0.01
734.55	0.08
734.729	-0.03
734.908	-0.01
735.086	-0.02
735.265	0.08
735.444	-0.15
735.623	-0.1
735.801	-0.17
735.98	0.06
736.159	-0.03
736.337	0.12
736.516	0.01
736.694	0.02
736.873	-0.05
737.052	0.19
737.23	-0
737.409	-0.08
737.587	0.16
737.766	-0.14
737.944	-0.04
738.123	0.06
738.301	-0.03
738.479	-0.02
738.658	0.05
738.836	-0.16
739.015	0.04
739.193	0.1
739.371	0.01
739.55	0.03
739.728	-0.16
739.906	0.06
740.085	0.17
740.263	-0.08
740.441	-0.14
740.62	0.18
740.798	0.05
740.976	-0.14
741.154	-0.06
741.332	0.13
741.511	-0.06
741.689	0.03
741.867	-0.03
742.045	0.06
742.223	0.01
742.401	-0.05
742.579	-0.13
742.757	0.03
742.935	-0.08
743.114	-0.02
743.292	-0.04
743.47	-0.01
743.648	0.1
743.826	-0.15
744.004	0.06
744.181	0.18
744.359	0.05
744.537	0.02
744.715	-0.02
744.893	0.06
745.071	-0.03
745.249	-0.12
745.427	-0.02
745.605	-0.08
745.782	-0.01
745.96	0.09
746.138	0.02
746.316	0.14
746.493	-0.01
746.671	-0
746.849	-0.07
747.027	0.02
747.204	-0.06
747.382	0.05
747.56	-0.06
747.737	0
747.915	-0
748.093	0.09
748.27	-0.14
748.448	-0.02
748.625	-0.12
748.803	-0.1
748.98	-0
749.158	0.02
749.335	0.09
749.513	-0.08
749.69	0.07
749.868	-0.09
750.045	0.13
750.223	-0.08
750.4	-0.17
750.578	0.19
750.755	-0.02
750.932	-0.12
751.11	0.09
751.287	-0.17
751.464	0.03
751.642	-0.01
751.819	-0.02
751.996	0.03
752.173	0.02
752.351	-0.1
752.528	0.07
752.705	0.05
752.882	-0.13
753.06	0.1
753.237	0.1
753.414	0.18
753.591	0.19
753.768	-0.06
753.945	-0.11
754.122	-0.02
754.299	0.09
754.476	-0.06
754.654	-0.04
754.831	-0.02
755.008	0
755.185	-0
755.362	-0.1
755.539	0.05
755.716	-0.08
755.892	-0
756.069	-0.04
756.246	0.07
756.423	-0.02
756.6	0.02
756.777	-0
756.954	0.06
757.131	0.04
757.307	-0.14
757.484	-0.07
757.661	0.04
757.838	0.07
758.015	-0.16
758.191	0.11
758.368	0.08
758.545	0.14
758.721	-0.05
758.898	0.03
759.075	0.03
759.251	0.03
759.428	0.1
759.605	-0.06
759.781	-0.1
759.958	0.11
760.134	0.12
760.311	-0.08
760.488	0.1
760.664	0.16
760.841	-0.07
761.017	-0.05
761.194	0.12
761.37	0.18
761.547	-0.05
761.723	0.01
761.899	0.22
762.076	-0.02
762.252	-0.08
762.429	-0.03
762.605	0.13
762.781	0.05
762.958	0.21
763.134	-0.08
763.31	-0.14
763.486	0.03
763.663	-0.09
763.839	0.05
764.015	-0.17
764.191	-0.14
764.368	-0.05
764.544	-0.02
764.72	0
764.896	0.12
765.072	0.11
765.248	0.03
765.425	0.02
765.601	0.09
765.777	-0.04
765.953	-0.26
766.129	-0.12
766.305	-0.05
766.481	0.06
766.657	0.01
766.833	0.1
767.009	-0.08
767.185	-0.08
767.361	-0.08
767.537	-0.11
767.713	0.19
767.889	-0.19
768.065	-0.04
768.24	0.11
768.416	0.15
768.592	-0.03
768.768	0
768.944	0.1
769.12	-0.14
769.295	-0.06
769.471	-0.02
769.647	-0.1
769.823	0.21
769.998	-0.14
770.174	-0.09
770.35	0.22
770.525	0.37
770.701	0.04
770.877	0.05
771.052	-0.2
771.228	0.05
771.403	-0.02
771.579	0.02
771.755	0.33
771.93	-0.13
772.106	-0.06
772.281	-0.13
772.457	0.05
772.632	-0.02
772.808	-0.08
772.983	0.05
773.159	-0.16
773.334	0.18
773.509	-0.02
773.685	-0.08
773.86	0.3
774.036	0.18
774.211	0.05
774.386	-0.13
774.562	-0.16
774.737	-0.01
774.912	-0.1
775.087	0.06
775.263	0.03
775.438	0.06
775.613	-0.3
775.788	-0.06
775.964	0.18
776.139	0.38
776.314	-0.13
776.489	0.01
776.664	0.08
776.839	-0.2
777.014	0.09
777.19	0
777.365	0.15
777.54	0.32
777.715	-0.13
777.89	0.04
778.065	-0.15
778.24	0.04
778.415	0.05
778.59	-0.1
778.765	0.1
778.94	0.04
779.115	-0.14
779.289	-0.03
779.464	-0.04
779.639	0.04
779.814	-0.09
779.989	-0.16
780.164	0.12
780.339	0.14
780.513	-0.14
780.688	-0.18
780.863	-0.08
781.038	0.16
781.212	-0.13
781.387	0.21
781.562	0.08
781.737	0.01
781.911	0.14
782.086	-0.11
782.261	-0.1
782.435	0.11
782.61	-0.18
782.784	-0.15
782.959	0.32
783.134	0.04
783.308	-0.13
783.483	-0.13
783.657	0.26
783.832	0.15
784.006	-0.31
784.181	-0.07
784.355	0.12
784.53	-0.34
784.704	-0.14
784.878	0.19
785.053	0.14
785.227	0.07
785.402	0.35
785.576	-0.19
785.75	-0.03
785.925	-0.09
786.099	-0.04
786.273	-0.03
786.448	0.18
786.622	0.19
786.796	-0.08
786.97	-0.07
787.145	0.49
787.319	-0.33
787.493	0.31
787.667	-0.35
787.841	0.07
788.015	0.14
788.19	-0.05
788.364	0.08
788.538	0.12
788.712	0.16
788.886	0.11
789.06	0.18
789.234	0.01
789.408	-0.41
789.582	0.06
789.756	-0.08
789.93	-0.18
790.104	-0.05
790.278	-0.11
790.452	-0.1
790.626	0.06
790.8	-0.08
790.973	0.36
791.147	0.05
791.321	0.06
791.495	0.24
791.669	0.03
791.843	0.03
792.016	0.1
792.19	0.44
792.364	-0.12
792.538	0.39
792.711	0.22
792.885	-0.03
793.059	-0.22
793.233	-0.68
793.406	0.08
793.58	0.02
793.754	-0.1
793.927	-0.04
794.101	0.34
794.274	-0.31
794.448	0.2
794.622	-0.19
794.795	0.19
794.969	-0.14
795.142	0.46
795.316	0.12
795.489	-0.21
795.663	0.41
795.836	-0.02
796.009	-0.12
796.183	0.4
796.356	0.01
796.53	-0.04
796.703	-0.12
796.876	0.73
797.05	-0.01
797.223	-0.06
797.396	0.25
797.57	0.18
797.743	0.38
797.916	-0.13
798.09	-0.11
798.263	0.18
798.436	0.19
798.609	-0.11
798.782	-0.03
798.956	0.23
799.129	0.08
799.302	0.02
799.475	-0.14
799.648	-0.19
799.821	-0.04
799.994	-0.07
800.167	-0.36
800.34	-0.01
800.514	0.13
800.687	-0.09
800.86	-0.4
801.033	-0.04
801.206	0.18
801.379	-0.01
801.551	0.5
801.724	0.23
801.897	0.25
802.07	-0.01
802.243	-0.37
802.416	-0.07
802.589	-0.12
802.762	0.17
802.935	0.1
803.107	0.3
803.28	0.47
803.453	0.23
803.626	-0.34
803.798	0.1
803.971	-0.24
804.144	0.16
804.317	0.23
804.489	0.31
804.662	0.21
804.835	-0.08
805.007	-0.08
805.18	0.38
805.353	0.22
805.525	-0.36
805.698	-0.04
805.87	0.38
806.043	0.28
806.215	-0.47
806.388	-0.27
806.56	0.2
806.733	0.17
806.905	0.21
807.078	-0.13
807.25	-0.05
807.423	0.3
807.595	0.1
807.768	-0.03
807.94	0.27
808.112	-0.33
808.285	-0.09
808.457	-0.38
808.629	-0.15
808.802	0.35
808.974	0.08
809.146	0.4
809.318	-0.24
809.491	0.17
809.663	0.47
809.835	-0.35
810.007	0.01
810.18	-0.29
810.352	-0.35
810.524	-0.51
810.696	0.11
810.868	0.08
811.04	-0.39
811.212	-0.14
811.384	0.49
811.556	0.26
811.728	-0.29
811.901	0.74
812.073	0.07
812.245	0.53
812.417	-0.26
812.589	-0.42
812.76	-0.37
812.932	0.27
813.104	0.15
813.276	-0.09
813.448	0.35
813.62	0.21
813.792	0.1
813.964	-0.06
814.136	0.16
814.307	-0.1
814.479	-0.35
814.651	-0.34
814.823	0.75
814.995	-0.21
815.166	0.2
815.338	-0.48
815.51	-0.5
815.681	0.81
815.853	0.2
816.025	-0.15
816.196	0.38
816.368	0.23
816.54	-0.45
816.711	-0.48
816.883	0.04
817.054	0.86
817.226	-0.28
817.398	0.03
817.569	-0.08
817.741	0.05
817.912	0.12
818.084	-0.45
818.255	0.21
818.426	-0.12
818.598	0.2
818.769	-0.3
818.941	-0.03
819.112	0.54
819.283	0.08
819.455	-0.48
819.626	-0.15
819.798	0.24
819.969	0.31
820.14	-0.14
820.311	-0.11
820.483	-0.07
820.654	0.24
820.825	0.05
820.996	-0.12
821.168	-0.54
821.339	-0.27
821.51	-0.43
821.681	-0.34
821.852	0.1
822.023	-0.4
822.195	-0.55
822.366	0.21
822.537	0.52
822.708	0.03
822.879	0.06
823.05	0.7
823.221	-0.31
823.392	0.14
823.563	0.32
823.734	0.19
823.905	-0
824.076	-0.39
824.247	-0.33
824.418	-0.76
824.589	1.26
824.759	-0.01
824.93	-0.37
825.101	-0.19
825.272	0.43
825.443	0.58
825.614	0.6
825.784	-0.88
825.955	0.98
826.126	0.75
826.297	0.06
826.467	0.68
826.638	0.52
826.809	-0.7
826.98	-0.47
827.15	-0.28
827.321	0.26
827.492	1.01
827.662	-0.39
827.833	0.74
828.003	-0.07
828.174	-0.53
828.345	-1.04
828.515	0.84
828.686	-0.17
828.856	0.01
829.027	-0.02
829.197	0.77
829.368	0.25
829.538	-0.47
829.709	-0.06
829.879	0.01
830.049	-0.4
830.22	-0.8
830.39	-0.29
830.56	0.24
830.731	-0.25
830.901	-0.48
831.072	0.45
831.242	-0.15
831.412	-0.34
831.582	0.7
831.753	-0.77
831.923	0.37
832.093	0.07
832.263	-0.27
832.434	-0.58
832.604	0.1
832.774	-0.11
832.944	0.25
833.114	-0.25
833.284	0.38
833.454	-0.93
833.624	-0.23
833.795	-0.4
833.965	0.44
834.135	0.8
834.305	-0.01
834.475	-0.42
834.645	-0.75
834.815	-0.68
834.985	-0.57
835.155	0.11
835.325	0.29
835.494	0.15
835.664	-0.37
835.834	-0.33
836.004	0.29
836.174	0.86
836.344	0.48
836.514	-0.58
836.684	0.03
836.853	0.06
837.023	0.1
837.193	0.02
837.363	0.63
837.532	0.51
837.702	0.02
837.872	-0.41
838.041	1.09
838.211	0.59
838.381	-0.66
838.55	0.06
838.72	0.68
838.89	1.58
839.059	-0.3
839.229	-0.24
839.398	1.04
839.568	-0.03
839.738	0.63
839.907	1.03
840.077	0.25
840.246	-0.44
840.416	-0.48
840.585	-0.21
840.755	0.91
840.924	0.79
841.093	-0.02
841.263	-0.02
841.432	0.63
841.602	-0.17
841.771	-0.52
841.94	0.24
842.11	1.68
842.279	1.29
842.448	-0.18
842.617	-0.41
842.787	1.07
842.956	-0.46
843.125	-0.09
843.294	1.45
843.464	0.89
843.633	-0.31
843.802	-0.93
843.971	0.44
844.14	0.6
844.309	0.55
844.479	-0.32
844.648	-0.21
844.817	0.05
844.986	-0.04
845.155	-0.32
845.324	-0.2
845.493	0.14
845.662	-0.63
845.831	0.53
846	0.77
846.169	-0.18
846.338	0.99
846.507	0.06
846.676	0.09
846.844	0.09
847.013	0.26
847.182	-0.18
847.351	-0.53
847.52	0.4
847.689	0.44
847.858	0.02
848.026	-0.79
848.195	-0.2
848.364	-0.35
848.533	-0.95
848.701	0.03
848.87	0.08
849.039	-0.27
849.207	1.23
849.376	0.66
849.545	1.02
849.713	-0.67
849.882	0.21
850.051	0.55
850.219	0.44
850.388	0.18
850.556	-0.97
850.725	0.66
850.893	0.45
851.062	-0.12
851.23	1.12
851.399	-1.12
851.567	-0.31
851.736	-0.57
851.904	-1.02
852.073	0.32
852.241	0.41
852.41	0.22
852.578	-0.29
852.746	-0.22
852.915	0.85
853.083	-0.27
853.251	-0.49
853.42	-0.32
853.588	0.63
853.756	0.85
853.924	-0.19
854.093	-0.06
854.261	0.31
854.429	-1.22
854.597	0.86
854.765	-1.39
854.934	0.31
855.102	0.89
855.27	-0.75
855.438	0.5
855.606	0.96
855.774	1.57
855.942	-1.53
856.11	-1.93
856.278	-0.26
856.446	1.46
856.614	0.33
856.782	-0.83
856.95	0.76
857.118	0.65
857.286	0.61
857.454	0.14
857.622	0.71
857.79	-0.42
857.958	-0.46
858.126	-0.81
858.294	-1.57
858.462	0.15
858.629	-0.31
858.797	-0.77
858.965	0.25
859.133	0.1
859.301	-0.29
859.468	0.56
859.636	-0.54
859.804	1.56
859.971	1.13
860.139	-0.34
860.307	1.28
860.474	0.11
860.642	-0.08
860.81	0.7
860.977	-0.67
861.145	1.52
861.313	1.21
861.48	0.01
861.648	0.87
861.815	1.36
861.983	-1.97
862.15	-0.33
862.318	0.33
862.485	0.88
862.653	-0.26
862.82	-1.12
862.988	0.09
863.155	1.13
863.322	-1.38
863.49	-1.41
863.657	-0.73
863.824	1.36
863.992	0.5
864.159	-1.19
864.326	2.23
864.494	-0.5
864.661	3.64
864.828	-1.29
864.996	1.34
865.163	2.36
865.33	-0.95
865.497	-0.81
865.664	-0.86
865.832	-1.4
865.999	-0.76
866.166	-2.79
866.333	-0.42
866.5	-0.46
866.667	0.26
866.834	-0.84
867.001	1.02
867.168	-2.3
867.335	1.07
867.502	-1.48
867.669	0.65
867.836	1.07
868.003	-0.56
868.17	1.52
868.337	-0.73
868.504	1.72
868.671	-2.33
868.838	-0.73
869.005	0.22
869.172	0.11
869.339	0.21
869.505	-0.09
869.672	0.52
869.839	1.15
870.006	-0.36
870.173	-2.28
870.339	-1.13
870.506	1.52
870.673	-0.99
870.84	-1.2
871.006	0.1
871.173	-0.67
871.34	-1.04
871.506	-1.22
871.673	0.49
871.839	-1.27
872.006	0.48
872.173	0.53
872.339	-1.81
872.506	2.3
872.672	0.2
872.839	-2.05
873.005	0.88
873.172	2.64
873.338	1.4
873.505	1.28
873.671	-1.23
873.838	0.31
874.004	-0.19
874.171	-1.62
874.337	-0.17
874.503	1.93
874.67	0.35
874.836	-1.22
875.002	3.37
875.169	1.22
875.335	0.8
875.501	-0.26
875.668	0.72
875.834	-0.88
876	0.07
876.166	1.58
876.332	1.4
876.499	3.77
876.665	-2.36
876.831	1.1
876.997	2.47
877.163	0.06
877.329	-0.64
877.495	2.31
877.662	0.86
877.828	0.77
877.994	-1.18
878.16	-2.86
878.326	-1.2
878.492	1.09
878.658	-1.09
878.824	1.34
878.99	0.17
879.156	-0.56
879.322	0.99
879.487	-0.37
879.653	3.35
879.819	-0.05
879.985	0.41
880.151	1.21
880.317	1.83
880.483	-0.19
880.648	-0.11
880.814	-2.63
880.98	2.42
881.146	-1.89
881.312	0.11
881.477	-1.9
881.643	0.49
881.809	3.24
881.974	0.13
882.14	-1.26
882.306	0.49
882.471	1.64
882.637	0.23
882.803	-0.24
882.968	5.22
883.134	1.25
883.299	-0.2
883.465	0.08
883.63	2.43
883.796	1.12
883.961	2.09
884.127	0.15
884.292	-4.1
884.458	-1.6
884.623	-1.6
