Data from Apollo_Calib_20240827__AbsoluteIrradiance__580__08-49-02-640.txt Node

Date: Wed Aug 28 08:49:02 BST 2024
User: biology
Spectrometer: FLMT08252
Trigger mode: 0
Integration Time (sec): 5.000000E-1
Scans to average: 5
Electric dark correction enabled: true
Nonlinearity correction enabled: false
Boxcar width: 0
XAxis mode: Wavelengths
Number of Pixels in Spectrum: 3648
>>>>>Begin Spectral Data<<<<<
179.588	-0
179.809	-0
180.03	-0
180.251	-0
180.473	-0
180.694	0
180.915	0
181.136	-0
181.357	0
181.578	-0
181.799	-0
182.02	-0
182.241	-0
182.462	-0
182.683	0
182.904	-0
183.125	-0
183.346	0
183.567	0
183.788	-0
184.009	-0
184.23	0
184.451	0
184.672	-0
184.892	-0
185.113	0
185.334	0
185.555	-0
185.776	-0
185.996	0
186.217	0
186.438	0
186.659	-0
186.879	0
187.1	-0
187.321	-0
187.541	0
187.762	0
187.983	0
188.203	0
188.424	0
188.644	0
188.865	0
189.086	-0
189.306	-0
189.527	0
189.747	0
189.968	0
190.188	0
190.409	0
190.629	0
190.849	0
191.07	0
191.29	0
191.511	0
191.731	-0
191.951	-0
192.172	0
192.392	0
192.612	0
192.833	0
193.053	0
193.273	0
193.493	0
193.714	-0
193.934	0
194.154	0
194.374	0
194.594	0
194.815	0
195.035	0
195.255	0
195.475	-0
195.695	0
195.915	0
196.135	-0
196.355	0
196.575	0
196.795	0
197.015	-0
197.235	-0
197.455	0
197.675	0
197.895	-0
198.115	0
198.335	0
198.555	-0
198.775	-0
198.995	0
199.214	0
199.434	-0
199.654	-0
199.874	-0
200.094	1.15
200.313	-0.3
200.533	0.11
200.753	-0.59
200.973	0.9
201.192	1.14
201.412	-0.74
201.632	0.04
201.851	1.36
202.071	0.12
202.291	-0.28
202.51	-0.33
202.73	0.82
202.95	0.24
203.169	0.08
203.389	-0.16
203.608	0.83
203.828	-0.01
204.047	0.32
204.267	0.49
204.486	0.17
204.706	0.01
204.925	0.08
205.145	-0.12
205.364	0.69
205.583	0.65
205.803	-0.07
206.022	-0.42
206.242	0.18
206.461	0.3
206.68	0.19
206.9	0.06
207.119	0.19
207.338	0.82
207.557	-0.27
207.777	0.14
207.996	0.29
208.215	0.77
208.434	-0.09
208.654	-0.34
208.873	0.23
209.092	0.42
209.311	0.2
209.53	0.14
209.749	0.17
209.968	-0.02
210.187	0.2
210.407	0.09
210.626	-0.07
210.845	0.42
211.064	0.27
211.283	0.1
211.502	0.27
211.721	-0.12
211.94	0.15
212.159	0.33
212.377	0.28
212.596	0.35
212.815	0.27
213.034	0.21
213.253	0.53
213.472	0.32
213.691	-0.11
213.91	-0.14
214.128	-0.17
214.347	0.33
214.566	-0.32
214.785	-0.21
215.003	0.1
215.222	0.23
215.441	0.06
215.66	-0.09
215.878	0.16
216.097	0.29
216.316	-0.13
216.534	-0
216.753	0.27
216.972	0.13
217.19	0.12
217.409	-0.04
217.627	-0
217.846	0.02
218.064	-0.05
218.283	-0.01
218.501	0.52
218.72	0.31
218.938	-0.09
219.157	0.15
219.375	0.23
219.594	0.18
219.812	-0.2
220.031	0.01
220.249	0.26
220.467	0.48
220.686	0.08
220.904	-0.13
221.122	0.05
221.341	0.46
221.559	0.1
221.777	-0.19
221.995	0.23
222.214	0.14
222.432	-0
222.65	0.15
222.868	0.12
223.086	0.04
223.305	0.26
223.523	0.15
223.741	0.13
223.959	0.04
224.177	-0.1
224.395	-0.09
224.613	0.16
224.831	0.24
225.049	0.02
225.267	-0.04
225.485	0.1
225.703	0.15
225.921	-0.03
226.139	0.1
226.357	0.14
226.575	0.27
226.793	-0.15
227.011	0.67
227.229	0.17
227.447	0.22
227.665	-0.05
227.883	-0.15
228.1	0.1
228.318	0.17
228.536	-0.11
228.754	-0.05
228.972	0.22
229.189	0.18
229.407	0.07
229.625	-0.08
229.843	0.25
230.06	0.15
230.278	0.03
230.496	0.1
230.713	0.1
230.931	0.21
231.149	-0.04
231.366	-0.16
231.584	0.08
231.801	0.37
232.019	-0.05
232.236	-0.14
232.454	-0.04
232.671	0.24
232.889	0.01
233.106	-0.08
233.324	-0.04
233.541	0.1
233.759	0.11
233.976	0.1
234.194	0.04
234.411	0.03
234.628	-0.06
234.846	-0.05
235.063	-0.01
235.28	-0.02
235.498	0.08
235.715	-0.1
235.932	0.12
236.149	0.08
236.367	-0.07
236.584	0.07
236.801	-0.01
237.018	0.12
237.236	0.04
237.453	-0.15
237.67	0.16
237.887	0.07
238.104	-0.04
238.321	0.04
238.538	0.02
238.755	0.21
238.973	-0.14
239.19	0.1
239.407	0.11
239.624	0.07
239.841	-0.08
240.058	-0.1
240.275	0.11
240.492	0.1
240.709	0.08
240.925	0
241.142	0.04
241.359	0.06
241.576	0.01
241.793	-0.06
242.01	0.01
242.227	0.07
242.444	0.06
242.66	0.1
242.877	0.09
243.094	0.06
243.311	0.02
243.527	0.07
243.744	0.06
243.961	0.08
244.178	-0.04
244.394	0.01
244.611	0.17
244.828	0.18
245.044	0.03
245.261	0
245.477	0.08
245.694	0.11
245.911	-0.08
246.127	0.11
246.344	0.15
246.56	0.07
246.777	0.06
246.993	0.07
247.21	0.12
247.426	0.14
247.643	0.07
247.859	-0.05
248.076	0.05
248.292	0.23
248.508	0.06
248.725	0.05
248.941	0.11
249.157	0.07
249.374	-0.01
249.59	0.01
249.806	0.05
250.023	0.07
250.239	-0.02
250.455	-0.02
250.671	0.07
250.888	0.12
251.104	0.16
251.32	0.02
251.536	0.05
251.752	-0.01
251.969	0.11
252.185	0.09
252.401	0.21
252.617	0.15
252.833	0.01
253.049	0.08
253.265	0.09
253.481	0.05
253.697	0.04
253.913	-0
254.129	-0.01
254.345	0.07
254.561	0.04
254.777	0.07
254.993	0.03
255.209	0.12
255.425	0.01
255.641	-0.08
255.857	0.15
256.073	0.05
256.288	-0.08
256.504	-0.01
256.72	0.06
256.936	0.11
257.152	0.03
257.367	0.01
257.583	0.1
257.799	0.06
258.015	-0.06
258.23	-0.02
258.446	0.2
258.662	0.05
258.877	-0.05
259.093	-0.07
259.309	0.04
259.524	0.07
259.74	-0.03
259.955	-0.02
260.171	0.02
260.387	-0.01
260.602	0.07
260.818	0.07
261.033	-0.01
261.249	0
261.464	0.01
261.68	-0.12
261.895	0.06
262.11	0.13
262.326	0.03
262.541	-0.06
262.757	0.12
262.972	0
263.187	0.04
263.403	0.07
263.618	0.06
263.833	0.05
264.049	0.01
264.264	0.06
264.479	0.08
264.694	0.1
264.91	-0.01
265.125	-0.01
265.34	0.11
265.555	0.17
265.77	0.05
265.986	0.06
266.201	0.09
266.416	0.11
266.631	-0.02
266.846	-0.01
267.061	0.08
267.276	0.08
267.491	-0.09
267.706	0.05
267.921	0.02
268.136	0.03
268.351	0.02
268.566	-0.03
268.781	0.17
268.996	0.03
269.211	0.1
269.426	-0.02
269.641	0
269.856	0.13
270.071	0.05
270.285	-0.06
270.5	0.07
270.715	0.11
270.93	0.01
271.145	0.04
271.359	-0.01
271.574	0.04
271.789	0.07
272.004	0.02
272.218	-0
272.433	0.11
272.648	-0.07
272.862	0.08
273.077	0.06
273.292	0.03
273.506	0.01
273.721	0.03
273.936	0.04
274.15	0.09
274.365	0.02
274.579	0.11
274.794	0.04
275.008	0.13
275.223	-0.05
275.437	0.01
275.652	0.09
275.866	0.13
276.081	0.01
276.295	0.14
276.509	0.05
276.724	0.02
276.938	0.07
277.153	0.07
277.367	0.07
277.581	-0.01
277.796	-0
278.01	-0.01
278.224	0.09
278.438	0.16
278.653	-0.02
278.867	0.02
279.081	-0.07
279.295	0.03
279.51	0.04
279.724	-0.06
279.938	0.09
280.152	0.06
280.366	-0.04
280.58	0.07
280.794	0.12
281.008	0.07
281.222	0.09
281.437	0.16
281.651	0.04
281.865	0.15
282.079	0.02
282.293	-0.04
282.507	-0.07
282.721	0.01
282.935	0.04
283.148	-0.04
283.362	0.03
283.576	-0.03
283.79	0.02
284.004	0.03
284.218	0.05
284.432	-0
284.646	-0.01
284.859	0.02
285.073	-0.03
285.287	0.05
285.501	-0
285.714	0.03
285.928	0.03
286.142	0.04
286.356	-0.02
286.569	0
286.783	0.05
286.997	0.07
287.21	0.01
287.424	0.03
287.637	0.02
287.851	0.05
288.065	0.08
288.278	-0.02
288.492	0.1
288.705	0
288.919	0.04
289.132	-0.02
289.346	0.11
289.559	-0.03
289.773	-0.05
289.986	0
290.2	0.02
290.413	0.07
290.626	-0.05
290.84	0
291.053	0.02
291.267	0.07
291.48	0.06
291.693	0.03
291.906	0.03
292.12	-0.02
292.333	-0.03
292.546	0.04
292.76	0.07
292.973	0.06
293.186	0.07
293.399	0.03
293.612	0.1
293.826	0.05
294.039	-0.01
294.252	-0
294.465	0.1
294.678	0.08
294.891	0.03
295.104	0
295.317	0.05
295.53	0.03
295.743	0.01
295.956	0.01
296.169	0.08
296.382	0.03
296.595	0.03
296.808	-0.01
297.021	0.04
297.234	0.06
297.447	0.02
297.66	0.04
297.873	0.1
298.086	0.06
298.299	-0
298.511	-0.01
298.724	-0.01
298.937	-0.01
299.15	0.04
299.363	0.05
299.575	0.05
299.788	0.02
300.001	-0
300.213	0.04
300.426	0.01
300.639	-0
300.852	-0.02
301.064	0.1
301.277	0.1
301.489	0.07
301.702	0.08
301.915	0
302.127	0.04
302.34	0.03
302.552	0.05
302.765	-0.01
302.977	0.09
303.19	-0.02
303.402	-0.01
303.615	0.05
303.827	0.03
304.04	0.01
304.252	0.08
304.464	-0.01
304.677	0.12
304.889	0.02
305.102	-0.04
305.314	0.01
305.526	0.07
305.739	0.05
305.951	-0.01
306.163	0.03
306.375	0.06
306.588	-0.01
306.8	0.01
307.012	-0.01
307.224	0.01
307.436	0.12
307.649	-0.08
307.861	0.05
308.073	0.02
308.285	-0
308.497	-0
308.709	0.01
308.921	0.02
309.133	0.08
309.346	0.06
309.558	-0.01
309.77	0.11
309.982	0.07
310.194	0.08
310.406	0.01
310.617	0.07
310.829	0.04
311.041	0.07
311.253	0.02
311.465	0.02
311.677	0.03
311.889	0.04
312.101	-0.01
312.313	0.05
312.524	0.11
312.736	0.02
312.948	0.03
313.16	0.05
313.372	0.03
313.583	0.04
313.795	0
314.007	0.04
314.218	0.03
314.43	0.01
314.642	-0.02
314.853	-0.01
315.065	0.08
315.277	-0.02
315.488	0.04
315.7	0.08
315.912	0.06
316.123	-0.01
316.335	0.03
316.546	0.1
316.758	0.03
316.969	0.01
317.181	0.07
317.392	0.03
317.604	0.1
317.815	0
318.026	0
318.238	-0.01
318.449	0.04
318.661	-0.02
318.872	0.01
319.083	0.01
319.295	-0.01
319.506	-0.01
319.717	0.02
319.929	0.05
320.14	0.04
320.351	0.07
320.562	-0.03
320.774	0.03
320.985	0.01
321.196	-0.02
321.407	-0.05
321.618	0.07
321.829	0.06
322.041	0.05
322.252	0.08
322.463	0.02
322.674	0.03
322.885	0.02
323.096	0.05
323.307	0.02
323.518	0.02
323.729	-0
323.94	-0.02
324.151	-0.03
324.362	0.05
324.573	0.03
324.784	0.04
324.995	0.1
325.206	0.01
325.417	0.01
325.628	0.03
325.838	0.06
326.049	0.04
326.26	0.05
326.471	0.01
326.682	0.07
326.892	0.06
327.103	-0.04
327.314	-0.05
327.525	0.07
327.735	0.03
327.946	0.03
328.157	-0.06
328.368	0.03
328.578	0
328.789	0.04
328.999	0.02
329.21	0.02
329.421	0.06
329.631	-0.01
329.842	-0.03
330.052	0.02
330.263	0.09
330.473	0.08
330.684	0.03
330.894	-0.02
331.105	0.02
331.315	0
331.526	-0.03
331.736	0.11
331.947	0.07
332.157	0.06
332.367	-0.04
332.578	0.03
332.788	0.08
332.999	0.07
333.209	0.02
333.419	-0.01
333.629	0.01
333.84	0.03
334.05	0.04
334.26	0.06
334.47	0.03
334.681	0.06
334.891	0.04
335.101	0.05
335.311	0.08
335.521	0.04
335.732	-0.04
335.942	0.11
336.152	0.03
336.362	0.05
336.572	0.06
336.782	0.02
336.992	-0.04
337.202	0.03
337.412	-0.02
337.622	0.06
337.832	0.05
338.042	0.01
338.252	-0.01
338.462	0.02
338.672	-0.01
338.882	-0.01
339.092	0.05
339.302	0.07
339.511	0.05
339.721	0.04
339.931	-0.03
340.141	0.06
340.351	0.06
340.561	0.05
340.77	0.07
340.98	0.02
341.19	0.06
341.4	0.02
341.609	-0.01
341.819	0.04
342.029	-0.01
342.238	0.02
342.448	-0.01
342.658	0.03
342.867	0.01
343.077	0.04
343.286	0.02
343.496	0.05
343.706	0.07
343.915	-0.03
344.125	-0.01
344.334	0.07
344.544	-0.03
344.753	-0.02
344.963	-0
345.172	0.05
345.381	-0.01
345.591	0.02
345.8	0.02
346.01	0.08
346.219	0.09
346.428	-0.12
346.638	0.01
346.847	0
347.056	0.06
347.266	0.02
347.475	-0.01
347.684	-0.01
347.893	0.02
348.103	0.01
348.312	0
348.521	-0.03
348.73	0.07
348.94	0
349.149	0.03
349.358	-0.01
349.567	0.01
349.776	-0.03
349.985	0.03
350.194	0.07
350.403	0.06
350.612	-0.03
350.821	-0.01
351.03	0.02
351.239	-0.04
351.448	0.06
351.657	-0.02
351.866	0.1
352.075	0.01
352.284	0.08
352.493	-0.02
352.702	0.07
352.911	0.07
353.12	0.02
353.329	0.04
353.538	0.02
353.746	0.04
353.955	-0.02
354.164	0.04
354.373	0.01
354.582	0.08
354.79	0.03
354.999	0.04
355.208	0.03
355.416	0.08
355.625	-0.02
355.834	-0.04
356.042	0.06
356.251	0.03
356.46	0.01
356.668	0.01
356.877	0.13
357.085	0.1
357.294	-0.05
357.503	0.04
357.711	0.02
357.92	0.13
358.128	0.02
358.337	-0
358.545	0.04
358.754	0.02
358.962	0.02
359.17	0.03
359.379	0.05
359.587	0.07
359.796	0.03
360.004	0.08
360.212	0.02
360.421	0.09
360.629	0.02
360.837	0
361.046	0.07
361.254	0.12
361.462	0.02
361.67	0.02
361.879	0.04
362.087	0.07
362.295	0.02
362.503	0.01
362.711	-0.06
362.92	0.02
363.128	0.01
363.336	-0.03
363.544	-0.02
363.752	0.02
363.96	-0
364.168	0.04
364.376	0.04
364.584	0.07
364.792	0.04
365	0.07
365.208	0
365.416	0.04
365.624	0.05
365.832	-0.01
366.04	0.1
366.248	-0
366.456	0.08
366.664	0.02
366.872	-0
367.079	0.03
367.287	0.01
367.495	0.03
367.703	0
367.911	0.02
368.118	0.02
368.326	0.01
368.534	0.01
368.742	0.11
368.949	-0.01
369.157	0.01
369.365	0.04
369.572	-0.02
369.78	0.01
369.988	0.05
370.195	0.01
370.403	0.03
370.61	0.02
370.818	0.03
371.026	0.08
371.233	-0.02
371.441	0
371.648	0.01
371.856	0.01
372.063	0.03
372.271	0.01
372.478	0.03
372.685	0.02
372.893	0.05
373.1	-0
373.308	-0.01
373.515	0.1
373.722	0.07
373.93	0.03
374.137	0.04
374.344	0.07
374.552	0.06
374.759	0.02
374.966	0.02
375.173	0.02
375.381	0.05
375.588	0.03
375.795	-0.01
376.002	0.01
376.209	0.02
376.417	-0
376.624	0.02
376.831	0.06
377.038	0
377.245	-0.02
377.452	-0.02
377.659	0.02
377.866	-0.02
378.073	0.03
378.28	0.05
378.487	0.06
378.694	0.05
378.901	0.01
379.108	0.04
379.315	0.02
379.522	0.09
379.729	0.04
379.936	0.01
380.143	0.04
380.35	0.05
380.557	0
380.763	0.06
380.97	0.03
381.177	0.05
381.384	0.04
381.591	0.02
381.797	0.01
382.004	0.02
382.211	0.03
382.418	-0.03
382.624	0.07
382.831	0.03
383.038	0.04
383.244	0.03
383.451	0.01
383.658	0.01
383.864	0.04
384.071	0
384.277	0.08
384.484	-0.01
384.69	0.02
384.897	-0.01
385.103	-0.02
385.31	-0.04
385.516	-0.04
385.723	-0.02
385.929	0.02
386.136	-0.02
386.342	0.04
386.549	0.02
386.755	0.06
386.961	0.05
387.168	0.02
387.374	0.01
387.58	0.01
387.787	0.04
387.993	0
388.199	0.02
388.406	0.01
388.612	-0.01
388.818	0.02
389.024	0.02
389.231	0.03
389.437	0.09
389.643	0.05
389.849	0
390.055	0.04
390.261	0.05
390.467	0.04
390.674	-0.01
390.88	0.01
391.086	0.03
391.292	-0.03
391.498	0.06
391.704	0.05
391.91	0.01
392.116	0.01
392.322	-0.04
392.528	0.03
392.734	-0
392.94	0.04
393.146	0
393.352	0.06
393.557	-0.02
393.763	-0.03
393.969	0.03
394.175	0
394.381	0
394.587	-0.02
394.792	0.01
394.998	0.1
395.204	0.04
395.41	0.01
395.615	0.04
395.821	0.06
396.027	0.02
396.233	-0.04
396.438	0.05
396.644	0.03
396.85	0.02
397.055	0.01
397.261	-0.02
397.466	-0
397.672	0.04
397.878	0
398.083	0.06
398.289	0
398.494	0.07
398.7	0.04
398.905	-0.04
399.111	0.04
399.316	0.01
399.522	0.01
399.727	0
399.932	0.03
400.138	-0.02
400.343	0.05
400.549	0.02
400.754	0.02
400.959	0.02
401.165	0.03
401.37	0.01
401.575	0.1
401.78	-0.01
401.986	0
402.191	-0.02
402.396	-0.04
402.601	0.05
402.807	0.02
403.012	-0.01
403.217	0.06
403.422	-0.01
403.627	-0.01
403.832	0.01
404.037	0
404.243	0.07
404.448	-0.04
404.653	0.01
404.858	0.06
405.063	0.02
405.268	-0.05
405.473	-0.04
405.678	-0.01
405.883	0.15
406.088	0.03
406.293	-0.06
406.498	-0.01
406.703	0.05
406.907	0.02
407.112	-0.01
407.317	0.03
407.522	0.07
407.727	-0.05
407.932	0.02
408.136	0.12
408.341	0.01
408.546	0.04
408.751	0.05
408.956	0.01
409.16	0.06
409.365	0.02
409.57	-0.04
409.774	-0.01
409.979	0.07
410.184	0.05
410.388	-0.03
410.593	0.05
410.798	0.05
411.002	0.01
411.207	0.02
411.411	0.01
411.616	-0.07
411.82	0.01
412.025	0.04
412.229	-0.05
412.434	0.06
412.638	0.02
412.843	-0.04
413.047	0.01
413.252	0.01
413.456	-0.01
413.66	0.04
413.865	0
414.069	0.08
414.273	-0
414.478	-0.01
414.682	-0.02
414.886	0.01
415.091	-0.03
415.295	-0.06
415.499	0.06
415.703	-0.04
415.908	0.08
416.112	-0.06
416.316	-0
416.52	-0.02
416.724	-0.05
416.929	-0
417.133	0.13
417.337	-0.01
417.541	-0.01
417.745	0.04
417.949	0.03
418.153	0.05
418.357	-0.04
418.561	0.09
418.765	-0.02
418.969	0.2
419.173	0.01
419.377	-0.01
419.581	0.1
419.785	-0.02
419.989	-0.04
420.193	0.03
420.397	0.03
420.601	0.06
420.804	0.05
421.008	0.04
421.212	0.03
421.416	0.03
421.62	-0
421.823	0.01
422.027	0.06
422.231	0.07
422.435	0.03
422.638	0.03
422.842	0.02
423.046	-0.01
423.249	0.01
423.453	0.02
423.657	0.03
423.86	0.02
424.064	0.01
424.268	0.05
424.471	0.02
424.675	0.06
424.878	0.1
425.082	0.03
425.285	0.06
425.489	0.03
425.692	-0
425.896	-0.04
426.099	0.04
426.303	-0.05
426.506	-0.04
426.71	0.03
426.913	0.03
427.116	0.08
427.32	-0.01
427.523	0.01
427.726	0.1
427.93	-0.04
428.133	-0.01
428.336	-0.03
428.54	-0.02
428.743	0.02
428.946	0.03
429.149	0.03
429.353	-0.03
429.556	-0.01
429.759	0.04
429.962	-0.02
430.165	0.04
430.368	0.01
430.571	-0.03
430.775	0.03
430.978	0.02
431.181	-0.01
431.384	0.06
431.587	-0
431.79	-0
431.993	0.03
432.196	0.04
432.399	-0.04
432.602	0.03
432.805	-0.03
433.008	-0.01
433.211	-0.06
433.414	0.05
433.616	0.01
433.819	-0.01
434.022	-0.08
434.225	0.12
434.428	0.01
434.631	0.1
434.833	-0.01
435.036	-0.02
435.239	0.12
435.442	0.05
435.645	-0
435.847	0.07
436.05	0.02
436.253	0.03
436.455	0
436.658	-0.03
436.861	0.07
437.063	-0.03
437.266	-0
437.468	0.01
437.671	0.15
437.874	0
438.076	-0.07
438.279	-0.04
438.481	0.03
438.684	-0.01
438.886	0.04
439.089	-0.09
439.291	0.04
439.494	0.04
439.696	-0.03
439.899	0
440.101	0.06
440.303	-0.05
440.506	0.07
440.708	-0.05
440.91	0.05
441.113	-0.06
441.315	0.07
441.517	-0.01
441.72	0.06
441.922	-0.01
442.124	-0.03
442.326	0.03
442.529	0.1
442.731	0
442.933	0.12
443.135	-0.01
443.337	0.01
443.539	0.02
443.742	0.03
443.944	0.03
444.146	-0.04
444.348	0.01
444.55	-0.01
444.752	0
444.954	-0.05
445.156	0.02
445.358	-0.03
445.56	0.1
445.762	0.02
445.964	0.02
446.166	0.01
446.368	-0.03
446.57	0.07
446.772	-0.01
446.974	0.03
447.175	0.03
447.377	-0.03
447.579	-0.02
447.781	-0.06
447.983	0.08
448.184	-0
448.386	0.02
448.588	-0.02
448.79	-0.03
448.991	0.01
449.193	-0.03
449.395	0.03
449.597	0.07
449.798	-0
450	0.07
450.202	-0.02
450.403	-0.01
450.605	0.07
450.806	0.02
451.008	-0.05
451.21	-0.03
451.411	-0.03
451.613	0.03
451.814	0.06
452.016	0.06
452.217	0.02
452.419	0.07
452.62	0.05
452.821	0.04
453.023	0.07
453.224	0.07
453.426	0.02
453.627	0.05
453.828	0.06
454.03	0.04
454.231	0.01
454.432	-0.02
454.634	0.13
454.835	-0.04
455.036	-0.02
455.238	0.09
455.439	0.13
455.64	-0.03
455.841	-0.01
456.042	0.1
456.244	0.08
456.445	-0.03
456.646	-0.03
456.847	-0.02
457.048	0.08
457.249	0.02
457.45	0.22
457.651	-0.05
457.852	0.07
458.054	0.02
458.255	-0.01
458.456	0.04
458.657	0.04
458.858	0
459.058	0.01
459.259	0.03
459.46	0.02
459.661	0.01
459.862	0.11
460.063	0
460.264	0.05
460.465	-0.01
460.666	0.13
460.866	-0.01
461.067	0.03
461.268	0.03
461.469	-0.01
461.67	0.03
461.87	0.01
462.071	0
462.272	-0.07
462.473	0.07
462.673	0.06
462.874	-0
463.075	-0
463.275	-0
463.476	0.09
463.676	0.02
463.877	0.05
464.078	-0.03
464.278	0.07
464.479	-0
464.679	0.04
464.88	-0.01
465.08	0.07
465.281	-0.03
465.481	-0.03
465.682	-0
465.882	0.09
466.083	0.04
466.283	0.03
466.483	0.04
466.684	-0.01
466.884	-0.02
467.085	-0.02
467.285	0.05
467.485	-0.04
467.686	0.03
467.886	-0.01
468.086	0.01
468.286	-0
468.487	0.01
468.687	-0.05
468.887	0.01
469.087	0.06
469.287	0.03
469.488	-0.04
469.688	0.04
469.888	0.01
470.088	0.03
470.288	0.05
470.488	0.09
470.688	-0.05
470.888	0.02
471.088	-0.05
471.288	0.03
471.488	0.07
471.688	0.06
471.888	0.02
472.088	0.07
472.288	0.04
472.488	-0
472.688	-0
472.888	0.01
473.088	0.04
473.288	0.02
473.488	0
473.688	0.11
473.887	0.01
474.087	-0
474.287	0.01
474.487	0.04
474.687	0.04
474.886	-0.01
475.086	0
475.286	0.06
475.486	0.02
475.685	0.02
475.885	0.01
476.085	-0.02
476.284	0.04
476.484	0.01
476.684	0.05
476.883	0.07
477.083	0.03
477.282	-0
477.482	0.04
477.681	0.08
477.881	0.03
478.08	-0.01
478.28	-0.02
478.479	0.03
478.679	0.08
478.878	0.02
479.078	0
479.277	0
479.477	0.02
479.676	0.04
479.875	0.01
480.075	-0.03
480.274	0.03
480.473	0.04
480.673	-0.01
480.872	0.05
481.071	0.03
481.271	0.02
481.47	-0.02
481.669	0.01
481.868	-0.04
482.067	-0.03
482.267	0
482.466	-0.02
482.665	-0.02
482.864	0
483.063	-0.04
483.262	0.03
483.461	0.06
483.661	0.02
483.86	-0.01
484.059	0.02
484.258	-0.01
484.457	0
484.656	0.02
484.855	0.05
485.054	-0.06
485.253	-0.01
485.452	-0.04
485.651	0.01
485.849	0.02
486.048	-0.01
486.247	0
486.446	0.01
486.645	-0.02
486.844	-0.02
487.043	-0.01
487.241	0.04
487.44	-0.02
487.639	0.02
487.838	0
488.037	0.02
488.235	0.04
488.434	-0.01
488.633	0.01
488.831	0.03
489.03	0.05
489.229	0.03
489.427	0.02
489.626	0.04
489.825	0.02
490.023	-0
490.222	-0.01
490.42	0.01
490.619	0.05
490.817	0.01
491.016	0.01
491.214	0.04
491.413	0.02
491.611	-0
491.81	0.03
492.008	0.04
492.207	0.05
492.405	0
492.604	-0.05
492.802	0.01
493	-0
493.199	-0
493.397	-0
493.595	0.01
493.794	-0.01
493.992	0.03
494.19	0.01
494.388	0.03
494.587	0.01
494.785	0.02
494.983	-0.01
495.181	0.02
495.379	0.02
495.578	0
495.776	0.03
495.974	0.03
496.172	-0
496.37	-0.01
496.568	-0.02
496.766	-0.02
496.964	0.04
497.162	0.02
497.36	-0.04
497.558	0.02
497.756	0.03
497.954	0.02
498.152	-0
498.35	0
498.548	-0.02
498.746	0.01
498.944	-0.03
499.142	0.01
499.34	-0.02
499.538	0
499.736	0
499.933	0.07
500.131	0.03
500.329	0
500.527	0.04
500.725	0.03
500.922	0.01
501.12	0.01
501.318	0.04
501.516	0.01
501.713	0.04
501.911	0.01
502.109	-0.02
502.306	0.03
502.504	-0
502.701	0
502.899	0
503.097	0.04
503.294	0.01
503.492	0
503.689	0.01
503.887	0.03
504.084	0.06
504.282	0.01
504.479	-0.02
504.677	0.02
504.874	-0.03
505.072	0
505.269	0
505.466	0.02
505.664	0.02
505.861	-0.03
506.059	-0.02
506.256	0.03
506.453	-0.04
506.651	0.05
506.848	0.02
507.045	0.01
507.242	0.01
507.44	-0.01
507.637	0.02
507.834	0.01
508.031	0.04
508.229	-0.01
508.426	0
508.623	0.02
508.82	0.01
509.017	-0.03
509.214	0.01
509.411	0.02
509.608	-0
509.805	-0.01
510.003	-0
510.2	-0.01
510.397	0.05
510.594	0.02
510.791	-0.01
510.988	-0
511.184	0.05
511.381	0.01
511.578	0.01
511.775	0.06
511.972	-0.01
512.169	0.01
512.366	0.01
512.563	0.01
512.76	0
512.956	0.01
513.153	-0.02
513.35	0.02
513.547	-0.01
513.744	-0.02
513.94	-0.01
514.137	0.02
514.334	-0
514.53	0.01
514.727	0
514.924	0.05
515.12	-0
515.317	-0.03
515.514	0.02
515.71	-0.01
515.907	0.01
516.103	0.01
516.3	0.02
516.497	0.02
516.693	0.03
516.89	0.03
517.086	-0.02
517.283	0.05
517.479	0.02
517.676	0.01
517.872	-0
518.068	0.01
518.265	-0.01
518.461	-0.02
518.658	-0
518.854	0.02
519.05	0.02
519.247	-0
519.443	0.03
519.639	0.02
519.836	0
520.032	0
520.228	0.02
520.424	0.07
520.621	0.03
520.817	0.02
521.013	0.03
521.209	0.04
521.405	0.05
521.601	0.03
521.798	0.02
521.994	0.03
522.19	-0.01
522.386	0.01
522.582	0.03
522.778	0.01
522.974	0.01
523.17	0.02
523.366	0
523.562	0.05
523.758	0.01
523.954	-0
524.15	-0.01
524.346	0.01
524.542	-0.02
524.738	0
524.934	0.01
525.129	-0.04
525.325	0.03
525.521	0
525.717	0.03
525.913	0.02
526.109	0.02
526.304	0.01
526.5	0.02
526.696	0.03
526.892	-0
527.087	0.01
527.283	-0.02
527.479	0.01
527.674	0.02
527.87	0.01
528.066	-0.01
528.261	0.03
528.457	0.02
528.653	0.01
528.848	-0
529.044	0.03
529.239	0.02
529.435	0.04
529.63	0.04
529.826	0.05
530.021	0.02
530.217	0.03
530.412	0.01
530.608	-0.02
530.803	-0.02
530.999	-0
531.194	-0.03
531.389	0.02
531.585	-0.03
531.78	0.01
531.975	0.01
532.171	0.03
532.366	-0.01
532.561	0.01
532.757	-0.01
532.952	-0
533.147	0.03
533.342	0.01
533.538	-0.01
533.733	0.03
533.928	0
534.123	0
534.318	-0.02
534.513	0.01
534.709	0.01
534.904	-0.01
535.099	0
535.294	0.01
535.489	0.03
535.684	0
535.879	-0.02
536.074	0
536.269	0.01
536.464	0.02
536.659	-0
536.854	0.02
537.049	0
537.244	0.01
537.439	0.02
537.634	0.02
537.828	0
538.023	-0
538.218	-0.02
538.413	0.01
538.608	-0.03
538.803	0.01
538.997	-0.01
539.192	0.03
539.387	0.03
539.582	0.02
539.776	0.04
539.971	0
540.166	0.03
540.36	-0.01
540.555	0.02
540.75	0.01
540.944	0.01
541.139	-0.04
541.334	0.03
541.528	-0
541.723	0.04
541.917	-0.01
542.112	-0.02
542.306	-0
542.501	0.02
542.695	0
542.89	-0.02
543.084	0.01
543.279	0.01
543.473	-0.01
543.668	0.01
543.862	0.01
544.056	0.04
544.251	0.02
544.445	0.04
544.64	-0.01
544.834	0
545.028	-0
545.222	0.02
545.417	0.03
545.611	0.02
545.805	-0
546	0.01
546.194	0.01
546.388	-0.01
546.582	0.04
546.776	0.01
546.97	0.03
547.165	0.01
547.359	0.03
547.553	-0.02
547.747	-0.01
547.941	0.02
548.135	0.02
548.329	0.03
548.523	0.03
548.717	0.01
548.911	-0.01
549.105	0.02
549.299	0.01
549.493	0.05
549.687	0.04
549.881	0.02
550.075	0.01
550.269	-0.01
550.463	0.02
550.657	-0.02
550.85	0.01
551.044	-0
551.238	0.01
551.432	0
551.626	-0.01
551.82	0.02
552.013	0
552.207	0.01
552.401	0.02
552.594	0
552.788	0.02
552.982	0.01
553.176	0.01
553.369	0.04
553.563	0.03
553.756	-0.02
553.95	-0.02
554.144	0.04
554.337	0.04
554.531	0.02
554.724	0.03
554.918	0
555.111	0.04
555.305	0.03
555.498	0.05
555.692	0.04
555.885	-0.01
556.079	0.03
556.272	-0.01
556.466	0.01
556.659	0.02
556.852	-0.02
557.046	0
557.239	0.05
557.432	-0.02
557.626	-0.02
557.819	0.04
558.012	0.04
558.206	0.02
558.399	0.02
558.592	-0.01
558.785	0.03
558.979	0.03
559.172	0.01
559.365	0.03
559.558	0.03
559.751	0.01
559.944	0.04
560.138	0.02
560.331	0.01
560.524	0
560.717	0.01
560.91	0.04
561.103	0.05
561.296	0.02
561.489	0.04
561.682	0.01
561.875	0.05
562.068	0.02
562.261	0.03
562.454	0.06
562.647	0.02
562.84	0.03
563.032	0.02
563.225	0.03
563.418	0.01
563.611	0.01
563.804	0
563.997	-0.01
564.19	-0.02
564.382	-0.04
564.575	0.03
564.768	0.01
564.961	0.01
565.153	-0.01
565.346	0.04
565.539	0.07
565.731	0.05
565.924	0.05
566.117	0.03
566.309	0.04
566.502	0
566.695	0
566.887	0.05
567.08	0.01
567.272	-0
567.465	-0
567.657	0.03
567.85	0.03
568.042	0.02
568.235	0.07
568.427	0.01
568.62	0.02
568.812	0.03
569.005	0.03
569.197	-0.02
569.389	0.01
569.582	0.04
569.774	0.06
569.966	-0.03
570.159	-0.01
570.351	0.02
570.543	0.01
570.736	0.05
570.928	0
571.12	0.04
571.312	0.04
571.505	0
571.697	0.04
571.889	-0
572.081	0.01
572.273	0
572.465	0.06
572.658	0.01
572.85	0.04
573.042	0
573.234	0.02
573.426	0.07
573.618	-0.01
573.81	0.03
574.002	0.05
574.194	0.08
574.386	-0.03
574.578	-0.05
574.77	0.01
574.962	0.02
575.154	0
575.346	0
575.538	0.04
575.729	0.02
575.921	-0.01
576.113	0.02
576.305	0.04
576.497	0.01
576.689	0.01
576.88	-0.02
577.072	0.04
577.264	0.02
577.456	0.01
577.647	-0.03
577.839	0.01
578.031	0.07
578.223	0
578.414	-0.01
578.606	0.05
578.798	-0
578.989	0.01
579.181	0.04
579.372	0.04
579.564	0
579.755	0.04
579.947	0.02
580.139	0.08
580.33	-0.01
580.522	0.03
580.713	-0.05
580.905	0.03
581.096	0.04
581.287	0.01
581.479	0.02
581.67	0.05
581.862	0.04
582.053	0.02
582.244	0.01
582.436	0.01
582.627	0.03
582.818	0.04
583.01	-0
583.201	0.04
583.392	0.06
583.583	0.04
583.775	0.04
583.966	0.01
584.157	0.03
584.348	0
584.54	0.01
584.731	0.06
584.922	0.02
585.113	0.01
585.304	0.05
585.495	0.05
585.686	0.03
585.877	0.05
586.068	0.05
586.259	0.04
586.45	0.05
586.641	0.02
586.832	-0.02
587.023	0.03
587.214	0.04
587.405	0.03
587.596	0.02
587.787	0.05
587.978	0.06
588.169	0.04
588.36	0.03
588.551	0.05
588.742	0.04
588.932	0.05
589.123	0.05
589.314	0.07
589.505	0.03
589.696	0.04
589.886	0.02
590.077	-0
590.268	0.07
590.458	0.01
590.649	0
590.84	0.07
591.03	0.02
591.221	-0.01
591.412	0.01
591.602	0.05
591.793	0.03
591.984	0.01
592.174	0.04
592.365	0.1
592.555	0.04
592.746	0.09
592.936	0.07
593.127	0.06
593.317	0.1
593.508	0.03
593.698	0.06
593.889	0.05
594.079	0.04
594.269	0.04
594.46	0.06
594.65	0.05
594.84	0.02
595.031	0.02
595.221	0.02
595.411	0.03
595.602	0.08
595.792	0.06
595.982	0.03
596.172	0.1
596.363	0.06
596.553	0.07
596.743	0.09
596.933	0.06
597.123	0.09
597.314	0.04
597.504	0.03
597.694	0.1
597.884	0.07
598.074	0.04
598.264	0.07
598.454	0.08
598.644	0.07
598.834	0.08
599.024	0.04
599.214	0.07
599.404	0.12
599.594	0.06
599.784	0.07
599.974	0.08
600.164	0.11
600.354	0.04
600.544	0.04
600.734	0.09
600.924	0.12
601.114	0.06
601.303	0.07
601.493	0.09
601.683	0.07
601.873	0.11
602.063	0.05
602.252	0.09
602.442	0.04
602.632	0.1
602.821	0.07
603.011	0.14
603.201	0.08
603.39	0.09
603.58	0.08
603.77	0.15
603.959	0.15
604.149	0.09
604.339	0.07
604.528	0.16
604.718	0.12
604.907	0.1
605.097	0.11
605.286	0.09
605.476	0.12
605.665	0.16
605.855	0.11
606.044	0.15
606.234	0.15
606.423	0.12
606.612	0.12
606.802	0.15
606.991	0.17
607.181	0.15
607.37	0.11
607.559	0.12
607.749	0.12
607.938	0.16
608.127	0.15
608.316	0.13
608.506	0.15
608.695	0.15
608.884	0.14
609.073	0.14
609.263	0.19
609.452	0.19
609.641	0.19
609.83	0.11
610.019	0.19
610.208	0.16
610.397	0.18
610.586	0.22
610.775	0.17
610.965	0.17
611.154	0.19
611.343	0.2
611.532	0.2
611.721	0.21
611.91	0.23
612.099	0.27
612.287	0.18
612.476	0.19
612.665	0.26
612.854	0.22
613.043	0.3
613.232	0.24
613.421	0.21
613.61	0.25
613.798	0.25
613.987	0.3
614.176	0.29
614.365	0.3
614.554	0.32
614.742	0.29
614.931	0.28
615.12	0.33
615.309	0.31
615.497	0.32
615.686	0.28
615.875	0.33
616.063	0.33
616.252	0.34
616.44	0.33
616.629	0.33
616.818	0.4
617.006	0.38
617.195	0.38
617.383	0.4
617.572	0.4
617.76	0.42
617.949	0.46
618.137	0.43
618.326	0.45
618.514	0.41
618.703	0.42
618.891	0.48
619.079	0.4
619.268	0.5
619.456	0.47
619.644	0.58
619.833	0.51
620.021	0.51
620.209	0.47
620.398	0.53
620.586	0.51
620.774	0.58
620.962	0.55
621.151	0.64
621.339	0.57
621.527	0.58
621.715	0.59
621.903	0.59
622.092	0.61
622.28	0.7
622.468	0.65
622.656	0.68
622.844	0.68
623.032	0.73
623.22	0.68
623.408	0.77
623.596	0.77
623.784	0.76
623.972	0.76
624.16	0.76
624.348	0.85
624.536	0.82
624.724	0.81
624.912	0.92
625.1	0.89
625.288	0.84
625.476	0.84
625.664	0.95
625.851	0.91
626.039	1
626.227	0.98
626.415	0.98
626.603	0.94
626.79	1.03
626.978	1.07
627.166	1.1
627.354	1.07
627.541	1.08
627.729	1.06
627.917	1.22
628.104	1.19
628.292	1.19
628.48	1.24
628.667	1.27
628.855	1.27
629.042	1.31
629.23	1.28
629.418	1.37
629.605	1.37
629.793	1.35
629.98	1.42
630.168	1.39
630.355	1.47
630.543	1.55
630.73	1.46
630.917	1.54
631.105	1.66
631.292	1.6
631.48	1.66
631.667	1.74
631.854	1.69
632.042	1.75
632.229	1.69
632.416	1.85
632.604	1.82
632.791	1.8
632.978	1.94
633.165	1.91
633.353	1.95
633.54	2.09
633.727	1.96
633.914	1.97
634.101	2.03
634.289	2.18
634.476	2.1
634.663	2.2
634.85	2.22
635.037	2.24
635.224	2.2
635.411	2.42
635.598	2.38
635.785	2.4
635.972	2.39
636.159	2.52
636.346	2.5
636.533	2.51
636.72	2.63
636.907	2.64
637.094	2.67
637.281	2.7
637.468	2.8
637.655	2.8
637.842	2.87
638.029	2.94
638.215	2.92
638.402	3.02
638.589	3.01
638.776	3.06
638.963	3.12
639.149	3.2
639.336	3.29
639.523	3.35
639.709	3.37
639.896	3.44
640.083	3.45
640.27	3.58
640.456	3.53
640.643	3.63
640.829	3.66
641.016	3.68
641.203	3.74
641.389	3.88
641.576	3.89
641.762	3.97
641.949	4.01
642.135	4.19
642.322	4.21
642.508	4.24
642.695	4.4
642.881	4.4
643.068	4.47
643.254	4.54
643.441	4.64
643.627	4.8
643.813	4.77
644	4.9
644.186	4.93
644.372	5.11
644.559	5.18
644.745	5.22
644.931	5.34
645.118	5.51
645.304	5.5
645.49	5.68
645.676	5.72
645.862	5.89
646.049	6.02
646.235	6.04
646.421	6.19
646.607	6.42
646.793	6.37
646.979	6.39
647.165	6.59
647.352	6.72
647.538	6.74
647.724	6.91
647.91	7.04
648.096	7.18
648.282	7.41
648.468	7.4
648.654	7.58
648.84	7.65
649.026	7.68
649.212	7.83
649.397	8.06
649.583	8.24
649.769	8.35
649.955	8.42
650.141	8.68
650.327	8.79
650.513	8.88
650.698	9.03
650.884	9.08
651.07	9.38
651.256	9.37
651.442	9.62
651.627	9.52
651.813	9.91
651.999	9.86
652.184	10.1
652.37	10.34
652.556	10.45
652.741	10.53
652.927	10.53
653.113	10.81
653.298	10.96
653.484	11.12
653.669	11.26
653.855	11.48
654.04	11.63
654.226	11.71
654.412	11.71
654.597	11.84
654.782	12.05
654.968	12.24
655.153	12.46
655.339	12.5
655.524	12.65
655.71	12.96
655.895	13.06
656.08	13.03
656.266	13.4
656.451	13.26
656.636	13.37
656.822	13.5
657.007	13.65
657.192	13.78
657.378	13.75
657.563	13.62
657.748	13.88
657.933	14.2
658.118	13.74
658.304	14.19
658.489	14.23
658.674	14.2
658.859	14.06
659.044	14.13
659.229	14.04
659.414	14.1
659.599	13.93
659.785	13.77
659.97	13.79
660.155	13.67
660.34	13.6
660.525	13.34
660.71	13.17
660.895	13.14
661.08	12.99
661.264	12.49
661.449	12.36
661.634	12.01
661.819	11.94
662.004	11.51
662.189	11.34
662.374	11.06
662.559	10.63
662.743	10.38
662.928	10.24
663.113	9.83
663.298	9.59
663.483	9.26
663.667	9.13
663.852	8.7
664.037	8.53
664.221	8.21
664.406	8.01
664.591	7.69
664.775	7.46
664.96	7.11
665.145	6.87
665.329	6.71
665.514	6.44
665.698	6.1
665.883	5.86
666.068	5.77
666.252	5.55
666.437	5.27
666.621	5.16
666.806	4.93
666.99	4.73
667.174	4.6
667.359	4.47
667.543	4.27
667.728	4.11
667.912	3.9
668.096	3.82
668.281	3.62
668.465	3.57
668.649	3.49
668.834	3.24
669.018	3.18
669.202	3.12
669.387	2.91
669.571	2.93
669.755	2.66
669.939	2.64
670.124	2.56
670.308	2.5
670.492	2.42
670.676	2.37
670.86	2.27
671.044	2.07
671.228	2.16
671.413	1.99
671.597	1.96
671.781	1.89
671.965	1.86
672.149	1.78
672.333	1.71
672.517	1.63
672.701	1.6
672.885	1.54
673.069	1.38
673.253	1.5
673.437	1.38
673.621	1.31
673.804	1.32
673.988	1.31
674.172	1.22
674.356	1.23
674.54	1.16
674.724	1.19
674.908	1.05
675.091	1.07
675.275	1.02
675.459	1.02
675.643	1.02
675.826	0.91
676.01	0.88
676.194	0.87
676.377	0.85
676.561	0.81
676.745	0.82
676.928	0.75
677.112	0.81
677.296	0.69
677.479	0.63
677.663	0.65
677.846	0.64
678.03	0.6
678.213	0.61
678.397	0.57
678.58	0.56
678.764	0.56
678.947	0.49
679.131	0.48
679.314	0.56
679.498	0.45
679.681	0.46
679.865	0.56
680.048	0.42
680.231	0.44
680.415	0.41
680.598	0.36
680.781	0.35
680.965	0.37
681.148	0.41
681.331	0.36
681.514	0.38
681.698	0.29
681.881	0.36
682.064	0.34
682.247	0.3
682.43	0.28
682.614	0.31
682.797	0.32
682.98	0.31
683.163	0.26
683.346	0.26
683.529	0.24
683.712	0.21
683.895	0.28
684.078	0.22
684.261	0.2
684.444	0.28
684.627	0.25
684.81	0.22
684.993	0.2
685.176	0.27
685.359	0.19
685.542	0.14
685.725	0.27
685.908	0.2
686.091	0.16
686.274	0.25
686.457	0.18
686.639	0.15
686.822	0.24
687.005	0.22
687.188	0.24
687.371	0.28
687.553	0.21
687.736	0.24
687.919	0.25
688.102	0.24
688.284	0.15
688.467	0.13
688.65	0.08
688.832	0.14
689.015	0.14
689.197	0.07
689.38	0.23
689.563	0.19
689.745	0.09
689.928	0.12
690.11	0.14
690.293	0.14
690.475	0.09
690.658	0.1
690.84	0.13
691.023	0.15
691.205	0.14
691.388	0.14
691.57	0.17
691.752	0.16
691.935	0.05
692.117	0.05
692.3	0.12
692.482	0.12
692.664	0.11
692.847	0.13
693.029	0.17
693.211	0.16
693.393	0.08
693.576	0.08
693.758	0.08
693.94	0.09
694.122	0.08
694.304	0.05
694.487	0.09
694.669	0.12
694.851	0.01
695.033	0.08
695.215	0.1
695.397	0.01
695.579	0.13
695.761	0.05
695.943	0.01
696.125	0.2
696.308	0.06
696.49	-0.02
696.671	0.17
696.853	0.08
697.035	0.21
697.217	0.11
697.399	0.11
697.581	0.07
697.763	0.07
697.945	-0.02
698.127	0.07
698.309	0.14
698.491	0.08
698.672	0.15
698.854	0.16
699.036	0.2
699.218	0.04
699.399	0.13
699.581	0.16
699.763	0.1
699.945	0
700.126	0
700.308	0.04
700.49	0.1
700.671	0.01
700.853	0.01
701.035	0.05
701.216	0.05
701.398	0.04
701.579	0.05
701.761	0.11
701.943	0.03
702.124	-0.02
702.306	0.04
702.487	0.18
702.669	0.06
702.85	-0.01
703.031	-0.02
703.213	0.22
703.394	0.08
703.576	0.04
703.757	0.1
703.938	0.1
704.12	0.15
704.301	0.07
704.483	0.03
704.664	0.07
704.845	0.14
705.026	0.08
705.208	0.04
705.389	0.09
705.57	0.09
705.751	0.04
705.933	0.07
706.114	0.1
706.295	0.07
706.476	0
706.657	0.17
706.838	0.11
707.02	0.14
707.201	0
707.382	0.03
707.563	0.08
707.744	0.06
707.925	0.04
708.106	0.04
708.287	0.08
708.468	0.13
708.649	0.04
708.83	0.07
709.011	0.03
709.192	0.03
709.373	-0.06
709.554	0.1
709.734	0.14
709.915	0.13
710.096	0.05
710.277	-0.02
710.458	0.08
710.639	0.08
710.819	-0.03
711	0.03
711.181	0.15
711.362	0.12
711.542	0.06
711.723	0.01
711.904	0.07
712.085	0.08
712.265	0.16
712.446	-0.04
712.627	0.02
712.807	0.12
712.988	0.07
713.168	0.03
713.349	0.05
713.53	-0.01
713.71	-0.05
713.891	-0.11
714.071	0.04
714.252	0.03
714.432	0.01
714.613	-0
714.793	0.03
714.974	0.14
715.154	0.16
715.334	0.12
715.515	0.1
715.695	-0.02
715.876	0.06
716.056	0.02
716.236	0.06
716.417	0.07
716.597	0.02
716.777	0.2
716.957	0.02
717.138	0.05
717.318	0.08
717.498	-0.05
717.678	0.07
717.859	0.05
718.039	-0.01
718.219	0.1
718.399	0.07
718.579	-0.03
718.759	-0.01
718.939	0.06
719.12	0.12
719.3	0.06
719.48	-0.05
719.66	-0.11
719.84	0.06
720.02	0.04
720.2	-0.02
720.38	0.08
720.56	0.15
720.74	-0.03
720.92	0.02
721.1	0.09
721.279	0.13
721.459	0.11
721.639	-0.07
721.819	0.09
721.999	0.07
722.179	0.03
722.359	-0.09
722.538	0.02
722.718	0
722.898	-0.01
723.078	0.06
723.257	0.02
723.437	0.09
723.617	0.02
723.797	-0.02
723.976	0.01
724.156	0.06
724.336	0.06
724.515	0.16
724.695	-0.04
724.874	0.04
725.054	0.03
725.234	0.03
725.413	0.13
725.593	-0.03
725.772	-0.01
725.952	0.02
726.131	0.06
726.311	-0.03
726.49	0.01
726.67	-0.05
726.849	0.07
727.028	0.09
727.208	-0.04
727.387	0.09
727.567	-0.03
727.746	0.05
727.925	0.01
728.105	-0.07
728.284	0.02
728.463	-0.18
728.643	0.11
728.822	-0.09
729.001	0.03
729.18	0.01
729.359	0.11
729.539	0.04
729.718	0.08
729.897	0.02
730.076	0.03
730.255	-0.1
730.434	0.01
730.614	0.12
730.793	0.08
730.972	0.06
731.151	0.11
731.33	0.2
731.509	0.1
731.688	0.01
731.867	0.04
732.046	-0.06
732.225	0.25
732.404	-0.08
732.583	-0.02
732.762	0.02
732.941	0.09
733.12	0.01
733.298	0.02
733.477	0.13
733.656	0.04
733.835	-0.04
734.014	0.05
734.193	0.14
734.371	0.08
734.55	0.15
734.729	-0.02
734.908	0.03
735.086	0.04
735.265	0.04
735.444	-0.09
735.623	-0.06
735.801	-0.04
735.98	0.05
736.159	-0.03
736.337	0.08
736.516	0.02
736.694	0.05
736.873	-0.05
737.052	0.16
737.23	0.14
737.409	-0
737.587	0.17
737.766	-0.15
737.944	-0.08
738.123	0.18
738.301	0.1
738.479	-0.05
738.658	0.06
738.836	-0.16
739.015	0.05
739.193	0.09
739.371	-0.07
739.55	-0.02
739.728	-0.08
739.906	0.13
740.085	0.09
740.263	0.04
740.441	-0.16
740.62	0.05
740.798	0.16
740.976	-0.06
741.154	-0.05
741.332	0.23
741.511	-0.02
741.689	0.1
741.867	0.09
742.045	-0.01
742.223	0.08
742.401	-0.11
742.579	-0.01
742.757	0.11
742.935	-0.11
743.114	-0.01
743.292	-0
743.47	-0.01
743.648	0.02
743.826	0.05
744.004	0.08
744.181	0.05
744.359	0.05
744.537	0.01
744.715	-0.05
744.893	-0.02
745.071	-0.03
745.249	0.04
745.427	-0.04
745.605	0.08
745.782	0.13
745.96	0.12
746.138	0.04
746.316	0.19
746.493	-0.01
746.671	0.07
746.849	0.06
747.027	0.07
747.204	-0.01
747.382	0.17
747.56	-0.12
747.737	0.05
747.915	0.02
748.093	0.1
748.27	0.04
748.448	0.03
748.625	-0.12
748.803	0.05
748.98	-0.03
749.158	0.09
749.335	0.08
749.513	0
749.69	0
749.868	0.12
750.045	0.07
750.223	-0.06
750.4	-0.08
750.578	0.17
750.755	0.04
750.932	-0.06
751.11	0.17
751.287	-0.05
751.464	0.18
751.642	-0.03
751.819	0.1
751.996	0.09
752.173	-0.06
752.351	-0.07
752.528	-0.02
752.705	-0.09
752.882	0.06
753.06	0.07
753.237	0.2
753.414	0.18
753.591	0.08
753.768	0.04
753.945	-0.08
754.122	-0.01
754.299	0.05
754.476	-0.06
754.654	-0.02
754.831	0.04
755.008	0.07
755.185	-0
755.362	-0.04
755.539	0.05
755.716	-0.08
755.892	-0.03
756.069	-0
756.246	0.03
756.423	-0.01
756.6	0.14
756.777	-0.05
756.954	0.08
757.131	-0.03
757.307	-0.1
757.484	-0.1
757.661	0.04
757.838	0.11
758.015	-0.1
758.191	0.11
758.368	0.04
758.545	0.22
758.721	0.09
758.898	-0.11
759.075	0.09
759.251	0.14
759.428	0.11
759.605	-0.16
759.781	0.06
759.958	0.08
760.134	0.07
760.311	-0.07
760.488	0.13
760.664	0.13
760.841	-0
761.017	-0.07
761.194	0.14
761.37	0.06
761.547	0.04
761.723	0.01
761.899	0.14
762.076	-0.02
762.252	-0.07
762.429	0.05
762.605	0.05
762.781	-0.03
762.958	0.23
763.134	-0.02
763.31	-0.08
763.486	0.12
763.663	-0.11
763.839	0.14
764.015	-0.11
764.191	-0.1
764.368	-0.01
764.544	-0.1
764.72	0.09
764.896	0.13
765.072	0.09
765.248	0.11
765.425	0.08
765.601	0
765.777	0.04
765.953	-0.23
766.129	0.06
766.305	-0.08
766.481	0.03
766.657	0.07
766.833	0.25
767.009	-0.08
767.185	0.05
767.361	0.03
767.537	-0.2
767.713	0.16
767.889	-0.01
768.065	-0
768.24	0.12
768.416	0.19
768.592	-0.07
768.768	0.01
768.944	-0
769.12	-0.09
769.295	-0.05
769.471	-0.02
769.647	-0.01
769.823	0.18
769.998	-0.09
770.174	0.01
770.35	0.27
770.525	0.12
770.701	0.04
770.877	0.05
771.052	0
771.228	0.12
771.403	0.1
771.579	0.09
771.755	0.27
771.93	-0.11
772.106	-0.06
772.281	-0.19
772.457	-0.02
772.632	0.08
772.808	-0.04
772.983	-0.14
773.159	-0.11
773.334	0.13
773.509	-0.04
773.685	-0.06
773.86	0.4
774.036	0.34
774.211	0.06
774.386	0.07
774.562	-0.09
774.737	0.18
774.912	-0.02
775.087	0.08
775.263	0.11
775.438	0.13
775.613	-0.26
775.788	-0.03
775.964	0.2
776.139	0.33
776.314	-0.17
776.489	0.11
776.664	0.19
776.839	-0.09
777.014	0.25
777.19	0.24
777.365	0.26
777.54	0.2
777.715	0.06
777.89	-0
778.065	-0.2
778.24	0.05
778.415	0.31
778.59	-0.07
778.765	-0.03
778.94	0.16
779.115	-0.2
779.289	-0.11
779.464	-0.06
779.639	0.17
779.814	-0.2
779.989	-0.3
780.164	0.3
780.339	0.06
780.513	-0.11
780.688	-0.05
780.863	-0.07
781.038	0.09
781.212	-0.16
781.387	0.07
781.562	0.26
781.737	-0.04
781.911	0.27
782.086	-0.17
782.261	-0.06
782.435	0.26
782.61	-0.07
782.784	0.07
782.959	0.11
783.134	-0.02
783.308	-0.22
783.483	-0.03
783.657	0.38
783.832	0.16
784.006	-0.26
784.181	-0.08
784.355	0.19
784.53	-0.13
784.704	-0.13
784.878	0.38
785.053	-0.06
785.227	0.16
785.402	0.4
785.576	-0.14
785.75	0
785.925	0.14
786.099	0.1
786.273	0.06
786.448	0.23
786.622	0.02
786.796	-0.06
786.97	-0.13
787.145	0.43
787.319	-0.19
787.493	-0.08
787.667	-0.41
787.841	0.13
788.015	0.1
788.19	-0.22
788.364	0.02
788.538	0.21
788.712	0.15
788.886	0.21
789.06	0.25
789.234	0.3
789.408	-0.28
789.582	-0.04
789.756	0.13
789.93	-0
790.104	-0.04
790.278	-0.15
790.452	0.03
790.626	0.04
790.8	0.06
790.973	0.12
791.147	0.4
791.321	0.32
791.495	0.03
791.669	0.06
791.843	0.22
792.016	0.18
792.19	0.24
792.364	-0.24
792.538	0.46
792.711	0.16
792.885	-0.12
793.059	-0.18
793.233	-0.63
793.406	0.02
793.58	0.26
793.754	-0.01
793.927	-0.01
794.101	0.42
794.274	-0.19
794.448	0.14
794.622	-0.13
794.795	0.17
794.969	0.11
795.142	0.29
795.316	-0.03
795.489	-0.33
795.663	0.29
795.836	0.09
796.009	-0.1
796.183	0.22
796.356	0.34
796.53	0.22
796.703	-0.05
796.876	0.61
797.05	-0.01
797.223	0.21
797.396	0.07
797.57	0.2
797.743	0.39
797.916	0.16
798.09	0.01
798.263	0.32
798.436	0.27
798.609	-0.07
798.782	0.03
798.956	0.07
799.129	0.05
799.302	-0.04
799.475	0.1
799.648	-0.11
799.821	-0.18
799.994	0.06
800.167	-0.21
800.34	0.12
800.514	0.06
800.687	0.02
800.86	-0.27
801.033	0.14
801.206	0.09
801.379	-0.37
801.551	0.41
801.724	0.1
801.897	0.23
802.07	-0.06
802.243	-0.42
802.416	-0.12
802.589	-0.21
802.762	0.04
802.935	0.21
803.107	0.4
803.28	0.24
803.453	0.2
803.626	-0.08
803.798	-0.06
803.971	-0.15
804.144	0.12
804.317	-0.01
804.489	0.42
804.662	-0.02
804.835	0.27
805.007	-0.2
805.18	0.65
805.353	0.32
805.525	0.05
805.698	-0
805.87	0.22
806.043	0.45
806.215	-0.03
806.388	-0.19
806.56	0.22
806.733	0.47
806.905	-0.01
807.078	-0.09
807.25	-0.5
807.423	0.3
807.595	0.05
807.768	-0.19
807.94	0.45
808.112	-0.2
808.285	0.22
808.457	-0.01
808.629	-0.07
808.802	-0.09
808.974	0.27
809.146	-0.1
809.318	-0.32
809.491	0.13
809.663	0.41
809.835	-0.53
810.007	0.25
810.18	-0.04
810.352	-0.29
810.524	-0.09
810.696	0.23
810.868	0.31
811.04	-0.05
811.212	0.12
811.384	0.1
811.556	0.2
811.728	-0.1
811.901	0.83
812.073	-0.01
812.245	0.27
812.417	0.1
812.589	-0.44
812.76	-0.13
812.932	0.4
813.104	0.81
813.276	0.27
813.448	0.54
813.62	0.2
813.792	0.25
813.964	-0.07
814.136	0.35
814.307	-0.05
814.479	0.08
814.651	0.09
814.823	0.67
814.995	-0.06
815.166	0.3
815.338	-0.13
815.51	-0.55
815.681	0.92
815.853	0.04
816.025	0.27
816.196	0.63
816.368	0.45
816.54	0.01
816.711	-0.07
816.883	-0.1
817.054	0.69
817.226	-0.91
817.398	0.28
817.569	-0.29
817.741	0.12
817.912	0.34
818.084	-0.01
818.255	0.68
818.426	-0.16
818.598	0.14
818.769	-0.22
818.941	0.24
819.112	0.41
819.283	-0.07
819.455	-0.23
819.626	0.15
819.798	0.04
819.969	-0.02
820.14	0.05
820.311	-0.27
820.483	0.22
820.654	0.41
820.825	0.13
820.996	0.15
821.168	-0.25
821.339	-0.1
821.51	-0.29
821.681	-0.02
821.852	0.23
822.023	-0.11
822.195	-0.35
822.366	0.36
822.537	0.04
822.708	0.16
822.879	-0.01
823.05	0.52
823.221	-0.13
823.392	0.44
823.563	-0.19
823.734	0.05
823.905	0.14
824.076	-0.19
824.247	-0.18
824.418	-0.21
824.589	0.28
824.759	-0.03
824.93	-0.06
825.101	-0.25
825.272	0.91
825.443	0.35
825.614	0.77
825.784	-0.5
825.955	0.78
826.126	0.52
826.297	0.18
826.467	0.69
826.638	0.65
826.809	-0.52
826.98	0.06
827.15	0.13
827.321	-0.14
827.492	0.92
827.662	0.09
827.833	0.7
828.003	0.37
828.174	-0.49
828.345	-0.81
828.515	0.25
828.686	0.47
828.856	-0.12
829.027	-0.26
829.197	0.06
829.368	0.48
829.538	-0.13
829.709	0.17
829.879	0.03
830.049	-0.19
830.22	-0.05
830.39	0.1
830.56	0.18
830.731	0.02
830.901	-0.46
831.072	0.09
831.242	0.47
831.412	-0.02
831.582	-0.27
831.753	-0.42
831.923	0.86
832.093	-0.12
832.263	0.04
832.434	-0.04
832.604	-0.08
832.774	0.21
832.944	-0.28
833.114	-0.38
833.284	0.16
833.454	-0.33
833.624	-0.03
833.795	-0.24
833.965	1.03
834.135	0.41
834.305	-0.42
834.475	-0.4
834.645	-0.3
834.815	-0.49
834.985	-0.7
835.155	-0.42
835.325	0.01
835.494	0.31
835.664	-0.41
835.834	-0.56
836.004	0.66
836.174	0.3
836.344	0.61
836.514	-0.13
836.684	0.2
836.853	0.6
837.023	-0.2
837.193	-0.42
837.363	0.67
837.532	-0.09
837.702	0.28
837.872	-0.17
838.041	0.89
838.211	1.32
838.381	-0.29
838.55	-0.17
838.72	1.31
838.89	1.44
839.059	0.03
839.229	-0.46
839.398	0.96
839.568	0.08
839.738	0.02
839.907	0.78
840.077	0.36
840.246	-0.35
840.416	-0.84
840.585	-0.09
840.755	1.05
840.924	0.64
841.093	-0.11
841.263	0.29
841.432	0.54
841.602	-0.67
841.771	0.27
841.94	-0.25
842.11	1.77
842.279	1.07
842.448	-0.31
842.617	-0.88
842.787	0.92
842.956	-0.38
843.125	-0.2
843.294	0.47
843.464	1.43
843.633	0.43
843.802	-1.07
843.971	0.04
844.14	0.18
844.309	0.95
844.479	-0.53
844.648	-0.1
844.817	-0.48
844.986	0.77
845.155	0.21
845.324	0.4
845.493	0.16
845.662	-0.89
845.831	0.42
846	0.78
846.169	0.39
846.338	1.68
846.507	0.41
846.676	-0.66
846.844	-0.23
847.013	0.32
847.182	-0.26
847.351	-0.86
847.52	-0.08
847.689	0.66
847.858	-0.36
848.026	-0.27
848.195	-0.46
848.364	-0.35
848.533	-0.5
848.701	-1.18
848.87	0.32
849.039	0.77
849.207	0.55
849.376	1.78
849.545	0.23
849.713	-0.76
849.882	-0.67
850.051	0.64
850.219	0.46
850.388	0.94
850.556	0.06
850.725	-1.04
850.893	0.23
851.062	0.05
851.23	0.55
851.399	-1.79
851.567	0.13
851.736	-0.93
851.904	-0.44
852.073	-0.47
852.241	0.88
852.41	0.44
852.578	0.06
852.746	-0.09
852.915	0.64
853.083	0.6
853.251	-1.2
853.42	-0.52
853.588	0.18
853.756	1.09
853.924	0.26
854.093	-0.06
854.261	0.76
854.429	-2.21
854.597	0.25
854.765	-0.73
854.934	1.39
855.102	0.12
855.27	0.46
855.438	0.3
855.606	1.62
855.774	1.63
855.942	-1.18
856.11	-1.43
856.278	0.62
856.446	1.06
856.614	-0.44
856.782	0.16
856.95	0.46
857.118	0.78
857.286	0.06
857.454	-0.08
857.622	1.48
857.79	-0.04
857.958	-0.47
858.126	0.21
858.294	-2.03
858.462	0.34
858.629	-0.03
858.797	-0.36
858.965	0.54
859.133	-0.15
859.301	-0.03
859.468	0.28
859.636	-1.16
859.804	1.41
859.971	1.07
860.139	-0.85
860.307	1.2
860.474	0.19
860.642	-0.23
860.81	-1.39
860.977	0.2
861.145	2.35
861.313	0.11
861.48	-0.32
861.648	2.58
861.815	0.23
861.983	0.04
862.15	0.87
862.318	1.24
862.485	2.03
862.653	-1.31
862.82	-0.51
862.988	1.34
863.155	1.13
863.322	-0.31
863.49	-1.16
863.657	-0.43
863.824	2.23
863.992	0.32
864.159	1.17
864.326	0.72
864.494	-1.27
864.661	2.46
864.828	-1.54
864.996	1.75
865.163	0.5
865.33	-0.62
865.497	-1.54
865.664	-0.89
865.832	-1.89
865.999	0.11
866.166	-1.44
866.333	0.17
866.5	0.84
866.667	-0.54
866.834	-0.34
867.001	2.91
867.168	-1.37
867.335	0.64
867.502	-0.71
867.669	1.04
867.836	2.03
868.003	-0.6
868.17	1.04
868.337	1.39
868.504	2.08
868.671	-1.03
868.838	-0.18
869.005	0.78
869.172	0.63
869.339	-1
869.505	0.41
869.672	0.57
869.839	2.85
870.006	-0.3
870.173	-1.79
870.339	-0.17
870.506	0.94
870.673	-1.7
870.84	0.4
871.006	-0.42
871.173	-0.35
871.34	-1
871.506	-2.42
871.673	0.07
871.839	-1.19
872.006	0.61
872.173	0.14
872.339	-0.11
872.506	4.05
872.672	0.22
872.839	-3.18
873.005	0.09
873.172	1.32
873.338	2.06
873.505	-0.5
873.671	0.37
873.838	0.83
874.004	-1.75
874.171	0.09
874.337	1.32
874.503	1.88
874.67	0.3
874.836	-0.77
875.002	2.13
875.169	1.1
875.335	1.73
875.501	0.23
875.668	1.25
875.834	0.16
876	-0.33
876.166	1.61
876.332	0.47
876.499	2.95
876.665	-0.72
876.831	0.97
876.997	4.09
877.163	0.37
877.329	-0.47
877.495	-1.26
877.662	1.98
877.828	-0.73
877.994	0.1
878.16	-0.01
878.326	-1.97
878.492	-0.79
878.658	-0.98
878.824	-0.09
878.99	1.47
879.156	-1.76
879.322	1.93
879.487	0.02
879.653	0.06
879.819	2.17
879.985	-1.26
880.151	2.22
880.317	1
880.483	-0.26
880.648	0.92
880.814	-1.32
880.98	0.45
881.146	-3.39
881.312	-1.1
881.477	-0.54
881.643	0.78
881.809	2.34
881.974	2.34
882.14	-0.88
882.306	1.04
882.471	1.64
882.637	-1.93
882.803	1.52
882.968	1.71
883.134	4.89
883.299	2.19
883.465	0
883.63	1.72
883.796	0.36
883.961	3.21
884.127	1.03
884.292	-3.61
884.458	-1.16
884.623	-1.16
