Data from Apollo_Calib_20240827__AbsoluteIrradiance__312__04-21-00-051.txt Node

Date: Wed Aug 28 04:21:00 BST 2024
User: biology
Spectrometer: FLMT08252
Trigger mode: 0
Integration Time (sec): 5.000000E-1
Scans to average: 5
Electric dark correction enabled: true
Nonlinearity correction enabled: false
Boxcar width: 0
XAxis mode: Wavelengths
Number of Pixels in Spectrum: 3648
>>>>>Begin Spectral Data<<<<<
179.588	-0
179.809	-0
180.03	-0
180.251	-0
180.473	-0
180.694	0
180.915	0
181.136	-0
181.357	0
181.578	-0
181.799	-0
182.02	-0
182.241	-0
182.462	0
182.683	0
182.904	-0
183.125	0
183.346	0
183.567	-0
183.788	-0
184.009	-0
184.23	0
184.451	0
184.672	-0
184.892	-0
185.113	-0
185.334	0
185.555	-0
185.776	-0
185.996	0
186.217	-0
186.438	0
186.659	-0
186.879	0
187.1	-0
187.321	-0
187.541	-0
187.762	-0
187.983	-0
188.203	-0
188.424	-0
188.644	-0
188.865	0
189.086	-0
189.306	-0
189.527	0
189.747	-0
189.968	-0
190.188	-0
190.409	-0
190.629	0
190.849	-0
191.07	-0
191.29	0
191.511	-0
191.731	-0
191.951	-0
192.172	-0
192.392	-0
192.612	0
192.833	-0
193.053	-0
193.273	0
193.493	-0
193.714	-0
193.934	0
194.154	0
194.374	-0
194.594	0
194.815	-0
195.035	0
195.255	0
195.475	-0
195.695	0
195.915	0
196.135	-0
196.355	0
196.575	0
196.795	-0
197.015	-0
197.235	-0
197.455	-0
197.675	0
197.895	-0
198.115	-0
198.335	0
198.555	0
198.775	0
198.995	0
199.214	0
199.434	-0
199.654	-0
199.874	-0
200.094	0.53
200.313	-0.33
200.533	-1
200.753	-1.02
200.973	0.6
201.192	0.98
201.412	-0.58
201.632	-0.33
201.851	0.5
202.071	-0.22
202.291	-0.52
202.51	-1.16
202.73	0.44
202.95	-0.32
203.169	-0.82
203.389	-0.44
203.608	-0.12
203.828	-0.56
204.047	-0.48
204.267	0.22
204.486	0.21
204.706	0.21
204.925	-0.5
205.145	-0.4
205.364	0.04
205.583	0.72
205.803	-0.32
206.022	-0.48
206.242	0.03
206.461	0.18
206.68	-0.47
206.9	-0.15
207.119	0.48
207.338	0.4
207.557	-0.36
207.777	-0.21
207.996	-0.32
208.215	0.28
208.434	-0.24
208.654	-0.56
208.873	-0.15
209.092	0.34
209.311	-0.27
209.53	-0.2
209.749	-0.29
209.968	-0.25
210.187	-0.31
210.407	-0.5
210.626	-0.14
210.845	0.16
211.064	-0.1
211.283	-0.31
211.502	0.16
211.721	-0.02
211.94	-0.31
212.159	0.18
212.377	0.05
212.596	0.11
212.815	0.09
213.034	-0.06
213.253	0.43
213.472	0.21
213.691	-0.4
213.91	-0.4
214.128	-0.32
214.347	0.15
214.566	-0.45
214.785	-0.47
215.003	0.04
215.222	0.05
215.441	-0.16
215.66	-0.36
215.878	-0.11
216.097	0.13
216.316	-0.18
216.534	-0.19
216.753	0
216.972	-0.12
217.19	0.07
217.409	-0.29
217.627	-0.08
217.846	-0.19
218.064	-0.07
218.283	-0.2
218.501	0.45
218.72	0.04
218.938	-0.33
219.157	-0.13
219.375	0.03
219.594	-0.05
219.812	-0.23
220.031	-0.1
220.249	0.21
220.467	0.17
220.686	-0.19
220.904	-0.29
221.122	-0.15
221.341	0.22
221.559	-0.03
221.777	-0.25
221.995	0
222.214	-0
222.432	-0.19
222.65	0.1
222.868	0.11
223.086	-0
223.305	0.03
223.523	-0.05
223.741	0.18
223.959	-0.22
224.177	-0.21
224.395	-0.05
224.613	0.04
224.831	0.18
225.049	-0.29
225.267	-0.14
225.485	-0
225.703	-0.17
225.921	-0.09
226.139	-0.04
226.357	0.18
226.575	-0.05
226.793	-0.12
227.011	0.46
227.229	-0.07
227.447	0.28
227.665	-0.22
227.883	-0.36
228.1	-0.04
228.318	0
228.536	-0.28
228.754	-0.26
228.972	0.07
229.189	0.15
229.407	-0.07
229.625	-0.02
229.843	0.02
230.06	0.1
230.278	-0.3
230.496	-0.01
230.713	-0.04
230.931	-0.02
231.149	-0.17
231.366	-0.31
231.584	-0.01
231.801	0.29
232.019	-0.07
232.236	-0.2
232.454	-0.18
232.671	0.1
232.889	-0.05
233.106	-0.24
233.324	-0.03
233.541	-0.06
233.759	-0.12
233.976	-0.11
234.194	-0.02
234.411	0.04
234.628	-0.25
234.846	-0.09
235.063	0.03
235.28	-0.08
235.498	-0.1
235.715	-0.1
235.932	0.1
236.149	-0.03
236.367	-0.14
236.584	-0.08
236.801	-0.17
237.018	0.08
237.236	-0.09
237.453	-0.22
237.67	0.02
237.887	-0.01
238.104	-0.11
238.321	-0.14
238.538	-0.06
238.755	0.12
238.973	-0.27
239.19	-0.03
239.407	-0.03
239.624	0.01
239.841	-0.18
240.058	-0.13
240.275	0.12
240.492	-0.13
240.709	-0.05
240.925	-0.06
241.142	0.02
241.359	0.02
241.576	-0.13
241.793	-0.04
242.01	-0.11
242.227	-0.01
242.444	0.05
242.66	0.02
242.877	-0.04
243.094	-0.1
243.311	-0.03
243.527	-0.12
243.744	0.14
243.961	0.05
244.178	-0.17
244.394	-0.07
244.611	0.12
244.828	0.16
245.044	-0.12
245.261	-0.01
245.477	-0.02
245.694	0.04
245.911	-0.11
246.127	-0.03
246.344	0.16
246.56	0.06
246.777	-0.07
246.993	-0.07
247.21	0.02
247.426	0.06
247.643	-0.09
247.859	-0.14
248.076	-0.02
248.292	0.2
248.508	-0.06
248.725	-0.02
248.941	-0.01
249.157	0.11
249.374	-0.12
249.59	0.02
249.806	-0.01
250.023	0.01
250.239	-0.11
250.455	-0.08
250.671	-0.08
250.888	0.04
251.104	0.01
251.32	-0.1
251.536	-0.01
251.752	-0.08
251.969	-0.04
252.185	-0.02
252.401	0.18
252.617	-0.03
252.833	-0.07
253.049	-0.05
253.265	-0.05
253.481	-0.02
253.697	-0.06
253.913	-0.12
254.129	0.03
254.345	-0.01
254.561	-0.01
254.777	-0.06
254.993	0.06
255.209	0.01
255.425	-0.03
255.641	-0.12
255.857	0.06
256.073	-0.02
256.288	-0.11
256.504	-0.11
256.72	0.12
256.936	0.1
257.152	-0.07
257.367	-0.07
257.583	0.04
257.799	0.05
258.015	-0.06
258.23	-0.05
258.446	0.2
258.662	-0.02
258.877	-0.06
259.093	-0.07
259.309	-0
259.524	0.04
259.74	-0.08
259.955	-0.14
260.171	-0.07
260.387	-0.02
260.602	0.03
260.818	0.01
261.033	-0.11
261.249	-0.08
261.464	-0.04
261.68	-0.13
261.895	0.08
262.11	0.08
262.326	-0.06
262.541	-0.07
262.757	0.06
262.972	0.05
263.187	0.07
263.403	-0
263.618	0.06
263.833	-0.03
264.049	-0.08
264.264	-0.05
264.479	0.08
264.694	0.12
264.91	-0.09
265.125	-0.06
265.34	0.06
265.555	0.11
265.77	0.02
265.986	-0
266.201	0.06
266.416	0.14
266.631	-0.05
266.846	-0.07
267.061	-0.02
267.276	0.03
267.491	-0.17
267.706	0.05
267.921	0
268.136	-0.03
268.351	0.01
268.566	-0.1
268.781	0.12
268.996	0.03
269.211	-0.04
269.426	-0.09
269.641	-0.02
269.856	0.07
270.071	-0.12
270.285	-0.13
270.5	0.07
270.715	0.07
270.93	-0.02
271.145	-0.02
271.359	0.09
271.574	-0.01
271.789	0
272.004	-0.03
272.218	-0.03
272.433	0.06
272.648	-0.14
272.862	0.06
273.077	0.02
273.292	0.04
273.506	-0.09
273.721	-0.02
273.936	0.07
274.15	0.08
274.365	-0.01
274.579	0.03
274.794	0.04
275.008	0.08
275.223	-0.1
275.437	0.07
275.652	-0
275.866	0.07
276.081	0.02
276.295	-0.01
276.509	0
276.724	-0
276.938	0.04
277.153	0.02
277.367	-0.03
277.581	-0.04
277.796	-0.07
278.01	-0.08
278.224	0.06
278.438	0.08
278.653	-0.07
278.867	-0.05
279.081	-0.15
279.295	0.07
279.51	0.03
279.724	-0.09
279.938	-0.01
280.152	0.07
280.366	-0.02
280.58	-0.06
280.794	0.1
281.008	0.02
281.222	0.05
281.437	0.08
281.651	0.03
281.865	-0
282.079	-0.03
282.293	-0.12
282.507	-0.01
282.721	0.02
282.935	-0.03
283.148	-0.08
283.362	-0.08
283.576	-0.08
283.79	-0.04
284.004	-0.07
284.218	0.06
284.432	-0
284.646	0.01
284.859	-0.06
285.073	-0.04
285.287	-0.02
285.501	-0.05
285.714	-0.01
285.928	-0.02
286.142	0.02
286.356	-0.04
286.569	-0.05
286.783	0.07
286.997	0
287.21	-0.01
287.424	0.02
287.637	0.01
287.851	-0.05
288.065	0.07
288.278	0
288.492	-0.03
288.705	-0.02
288.919	0.02
289.132	-0.08
289.346	0.08
289.559	-0.08
289.773	-0.07
289.986	-0
290.2	-0.02
290.413	0.02
290.626	-0.02
290.84	-0.03
291.053	0.02
291.267	0.07
291.48	-0.02
291.693	-0.04
291.906	-0.05
292.12	-0.03
292.333	-0.05
292.546	-0.01
292.76	0.1
292.973	0.04
293.186	0.04
293.399	-0.04
293.612	0.03
293.826	0.03
294.039	-0.01
294.252	-0.05
294.465	0.04
294.678	0.03
294.891	-0.02
295.104	-0.02
295.317	-0.02
295.53	0.01
295.743	-0.03
295.956	-0.04
296.169	0.04
296.382	0.05
296.595	-0.02
296.808	-0.05
297.021	0.08
297.234	0.03
297.447	0.05
297.66	0.01
297.873	0.07
298.086	0.01
298.299	-0.07
298.511	-0.05
298.724	-0
298.937	-0.04
299.15	-0.04
299.363	0.03
299.575	0.05
299.788	0.04
300.001	0.02
300.213	-0.08
300.426	0.01
300.639	-0.01
300.852	-0.02
301.064	0.02
301.277	0.08
301.489	0.05
301.702	0.01
301.915	0.01
302.127	0.04
302.34	0.03
302.552	0.03
302.765	-0.04
302.977	0.01
303.19	-0
303.402	-0.02
303.615	-0.02
303.827	-0.01
304.04	-0.01
304.252	0.01
304.464	-0.02
304.677	0.1
304.889	0.02
305.102	-0.08
305.314	-0.04
305.526	-0.02
305.739	-0.01
305.951	-0.06
306.163	-0.03
306.375	0.06
306.588	-0.07
306.8	-0.03
307.012	-0.07
307.224	0.04
307.436	0.06
307.649	-0.12
307.861	0.03
308.073	0.06
308.285	-0.03
308.497	-0.03
308.709	-0
308.921	0.03
309.133	0.03
309.346	-0.01
309.558	-0.03
309.77	0.07
309.982	0.1
310.194	0.05
310.406	-0.03
310.617	0.06
310.829	0.04
311.041	0.05
311.253	-0.04
311.465	0.02
311.677	0.02
311.889	-0.03
312.101	-0.04
312.313	0.02
312.524	0.08
312.736	-0.04
312.948	-0.04
313.16	0.09
313.372	0.01
313.583	-0
313.795	-0.04
314.007	-0.06
314.218	0.04
314.43	-0.01
314.642	-0.02
314.853	-0.08
315.065	0.07
315.277	-0.01
315.488	-0.02
315.7	0.05
315.912	0.04
316.123	-0.02
316.335	-0.04
316.546	0.16
316.758	-0.01
316.969	-0.02
317.181	0.01
317.392	-0.02
317.604	0.1
317.815	-0.06
318.026	-0.06
318.238	-0.02
318.449	-0.01
318.661	-0.07
318.872	-0.07
319.083	-0.02
319.295	0.02
319.506	-0.04
319.717	0.02
319.929	0.03
320.14	0.04
320.351	-0.02
320.562	-0.06
320.774	0.01
320.985	-0.02
321.196	-0.05
321.407	-0.06
321.618	0.05
321.829	0.05
322.041	0.02
322.252	0.03
322.463	0.07
322.674	0.02
322.885	-0.09
323.096	0.01
323.307	-0.04
323.518	0
323.729	-0.04
323.94	-0.01
324.151	-0.02
324.362	-0.01
324.573	0
324.784	-0.05
324.995	0.07
325.206	-0.02
325.417	-0
325.628	-0.03
325.838	0.02
326.049	-0.02
326.26	-0.02
326.471	-0.03
326.682	0.05
326.892	0
327.103	-0.07
327.314	-0.07
327.525	0.06
327.735	0.03
327.946	-0.04
328.157	-0.03
328.368	0.01
328.578	-0.02
328.789	0.02
328.999	-0.02
329.21	-0
329.421	0.04
329.631	-0.03
329.842	-0.01
330.052	0.05
330.263	0.02
330.473	0.01
330.684	0.01
330.894	-0.02
331.105	0
331.315	-0.03
331.526	-0.05
331.736	0.06
331.947	-0.03
332.157	-0.03
332.367	-0.07
332.578	-0.01
332.788	0.03
332.999	0.05
333.209	-0.02
333.419	-0.04
333.629	0.02
333.84	-0
334.05	-0.02
334.26	0.04
334.47	0.07
334.681	0.04
334.891	-0.06
335.101	0.04
335.311	0.07
335.521	0.02
335.732	-0.05
335.942	0.07
336.152	-0
336.362	0.01
336.572	0.05
336.782	0.04
336.992	-0.03
337.202	-0.01
337.412	-0.03
337.622	-0.01
337.832	0
338.042	-0.02
338.252	-0.04
338.462	-0.03
338.672	0.03
338.882	-0.02
339.092	-0.02
339.302	0.05
339.511	0.07
339.721	-0.03
339.931	-0.04
340.141	0.04
340.351	0.07
340.561	0.01
340.77	-0.05
340.98	-0.01
341.19	0.02
341.4	-0.02
341.609	-0.07
341.819	-0.02
342.029	-0.02
342.238	-0.02
342.448	-0.01
342.658	0.01
342.867	-0.02
343.077	0.01
343.286	0.04
343.496	0.03
343.706	0.05
343.915	-0.01
344.125	-0.02
344.334	0.01
344.544	-0.04
344.753	-0.05
344.963	-0.02
345.172	-0.03
345.381	-0
345.591	-0.03
345.8	-0
346.01	0.06
346.219	-0.01
346.428	-0.13
346.638	0.02
346.847	0.02
347.056	0.05
347.266	-0.04
347.475	-0.05
347.684	0.03
347.893	0.03
348.103	0.01
348.312	0
348.521	-0.01
348.73	0.03
348.94	-0
349.149	-0.02
349.358	-0.02
349.567	-0.04
349.776	-0.07
349.985	-0.02
350.194	0.02
350.403	0.07
350.612	-0.05
350.821	-0.03
351.03	-0.01
351.239	-0.05
351.448	0.03
351.657	-0.03
351.866	0.06
352.075	0.04
352.284	0.04
352.493	-0.05
352.702	0.05
352.911	0.06
353.12	0.01
353.329	0
353.538	0.02
353.746	-0.02
353.955	-0.01
354.164	0.01
354.373	-0.04
354.582	0.01
354.79	0.02
354.999	-0.01
355.208	-0.03
355.416	0.06
355.625	-0.02
355.834	-0.02
356.042	0.01
356.251	-0.01
356.46	-0.05
356.668	0.05
356.877	0.1
357.085	0.06
357.294	-0.09
357.503	0.02
357.711	-0.01
357.92	0.15
358.128	-0.02
358.337	-0.04
358.545	-0.01
358.754	-0
358.962	0.01
359.17	-0.01
359.379	0.04
359.587	0.03
359.796	-0.04
360.004	0.06
360.212	-0
360.421	0.02
360.629	0
360.837	0.01
361.046	0.06
361.254	0.13
361.462	0.01
361.67	-0.01
361.879	0.01
362.087	0.08
362.295	0.02
362.503	-0.03
362.711	-0.05
362.92	-0.04
363.128	-0.02
363.336	-0.07
363.544	-0.07
363.752	-0
363.96	-0.01
364.168	-0.03
364.376	-0
364.584	0.01
364.792	-0.01
365	0.01
365.208	0.01
365.416	0
365.624	0
365.832	-0.01
366.04	0.05
366.248	0.02
366.456	0.01
366.664	-0.01
366.872	-0.04
367.079	0.01
367.287	0.01
367.495	-0
367.703	0.01
367.911	-0.03
368.118	-0.03
368.326	0.02
368.534	-0.06
368.742	0.06
368.949	-0.06
369.157	-0.06
369.365	0.03
369.572	-0
369.78	-0.06
369.988	0.04
370.195	0.02
370.403	0.02
370.61	-0.04
370.818	0.03
371.026	0.05
371.233	-0.02
371.441	0
371.648	0.01
371.856	0.01
372.063	0.04
372.271	-0.01
372.478	-0.01
372.685	-0.05
372.893	0.01
373.1	0.01
373.308	-0.02
373.515	0.09
373.722	0.03
373.93	-0.01
374.137	0.02
374.344	0.06
374.552	0.06
374.759	-0.01
374.966	0.05
375.173	-0.03
375.381	0.05
375.588	-0.01
375.795	-0.05
376.002	-0.04
376.209	-0.04
376.417	-0.07
376.624	0
376.831	0.03
377.038	-0.02
377.245	-0.11
377.452	0.01
377.659	0.03
377.866	-0.03
378.073	-0.04
378.28	-0.01
378.487	0.05
378.694	-0
378.901	-0.03
379.108	-0.01
379.315	0.04
379.522	0.04
379.729	-0.01
379.936	-0.01
380.143	0.01
380.35	-0.01
380.557	-0.01
380.763	-0.03
380.97	0.02
381.177	0.03
381.384	0.06
381.591	-0.03
381.797	0.03
382.004	0.03
382.211	0.01
382.418	-0.03
382.624	0.03
382.831	0.02
383.038	-0.04
383.244	-0.02
383.451	-0.01
383.658	0.02
383.864	-0.02
384.071	-0.05
384.277	0.07
384.484	-0.07
384.69	0.05
384.897	-0.08
385.103	-0.03
385.31	-0.03
385.516	-0.02
385.723	-0.02
385.929	0.01
386.136	-0.04
386.342	0.03
386.549	-0.03
386.755	0.06
386.961	0.03
387.168	-0.06
387.374	-0.03
387.58	-0
387.787	0.01
387.993	-0.04
388.199	-0.02
388.406	-0.03
388.612	0
388.818	-0.03
389.024	-0.03
389.231	0.02
389.437	0.06
389.643	0.04
389.849	0
390.055	0.01
390.261	0.01
390.467	0.03
390.674	-0.03
390.88	-0.02
391.086	0.03
391.292	-0.06
391.498	-0
391.704	-0
391.91	-0.04
392.116	0.01
392.322	-0.08
392.528	0
392.734	-0
392.94	-0
393.146	-0.02
393.352	-0.03
393.557	-0.02
393.763	-0.05
393.969	0.02
394.175	0
394.381	0.02
394.587	-0.07
394.792	0.01
394.998	0.04
395.204	0.06
395.41	-0.05
395.615	-0.01
395.821	0.03
396.027	0.02
396.233	-0.05
396.438	0.03
396.644	0.1
396.85	0.04
397.055	-0.03
397.261	-0.03
397.466	0.08
397.672	-0.02
397.878	0.02
398.083	0.04
398.289	-0.02
398.494	0.06
398.7	0.05
398.905	-0.07
399.111	0.05
399.316	-0.05
399.522	-0.02
399.727	-0
399.932	-0.02
400.138	0.01
400.343	0.04
400.549	0.01
400.754	0.02
400.959	0.01
401.165	-0.05
401.37	0.02
401.575	-0.02
401.78	0.03
401.986	-0.06
402.191	0.03
402.396	0.01
402.601	0.04
402.807	0.05
403.012	-0.01
403.217	0.02
403.422	0.01
403.627	0
403.832	-0.01
404.037	0.02
404.243	0.04
404.448	0
404.653	0.01
404.858	0.02
405.063	0.03
405.268	-0.02
405.473	-0.02
405.678	-0.03
405.883	0.13
406.088	0.01
406.293	-0.01
406.498	-0
406.703	0.03
406.907	-0.06
407.112	-0.04
407.317	0.01
407.522	0.04
407.727	-0.03
407.932	0.02
408.136	0.07
408.341	-0.02
408.546	0.01
408.751	-0.01
408.956	-0.03
409.16	0.06
409.365	0
409.57	-0.01
409.774	0.02
409.979	0.02
410.184	0.03
410.388	-0.05
410.593	0.07
410.798	0.04
411.002	-0.07
411.207	0.04
411.411	0.05
411.616	-0.01
411.82	-0.02
412.025	0.05
412.229	-0.04
412.434	0.11
412.638	0.01
412.843	-0.01
413.047	0.03
413.252	-0.04
413.456	-0
413.66	0.1
413.865	-0.08
414.069	0.06
414.273	-0
414.478	-0.02
414.682	0
414.886	0
415.091	-0.04
415.295	-0.02
415.499	0.06
415.703	0
415.908	0.06
416.112	-0.09
416.316	0.07
416.52	-0.01
416.724	-0.04
416.929	-0.04
417.133	0.11
417.337	0.03
417.541	0.03
417.745	-0.03
417.949	0.05
418.153	0.01
418.357	-0.01
418.561	0.11
418.765	0.06
418.969	0.16
419.173	0.1
419.377	0.01
419.581	0.15
419.785	0.05
419.989	0.01
420.193	0.04
420.397	0.05
420.601	0.13
420.804	0.13
421.008	0.1
421.212	0.05
421.416	0.14
421.62	0.1
421.823	0.08
422.027	0.23
422.231	0.1
422.435	0.07
422.638	0.08
422.842	0.1
423.046	0.08
423.249	0.14
423.453	0.17
423.657	0.2
423.86	0.14
424.064	0.13
424.268	0.22
424.471	0.12
424.675	0.21
424.878	0.24
425.082	0.15
425.285	0.22
425.489	0.18
425.692	0.22
425.896	0.15
426.099	0.18
426.303	0.2
426.506	0.12
426.71	0.25
426.913	0.35
427.116	0.29
427.32	0.21
427.523	0.24
427.726	0.33
427.93	0.26
428.133	0.27
428.336	0.24
428.54	0.28
428.743	0.32
428.946	0.34
429.149	0.32
429.353	0.31
429.556	0.31
429.759	0.3
429.962	0.26
430.165	0.32
430.368	0.3
430.571	0.32
430.775	0.36
430.978	0.34
431.181	0.37
431.384	0.38
431.587	0.3
431.79	0.36
431.993	0.41
432.196	0.44
432.399	0.36
432.602	0.46
432.805	0.37
433.008	0.46
433.211	0.43
433.414	0.52
433.616	0.49
433.819	0.48
434.022	0.39
434.225	0.55
434.428	0.55
434.631	0.68
434.833	0.55
435.036	0.51
435.239	0.66
435.442	0.59
435.645	0.51
435.847	0.64
436.05	0.67
436.253	0.64
436.455	0.54
436.658	0.64
436.861	0.73
437.063	0.66
437.266	0.63
437.468	0.74
437.671	0.87
437.874	0.75
438.076	0.69
438.279	0.72
438.481	0.76
438.684	0.83
438.886	0.85
439.089	0.78
439.291	0.93
439.494	1
439.696	0.9
439.899	0.99
440.101	1.07
440.303	0.96
440.506	1.13
440.708	1.08
440.91	1.18
441.113	1.17
441.315	1.27
441.517	1.18
441.72	1.36
441.922	1.24
442.124	1.31
442.326	1.39
442.529	1.46
442.731	1.37
442.933	1.54
443.135	1.44
443.337	1.47
443.539	1.57
443.742	1.56
443.944	1.69
444.146	1.57
444.348	1.67
444.55	1.67
444.752	1.72
444.954	1.74
445.156	1.71
445.358	1.83
445.56	1.96
445.762	1.9
445.964	1.93
446.166	1.89
446.368	1.91
446.57	2.03
446.772	1.96
446.974	1.95
447.175	2.06
447.377	1.98
447.579	2.07
447.781	1.99
447.983	2.08
448.184	2
448.386	2.12
448.588	1.95
448.79	2.04
448.991	2.06
449.193	2.09
449.395	1.99
449.597	2.02
449.798	1.98
450	1.98
450.202	1.91
450.403	1.94
450.605	2.03
450.806	1.93
451.008	1.77
451.21	1.83
451.411	1.77
451.613	1.68
451.814	1.68
452.016	1.79
452.217	1.58
452.419	1.66
452.62	1.59
452.821	1.54
453.023	1.59
453.224	1.49
453.426	1.42
453.627	1.35
453.828	1.34
454.03	1.29
454.231	1.35
454.432	1.25
454.634	1.37
454.835	1.2
455.036	1.11
455.238	1.14
455.439	1.12
455.64	1.06
455.841	1.02
456.042	1.18
456.244	1.01
456.445	0.92
456.646	0.88
456.847	0.82
457.048	0.89
457.249	0.95
457.45	1.07
457.651	0.8
457.852	0.78
458.054	0.7
458.255	0.71
458.456	0.76
458.657	0.71
458.858	0.6
459.058	0.68
459.259	0.72
459.46	0.66
459.661	0.58
459.862	0.75
460.063	0.61
460.264	0.68
460.465	0.49
460.666	0.71
460.866	0.54
461.067	0.53
461.268	0.58
461.469	0.53
461.67	0.48
461.87	0.5
462.071	0.51
462.272	0.47
462.473	0.46
462.673	0.5
462.874	0.43
463.075	0.49
463.275	0.41
463.476	0.52
463.676	0.47
463.877	0.45
464.078	0.41
464.278	0.42
464.479	0.39
464.679	0.47
464.88	0.37
465.08	0.5
465.281	0.39
465.481	0.31
465.682	0.4
465.882	0.38
466.083	0.35
466.283	0.35
466.483	0.32
466.684	0.26
466.884	0.24
467.085	0.29
467.285	0.3
467.485	0.25
467.686	0.27
467.886	0.22
468.086	0.26
468.286	0.26
468.487	0.24
468.687	0.18
468.887	0.18
469.087	0.28
469.287	0.24
469.488	0.15
469.688	0.24
469.888	0.22
470.088	0.27
470.288	0.24
470.488	0.22
470.688	0.15
470.888	0.14
471.088	0.13
471.288	0.22
471.488	0.21
471.688	0.14
471.888	0.11
472.088	0.22
472.288	0.17
472.488	0.11
472.688	0.12
472.888	0.17
473.088	0.15
473.288	0.12
473.488	0.15
473.688	0.19
473.887	0.12
474.087	0.08
474.287	0.14
474.487	0.1
474.687	0.14
474.886	0.11
475.086	0.1
475.286	0.09
475.486	0.09
475.685	0.11
475.885	0.06
476.085	0.08
476.284	0.1
476.484	0.06
476.684	0.13
476.883	0.16
477.083	0.11
477.282	0.05
477.482	0.16
477.681	0.13
477.881	0.08
478.08	0.04
478.28	0.07
478.479	0.08
478.679	0.17
478.878	0.01
479.078	0.06
479.277	0.05
479.477	0.08
479.676	0.11
479.875	0.05
480.075	-0
480.274	0.1
480.473	0.07
480.673	0.01
480.872	0.07
481.071	0.07
481.271	0.06
481.47	0.03
481.669	0.05
481.868	0.04
482.067	0.01
482.267	0.02
482.466	-0
482.665	0.03
482.864	-0.02
483.063	0.01
483.262	0.05
483.461	0.1
483.661	0.05
483.86	0.05
484.059	0.07
484.258	0.04
484.457	0.02
484.656	0.03
484.855	0.1
485.054	-0.03
485.253	-0.01
485.452	-0
485.651	0.04
485.849	0.01
486.048	-0.01
486.247	-0
486.446	0.05
486.645	-0.01
486.844	-0.01
487.043	-0.01
487.241	0.05
487.44	-0
487.639	0.02
487.838	0.04
488.037	0.02
488.235	0.09
488.434	0.03
488.633	-0.03
488.831	0.04
489.03	0.09
489.229	0
489.427	0
489.626	0.03
489.825	0.08
490.023	-0
490.222	-0.01
490.42	0.04
490.619	0.06
490.817	0.01
491.016	0.01
491.214	0.03
491.413	-0.01
491.611	-0.01
491.81	-0.01
492.008	0.06
492.207	0.04
492.405	0
492.604	-0.02
492.802	0.01
493	0.02
493.199	0.03
493.397	0.01
493.595	0.02
493.794	0
493.992	0.06
494.19	-0
494.388	0.02
494.587	-0.02
494.785	0.02
494.983	-0.02
495.181	0.02
495.379	0.04
495.578	-0.02
495.776	0.02
495.974	0.01
496.172	-0
496.37	-0
496.568	-0.03
496.766	-0.01
496.964	0.04
497.162	0.01
497.36	-0.01
497.558	0.03
497.756	0.02
497.954	-0.01
498.152	-0.01
498.35	0.01
498.548	-0
498.746	-0
498.944	-0.02
499.142	-0
499.34	-0.02
499.538	-0
499.736	-0.02
499.933	0.04
500.131	0.03
500.329	0
500.527	0.05
500.725	0.04
500.922	0.03
501.12	0.01
501.318	-0
501.516	-0.01
501.713	0
501.911	-0
502.109	-0.03
502.306	0.02
502.504	-0
502.701	-0.03
502.899	0
503.097	0.04
503.294	-0.01
503.492	-0
503.689	0.02
503.887	0.02
504.084	0.05
504.282	0.01
504.479	-0.02
504.677	0
504.874	-0.01
505.072	-0
505.269	-0.02
505.466	-0
505.664	0.01
505.861	-0.05
506.059	-0.01
506.256	0.03
506.453	-0
506.651	0.03
506.848	0.02
507.045	0.01
507.242	-0
507.44	-0.02
507.637	0.01
507.834	-0.01
508.031	0.02
508.229	-0.03
508.426	0.01
508.623	0.02
508.82	-0.02
509.017	-0.01
509.214	-0.02
509.411	0.01
509.608	-0.02
509.805	-0.03
510.003	-0.01
510.2	-0.03
510.397	0.02
510.594	-0.01
510.791	-0.02
510.988	-0.02
511.184	0.04
511.381	-0.01
511.578	-0
511.775	0.02
511.972	0
512.169	0.01
512.366	-0.01
512.563	0.02
512.76	-0.01
512.956	0.01
513.153	-0.02
513.35	-0.01
513.547	-0
513.744	-0.04
513.94	-0.02
514.137	-0.02
514.334	0
514.53	0.01
514.727	0
514.924	0.06
515.12	-0.02
515.317	-0.02
515.514	-0.03
515.71	-0.02
515.907	-0.01
516.103	-0.01
516.3	0.01
516.497	0.02
516.693	0.02
516.89	-0.01
517.086	-0.01
517.283	0.05
517.479	-0
517.676	-0.03
517.872	0.01
518.068	-0.03
518.265	-0.04
518.461	-0.01
518.658	-0.02
518.854	0.01
519.05	-0.03
519.247	-0.01
519.443	-0
519.639	0.01
519.836	0.01
520.032	-0
520.228	-0.02
520.424	0.05
520.621	0.01
520.817	-0.02
521.013	-0.01
521.209	0
521.405	0.03
521.601	0
521.798	0
521.994	0.03
522.19	-0.01
522.386	-0.03
522.582	-0
522.778	-0.01
522.974	-0.01
523.17	-0
523.366	0.01
523.562	0.02
523.758	-0
523.954	-0.04
524.15	-0.01
524.346	0.01
524.542	-0.04
524.738	-0.03
524.934	-0.01
525.129	-0.01
525.325	0.02
525.521	-0.03
525.717	0.02
525.913	0.02
526.109	0.01
526.304	-0.01
526.5	0.01
526.696	0.01
526.892	-0
527.087	0
527.283	-0.03
527.479	0.01
527.674	-0.02
527.87	0.01
528.066	-0.03
528.261	0.03
528.457	0.02
528.653	-0.02
528.848	-0
529.044	0
529.239	0.01
529.435	0.01
529.63	0.02
529.826	0.05
530.021	0.01
530.217	0.01
530.412	-0.01
530.608	-0.04
530.803	-0.01
530.999	-0.04
531.194	-0.05
531.389	0.01
531.585	-0.07
531.78	-0.02
531.975	0.01
532.171	0.04
532.366	-0
532.561	-0
532.757	-0.04
532.952	-0.01
533.147	0.02
533.342	0
533.538	-0.03
533.733	0.01
533.928	-0.02
534.123	-0.01
534.318	-0.03
534.513	-0.02
534.709	-0.01
534.904	-0.01
535.099	-0.01
535.294	-0.01
535.489	-0.01
535.684	-0
535.879	-0.04
536.074	0.01
536.269	-0.02
536.464	-0
536.659	-0.04
536.854	-0.01
537.049	0.02
537.244	-0
537.439	-0.02
537.634	0.03
537.828	0
538.023	-0
538.218	-0.05
538.413	-0.03
538.608	-0.03
538.803	0.02
538.997	-0.03
539.192	0.02
539.387	0.01
539.582	-0
539.776	-0.03
539.971	-0.02
540.166	0
540.36	-0.02
540.555	-0.01
540.75	0.01
540.944	-0.02
541.139	-0.04
541.334	-0.01
541.528	-0.01
541.723	0.03
541.917	-0.02
542.112	-0.04
542.306	-0.01
542.501	-0.03
542.695	-0.01
542.89	-0.03
543.084	0.01
543.279	-0.01
543.473	-0.01
543.668	-0.01
543.862	-0
544.056	0.01
544.251	-0.01
544.445	0.02
544.64	-0.01
544.834	-0.05
545.028	0.01
545.222	0.02
545.417	0.01
545.611	-0.01
545.805	-0.02
546	-0.01
546.194	0.01
546.388	-0.04
546.582	-0
546.776	-0.02
546.97	0.01
547.165	0.03
547.359	0.02
547.553	-0.03
547.747	0.02
547.941	0.01
548.135	-0.01
548.329	0.01
548.523	0.01
548.717	-0.01
548.911	-0.03
549.105	0
549.299	-0.03
549.493	0.01
549.687	0.01
549.881	0
550.075	-0.02
550.269	-0.03
550.463	0.03
550.657	-0.02
550.85	0.02
551.044	-0.02
551.238	-0
551.432	-0.01
551.626	-0.04
551.82	0
552.013	-0.01
552.207	0
552.401	0.01
552.594	-0.01
552.788	-0.03
552.982	-0.03
553.176	-0.02
553.369	0.01
553.563	-0
553.756	-0.02
553.95	-0.03
554.144	-0.01
554.337	0.03
554.531	0.01
554.724	-0
554.918	-0.02
555.111	0.03
555.305	0
555.498	0.05
555.692	0.01
555.885	-0.02
556.079	-0
556.272	-0.02
556.466	0.03
556.659	-0.01
556.852	-0
557.046	-0.01
557.239	0.02
557.432	-0.04
557.626	-0.02
557.819	0.01
558.012	0.04
558.206	-0
558.399	-0.02
558.592	0.01
558.785	0.01
558.979	0.02
559.172	-0.02
559.365	0
559.558	0.02
559.751	-0
559.944	0.02
560.138	0
560.331	-0.02
560.524	-0.03
560.717	-0.01
560.91	0.01
561.103	0.02
561.296	0
561.489	0.01
561.682	-0.02
561.875	0.02
562.068	0.01
562.261	0
562.454	0.05
562.647	0.01
562.84	0.02
563.032	-0.01
563.225	0
563.418	-0.03
563.611	-0.02
563.804	-0
563.997	-0.02
564.19	-0.03
564.382	0.02
564.575	-0
564.768	0
564.961	-0.01
565.153	-0.02
565.346	0.01
565.539	0.02
565.731	0
565.924	0.01
566.117	-0.02
566.309	0
566.502	-0.02
566.695	-0.01
566.887	-0
567.08	-0.03
567.272	-0.03
567.465	-0.02
567.657	-0.02
567.85	0.02
568.042	0.01
568.235	0
568.427	-0.02
568.62	0.01
568.812	0.02
569.005	0.01
569.197	-0.05
569.389	0
569.582	0
569.774	0.01
569.966	-0.03
570.159	-0.01
570.351	0.02
570.543	-0.03
570.736	-0.01
570.928	-0.03
571.12	0.01
571.312	-0.04
571.505	-0.06
571.697	0.03
571.889	-0.03
572.081	-0.02
572.273	-0.04
572.465	0.04
572.658	-0.03
572.85	0.01
573.042	-0.01
573.234	0
573.426	0.04
573.618	-0.05
573.81	-0.01
574.002	0.02
574.194	0.02
574.386	-0.04
574.578	-0.08
574.77	-0.04
574.962	0
575.154	-0.05
575.346	-0.02
575.538	-0.02
575.729	-0.03
575.921	-0.03
576.113	-0.01
576.305	0.02
576.497	-0.01
576.689	0
576.88	-0.04
577.072	0.01
577.264	0
577.456	-0
577.647	-0.08
577.839	0.03
578.031	0.03
578.223	-0.04
578.414	-0.06
578.606	0
578.798	-0.01
578.989	-0.03
579.181	-0.01
579.372	-0.01
579.564	-0.03
579.755	0
579.947	-0
580.139	0.01
580.33	-0.04
580.522	-0.02
580.713	-0.07
580.905	-0.01
581.096	0
581.287	-0.02
581.479	-0.01
581.67	0.04
581.862	-0.02
582.053	-0.03
582.244	-0.05
582.436	-0.03
582.627	0.01
582.818	-0.03
583.01	-0.04
583.201	0.02
583.392	0.04
583.583	-0
583.775	-0
583.966	-0.03
584.157	-0.02
584.348	-0.02
584.54	-0.07
584.731	-0.01
584.922	-0.01
585.113	-0.01
585.304	0.02
585.495	-0
585.686	-0.02
585.877	0.01
586.068	-0
586.259	-0
586.45	0.01
586.641	-0.02
586.832	-0.07
587.023	-0.01
587.214	-0.02
587.405	-0
587.596	-0.05
587.787	0.03
587.978	0.01
588.169	-0.01
588.36	-0.03
588.551	0.02
588.742	-0.03
588.932	-0.01
589.123	-0.02
589.314	0.03
589.505	0.01
589.696	-0.01
589.886	-0.04
590.077	-0.05
590.268	0.03
590.458	-0.04
590.649	-0.05
590.84	0.02
591.03	-0.03
591.221	-0.04
591.412	-0.05
591.602	0.01
591.793	0.05
591.984	-0.05
592.174	-0.01
592.365	0.07
592.555	-0.02
592.746	-0.02
592.936	0
593.127	0.02
593.317	0.06
593.508	-0.02
593.698	-0.06
593.889	0
594.079	-0.01
594.269	-0.04
594.46	-0.01
594.65	0.01
594.84	0.02
595.031	-0.04
595.221	-0
595.411	-0.08
595.602	0.02
595.792	-0.04
595.982	-0.05
596.172	0.06
596.363	0.02
596.553	-0.01
596.743	-0.02
596.933	-0.02
597.123	0
597.314	-0.02
597.504	-0.03
597.694	0.04
597.884	0.01
598.074	-0.02
598.264	-0.03
598.454	0.02
598.644	0
598.834	-0.02
599.024	-0.04
599.214	-0.04
599.404	0.02
599.594	-0.02
599.784	-0.02
599.974	0.07
600.164	0.02
600.354	-0.05
600.544	-0.05
600.734	-0.01
600.924	0.03
601.114	-0.05
601.303	-0.04
601.493	-0.02
601.683	-0.03
601.873	0.02
602.063	-0.06
602.252	0.03
602.442	-0.08
602.632	-0.05
602.821	-0.05
603.011	0.04
603.201	0.02
603.39	-0.03
603.58	-0.04
603.77	0.02
603.959	0
604.149	0.01
604.339	0
604.528	0.02
604.718	0.01
604.907	0
605.097	-0.02
605.286	-0.06
605.476	0.01
605.665	0.02
605.855	0
606.044	0.04
606.234	0.04
606.423	-0.02
606.612	-0.04
606.802	-0.03
606.991	0
607.181	-0
607.37	-0.04
607.559	-0.01
607.749	-0.03
607.938	-0
608.127	-0.01
608.316	-0.05
608.506	0.01
608.695	-0.02
608.884	-0.04
609.073	0
609.263	-0.01
609.452	0.01
609.641	0.01
609.83	-0.03
610.019	-0.01
610.208	-0.03
610.397	-0.02
610.586	0.01
610.775	-0.05
610.965	0
611.154	-0.04
611.343	0.01
611.532	-0.01
611.721	-0.05
611.91	-0.06
612.099	0.01
612.287	-0.03
612.476	-0.06
612.665	-0
612.854	-0.02
613.043	0.01
613.232	-0.04
613.421	-0.05
613.61	0.01
613.798	-0.04
613.987	0.03
614.176	-0.01
614.365	0.05
614.554	-0.02
614.742	-0
614.931	-0.01
615.12	0.02
615.309	-0.03
615.497	-0
615.686	-0.03
615.875	-0.02
616.063	-0
616.252	-0.04
616.44	-0.05
616.629	-0.01
616.818	0.03
617.006	-0.02
617.195	-0.01
617.383	0
617.572	-0.02
617.76	-0.03
617.949	-0.04
618.137	-0.02
618.326	0.03
618.514	-0.02
618.703	-0.04
618.891	0.03
619.079	-0.03
619.268	-0.02
619.456	-0.03
619.644	0.04
619.833	-0.04
620.021	-0.05
620.209	-0.07
620.398	0.01
620.586	-0.02
620.774	0.04
620.962	-0.01
621.151	0.05
621.339	-0.01
621.527	-0.06
621.715	-0.02
621.903	-0.03
622.092	-0.05
622.28	0
622.468	-0.02
622.656	-0
622.844	-0.01
623.032	-0.01
623.22	-0.06
623.408	0.04
623.596	0.01
623.784	-0.01
623.972	-0.03
624.16	-0.05
624.348	0.04
624.536	-0.03
624.724	-0.04
624.912	0.03
625.1	0
625.288	-0.06
625.476	-0.05
625.664	0.04
625.851	-0.04
626.039	-0.03
626.227	-0.03
626.415	-0.02
626.603	-0.09
626.79	-0.01
626.978	-0.01
627.166	0.01
627.354	-0.01
627.541	-0.04
627.729	-0.08
627.917	0.02
628.104	0.03
628.292	0
628.48	-0.02
628.667	0.03
628.855	-0
629.042	0.01
629.23	-0.04
629.418	-0.02
629.605	-0.04
629.793	-0.04
629.98	-0.04
630.168	-0.03
630.355	-0.01
630.543	-0.03
630.73	-0.06
630.917	0.01
631.105	0.04
631.292	-0.03
631.48	-0.03
631.667	0.08
631.854	0.02
632.042	0.01
632.229	-0.05
632.416	0
632.604	-0.02
632.791	-0.04
632.978	-0.02
633.165	-0.02
633.353	0.06
633.54	0.02
633.727	-0.08
633.914	-0.05
634.101	-0.09
634.289	0.02
634.476	-0.02
634.663	-0.05
634.85	0.04
635.037	-0.04
635.224	-0.06
635.411	0.04
635.598	0.03
635.785	-0.03
635.972	-0.03
636.159	0.02
636.346	-0.07
636.533	-0.01
636.72	-0.03
636.907	-0.01
637.094	0.02
637.281	-0.03
637.468	0.01
637.655	-0.02
637.842	-0.01
638.029	-0.03
638.215	0.04
638.402	-0.02
638.589	-0.08
638.776	-0.02
638.963	-0.03
639.149	-0
639.336	0.05
639.523	-0.04
639.709	-0.01
639.896	-0.04
640.083	0.05
640.27	0.01
640.456	-0.02
640.643	-0.01
640.829	-0.05
641.016	-0
641.203	-0.06
641.389	0.01
641.576	0.04
641.762	-0.02
641.949	-0.05
642.135	-0.02
642.322	-0.03
642.508	-0.07
642.695	-0.02
642.881	-0.04
643.068	-0.03
643.254	-0.01
643.441	-0.01
643.627	-0.03
643.813	-0.03
644	0.03
644.186	-0.03
644.372	0.01
644.559	0.03
644.745	-0.01
644.931	-0.04
645.118	-0.04
645.304	-0.04
645.49	-0.05
645.676	-0.04
645.862	-0.02
646.049	0.03
646.235	-0.01
646.421	0.04
646.607	0.09
646.793	-0.02
646.979	-0.01
647.165	0.01
647.352	-0.01
647.538	0.01
647.724	-0.01
647.91	-0.01
648.096	0.04
648.282	0.03
648.468	-0.05
648.654	-0.02
648.84	0.03
649.026	-0.02
649.212	-0.04
649.397	-0.04
649.583	-0.06
649.769	0.01
649.955	0.02
650.141	-0
650.327	0.03
650.513	-0.01
650.698	0
650.884	-0.1
651.07	0
651.256	-0
651.442	-0.01
651.627	-0.02
651.813	0.02
651.999	-0.02
652.184	0.02
652.37	-0.02
652.556	-0.05
652.741	0.04
652.927	-0.08
653.113	-0.02
653.298	-0.04
653.484	-0.01
653.669	-0.08
653.855	-0
654.04	0.01
654.226	-0.01
654.412	-0.06
654.597	-0.06
654.782	0.02
654.968	0.04
655.153	0.01
655.339	-0.03
655.524	-0.06
655.71	0.04
655.895	-0.05
656.08	-0.02
656.266	0.06
656.451	-0.01
656.636	-0.02
656.822	-0.02
657.007	-0.07
657.192	-0.03
657.378	-0.05
657.563	0
657.748	0.01
657.933	-0.02
658.118	-0.02
658.304	-0.05
658.489	-0
658.674	0
658.859	-0.06
659.044	-0.02
659.229	0.04
659.414	-0.02
659.599	-0.01
659.785	-0.06
659.97	-0.04
660.155	0.01
660.34	-0.01
660.525	-0.03
660.71	-0.03
660.895	0.01
661.08	-0.04
661.264	-0.06
661.449	0.03
661.634	0.05
661.819	0.01
662.004	0.04
662.189	-0.06
662.374	-0.05
662.559	-0.06
662.743	-0.04
662.928	-0.03
663.113	-0.01
663.298	-0.09
663.483	-0.05
663.667	-0.02
663.852	-0.03
664.037	0.03
664.221	-0.05
664.406	0.01
664.591	-0.03
664.775	0.04
664.96	-0.04
665.145	0.01
665.329	-0.01
665.514	-0.03
665.698	-0.02
665.883	-0.09
666.068	0.04
666.252	-0.01
666.437	-0.04
666.621	-0.03
666.806	0.01
666.99	-0.03
667.174	-0.05
667.359	0.07
667.543	-0.05
667.728	0.01
667.912	-0.1
668.096	0.02
668.281	-0.05
668.465	0
668.649	-0.02
668.834	-0.05
669.018	-0.01
669.202	-0.03
669.387	-0.04
669.571	0.03
669.755	-0.05
669.939	-0.01
670.124	-0.03
670.308	0.01
670.492	0.03
670.676	-0.01
670.86	-0.01
671.044	-0.08
671.228	-0.01
671.413	-0.06
671.597	-0.04
671.781	-0.08
671.965	0
672.149	-0.03
672.333	-0.02
672.517	-0.06
672.701	-0
672.885	-0.04
673.069	-0.09
673.253	0.06
673.437	-0.05
673.621	-0.05
673.804	-0
673.988	-0.04
674.172	-0
674.356	-0.08
674.54	-0.06
674.724	0.08
674.908	-0.07
675.091	0.02
675.275	-0.05
675.459	0.02
675.643	-0.02
675.826	0.01
676.01	0
676.194	-0.02
676.377	0.06
676.561	-0.02
676.745	0.03
676.928	-0.02
677.112	0.04
677.296	-0.09
677.479	-0.05
677.663	0
677.846	0.04
678.03	-0.02
678.213	-0.03
678.397	0.02
678.58	-0.02
678.764	-0.05
678.947	-0.03
679.131	-0.1
679.314	0
679.498	-0.02
679.681	-0.02
679.865	0.07
680.048	-0.06
680.231	-0.02
680.415	-0
680.598	-0.01
680.781	-0.05
680.965	-0.02
681.148	-0
681.331	-0.02
681.514	0.02
681.698	-0.03
681.881	-0
682.064	-0.01
682.247	0.04
682.43	-0.08
682.614	-0
682.797	0.04
682.98	0.04
683.163	-0.05
683.346	0.01
683.529	-0.03
683.712	-0.07
683.895	-0
684.078	-0.08
684.261	-0.05
684.444	0.03
684.627	-0
684.81	-0.05
684.993	-0.04
685.176	0.04
685.359	-0.04
685.542	-0.09
685.725	0.03
685.908	-0.05
686.091	-0.05
686.274	0.04
686.457	0.02
686.639	-0.01
686.822	0.05
687.005	-0.03
687.188	-0
687.371	0.08
687.553	0.05
687.736	0.01
687.919	0.08
688.102	0.05
688.284	-0.05
688.467	-0.04
688.65	-0.05
688.832	0.02
689.015	-0.02
689.197	-0.07
689.38	0.09
689.563	0.07
689.745	-0.06
689.928	-0.09
690.11	-0.02
690.293	-0.02
690.475	-0.07
690.658	-0.03
690.84	0.02
691.023	0.03
691.205	0
691.388	0.02
691.57	0.1
691.752	-0.05
691.935	-0.07
692.117	-0.06
692.3	-0.01
692.482	-0.04
692.664	-0.06
692.847	0.01
693.029	0.05
693.211	0.04
693.393	-0.02
693.576	-0.06
693.758	-0.06
693.94	-0.04
694.122	-0.03
694.304	0
694.487	-0.05
694.669	0.04
694.851	-0.05
695.033	-0.03
695.215	-0.09
695.397	-0.07
695.579	0.01
695.761	-0.07
695.943	-0.09
696.125	0.09
696.308	-0.02
696.49	-0.12
696.671	0.07
696.853	-0.03
697.035	0.11
697.217	-0.02
697.399	0.03
697.581	-0.05
697.763	-0.03
697.945	-0.06
698.127	-0.04
698.309	0.04
698.491	0.01
698.672	0.04
698.854	0.07
699.036	0.07
699.218	-0.07
699.399	0.02
699.581	0.07
699.763	-0.03
699.945	-0.06
700.126	-0.06
700.308	-0.05
700.49	0.01
700.671	-0.09
700.853	-0.06
701.035	-0.05
701.216	-0.04
701.398	-0.05
701.579	-0.01
701.761	0.09
701.943	-0.01
702.124	-0.08
702.306	-0.01
702.487	0.11
702.669	-0.03
702.85	-0.06
703.031	-0.05
703.213	0.06
703.394	0.01
703.576	-0.02
703.757	0.08
703.938	0.04
704.12	0.11
704.301	-0.01
704.483	-0.08
704.664	0
704.845	0.1
705.026	0.1
705.208	-0.02
705.389	-0.02
705.57	-0.01
705.751	-0.04
705.933	-0.04
706.114	-0
706.295	0
706.476	-0.1
706.657	0.08
706.838	0.05
707.02	0.07
707.201	-0.05
707.382	-0.06
707.563	0.03
707.744	-0.07
707.925	-0.07
708.106	-0.05
708.287	0.03
708.468	0.11
708.649	-0.06
708.83	0.04
709.011	-0.04
709.192	0
709.373	-0.13
709.554	0
709.734	0.07
709.915	0.01
710.096	-0.02
710.277	-0.15
710.458	-0.01
710.639	0.04
710.819	-0.15
711	-0.08
711.181	0.04
711.362	0.04
711.542	0.01
711.723	-0.06
711.904	0.04
712.085	-0.04
712.265	0.01
712.446	-0.08
712.627	0.04
712.807	-0.04
712.988	-0.01
713.168	-0.18
713.349	0.05
713.53	-0.14
713.71	-0.06
713.891	-0.1
714.071	-0.02
714.252	-0.11
714.432	-0.04
714.613	-0.07
714.793	-0.03
714.974	0.09
715.154	0.02
715.334	0.07
715.515	0.08
715.695	-0.06
715.876	-0.04
716.056	-0.12
716.236	-0.07
716.417	-0.01
716.597	-0.05
716.777	0.09
716.957	-0.01
717.138	0.01
717.318	-0.01
717.498	-0.09
717.678	0
717.859	0
718.039	-0.11
718.219	0.03
718.399	0.01
718.579	-0.06
718.759	-0.18
718.939	-0
719.12	0.04
719.3	-0.01
719.48	-0.14
719.66	-0.11
719.84	0.08
720.02	0.03
720.2	-0.07
720.38	-0.02
720.56	0.09
720.74	-0.07
720.92	-0.07
721.1	0.05
721.279	0.01
721.459	-0.03
721.639	-0.03
721.819	0.02
721.999	-0.09
722.179	0.06
722.359	-0.09
722.538	-0.03
722.718	-0
722.898	-0.02
723.078	-0.06
723.257	-0.09
723.437	-0.01
723.617	-0.06
723.797	-0.02
723.976	0.03
724.156	0.12
724.336	0.08
724.515	0.1
724.695	-0.1
724.874	0.04
725.054	0.08
725.234	-0.03
725.413	-0.02
725.593	-0.07
725.772	-0.11
725.952	-0.04
726.131	-0.13
726.311	-0.05
726.49	0.02
726.67	-0.16
726.849	-0.04
727.028	0.06
727.208	-0.02
727.387	-0.03
727.567	-0.16
727.746	-0.03
727.925	-0.02
728.105	-0.15
728.284	-0.05
728.463	-0.08
728.643	0.03
728.822	-0.12
729.001	-0.08
729.18	-0.02
729.359	0.03
729.539	-0.03
729.718	0.03
729.897	0.06
730.076	0.02
730.255	-0.14
730.434	-0.07
730.614	-0.15
730.793	-0.01
730.972	-0.05
731.151	-0.03
731.33	0.07
731.509	0.12
731.688	-0
731.867	-0.06
732.046	-0.1
732.225	0.2
732.404	-0.07
732.583	-0.15
732.762	-0.02
732.941	0.04
733.12	-0.01
733.298	0
733.477	0.08
733.656	-0.01
733.835	-0.18
734.014	0.06
734.193	-0.01
734.371	0.04
734.55	0.03
734.729	-0.15
734.908	-0.04
735.086	-0.02
735.265	0.1
735.444	-0.09
735.623	-0.13
735.801	-0.2
735.98	-0.01
736.159	-0.08
736.337	-0.04
736.516	-0.03
736.694	0.09
736.873	0.02
737.052	0.14
737.23	0.14
737.409	-0.05
737.587	0.19
737.766	-0.13
737.944	-0.13
738.123	-0.04
738.301	-0.06
738.479	-0.11
738.658	0.03
738.836	-0.22
739.015	0
739.193	0.04
739.371	-0.15
739.55	-0.01
739.728	-0.12
739.906	0.14
740.085	0.09
740.263	-0.01
740.441	-0.28
740.62	0.1
740.798	0.11
740.976	-0.02
741.154	-0.08
741.332	0.09
741.511	-0.04
741.689	-0.03
741.867	0.05
742.045	-0.06
742.223	-0.04
742.401	-0.01
742.579	-0.04
742.757	0.09
742.935	-0.1
743.114	-0.06
743.292	-0.09
743.47	-0.01
743.648	-0.03
743.826	-0.07
744.004	-0.01
744.181	-0.01
744.359	0.02
744.537	0.05
744.715	0.03
744.893	-0.01
745.071	-0.09
745.249	-0.12
745.427	-0.01
745.605	0.09
745.782	-0.03
745.96	0.03
746.138	0.07
746.316	0.07
746.493	-0.08
746.671	-0.04
746.849	-0.03
747.027	0
747.204	-0.14
747.382	0.02
747.56	-0.19
747.737	0.01
747.915	-0.11
748.093	-0.03
748.27	-0.12
748.448	-0.07
748.625	-0.1
748.803	-0.1
748.98	-0.06
749.158	-0.1
749.335	0.05
749.513	-0.07
749.69	-0.03
749.868	-0.1
750.045	0.04
750.223	-0.07
750.4	-0.13
750.578	0.08
750.755	0.02
750.932	-0.17
751.11	0.12
751.287	-0.15
751.464	0.04
751.642	-0.12
751.819	0.03
751.996	-0.03
752.173	-0.12
752.351	-0.16
752.528	-0.03
752.705	0.02
752.882	-0.07
753.06	-0.04
753.237	0.02
753.414	0.3
753.591	0.19
753.768	-0.07
753.945	-0.03
754.122	-0
754.299	-0.01
754.476	-0.1
754.654	-0.02
754.831	0.07
755.008	0.02
755.185	-0.06
755.362	-0.08
755.539	0.04
755.716	-0.07
755.892	-0.1
756.069	-0.04
756.246	0.03
756.423	-0.1
756.6	0.08
756.777	-0.11
756.954	0.12
757.131	0.03
757.307	-0.13
757.484	-0.16
757.661	-0.05
757.838	-0.06
758.015	-0.04
758.191	0.07
758.368	-0.02
758.545	0.24
758.721	-0.02
758.898	-0.04
759.075	0
759.251	-0.01
759.428	0.12
759.605	-0.16
759.781	-0
759.958	0.07
760.134	0.02
760.311	-0.06
760.488	0.19
760.664	0.16
760.841	0.02
761.017	-0.1
761.194	0.07
761.37	0.13
761.547	-0.04
761.723	-0.06
761.899	0.09
762.076	-0.12
762.252	-0.2
762.429	-0.05
762.605	0.13
762.781	-0.13
762.958	0
763.134	0.04
763.31	-0.14
763.486	0.13
763.663	-0.18
763.839	0.04
764.015	-0.29
764.191	0.01
764.368	-0.18
764.544	-0.2
764.72	-0.01
764.896	0.05
765.072	0
765.248	-0.02
765.425	-0.07
765.601	-0.01
765.777	-0.05
765.953	-0.22
766.129	-0.05
766.305	-0.09
766.481	-0.02
766.657	-0.04
766.833	0.09
767.009	-0.11
767.185	-0.04
767.361	-0.16
767.537	-0.05
767.713	0.14
767.889	-0.12
768.065	-0.04
768.24	-0.1
768.416	0.06
768.592	-0.07
768.768	-0.03
768.944	-0.02
769.12	-0.11
769.295	-0.06
769.471	-0.01
769.647	-0.09
769.823	0.15
769.998	-0.13
770.174	-0.19
770.35	0.21
770.525	0.18
770.701	0.08
770.877	-0.1
771.052	-0.06
771.228	0.07
771.403	-0.01
771.579	0.01
771.755	0.3
771.93	-0.08
772.106	-0.13
772.281	-0.21
772.457	-0.03
772.632	-0.03
772.808	-0.15
772.983	-0.1
773.159	-0.29
773.334	0.1
773.509	0.02
773.685	-0.1
773.86	0.29
774.036	0.08
774.211	0.05
774.386	-0.07
774.562	-0.03
774.737	-0.05
774.912	-0.07
775.087	0.04
775.263	-0.1
775.438	-0.12
775.613	0.01
775.788	-0.11
775.964	0.13
776.139	0.4
776.314	-0.12
776.489	-0.05
776.664	0
776.839	-0.21
777.014	0.17
777.19	0.1
777.365	0.19
777.54	0.21
777.715	0.02
777.89	0
778.065	-0.13
778.24	-0.04
778.415	0.07
778.59	-0.2
778.765	-0.09
778.94	0.12
779.115	-0.1
779.289	-0.1
779.464	-0.09
779.639	-0.05
779.814	-0.17
779.989	-0.19
780.164	0.26
780.339	0.04
780.513	-0.05
780.688	-0.13
780.863	-0.16
781.038	0.17
781.212	-0.19
781.387	-0
781.562	0.29
781.737	-0.2
781.911	0.19
782.086	-0.17
782.261	-0.02
782.435	0.26
782.61	-0.19
782.784	-0.03
782.959	0.18
783.134	-0.22
783.308	-0.24
783.483	-0.13
783.657	0.33
783.832	0.28
784.006	-0.39
784.181	-0.07
784.355	0.12
784.53	-0.39
784.704	-0.25
784.878	0.34
785.053	0.07
785.227	0.18
785.402	0.33
785.576	-0.19
785.75	-0.1
785.925	-0.18
786.099	0.07
786.273	-0.02
786.448	0.23
786.622	0.19
786.796	-0.12
786.97	-0.16
787.145	0.42
787.319	-0.12
787.493	-0.28
787.667	-0.37
787.841	0.09
788.015	0.27
788.19	-0.18
788.364	0.12
788.538	0.02
788.712	0.22
788.886	-0.04
789.06	0.22
789.234	0.26
789.408	-0.11
789.582	-0.03
789.756	-0.12
789.93	-0.17
790.104	-0.27
790.278	-0.2
790.452	-0.12
790.626	0.04
790.8	-0.28
790.973	0.08
791.147	0.34
791.321	0.2
791.495	0.17
791.669	0.03
791.843	-0.04
792.016	0.11
792.19	0.22
792.364	-0.28
792.538	0.41
792.711	0.32
792.885	-0.11
793.059	-0.21
793.233	-0.7
793.406	0.22
793.58	-0.07
793.754	-0.01
793.927	-0.22
794.101	0.25
794.274	0.14
794.448	0.26
794.622	-0.47
794.795	0.23
794.969	-0.25
795.142	0.34
795.316	0.14
795.489	-0.26
795.663	0.21
795.836	0.13
796.009	-0.3
796.183	0.32
796.356	-0
796.53	0.08
796.703	-0.25
796.876	0.57
797.05	-0.1
797.223	-0.02
797.396	0.17
797.57	-0.04
797.743	0.36
797.916	0.01
798.09	0.09
798.263	0.14
798.436	0.2
798.609	-0.14
798.782	-0.08
798.956	0.24
799.129	0.02
799.302	-0.01
799.475	-0.23
799.648	-0.09
799.821	-0.27
799.994	-0.06
800.167	-0.35
800.34	0.02
800.514	-0.1
800.687	-0.22
800.86	-0.36
801.033	0.08
801.206	0.09
801.379	-0.29
801.551	-0.02
801.724	0.3
801.897	0.34
802.07	-0.23
802.243	-0.64
802.416	-0.18
802.589	-0.29
802.762	0.06
802.935	-0
803.107	0.16
803.28	0.14
803.453	0.37
803.626	-0.42
803.798	-0.08
803.971	-0.29
804.144	0.19
804.317	0.11
804.489	0.43
804.662	-0.03
804.835	-0.31
805.007	-0.28
805.18	0.45
805.353	0.04
805.525	-0.36
805.698	-0.36
805.87	0.15
806.043	0.25
806.215	-0.44
806.388	-0.54
806.56	0.15
806.733	0.3
806.905	0.05
807.078	-0.38
807.25	-0.13
807.423	0.08
807.595	-0.04
807.768	0.22
807.94	0.26
808.112	0.41
808.285	-0.11
808.457	-0.3
808.629	-0.24
808.802	0.09
808.974	0.2
809.146	-0.4
809.318	-0.25
809.491	-0.11
809.663	-0.18
809.835	-0.28
810.007	0.43
810.18	-0.15
810.352	-0.41
810.524	-0.23
810.696	0.16
810.868	0.26
811.04	-0.13
811.212	0.39
811.384	-0.04
811.556	-0.21
811.728	0.04
811.901	0.54
812.073	-0.25
812.245	0.03
812.417	-0.25
812.589	-0.91
812.76	-0.2
812.932	0.25
813.104	0.36
813.276	-0.07
813.448	0.35
813.62	-0.06
813.792	0.22
813.964	-0.22
814.136	0.04
814.307	-0.03
814.479	-0.11
814.651	-0.36
814.823	0.48
814.995	-0.23
815.166	0.16
815.338	-0.49
815.51	-0.77
815.681	0.86
815.853	0.46
816.025	0.33
816.196	0.51
816.368	0.24
816.54	-0.67
816.711	-0.22
816.883	0.47
817.054	0.66
817.226	-0.93
817.398	-0.11
817.569	-0.29
817.741	0.14
817.912	-0.43
818.084	-0.26
818.255	0.31
818.426	-0.38
818.598	-0.11
818.769	-0.6
818.941	-0.04
819.112	0.88
819.283	-0.01
819.455	-0.44
819.626	-0.03
819.798	0.33
819.969	0.18
820.14	-0.35
820.311	-0.22
820.483	-0.03
820.654	-0.03
820.825	-0
820.996	-0.12
821.168	-0.82
821.339	-0.2
821.51	-0.42
821.681	-0.32
821.852	-0.07
822.023	-0.73
822.195	-0.38
822.366	0.47
822.537	-0.02
822.708	-0.07
822.879	-0.62
823.05	0.51
823.221	0.22
823.392	0.64
823.563	-0.31
823.734	-0.24
823.905	-0.36
824.076	-0.24
824.247	-0.26
824.418	-0.9
824.589	0.75
824.759	-0.39
824.93	-0.48
825.101	-0.72
825.272	0.31
825.443	0.7
825.614	-0.2
825.784	-0.73
825.955	0.94
826.126	0.42
826.297	0.05
826.467	0.95
826.638	0.58
826.809	-1
826.98	0
827.15	0.41
827.321	-0.14
827.492	0.86
827.662	-0.25
827.833	1.32
828.003	0.01
828.174	-0.8
828.345	-0.83
828.515	0.62
828.686	0.27
828.856	-0.78
829.027	-0.25
829.197	-0.23
829.368	0.3
829.538	-0.63
829.709	-0.46
829.879	0.13
830.049	0.29
830.22	-0.33
830.39	0.03
830.56	0.65
830.731	-0.27
830.901	-0.85
831.072	0.22
831.242	-0.03
831.412	0.17
831.582	-0.1
831.753	-1.03
831.923	0.99
832.093	0.01
832.263	-0.33
832.434	-0.67
832.604	-0.52
832.774	0.57
832.944	-0.22
833.114	-0.36
833.284	0.61
833.454	-0.71
833.624	-0.87
833.795	-0.35
833.965	0.38
834.135	0.93
834.305	-1.01
834.475	-0.28
834.645	-0.03
834.815	0.56
834.985	-0.79
835.155	-0.85
835.325	0.23
835.494	0.28
835.664	-0.79
835.834	-0.57
836.004	0.18
836.174	-0.14
836.344	0.47
836.514	-0.86
836.684	0.02
836.853	-0.22
837.023	0.34
837.193	-0.55
837.363	0.24
837.532	1.44
837.702	-0.22
837.872	-0.36
838.041	0.4
838.211	0.66
838.381	-0.72
838.55	-0.35
838.72	0.92
838.89	1.38
839.059	-0.78
839.229	-0.84
839.398	1.32
839.568	-0.33
839.738	-0.19
839.907	1.09
840.077	-0.25
840.246	-0.76
840.416	-0.62
840.585	-1.13
840.755	1.77
840.924	0.25
841.093	-0.53
841.263	-0.16
841.432	0.28
841.602	-0.19
841.771	-0.61
841.94	-0.12
842.11	2.23
842.279	1.91
842.448	-0.66
842.617	-1
842.787	1.16
842.956	-0.77
843.125	0.04
843.294	0.17
843.464	1.03
843.633	0.54
843.802	-0.91
843.971	0.04
844.14	0.9
844.309	1.38
844.479	-0.89
844.648	-0.67
844.817	-0.8
844.986	0.4
845.155	-0.77
845.324	-0.33
845.493	-0.37
845.662	-0.95
845.831	0.42
846	0.69
846.169	0.02
846.338	1.06
846.507	0.3
846.676	-0.15
846.844	-0.7
847.013	0.53
847.182	-0.02
847.351	-0.5
847.52	0.18
847.689	0.06
847.858	-0.05
848.026	-0.96
848.195	0.2
848.364	-0.58
848.533	-0.37
848.701	-0.19
848.87	0.3
849.039	0.61
849.207	0.54
849.376	1.51
849.545	0.34
849.713	-0.6
849.882	-0.69
850.051	0.08
850.219	-0.13
850.388	0.36
850.556	-1.29
850.725	-0.63
850.893	-0.69
851.062	-0.44
851.23	-0.04
851.399	-1.22
851.567	-0.55
851.736	-0.04
851.904	-1.02
852.073	-0.5
852.241	1.16
852.41	-0.42
852.578	0.55
852.746	-0.35
852.915	1.44
853.083	0.02
853.251	-0.32
853.42	-0.13
853.588	-0.16
853.756	0.99
853.924	-0.01
854.093	0.19
854.261	-0.39
854.429	-1.7
854.597	0.17
854.765	-1.59
854.934	0.71
855.102	1.81
855.27	-1.11
855.438	0.64
855.606	0.76
855.774	1.44
855.942	-2.2
856.11	-1.64
856.278	0.18
856.446	0.3
856.614	-0.8
856.782	-1.04
856.95	0.49
857.118	0.21
857.286	-0.9
857.454	-1.02
857.622	0.7
857.79	0.25
857.958	-0.48
858.126	-0.67
858.294	-2.68
858.462	0.2
858.629	-0.94
858.797	-0.55
858.965	0.56
859.133	0.33
859.301	-0.82
859.468	0.67
859.636	0.1
859.804	2.18
859.971	0.09
860.139	-0.68
860.307	0.59
860.474	0.23
860.642	-1.6
860.81	-0.7
860.977	0.13
861.145	1.1
861.313	-0.42
861.48	0.42
861.648	0.86
861.815	-0.26
861.983	-2.06
862.15	-0.17
862.318	0.79
862.485	0.46
862.653	-0.81
862.82	-1.37
862.988	2.4
863.155	1.04
863.322	-1.72
863.49	-1.24
863.657	-0.8
863.824	2.15
863.992	0.75
864.159	-0.78
864.326	1.87
864.494	-1.3
864.661	2.72
864.828	-0.84
864.996	0.22
865.163	1.66
865.33	-1.1
865.497	-2.58
865.664	-0.91
865.832	-0.92
865.999	-1.05
866.166	-0.91
866.333	0.22
866.5	-0.82
866.667	-0.52
866.834	-0.43
867.001	1.53
867.168	-2.7
867.335	-1.68
867.502	-2.63
867.669	0.1
867.836	2.32
868.003	-1.25
868.17	1.54
868.337	1.76
868.504	2.29
868.671	-1.48
868.838	-1.2
869.005	1.72
869.172	0.79
869.339	0.59
869.505	-0.15
869.672	-0.83
869.839	0.73
870.006	-0.65
870.173	-2.4
870.339	1.73
870.506	2.14
870.673	-2.69
870.84	-0.01
871.006	0.72
871.173	-0.09
871.34	0.01
871.506	-2.08
871.673	0.84
871.839	-2.49
872.006	-0.37
872.173	-0.7
872.339	0.02
872.506	0.7
872.672	0.66
872.839	-1.76
873.005	0.37
873.172	3.33
873.338	1.49
873.505	-0.44
873.671	-0.7
873.838	0.25
874.004	-3.99
874.171	-1.55
874.337	0.49
874.503	1.52
874.67	-0.75
874.836	0.96
875.002	2.1
875.169	-0.84
875.335	0.06
875.501	0.17
875.668	1.51
875.834	0.68
876	-0.31
876.166	0.28
876.332	0.98
876.499	2.81
876.665	0.12
876.831	-1.56
876.997	4.71
877.163	1.83
877.329	-1.73
877.495	-1.07
877.662	2.46
877.828	0.72
877.994	-1.02
878.16	-2.15
878.326	-0.64
878.492	-1.27
878.658	-0.71
878.824	-0.23
878.99	2.09
879.156	0.23
879.322	2.4
879.487	-1.84
879.653	2.2
879.819	1.09
879.985	-2.67
880.151	1.37
880.317	-0.23
880.483	0.46
880.648	0.53
880.814	-1.84
880.98	1.08
881.146	-3.41
881.312	-1.32
881.477	-1.87
881.643	-1.02
881.809	2.51
881.974	1.66
882.14	-2.15
882.306	-0.67
882.471	2.91
882.637	-0.65
882.803	-0.53
882.968	2.57
883.134	3.54
883.299	-0.2
883.465	-1.52
883.63	2.75
883.796	2.95
883.961	-0.2
884.127	0.38
884.292	-3.68
884.458	-1.84
884.623	-1.83
