Data from Apollo_Calib_20240827__AbsoluteIrradiance__265__03-34-00-460.txt Node

Date: Wed Aug 28 03:34:00 BST 2024
User: biology
Spectrometer: FLMT08252
Trigger mode: 0
Integration Time (sec): 5.000000E-1
Scans to average: 5
Electric dark correction enabled: true
Nonlinearity correction enabled: false
Boxcar width: 0
XAxis mode: Wavelengths
Number of Pixels in Spectrum: 3648
>>>>>Begin Spectral Data<<<<<
179.588	-0
179.809	-0
180.03	-0
180.251	-0
180.473	-0
180.694	0
180.915	0
181.136	-0
181.357	0
181.578	-0
181.799	-0
182.02	-0
182.241	0
182.462	-0
182.683	0
182.904	-0
183.125	-0
183.346	0
183.567	0
183.788	0
184.009	-0
184.23	0
184.451	0
184.672	-0
184.892	-0
185.113	0
185.334	0
185.555	-0
185.776	-0
185.996	0
186.217	0
186.438	0
186.659	-0
186.879	0
187.1	-0
187.321	-0
187.541	-0
187.762	-0
187.983	0
188.203	-0
188.424	0
188.644	0
188.865	-0
189.086	0
189.306	0
189.527	0
189.747	0
189.968	-0
190.188	0
190.409	-0
190.629	0
190.849	-0
191.07	-0
191.29	0
191.511	0
191.731	-0
191.951	-0
192.172	0
192.392	-0
192.612	0
192.833	-0
193.053	0
193.273	0
193.493	0
193.714	-0
193.934	0
194.154	0
194.374	-0
194.594	0
194.815	0
195.035	0
195.255	0
195.475	-0
195.695	0
195.915	0
196.135	-0
196.355	0
196.575	0
196.795	0
197.015	-0
197.235	-0
197.455	-0
197.675	0
197.895	-0
198.115	-0
198.335	0
198.555	-0
198.775	0
198.995	0
199.214	0
199.434	0
199.654	-0
199.874	-0
200.094	0.71
200.313	0.08
200.533	-0.31
200.753	-0.85
200.973	1.18
201.192	1.09
201.412	-0.69
201.632	-0.11
201.851	0.97
202.071	-0.1
202.291	-0.5
202.51	-0.27
202.73	0.35
202.95	0.01
203.169	-0.33
203.389	0.18
203.608	0.28
203.828	-0.17
204.047	-0.24
204.267	0.81
204.486	0.19
204.706	0.27
204.925	-0.04
205.145	-0.1
205.364	0.68
205.583	0.82
205.803	-0.19
206.022	-0.35
206.242	-0.27
206.461	-0.07
206.68	-0.34
206.9	0.32
207.119	0.73
207.338	0.37
207.557	-0.02
207.777	-0.16
207.996	-0.06
208.215	0.55
208.434	-0.09
208.654	-0.37
208.873	0.25
209.092	0.58
209.311	-0.2
209.53	0.14
209.749	-0.31
209.968	-0.07
210.187	0.02
210.407	-0.4
210.626	-0.18
210.845	0.29
211.064	0.2
211.283	-0.08
211.502	0.39
211.721	0.08
211.94	0.04
212.159	0.24
212.377	0.26
212.596	0.57
212.815	0.06
213.034	0.09
213.253	0.35
213.472	0.41
213.691	-0.16
213.91	-0.24
214.128	-0.04
214.347	0.38
214.566	-0.28
214.785	-0.35
215.003	0.13
215.222	0.45
215.441	-0.08
215.66	-0.35
215.878	0.08
216.097	0.18
216.316	-0.3
216.534	0.09
216.753	0.13
216.972	-0.26
217.19	-0.08
217.409	-0.12
217.627	-0.13
217.846	-0.09
218.064	-0.02
218.283	-0.22
218.501	0.63
218.72	0.17
218.938	-0.24
219.157	-0.28
219.375	0.28
219.594	0.32
219.812	-0.24
220.031	-0.28
220.249	0.17
220.467	0.33
220.686	-0.11
220.904	-0.21
221.122	-0.06
221.341	0.37
221.559	0.18
221.777	-0.25
221.995	0.07
222.214	0.2
222.432	0.02
222.65	0.1
222.868	0.04
223.086	0.18
223.305	0.12
223.523	-0.01
223.741	0.4
223.959	0.12
224.177	-0.26
224.395	-0.02
224.613	0.13
224.831	0.32
225.049	-0.1
225.267	-0.02
225.485	0.08
225.703	0.06
225.921	0.02
226.139	-0.06
226.357	0.12
226.575	-0.04
226.793	0.03
227.011	0.63
227.229	0.27
227.447	0.26
227.665	-0.07
227.883	-0.07
228.1	0.02
228.318	0.09
228.536	-0.17
228.754	-0.12
228.972	0.08
229.189	0.15
229.407	-0.09
229.625	-0.02
229.843	0.2
230.06	0.2
230.278	-0.02
230.496	0.09
230.713	0.07
230.931	0.2
231.149	0.05
231.366	-0.23
231.584	-0.01
231.801	0.47
232.019	-0.06
232.236	-0.12
232.454	-0.03
232.671	0.16
232.889	0.18
233.106	-0.1
233.324	-0
233.541	-0.04
233.759	0.01
233.976	-0.13
234.194	0.05
234.411	0.06
234.628	-0.09
234.846	0.03
235.063	-0.02
235.28	0.01
235.498	-0.02
235.715	-0.08
235.932	0.26
236.149	0.08
236.367	-0.04
236.584	0.1
236.801	-0.01
237.018	0.11
237.236	0.09
237.453	-0.14
237.67	0.17
237.887	0.07
238.104	0.01
238.321	-0.09
238.538	-0.09
238.755	0.23
238.973	-0.1
239.19	-0
239.407	0.2
239.624	0.1
239.841	-0.18
240.058	-0.04
240.275	0.09
240.492	0.03
240.709	0.03
240.925	-0.18
241.142	0.06
241.359	-0.11
241.576	0.06
241.793	0.06
242.01	0.05
242.227	0.14
242.444	0.11
242.66	0.11
242.877	0.03
243.094	0.07
243.311	0.12
243.527	0.05
243.744	0.11
243.961	0.14
244.178	-0.07
244.394	-0
244.611	0.17
244.828	0.26
245.044	-0.11
245.261	0.02
245.477	0.04
245.694	0.17
245.911	-0.02
246.127	0.09
246.344	0.17
246.56	0.15
246.777	-0
246.993	0.1
247.21	0.09
247.426	0.15
247.643	0.06
247.859	-0.04
248.076	-0.01
248.292	0.28
248.508	-0.05
248.725	0.02
248.941	0.1
249.157	0.15
249.374	-0.04
249.59	0
249.806	0.04
250.023	0.07
250.239	-0.08
250.455	-0.09
250.671	0.09
250.888	0.09
251.104	0.08
251.32	-0.01
251.536	0.07
251.752	-0.02
251.969	0.01
252.185	0.03
252.401	0.22
252.617	-0
252.833	-0.01
253.049	0.03
253.265	0.03
253.481	0.11
253.697	-0
253.913	-0.01
254.129	0.04
254.345	0.02
254.561	-0.01
254.777	-0.03
254.993	0.03
255.209	0.14
255.425	0.03
255.641	-0.03
255.857	0.16
256.073	0.03
256.288	-0.01
256.504	0.02
256.72	0.04
256.936	0.16
257.152	-0.04
257.367	-0
257.583	0.01
257.799	0.1
258.015	-0.06
258.23	0.02
258.446	0.18
258.662	-0.01
258.877	-0.06
259.093	-0.05
259.309	-0.05
259.524	0.08
259.74	-0.03
259.955	-0.1
260.171	0.04
260.387	0.05
260.602	0.14
260.818	0.05
261.033	-0.02
261.249	-0.01
261.464	0.01
261.68	0.02
261.895	0.07
262.11	0.13
262.326	0.01
262.541	-0.11
262.757	0.01
262.972	0.05
263.187	0.03
263.403	0.06
263.618	0.03
263.833	0.04
264.049	0.01
264.264	-0
264.479	0.06
264.694	0.15
264.91	-0.11
265.125	0.03
265.34	0.14
265.555	0.15
265.77	-0.01
265.986	-0.06
266.201	0.11
266.416	0.16
266.631	0.02
266.846	0.05
267.061	0.1
267.276	0.05
267.491	-0.07
267.706	0.05
267.921	0.06
268.136	0.11
268.351	0.06
268.566	-0.02
268.781	0.12
268.996	0.06
269.211	0.04
269.426	-0.05
269.641	0.05
269.856	0.11
270.071	-0.01
270.285	-0.08
270.5	0.12
270.715	0.02
270.93	-0.02
271.145	0.01
271.359	0.08
271.574	-0.04
271.789	-0.02
272.004	-0.01
272.218	0.05
272.433	0.13
272.648	-0.03
272.862	0.12
273.077	0.02
273.292	0.06
273.506	-0
273.721	0.02
273.936	0.1
274.15	0.14
274.365	0.03
274.579	0.14
274.794	0.07
275.008	0.15
275.223	-0.07
275.437	0.05
275.652	0.11
275.866	0.03
276.081	0.02
276.295	0.11
276.509	0.01
276.724	-0.01
276.938	0.03
277.153	0.08
277.367	0.08
277.581	0.01
277.796	0.02
278.01	-0.04
278.224	0.06
278.438	0.17
278.653	0.02
278.867	-0.02
279.081	-0.15
279.295	-0.01
279.51	-0
279.724	-0.03
279.938	0.07
280.152	0.03
280.366	0.06
280.58	0.03
280.794	0.12
281.008	0.05
281.222	0.11
281.437	0.15
281.651	0.06
281.865	0.04
282.079	-0.01
282.293	-0.11
282.507	0.01
282.721	0.03
282.935	0.05
283.148	-0.06
283.362	-0
283.576	-0.04
283.79	0.05
284.004	0.01
284.218	0.08
284.432	-0.01
284.646	0.04
284.859	-0.05
285.073	-0.03
285.287	0.04
285.501	0
285.714	0.01
285.928	0.09
286.142	0.03
286.356	-0.03
286.569	-0.01
286.783	0.12
286.997	0.08
287.21	0.03
287.424	0.07
287.637	-0.01
287.851	-0
288.065	0.09
288.278	0.02
288.492	0.06
288.705	0.01
288.919	0.04
289.132	-0.07
289.346	0.08
289.559	-0.03
289.773	-0.02
289.986	-0.01
290.2	0.09
290.413	0.08
290.626	-0
290.84	-0.05
291.053	0.02
291.267	0.09
291.48	0.03
291.693	0.04
291.906	-0.01
292.12	-0
292.333	-0
292.546	0
292.76	0.1
292.973	0.09
293.186	0.07
293.399	-0.02
293.612	0.11
293.826	0.03
294.039	-0.01
294.252	0.07
294.465	0.08
294.678	0.02
294.891	0.06
295.104	-0.02
295.317	-0.02
295.53	0.05
295.743	-0.01
295.956	0.01
296.169	0.13
296.382	0.06
296.595	0.01
296.808	-0.01
297.021	0.07
297.234	0.07
297.447	0.05
297.66	0.02
297.873	0.12
298.086	0.03
298.299	-0.02
298.511	-0.03
298.724	-0.03
298.937	-0.03
299.15	0.02
299.363	0
299.575	0.1
299.788	0.05
300.001	0
300.213	-0.03
300.426	0.02
300.639	0.02
300.852	-0.02
301.064	0.08
301.277	0.09
301.489	0.06
301.702	0.06
301.915	0.03
302.127	0.04
302.34	0.05
302.552	0.06
302.765	-0.02
302.977	0.08
303.19	-0.01
303.402	-0.02
303.615	0.03
303.827	-0.02
304.04	0.05
304.252	0.02
304.464	0.01
304.677	0.15
304.889	0.09
305.102	-0
305.314	-0.04
305.526	0.07
305.739	0.07
305.951	-0.02
306.163	0.04
306.375	0.07
306.588	-0.03
306.8	0.01
307.012	-0.01
307.224	0.03
307.436	0.12
307.649	-0.07
307.861	0.02
308.073	0.03
308.285	0.02
308.497	-0.02
308.709	-0.01
308.921	0.04
309.133	0.09
309.346	0.01
309.558	0.02
309.77	0.1
309.982	0.12
310.194	0.05
310.406	-0
310.617	0.1
310.829	0.06
311.041	0.03
311.253	-0.01
311.465	0.02
311.677	0.02
311.889	0.04
312.101	0
312.313	0.1
312.524	0.12
312.736	-0.02
312.948	0.01
313.16	0.11
313.372	0.05
313.583	0.04
313.795	0.05
314.007	-0.01
314.218	0.07
314.43	0.03
314.642	0.02
314.853	-0.04
315.065	0.09
315.277	0.01
315.488	0.02
315.7	0.08
315.912	0.03
316.123	0.03
316.335	0.02
316.546	0.12
316.758	-0.01
316.969	0
317.181	0.01
317.392	0.03
317.604	0.1
317.815	-0.01
318.026	-0.04
318.238	0.01
318.449	0.02
318.661	-0.07
318.872	-0.01
319.083	-0.05
319.295	0.07
319.506	-0.02
319.717	0.06
319.929	0.06
320.14	0.03
320.351	0.04
320.562	0
320.774	0.06
320.985	0.06
321.196	-0.01
321.407	-0.05
321.618	0.08
321.829	0.04
322.041	0.04
322.252	0.01
322.463	0.05
322.674	0.1
322.885	-0.01
323.096	0.04
323.307	0
323.518	0.01
323.729	-0.01
323.94	0.05
324.151	0.04
324.362	0.06
324.573	0.02
324.784	-0.04
324.995	0.12
325.206	0.07
325.417	0.03
325.628	0.03
325.838	-0.01
326.049	0.03
326.26	0.08
326.471	0.02
326.682	0.06
326.892	0.02
327.103	-0.04
327.314	-0.05
327.525	0.12
327.735	0.05
327.946	0.03
328.157	-0
328.368	0.08
328.578	0.01
328.789	0.03
328.999	0.01
329.21	-0.03
329.421	0.03
329.631	-0.02
329.842	0.02
330.052	0.02
330.263	0.05
330.473	0.08
330.684	-0.01
330.894	0.06
331.105	0.04
331.315	0.03
331.526	-0.02
331.736	0.12
331.947	0.03
332.157	0.05
332.367	-0.06
332.578	0.08
332.788	0.1
332.999	0.03
333.209	0.03
333.419	0.04
333.629	0.05
333.84	0.04
334.05	-0
334.26	0.07
334.47	0.03
334.681	0.1
334.891	0
335.101	0.07
335.311	0.14
335.521	0.02
335.732	0.01
335.942	0.1
336.152	0.08
336.362	0.04
336.572	0.07
336.782	0.09
336.992	0.03
337.202	0.02
337.412	-0.03
337.622	0.02
337.832	0.06
338.042	0.04
338.252	-0.01
338.462	0.05
338.672	0.05
338.882	-0.01
339.092	0.02
339.302	0.09
339.511	0.08
339.721	-0.02
339.931	-0.01
340.141	0.08
340.351	0.06
340.561	0.05
340.77	0.01
340.98	0.04
341.19	0.08
341.4	-0.01
341.609	-0.04
341.819	0.02
342.029	-0.02
342.238	0.03
342.448	0.04
342.658	0.08
342.867	0.05
343.077	0.04
343.286	0.07
343.496	0.07
343.706	0.11
343.915	-0.02
344.125	0.03
344.334	0.02
344.544	-0
344.753	0.02
344.963	-0.01
345.172	-0.02
345.381	0.01
345.591	-0
345.8	0.04
346.01	0.07
346.219	0.07
346.428	-0.09
346.638	0.07
346.847	0.02
347.056	0.11
347.266	-0.03
347.475	0.02
347.684	0.07
347.893	0.06
348.103	0.07
348.312	0.01
348.521	0.06
348.73	0.06
348.94	0.05
349.149	0.01
349.358	0.02
349.567	0
349.776	-0.03
349.985	0.01
350.194	0.1
350.403	0.08
350.612	0.01
350.821	0.01
351.03	0.06
351.239	-0.01
351.448	0
351.657	-0.03
351.866	0.13
352.075	0.04
352.284	-0.04
352.493	0
352.702	0.08
352.911	0.05
353.12	0.04
353.329	0
353.538	0.03
353.746	0.06
353.955	-0
354.164	0.08
354.373	0.05
354.582	0.03
354.79	0.06
354.999	0.07
355.208	0.03
355.416	0.05
355.625	-0.01
355.834	0.05
356.042	0.08
356.251	0.04
356.46	-0.01
356.668	0.03
356.877	0.12
357.085	0.1
357.294	-0.06
357.503	0.06
357.711	0.01
357.92	0.14
358.128	0.06
358.337	0.04
358.545	0.05
358.754	0.04
358.962	0.06
359.17	0.02
359.379	0.07
359.587	0.09
359.796	0.04
360.004	0.07
360.212	0.05
360.421	0.09
360.629	0.06
360.837	0.06
361.046	0.09
361.254	0.15
361.462	0.03
361.67	-0
361.879	0.07
362.087	0.13
362.295	0.08
362.503	0.06
362.711	-0.03
362.92	0.01
363.128	0.01
363.336	-0.01
363.544	-0.01
363.752	0.03
363.96	0.01
364.168	0.01
364.376	0.07
364.584	0.02
364.792	0.11
365	0.03
365.208	0.04
365.416	0.03
365.624	0.1
365.832	0.02
366.04	0.07
366.248	0.09
366.456	0.06
366.664	0.06
366.872	-0.02
367.079	0.06
367.287	0.05
367.495	0.07
367.703	0.05
367.911	0.03
368.118	0.03
368.326	0.04
368.534	-0
368.742	0.14
368.949	0.01
369.157	0.04
369.365	0.06
369.572	0.05
369.78	0.01
369.988	0.09
370.195	0.06
370.403	0.06
370.61	0.04
370.818	0.06
371.026	0.12
371.233	0.01
371.441	0.03
371.648	0.05
371.856	0.04
372.063	0.09
372.271	0.03
372.478	0.01
372.685	0.04
372.893	0.11
373.1	0.01
373.308	0.05
373.515	0.09
373.722	0.06
373.93	0.03
374.137	0.12
374.344	0.11
374.552	0.11
374.759	0.09
374.966	0.06
375.173	0.04
375.381	0.12
375.588	0.02
375.795	-0.04
376.002	0
376.209	0.01
376.417	0.03
376.624	0.01
376.831	0.05
377.038	0.01
377.245	-0.03
377.452	0.04
377.659	0.06
377.866	0.01
378.073	0.02
378.28	0.05
378.487	0.05
378.694	0.13
378.901	0.03
379.108	0.03
379.315	0.1
379.522	0.15
379.729	0.01
379.936	0.08
380.143	0.07
380.35	0.1
380.557	0.05
380.763	0.03
380.97	0.09
381.177	0.1
381.384	0.07
381.591	0.05
381.797	0.03
382.004	0.08
382.211	0.14
382.418	0.05
382.624	0.03
382.831	0.11
383.038	0.03
383.244	0.05
383.451	0.07
383.658	0.06
383.864	0.04
384.071	0
384.277	0.1
384.484	0.02
384.69	0.1
384.897	0.05
385.103	0.04
385.31	0.05
385.516	0.04
385.723	0.01
385.929	0.08
386.136	0.01
386.342	0.07
386.549	0.08
386.755	0.1
386.961	0.13
387.168	0.07
387.374	0.1
387.58	0.17
387.787	0.06
387.993	0.08
388.199	0.07
388.406	-0
388.612	0.09
388.818	0.07
389.024	0.04
389.231	0.05
389.437	0.17
389.643	0.13
389.849	0.08
390.055	0.09
390.261	0.09
390.467	0.1
390.674	0.08
390.88	0.14
391.086	0.16
391.292	0.04
391.498	0.11
391.704	0.11
391.91	0.05
392.116	0.1
392.322	0.02
392.528	0.19
392.734	0.12
392.94	0.1
393.146	0.11
393.352	0.11
393.557	0.12
393.763	0.07
393.969	0.16
394.175	0.13
394.381	0.12
394.587	0.06
394.792	0.12
394.998	0.18
395.204	0.19
395.41	0.13
395.615	0.17
395.821	0.21
396.027	0.2
396.233	0.14
396.438	0.21
396.644	0.26
396.85	0.19
397.055	0.2
397.261	0.24
397.466	0.31
397.672	0.24
397.878	0.28
398.083	0.25
398.289	0.23
398.494	0.32
398.7	0.34
398.905	0.22
399.111	0.33
399.316	0.22
399.522	0.32
399.727	0.33
399.932	0.26
400.138	0.32
400.343	0.41
400.549	0.36
400.754	0.39
400.959	0.42
401.165	0.4
401.37	0.43
401.575	0.4
401.78	0.51
401.986	0.51
402.191	0.49
402.396	0.53
402.601	0.61
402.807	0.63
403.012	0.64
403.217	0.74
403.422	0.67
403.627	0.74
403.832	0.73
404.037	0.79
404.243	0.86
404.448	0.84
404.653	0.9
404.858	0.98
405.063	1.02
405.268	1.05
405.473	1.07
405.678	1.1
405.883	1.32
406.088	1.29
406.293	1.17
406.498	1.3
406.703	1.38
406.907	1.41
407.112	1.46
407.317	1.63
407.522	1.72
407.727	1.75
407.932	1.86
408.136	2.05
408.341	1.97
408.546	2.06
408.751	2.22
408.956	2.21
409.16	2.46
409.365	2.5
409.57	2.52
409.774	2.67
409.979	2.79
410.184	2.86
410.388	2.94
410.593	3.14
410.798	3.24
411.002	3.45
411.207	3.55
411.411	3.69
411.616	3.75
411.82	4.01
412.025	4.06
412.229	4.28
412.434	4.48
412.638	4.58
412.843	4.76
413.047	4.91
413.252	4.97
413.456	5.32
413.66	5.51
413.865	5.56
414.069	5.73
414.273	6
414.478	6.04
414.682	6.29
414.886	6.51
415.091	6.58
415.295	6.92
415.499	7.26
415.703	7.36
415.908	7.7
416.112	7.79
416.316	8.28
416.52	8.43
416.724	8.51
416.929	8.84
417.133	9.31
417.337	9.31
417.541	9.61
417.745	9.85
417.949	10.12
418.153	10.52
418.357	10.61
418.561	11.04
418.765	11.1
418.969	11.4
419.173	12.15
419.377	12.1
419.581	12.64
419.785	12.84
419.989	12.96
420.193	13.49
420.397	13.68
420.601	13.8
420.804	14.1
421.008	14.16
421.212	14.45
421.416	14.16
421.62	14.24
421.823	14.3
422.027	14.48
422.231	14.25
422.435	14.12
422.638	14
422.842	14.31
423.046	14.32
423.249	14.56
423.453	14.33
423.657	14.46
423.86	14.45
424.064	14.61
424.268	14.38
424.471	14.2
424.675	14.33
424.878	14.18
425.082	14.33
425.285	14.56
425.489	13.92
425.692	13.79
425.896	13.6
426.099	13.53
426.303	13.4
426.506	13.3
426.71	13.43
426.913	13.29
427.116	13.06
427.32	12.6
427.523	12.34
427.726	12.34
427.93	12.21
428.133	12.16
428.336	12.04
428.54	11.72
428.743	11.68
428.946	11.51
429.149	11.18
429.353	10.56
429.556	10.33
429.759	9.95
429.962	9.76
430.165	9.49
430.368	8.66
430.571	8.42
430.775	8.17
430.978	7.83
431.181	7.54
431.384	7.36
431.587	7.15
431.79	7.16
431.993	6.87
432.196	6.82
432.399	6.91
432.602	6.69
432.805	6.41
433.008	6.71
433.211	6.31
433.414	6.3
433.616	6.08
433.819	5.81
434.022	5.68
434.225	5.63
434.428	5.43
434.631	5.61
434.833	5.18
435.036	5.12
435.239	5.08
435.442	4.94
435.645	4.78
435.847	4.7
436.05	4.65
436.253	4.64
436.455	4.35
436.658	4.22
436.861	4.26
437.063	4.09
437.266	3.97
437.468	4.02
437.671	4.06
437.874	3.75
438.076	3.6
438.279	3.57
438.481	3.52
438.684	3.54
438.886	3.32
439.089	3.26
439.291	3.14
439.494	3.15
439.696	3.1
439.899	3.06
440.101	3.13
440.303	2.9
440.506	3.1
440.708	2.92
440.91	2.88
441.113	2.76
441.315	2.73
441.517	2.47
441.72	2.55
441.922	2.4
442.124	2.26
442.326	2.24
442.529	2.29
442.731	2.15
442.933	2.2
443.135	1.95
443.337	1.9
443.539	1.9
443.742	1.85
443.944	1.92
444.146	1.69
444.348	1.72
444.55	1.61
444.752	1.62
444.954	1.47
445.156	1.5
445.358	1.45
445.56	1.5
445.762	1.44
445.964	1.37
446.166	1.31
446.368	1.3
446.57	1.36
446.772	1.24
446.974	1.14
447.175	1.11
447.377	1.09
447.579	1.15
447.781	1.03
447.983	1.1
448.184	1.06
448.386	1.06
448.588	0.86
448.79	0.94
448.991	0.93
449.193	0.9
449.395	0.85
449.597	0.88
449.798	0.84
450	0.79
450.202	0.76
450.403	0.78
450.605	0.85
450.806	0.71
451.008	0.71
451.21	0.73
451.411	0.7
451.613	0.64
451.814	0.65
452.016	0.71
452.217	0.62
452.419	0.67
452.62	0.63
452.821	0.67
453.023	0.7
453.224	0.62
453.426	0.52
453.627	0.53
453.828	0.57
454.03	0.51
454.231	0.62
454.432	0.55
454.634	0.61
454.835	0.51
455.036	0.46
455.238	0.48
455.439	0.56
455.64	0.42
455.841	0.42
456.042	0.56
456.244	0.52
456.445	0.43
456.646	0.36
456.847	0.42
457.048	0.45
457.249	0.48
457.45	0.63
457.651	0.3
457.852	0.42
458.054	0.37
458.255	0.31
458.456	0.38
458.657	0.36
458.858	0.33
459.058	0.34
459.259	0.37
459.46	0.29
459.661	0.28
459.862	0.4
460.063	0.32
460.264	0.37
460.465	0.23
460.666	0.4
460.866	0.24
461.067	0.28
461.268	0.26
461.469	0.23
461.67	0.3
461.87	0.2
462.071	0.24
462.272	0.2
462.473	0.24
462.673	0.32
462.874	0.17
463.075	0.21
463.275	0.21
463.476	0.28
463.676	0.26
463.877	0.23
464.078	0.23
464.278	0.24
464.479	0.2
464.679	0.25
464.88	0.19
465.08	0.3
465.281	0.13
465.481	0.17
465.682	0.18
465.882	0.26
466.083	0.22
466.283	0.23
466.483	0.17
466.684	0.12
466.884	0.16
467.085	0.15
467.285	0.21
467.485	0.15
467.686	0.12
467.886	0.16
468.086	0.15
468.286	0.14
468.487	0.2
468.687	0.11
468.887	0.16
469.087	0.21
469.287	0.15
469.488	0.1
469.688	0.2
469.888	0.2
470.088	0.19
470.288	0.19
470.488	0.23
470.688	0.12
470.888	0.14
471.088	0.08
471.288	0.2
471.488	0.17
471.688	0.19
471.888	0.08
472.088	0.19
472.288	0.16
472.488	0.15
472.688	0.09
472.888	0.13
473.088	0.13
473.288	0.14
473.488	0.1
473.688	0.19
473.887	0.12
474.087	0.16
474.287	0.12
474.487	0.09
474.687	0.15
474.886	0.07
475.086	0.09
475.286	0.12
475.486	0.1
475.685	0.13
475.885	0.1
476.085	0.09
476.284	0.14
476.484	0.11
476.684	0.12
476.883	0.15
477.083	0.11
477.282	0.06
477.482	0.16
477.681	0.15
477.881	0.13
478.08	0.07
478.28	0.06
478.479	0.15
478.679	0.15
478.878	0.08
479.078	0.07
479.277	0.08
479.477	0.07
479.676	0.12
479.875	0.07
480.075	0.02
480.274	0.11
480.473	0.09
480.673	0.06
480.872	0.12
481.071	0.06
481.271	0.09
481.47	0.06
481.669	0.06
481.868	0.05
482.067	0.03
482.267	0.04
482.466	0.05
482.665	0.02
482.864	0.02
483.063	0.01
483.262	0.09
483.461	0.1
483.661	0.08
483.86	0.06
484.059	0.07
484.258	0.06
484.457	0.02
484.656	0.07
484.855	0.09
485.054	0.01
485.253	0.02
485.452	0.03
485.651	0.04
485.849	0.05
486.048	0.05
486.247	0.03
486.446	0.06
486.645	0.03
486.844	0.02
487.043	0.04
487.241	0.07
487.44	0.03
487.639	0.02
487.838	0.1
488.037	0.05
488.235	0.08
488.434	0.04
488.633	0.04
488.831	0.06
489.03	0.09
489.229	0.04
489.427	0.05
489.626	0.07
489.825	0.1
490.023	0.04
490.222	0.02
490.42	0.07
490.619	0.08
490.817	0.05
491.016	0.01
491.214	0.09
491.413	0.04
491.611	0.03
491.81	0.04
492.008	0.05
492.207	0.07
492.405	0.06
492.604	-0
492.802	0.01
493	0.07
493.199	0.01
493.397	0.04
493.595	0.03
493.794	0.03
493.992	0.07
494.19	0.04
494.388	0.06
494.587	0.07
494.785	0.04
494.983	0.01
495.181	0.06
495.379	0.03
495.578	0.02
495.776	0.06
495.974	0.05
496.172	0.06
496.37	0.02
496.568	0.01
496.766	0.03
496.964	0.06
497.162	0.03
497.36	0
497.558	0.05
497.756	0.05
497.954	0.02
498.152	0.01
498.35	0.02
498.548	0.02
498.746	0.04
498.944	0.01
499.142	0.02
499.34	-0
499.538	0.03
499.736	0.01
499.933	0.06
500.131	0.06
500.329	0.03
500.527	0.07
500.725	0.07
500.922	0.05
501.12	0.03
501.318	0.05
501.516	0.02
501.713	0.07
501.911	0.02
502.109	0
502.306	0.05
502.504	0.02
502.701	0.02
502.899	0.03
503.097	0.08
503.294	0.02
503.492	0.02
503.689	0.05
503.887	0.05
504.084	0.09
504.282	0.03
504.479	0.01
504.677	0.04
504.874	0.02
505.072	0.03
505.269	0.03
505.466	0.05
505.664	0.05
505.861	-0.01
506.059	0.02
506.256	0.05
506.453	0.03
506.651	0.07
506.848	0.05
507.045	0.05
507.242	0.02
507.44	0.01
507.637	0.03
507.834	0.03
508.031	0.06
508.229	0.01
508.426	0.04
508.623	0.05
508.82	0.01
509.017	-0.01
509.214	-0
509.411	0.05
509.608	-0
509.805	0.05
510.003	0.01
510.2	0.01
510.397	0.06
510.594	-0.01
510.791	0.01
510.988	0.02
511.184	0.03
511.381	0.03
511.578	-0.02
511.775	0.08
511.972	0
512.169	-0
512.366	0.02
512.563	0.03
512.76	0.01
512.956	0.05
513.153	0.02
513.35	0.03
513.547	0
513.744	-0
513.94	-0.01
514.137	0.04
514.334	0.03
514.53	0.03
514.727	0.04
514.924	0.09
515.12	0.01
515.317	-0.01
515.514	-0.01
515.71	-0.01
515.907	0.02
516.103	0.04
516.3	0.03
516.497	0.03
516.693	0.06
516.89	0.02
517.086	0
517.283	0.02
517.479	0.05
517.676	0.02
517.872	0.03
518.068	0.02
518.265	0.03
518.461	0
518.658	-0.01
518.854	0.02
519.05	0.02
519.247	-0
519.443	0.04
519.639	0.03
519.836	-0.01
520.032	0.03
520.228	0.04
520.424	0.08
520.621	0.03
520.817	0.02
521.013	0.03
521.209	0.03
521.405	0.06
521.601	0.03
521.798	0.01
521.994	0.07
522.19	0.01
522.386	-0
522.582	0.02
522.778	0.02
522.974	0.01
523.17	0.01
523.366	0.03
523.562	0.06
523.758	0.03
523.954	-0
524.15	0.01
524.346	0.03
524.542	-0.01
524.738	-0.02
524.934	0.02
525.129	0.01
525.325	0.02
525.521	0.03
525.717	0.04
525.913	0.03
526.109	0.02
526.304	0.02
526.5	0.02
526.696	0.05
526.892	0.01
527.087	0.01
527.283	-0.01
527.479	0.03
527.674	0.01
527.87	0.02
528.066	0
528.261	0.04
528.457	0.03
528.653	0
528.848	0.02
529.044	0.03
529.239	0.04
529.435	0.03
529.63	0.04
529.826	0.06
530.021	0.03
530.217	0.01
530.412	0.03
530.608	-0
530.803	0.02
530.999	0.01
531.194	-0.02
531.389	0.02
531.585	-0.03
531.78	0.01
531.975	0.01
532.171	0.05
532.366	0.02
532.561	0.02
532.757	-0.02
532.952	0.02
533.147	0.04
533.342	0.01
533.538	-0
533.733	0.04
533.928	0.02
534.123	0.01
534.318	-0.02
534.513	0.03
534.709	0.01
534.904	0
535.099	0.01
535.294	0.03
535.489	0.01
535.684	0.02
535.879	-0.01
536.074	0.03
536.269	0
536.464	0.03
536.659	0.03
536.854	0.02
537.049	0.03
537.244	0.02
537.439	-0.02
537.634	0.03
537.828	0.02
538.023	-0
538.218	-0
538.413	0.03
538.608	-0.02
538.803	0.03
538.997	-0.02
539.192	0.04
539.387	0.03
539.582	0.03
539.776	0.01
539.971	-0.01
540.166	0.01
540.36	-0
540.555	0.04
540.75	0
540.944	0.02
541.139	-0.03
541.334	0.01
541.528	0.02
541.723	0.04
541.917	0
542.112	-0.03
542.306	0.01
542.501	0.01
542.695	0.02
542.89	-0.01
543.084	0.03
543.279	0.01
543.473	0.02
543.668	-0.01
543.862	-0
544.056	0.02
544.251	0.02
544.445	0.01
544.64	0.01
544.834	-0.01
545.028	-0
545.222	0.02
545.417	0.04
545.611	0
545.805	0.01
546	0
546.194	0
546.388	-0.02
546.582	0.05
546.776	-0.01
546.97	0.03
547.165	0.05
547.359	0.02
547.553	-0
547.747	0.02
547.941	0.02
548.135	-0
548.329	0.03
548.523	0.03
548.717	0.02
548.911	0.01
549.105	0.01
549.299	0.02
549.493	0.05
549.687	0.05
549.881	0.02
550.075	-0
550.269	-0
550.463	0.02
550.657	0.01
550.85	0.03
551.044	-0.01
551.238	0.01
551.432	-0
551.626	0.01
551.82	0.02
552.013	0
552.207	0.02
552.401	0.02
552.594	0.02
552.788	0
552.982	-0.01
553.176	0.01
553.369	0.01
553.563	0.03
553.756	-0.04
553.95	-0.01
554.144	-0.02
554.337	0.06
554.531	0.03
554.724	0
554.918	-0.01
555.111	0.03
555.305	0.02
555.498	0.07
555.692	0.03
555.885	-0.01
556.079	0.03
556.272	-0.01
556.466	0.04
556.659	0.01
556.852	0.02
557.046	0.01
557.239	0.04
557.432	-0.03
557.626	-0.01
557.819	0.03
558.012	0.03
558.206	0
558.399	0.01
558.592	0.02
558.785	0.01
558.979	0.03
559.172	0.03
559.365	0.06
559.558	0.03
559.751	0.02
559.944	0.02
560.138	-0.03
560.331	0
560.524	-0.02
560.717	0.01
560.91	0
561.103	0.02
561.296	0.01
561.489	0.02
561.682	0.03
561.875	0.04
562.068	0.01
562.261	0.03
562.454	0.06
562.647	0.02
562.84	0.03
563.032	0
563.225	0.01
563.418	0.04
563.611	0.01
563.804	0
563.997	-0.02
564.19	-0.01
564.382	0.02
564.575	-0
564.768	0.01
564.961	-0.01
565.153	-0.02
565.346	0.03
565.539	0.03
565.731	0.04
565.924	0.05
566.117	0.03
566.309	0.01
566.502	0
566.695	-0
566.887	0.03
567.08	-0.02
567.272	0.01
567.465	-0.01
567.657	0.01
567.85	0.03
568.042	0.01
568.235	0.06
568.427	0.02
568.62	0.03
568.812	0.02
569.005	0.02
569.197	-0.03
569.389	0.01
569.582	0.02
569.774	0.01
569.966	-0.02
570.159	-0.05
570.351	0.01
570.543	-0.01
570.736	0
570.928	-0.02
571.12	-0
571.312	-0.01
571.505	-0.04
571.697	0.04
571.889	-0.01
572.081	-0.02
572.273	-0.02
572.465	0.05
572.658	-0.01
572.85	0.02
573.042	0.01
573.234	0.02
573.426	0.02
573.618	-0.02
573.81	0.03
574.002	0.04
574.194	0.04
574.386	-0.02
574.578	-0.04
574.77	-0.01
574.962	0.01
575.154	-0.02
575.346	-0
575.538	0.01
575.729	-0.02
575.921	-0.02
576.113	-0.01
576.305	0.05
576.497	0
576.689	-0.02
576.88	-0.04
577.072	0.03
577.264	0.01
577.456	0.01
577.647	-0.09
577.839	0.03
578.031	0.01
578.223	-0.02
578.414	-0.01
578.606	0.02
578.798	0
578.989	-0.01
579.181	-0.01
579.372	-0
579.564	-0.01
579.755	0.02
579.947	0.01
580.139	0.02
580.33	-0.03
580.522	-0.01
580.713	-0.07
580.905	-0.01
581.096	0.03
581.287	0.02
581.479	-0.03
581.67	0.03
581.862	0.01
582.053	-0.04
582.244	-0.05
582.436	0
582.627	-0.01
582.818	-0.02
583.01	-0.03
583.201	0.01
583.392	0.02
583.583	0.01
583.775	-0
583.966	0
584.157	0.01
584.348	-0
584.54	-0.03
584.731	0.02
584.922	-0.02
585.113	-0.03
585.304	0.03
585.495	0.03
585.686	0.01
585.877	0.01
586.068	0.01
586.259	0.02
586.45	0
586.641	0.01
586.832	-0.05
587.023	0.01
587.214	0.02
587.405	0.03
587.596	-0.05
587.787	0.05
587.978	-0.01
588.169	-0.02
588.36	-0.02
588.551	0
588.742	-0.02
588.932	-0.01
589.123	0.01
589.314	0.02
589.505	0.02
589.696	0.01
589.886	-0.02
590.077	-0.02
590.268	0.01
590.458	-0.02
590.649	-0.03
590.84	0.05
591.03	-0.03
591.221	-0.03
591.412	-0.04
591.602	0.03
591.793	0.02
591.984	-0.04
592.174	0.01
592.365	0.07
592.555	-0.04
592.746	0.02
592.936	0.02
593.127	0.03
593.317	0.05
593.508	-0.01
593.698	-0.04
593.889	0.02
594.079	0.02
594.269	-0.04
594.46	0.01
594.65	0.01
594.84	-0.01
595.031	-0.01
595.221	-0.02
595.411	-0.02
595.602	0.04
595.792	-0.02
595.982	-0
596.172	0.07
596.363	0.03
596.553	0.01
596.743	-0.02
596.933	-0.01
597.123	0.04
597.314	-0.02
597.504	-0.04
597.694	0.04
597.884	0.01
598.074	0
598.264	-0.02
598.454	0.02
598.644	0
598.834	0.01
599.024	-0.06
599.214	0
599.404	0.03
599.594	-0.01
599.784	-0.02
599.974	0.02
600.164	0.04
600.354	-0.05
600.544	-0.05
600.734	0.01
600.924	0.07
601.114	-0.02
601.303	-0.01
601.493	0
601.683	0.01
601.873	0.01
602.063	-0.03
602.252	0.02
602.442	-0.05
602.632	-0.05
602.821	-0.03
603.011	0.02
603.201	-0.06
603.39	-0.04
603.58	-0.04
603.77	0.02
603.959	0.04
604.149	-0.01
604.339	-0.02
604.528	0.02
604.718	0.04
604.907	-0.01
605.097	-0.01
605.286	-0.02
605.476	0.02
605.665	0.03
605.855	-0.04
606.044	0
606.234	0
606.423	-0
606.612	-0.06
606.802	0.03
606.991	0.04
607.181	0.04
607.37	-0.03
607.559	0
607.749	-0.04
607.938	0.03
608.127	-0.02
608.316	-0.01
608.506	0.02
608.695	-0.01
608.884	-0.03
609.073	0.01
609.263	0.04
609.452	0.01
609.641	-0.01
609.83	-0.03
610.019	0
610.208	-0.01
610.397	0.02
610.586	0.03
610.775	0
610.965	-0.02
611.154	-0.02
611.343	0.02
611.532	0
611.721	-0.01
611.91	-0.02
612.099	0.04
612.287	-0.01
612.476	-0.01
612.665	-0
612.854	-0.05
613.043	0.04
613.232	0.01
613.421	-0.06
613.61	-0
613.798	-0.04
613.987	0.02
614.176	-0.01
614.365	0.04
614.554	0.02
614.742	0.03
614.931	-0.02
615.12	0.06
615.309	-0.02
615.497	0.02
615.686	-0.02
615.875	-0.02
616.063	-0.01
616.252	-0.04
616.44	-0.02
616.629	0.01
616.818	0.04
617.006	0.01
617.195	-0.02
617.383	0.02
617.572	-0.01
617.76	-0.03
617.949	-0.05
618.137	0.02
618.326	0.01
618.514	-0.02
618.703	-0
618.891	0.04
619.079	-0.05
619.268	0.01
619.456	-0.05
619.644	0.06
619.833	0.01
620.021	0.01
620.209	-0.05
620.398	0.03
620.586	0.01
620.774	0
620.962	0.01
621.151	0.04
621.339	-0.02
621.527	-0.05
621.715	-0.02
621.903	-0.06
622.092	-0.04
622.28	-0
622.468	0.01
622.656	-0.02
622.844	0.02
623.032	-0
623.22	-0.07
623.408	0.02
623.596	-0.04
623.784	0.02
623.972	-0.03
624.16	-0.03
624.348	0.05
624.536	-0.01
624.724	-0.03
624.912	0.05
625.1	0.01
625.288	-0.06
625.476	-0.04
625.664	0.02
625.851	-0.06
626.039	-0.01
626.227	0
626.415	-0.01
626.603	-0.06
626.79	-0
626.978	-0.01
627.166	0.05
627.354	0.02
627.541	-0.02
627.729	-0.05
627.917	0.03
628.104	0.04
628.292	0.03
628.48	-0.01
628.667	0.02
628.855	-0
629.042	0.02
629.23	-0.02
629.418	0.01
629.605	-0.04
629.793	-0.01
629.98	-0.05
630.168	-0.04
630.355	-0.01
630.543	0
630.73	-0
630.917	0.03
631.105	0.08
631.292	-0
631.48	0
631.667	0.08
631.854	-0
632.042	-0
632.229	-0.04
632.416	-0.02
632.604	-0.02
632.791	-0.04
632.978	0.05
633.165	0.05
633.353	0.06
633.54	0.01
633.727	-0.06
633.914	-0.01
634.101	-0.07
634.289	0.04
634.476	-0.05
634.663	-0.04
634.85	-0
635.037	-0.02
635.224	-0.09
635.411	0.04
635.598	0.01
635.785	-0.01
635.972	0.02
636.159	0
636.346	-0.05
636.533	-0
636.72	-0.03
636.907	-0.02
637.094	0.03
637.281	-0.01
637.468	0.03
637.655	-0.02
637.842	-0.01
638.029	-0.04
638.215	0.03
638.402	-0.01
638.589	-0.02
638.776	-0.03
638.963	-0.02
639.149	0.03
639.336	0.05
639.523	-0.01
639.709	-0.03
639.896	-0
640.083	0.04
640.27	0.02
640.456	-0.04
640.643	0.03
640.829	-0.06
641.016	-0.01
641.203	-0.07
641.389	0.03
641.576	0.03
641.762	0
641.949	-0.01
642.135	0.03
642.322	-0.01
642.508	-0.05
642.695	0.03
642.881	-0.02
643.068	0.02
643.254	-0.01
643.441	0.05
643.627	-0.01
643.813	-0.06
644	0.05
644.186	-0.01
644.372	0.02
644.559	0.05
644.745	-0.01
644.931	-0.03
645.118	0.01
645.304	-0.01
645.49	-0.03
645.676	0.01
645.862	0.01
646.049	0.05
646.235	0.02
646.421	0.08
646.607	0.08
646.793	-0.03
646.979	-0.03
647.165	0.02
647.352	-0.01
647.538	0.04
647.724	-0.01
647.91	0.01
648.096	0.02
648.282	0
648.468	-0.01
648.654	-0.01
648.84	0.01
649.026	0.01
649.212	-0.02
649.397	-0.08
649.583	-0.06
649.769	0.01
649.955	0
650.141	-0
650.327	0.02
650.513	-0.04
650.698	0.02
650.884	-0.09
651.07	0.03
651.256	0.01
651.442	-0
651.627	-0.01
651.813	0.03
651.999	0.01
652.184	0.04
652.37	0
652.556	-0.01
652.741	0.04
652.927	-0.07
653.113	0.02
653.298	0.04
653.484	-0
653.669	-0.1
653.855	-0.01
654.04	0.03
654.226	0.03
654.412	-0.04
654.597	-0.05
654.782	0.02
654.968	0.04
655.153	-0.01
655.339	-0.06
655.524	-0.06
655.71	0.02
655.895	-0.04
656.08	0.01
656.266	0.05
656.451	-0.01
656.636	-0.05
656.822	0
657.007	-0.04
657.192	-0.04
657.378	-0.05
657.563	-0.03
657.748	0.02
657.933	-0
658.118	-0.02
658.304	-0.02
658.489	0.01
658.674	0.04
658.859	-0.04
659.044	-0
659.229	0.02
659.414	-0
659.599	-0.01
659.785	-0.06
659.97	-0.03
660.155	0.03
660.34	-0.03
660.525	-0.02
660.71	-0.01
660.895	0.05
661.08	-0.03
661.264	-0.04
661.449	0.01
661.634	0.05
661.819	0.01
662.004	0.02
662.189	-0.09
662.374	-0.02
662.559	-0.06
662.743	-0.05
662.928	-0.02
663.113	-0.04
663.298	-0.06
663.483	-0
663.667	0
663.852	-0.04
664.037	-0.02
664.221	-0.05
664.406	0.03
664.591	0.02
664.775	0.02
664.96	-0.03
665.145	0
665.329	0.02
665.514	-0.06
665.698	-0.01
665.883	-0.07
666.068	0.09
666.252	0.02
666.437	-0.01
666.621	-0.02
666.806	0
666.99	-0.01
667.174	-0.01
667.359	0.07
667.543	-0.01
667.728	-0.01
667.912	-0.1
668.096	0.01
668.281	-0.04
668.465	-0.02
668.649	0.01
668.834	-0.03
669.018	-0.01
669.202	-0.01
669.387	0
669.571	0.04
669.755	-0.07
669.939	-0.01
670.124	-0.02
670.308	0.02
670.492	-0.01
670.676	-0.05
670.86	-0
671.044	-0.06
671.228	0.03
671.413	-0.03
671.597	-0.02
671.781	-0.04
671.965	0.01
672.149	-0.02
672.333	-0.02
672.517	-0.03
672.701	0.01
672.885	-0.05
673.069	-0.05
673.253	0.05
673.437	-0
673.621	-0.05
673.804	0
673.988	0.02
674.172	0
674.356	-0.03
674.54	-0.05
674.724	0.08
674.908	-0.01
675.091	0.01
675.275	-0
675.459	0.02
675.643	0.02
675.826	0.02
676.01	0
676.194	-0.03
676.377	0.01
676.561	0.02
676.745	0.03
676.928	0.01
677.112	0.04
677.296	-0.05
677.479	-0.03
677.663	-0
677.846	0.01
678.03	-0.01
678.213	-0.02
678.397	0.02
678.58	-0.02
678.764	-0.06
678.947	-0.02
679.131	-0.04
679.314	0.02
679.498	-0.02
679.681	-0.05
679.865	0.05
680.048	-0
680.231	-0.02
680.415	-0
680.598	-0.01
680.781	-0.02
680.965	0
681.148	0.01
681.331	0.01
681.514	0.02
681.698	-0.06
681.881	-0.02
682.064	0
682.247	0.02
682.43	-0.05
682.614	-0.01
682.797	0.07
682.98	0.04
683.163	-0.03
683.346	-0.02
683.529	0.02
683.712	0
683.895	-0.02
684.078	-0.06
684.261	-0.05
684.444	0.01
684.627	0.01
684.81	-0.06
684.993	-0
685.176	0.03
685.359	-0.08
685.542	-0.03
685.725	0.05
685.908	-0.01
686.091	-0.07
686.274	0.03
686.457	0.03
686.639	-0.02
686.822	0.08
687.005	0
687.188	0.05
687.371	0.01
687.553	0.02
687.736	-0.03
687.919	0.04
688.102	0.05
688.284	-0.04
688.467	-0
688.65	0.03
688.832	-0.08
689.015	-0.06
689.197	-0.1
689.38	0.06
689.563	0.06
689.745	-0.02
689.928	-0.06
690.11	-0
690.293	0.04
690.475	-0.12
690.658	0.02
690.84	-0.05
691.023	-0.03
691.205	-0.04
691.388	0.01
691.57	0.06
691.752	0.05
691.935	-0.1
692.117	-0.01
692.3	0.02
692.482	-0.09
692.664	0.04
692.847	0.02
693.029	0.05
693.211	0.03
693.393	-0.02
693.576	-0.05
693.758	-0.05
693.94	-0.03
694.122	-0.06
694.304	-0.05
694.487	0.01
694.669	0.08
694.851	-0.02
695.033	-0
695.215	-0.04
695.397	-0.02
695.579	0.02
695.761	-0.06
695.943	-0.08
696.125	0.08
696.308	0
696.49	-0.1
696.671	0.12
696.853	0.01
697.035	0.17
697.217	-0.03
697.399	0.01
697.581	-0.04
697.763	0.03
697.945	-0.04
698.127	-0.02
698.309	0.09
698.491	0.02
698.672	0.04
698.854	0.04
699.036	0.05
699.218	-0.04
699.399	0.05
699.581	0.03
699.763	-0.02
699.945	-0.07
700.126	-0.07
700.308	0.04
700.49	0.01
700.671	-0.07
700.853	-0.03
701.035	-0.02
701.216	0.01
701.398	-0.08
701.579	-0.01
701.761	0.06
701.943	-0.05
702.124	-0.04
702.306	-0.02
702.487	0.1
702.669	-0.05
702.85	-0.09
703.031	-0.16
703.213	0.04
703.394	0.04
703.576	-0.04
703.757	0.05
703.938	0.06
704.12	0.15
704.301	-0.01
704.483	-0.09
704.664	-0.02
704.845	0.08
705.026	0.04
705.208	-0.01
705.389	0
705.57	0.03
705.751	-0.08
705.933	-0.04
706.114	0.01
706.295	0.02
706.476	-0.06
706.657	0.07
706.838	0.06
707.02	0.13
707.201	-0.03
707.382	-0.06
707.563	0.02
707.744	-0.04
707.925	-0.05
708.106	-0.04
708.287	-0.01
708.468	0.15
708.649	-0.05
708.83	0.03
709.011	0.01
709.192	0.04
709.373	-0.08
709.554	0.04
709.734	0.04
709.915	0.05
710.096	-0.03
710.277	-0.08
710.458	-0.02
710.639	0.06
710.819	-0.06
711	-0.01
711.181	0.05
711.362	0.05
711.542	-0.03
711.723	-0.03
711.904	0.04
712.085	0.03
712.265	-0.05
712.446	-0.06
712.627	-0.01
712.807	0.03
712.988	-0.03
713.168	-0.11
713.349	-0.02
713.53	-0.07
713.71	-0.06
713.891	-0.1
714.071	-0.02
714.252	-0.09
714.432	-0.06
714.613	-0.11
714.793	-0.01
714.974	0.06
715.154	0.07
715.334	0.02
715.515	0.09
715.695	-0.05
715.876	0.02
716.056	-0.06
716.236	-0.09
716.417	-0.01
716.597	-0.1
716.777	0.16
716.957	0.02
717.138	-0.03
717.318	0.03
717.498	-0.05
717.678	0.03
717.859	-0.04
718.039	-0.06
718.219	0.03
718.399	0.03
718.579	-0.07
718.759	-0.11
718.939	-0.02
719.12	-0.01
719.3	-0.02
719.48	-0.17
719.66	-0.12
719.84	0.06
720.02	-0.02
720.2	-0.03
720.38	-0.03
720.56	0.09
720.74	-0.05
720.92	0.03
721.1	0.14
721.279	-0.03
721.459	-0.01
721.639	-0.07
721.819	0.02
721.999	-0.03
722.179	0.04
722.359	-0.07
722.538	-0
722.718	0.01
722.898	-0.11
723.078	-0.02
723.257	-0.07
723.437	0.02
723.617	0.02
723.797	-0.07
723.976	0.03
724.156	-0.04
724.336	0.02
724.515	0.13
724.695	-0.18
724.874	-0.07
725.054	0.14
725.234	0.02
725.413	-0.01
725.593	-0.08
725.772	0.02
725.952	-0.03
726.131	-0.05
726.311	-0.05
726.49	-0.01
726.67	-0.12
726.849	-0.07
727.028	-0.02
727.208	-0.02
727.387	0.01
727.567	-0.16
727.746	-0.03
727.925	-0.06
728.105	-0.04
728.284	-0.08
728.463	-0.12
728.643	-0.04
728.822	-0.15
729.001	-0.07
729.18	-0
729.359	0.04
729.539	-0.03
729.718	-0.07
729.897	0.02
730.076	-0.04
730.255	-0.12
730.434	-0.01
730.614	0.1
730.793	0.06
730.972	-0.06
731.151	0
731.33	0.08
731.509	0.07
731.688	0.03
731.867	-0.09
732.046	-0.14
732.225	0.17
732.404	-0.09
732.583	-0.16
732.762	-0.01
732.941	-0.02
733.12	0
733.298	-0.04
733.477	-0.04
733.656	-0.05
733.835	-0.09
734.014	0.06
734.193	0.03
734.371	0.06
734.55	0.02
734.729	-0.18
734.908	0.02
735.086	-0.05
735.265	0.05
735.444	-0.1
735.623	-0.15
735.801	-0.07
735.98	0.07
736.159	-0.06
736.337	0.11
736.516	-0.07
736.694	0.04
736.873	-0.12
737.052	0.12
737.23	0.09
737.409	-0.05
737.587	0.1
737.766	-0.28
737.944	-0.09
738.123	-0.04
738.301	0.01
738.479	0.01
738.658	0.05
738.836	-0.23
739.015	-0
739.193	0.06
739.371	-0.09
739.55	-0.08
739.728	-0.07
739.906	0.14
740.085	0.15
740.263	-0.05
740.441	-0.26
740.62	0.19
740.798	0.04
740.976	-0.08
741.154	0.01
741.332	0.14
741.511	-0.03
741.689	0.15
741.867	0.11
742.045	-0
742.223	-0.02
742.401	-0.1
742.579	-0.16
742.757	0.13
742.935	-0.16
743.114	-0.07
743.292	-0.05
743.47	-0.02
743.648	-0.01
743.826	0.01
744.004	0.04
744.181	0.03
744.359	-0.03
744.537	0.1
744.715	-0.01
744.893	-0.02
745.071	-0.02
745.249	-0.04
745.427	-0.04
745.605	0.09
745.782	0.03
745.96	0.02
746.138	0.03
746.316	0.19
746.493	-0.08
746.671	0.03
746.849	-0.07
747.027	0.19
747.204	-0.14
747.382	0.02
747.56	-0.11
747.737	-0.13
747.915	-0.04
748.093	-0.01
748.27	-0.03
748.448	-0.12
748.625	-0.22
748.803	-0.03
748.98	-0.07
749.158	-0.01
749.335	0.1
749.513	-0.04
749.69	0.02
749.868	-0.08
750.045	0.02
750.223	-0.04
750.4	-0.11
750.578	0.18
750.755	-0.09
750.932	-0.09
751.11	0.09
751.287	-0.09
751.464	0.11
751.642	-0.07
751.819	0.03
751.996	0.02
752.173	-0.1
752.351	-0.05
752.528	0
752.705	-0.1
752.882	-0.02
753.06	-0.02
753.237	0.03
753.414	0.14
753.591	0.11
753.768	0.04
753.945	-0.11
754.122	-0.06
754.299	0.13
754.476	-0.16
754.654	-0.05
754.831	-0.02
755.008	-0.07
755.185	-0.11
755.362	-0.05
755.539	-0.02
755.716	-0.07
755.892	-0.07
756.069	-0.15
756.246	-0.05
756.423	0.02
756.6	0.05
756.777	-0.04
756.954	0.14
757.131	-0.1
757.307	-0.16
757.484	-0.25
757.661	0
757.838	0.06
758.015	-0.16
758.191	-0.01
758.368	0.02
758.545	0.07
758.721	-0.03
758.898	-0.15
759.075	-0.02
759.251	0.07
759.428	0.02
759.605	-0.16
759.781	-0.15
759.958	0.06
760.134	-0.02
760.311	-0.07
760.488	0.14
760.664	0.22
760.841	-0.03
761.017	-0.12
761.194	0.08
761.37	0.1
761.547	0
761.723	-0.09
761.899	-0.04
762.076	-0.09
762.252	-0.1
762.429	-0.07
762.605	0.07
762.781	-0.07
762.958	0.14
763.134	-0.09
763.31	-0.1
763.486	0.14
763.663	-0.21
763.839	0.08
764.015	-0.26
764.191	-0.12
764.368	-0.07
764.544	-0.06
764.72	-0.05
764.896	-0.03
765.072	0.03
765.248	-0.08
765.425	-0.03
765.601	0
765.777	0.05
765.953	-0.17
766.129	-0.08
766.305	-0.14
766.481	0.11
766.657	-0.03
766.833	0.13
767.009	-0.11
767.185	-0.06
767.361	0.11
767.537	-0.06
767.713	0.13
767.889	-0.05
768.065	0.01
768.24	-0.21
768.416	-0.01
768.592	-0.19
768.768	-0.06
768.944	-0.13
769.12	-0.14
769.295	-0.04
769.471	-0.05
769.647	0.05
769.823	0.15
769.998	-0.07
770.174	-0.2
770.35	0.23
770.525	0.24
770.701	0.15
770.877	-0.03
771.052	-0.13
771.228	0.05
771.403	0.02
771.579	0.09
771.755	0.2
771.93	-0.1
772.106	-0.2
772.281	-0.24
772.457	-0.05
772.632	0.02
772.808	-0.25
772.983	-0.07
773.159	-0.18
773.334	0.12
773.509	0.05
773.685	-0.14
773.86	0.37
774.036	0.16
774.211	0
774.386	-0.09
774.562	-0.05
774.737	0.17
774.912	-0.07
775.087	0.11
775.263	-0.01
775.438	-0.06
775.613	-0.01
775.788	-0.04
775.964	0.16
776.139	0.25
776.314	-0.19
776.489	-0.01
776.664	0.07
776.839	-0.16
777.014	0.08
777.19	0.09
777.365	0.12
777.54	0.25
777.715	-0.16
777.89	-0.11
778.065	-0.04
778.24	0.01
778.415	0.27
778.59	-0.3
778.765	-0.11
778.94	0.13
779.115	0.04
779.289	-0.08
779.464	-0.14
779.639	0.04
779.814	-0.2
779.989	-0.29
780.164	0.35
780.339	0.05
780.513	-0.18
780.688	-0.26
780.863	-0.09
781.038	0.32
781.212	-0.07
781.387	0.02
781.562	0.28
781.737	0.14
781.911	-0.01
782.086	-0.22
782.261	-0.05
782.435	0.16
782.61	-0.11
782.784	-0.06
782.959	0.14
783.134	-0.13
783.308	-0.04
783.483	0.06
783.657	0.29
783.832	0.06
784.006	-0.26
784.181	-0.08
784.355	0.24
784.53	-0.21
784.704	-0.05
784.878	0.2
785.053	-0.08
785.227	0.19
785.402	0.44
785.576	-0.27
785.75	-0.07
785.925	0.08
786.099	0.02
786.273	-0.14
786.448	-0.01
786.622	0.18
786.796	0.11
786.97	-0.15
787.145	0.67
787.319	-0.17
787.493	-0.18
787.667	-0.2
787.841	0.09
788.015	0.16
788.19	-0.16
788.364	0.14
788.538	0.17
788.712	0.04
788.886	0.07
789.06	0.19
789.234	0.31
789.408	-0.34
789.582	-0.08
789.756	0.04
789.93	-0.31
790.104	0.17
790.278	0.02
790.452	-0.42
790.626	0.17
790.8	-0.04
790.973	0.11
791.147	0.22
791.321	0.18
791.495	0.16
791.669	0.05
791.843	0.06
792.016	-0.13
792.19	0.37
792.364	-0.28
792.538	0.49
792.711	0.07
792.885	-0.1
793.059	-0.28
793.233	-0.69
793.406	0.1
793.58	-0.07
793.754	0.1
793.927	-0.08
794.101	0.21
794.274	-0.09
794.448	0.31
794.622	-0.29
794.795	0.25
794.969	-0.15
795.142	0.22
795.316	-0.06
795.489	-0.17
795.663	0.55
795.836	0.04
796.009	-0.45
796.183	0.45
796.356	-0.01
796.53	0.12
796.703	-0.21
796.876	0.37
797.05	-0.03
797.223	-0.2
797.396	0.12
797.57	-0.02
797.743	0.39
797.916	-0.02
798.09	-0.18
798.263	0.2
798.436	0.41
798.609	0.09
798.782	0.12
798.956	-0.11
799.129	-0.19
799.302	-0.27
799.475	-0.35
799.648	-0.15
799.821	-0.37
799.994	-0.1
800.167	-0.29
800.34	0.05
800.514	-0.12
800.687	-0.01
800.86	-0.02
801.033	-0.16
801.206	-0.19
801.379	-0.37
801.551	0.2
801.724	0.16
801.897	0.31
802.07	-0.08
802.243	-0.4
802.416	-0.17
802.589	0.02
802.762	0.3
802.935	-0.01
803.107	0.03
803.28	0.26
803.453	-0.04
803.626	-0.44
803.798	0.18
803.971	-0.22
804.144	0.13
804.317	-0.09
804.489	0.12
804.662	-0.12
804.835	-0.05
805.007	-0.21
805.18	0.45
805.353	0.21
805.525	-0.26
805.698	-0.09
805.87	0.42
806.043	0.02
806.215	-0.54
806.388	-0.12
806.56	0.07
806.733	0.02
806.905	-0.29
807.078	-0.1
807.25	0.09
807.423	-0.12
807.595	0.17
807.768	-0.11
807.94	0.54
808.112	-0.04
808.285	0.21
808.457	0.17
808.629	-0.18
808.802	0.45
808.974	0.01
809.146	-0.12
809.318	-0.13
809.491	0.21
809.663	0.12
809.835	-0.65
810.007	-0.14
810.18	-0.26
810.352	-0.63
810.524	-0.15
810.696	0.16
810.868	-0.01
811.04	-0.11
811.212	-0.25
811.384	-0.04
811.556	0.05
811.728	-0.34
811.901	0.59
812.073	-0.34
812.245	0.46
812.417	-0.07
812.589	-0.93
812.76	0.05
812.932	0.17
813.104	0.37
813.276	-0.21
813.448	0.22
813.62	0.27
813.792	0.04
813.964	0.27
814.136	0.2
814.307	-0.11
814.479	-0.68
814.651	-0.55
814.823	0.94
814.995	0.01
815.166	0.07
815.338	-0.22
815.51	-0.26
815.681	0.7
815.853	-0.11
816.025	0.15
816.196	0.51
816.368	0.07
816.54	-0.63
816.711	-0.21
816.883	0.19
817.054	0.81
817.226	-0.39
817.398	0.3
817.569	-0.14
817.741	-0.39
817.912	0.36
818.084	-0.35
818.255	0.01
818.426	0.01
818.598	-0.07
818.769	-0.43
818.941	0.65
819.112	0.17
819.283	-0.41
819.455	-1.07
819.626	-0.09
819.798	0.25
819.969	-0.11
820.14	0.34
820.311	-0.24
820.483	-0.02
820.654	0.02
820.825	0.22
820.996	-0.05
821.168	-0.23
821.339	-0.16
821.51	-0.54
821.681	-0.29
821.852	0.12
822.023	-0.69
822.195	-0.81
822.366	0.4
822.537	0.39
822.708	0.13
822.879	-0.23
823.05	0.18
823.221	-0.39
823.392	0.22
823.563	-0.09
823.734	0.49
823.905	-0.14
824.076	-0.07
824.247	-0.76
824.418	-0.55
824.589	0.39
824.759	0.19
824.93	-0.05
825.101	-0.6
825.272	0.09
825.443	0.01
825.614	0.37
825.784	-0.84
825.955	1.42
826.126	0.07
826.297	0.23
826.467	0.76
826.638	0.52
826.809	-1.29
826.98	0.47
827.15	0.42
827.321	0.2
827.492	0.7
827.662	-0.06
827.833	0.84
828.003	0.28
828.174	-0.38
828.345	-0.75
828.515	0.77
828.686	0.1
828.856	-0.34
829.027	-0.27
829.197	0.22
829.368	0.59
829.538	0.07
829.709	-0.51
829.879	-0.38
830.049	0.02
830.22	-0.45
830.39	0.04
830.56	0.41
830.731	-0.65
830.901	-0.58
831.072	-0.36
831.242	0.4
831.412	-0.12
831.582	-0.41
831.753	-0.73
831.923	0.19
832.093	-0.23
832.263	0.05
832.434	-0.51
832.604	-0.16
832.774	0.33
832.944	-0.15
833.114	-0.1
833.284	0.03
833.454	-0.22
833.624	-0.58
833.795	-0.46
833.965	0.67
834.135	0.3
834.305	-0.44
834.475	-1.12
834.645	-0.33
834.815	0.67
834.985	-0.33
835.155	-0.6
835.325	0.28
835.494	0.28
835.664	-0.42
835.834	-1.08
836.004	0.1
836.174	-0.09
836.344	0.02
836.514	-1.18
836.684	-0.02
836.853	-0.34
837.023	-0.29
837.193	-0.67
837.363	1.06
837.532	0.79
837.702	-0.44
837.872	-1.09
838.041	0.77
838.211	1.32
838.381	-0.44
838.55	0.04
838.72	1.47
838.89	1.03
839.059	-0.46
839.229	-0.91
839.398	0.94
839.568	0.2
839.738	-0.14
839.907	0.59
840.077	-0.08
840.246	-1.04
840.416	-0.44
840.585	-0.93
840.755	0.51
840.924	0.59
841.093	-1.14
841.263	-0.93
841.432	0.05
841.602	-0.9
841.771	-1.08
841.94	-0.38
842.11	1.99
842.279	1.32
842.448	-0.31
842.617	-1.37
842.787	0.1
842.956	-0.41
843.125	0.34
843.294	0.42
843.464	1.27
843.633	-0.01
843.802	-0.88
843.971	0.03
844.14	0.48
844.309	0.49
844.479	-1.45
844.648	-0.87
844.817	-0.5
844.986	0.4
845.155	-0.31
845.324	-0.38
845.493	-0.41
845.662	-1.44
845.831	0.25
846	1.02
846.169	-0.07
846.338	1
846.507	-0.17
846.676	0.25
846.844	-0.42
847.013	0.71
847.182	0.2
847.351	-1.72
847.52	0.3
847.689	0.42
847.858	-0.36
848.026	-0.84
848.195	0.04
848.364	-1.38
848.533	-1.03
848.701	-0.85
848.87	-0.28
849.039	0.28
849.207	0.57
849.376	1.05
849.545	0.99
849.713	-0.84
849.882	-0.31
850.051	-0.25
850.219	0.05
850.388	0.78
850.556	0.12
850.725	-0.41
850.893	-0.67
851.062	0.54
851.23	0.21
851.399	-2.29
851.567	-0.49
851.736	0.06
851.904	-1.88
852.073	0.25
852.241	1.17
852.41	-0.91
852.578	-0.46
852.746	-0.04
852.915	0.36
853.083	-0.73
853.251	-1.5
853.42	-0.63
853.588	0.71
853.756	1.46
853.924	-0.67
854.093	-0.41
854.261	-0.86
854.429	-0.5
854.597	-0.19
854.765	0.19
854.934	0.4
855.102	1.45
855.27	-1.11
855.438	0.88
855.606	1.12
855.774	1.85
855.942	-1.93
856.11	-2.15
856.278	0.15
856.446	1.07
856.614	0.4
856.782	-0.29
856.95	0.06
857.118	0.25
857.286	0.01
857.454	-1.78
857.622	0.25
857.79	0.02
857.958	-2.11
858.126	-1
858.294	-2.2
858.462	-0.61
858.629	-1.16
858.797	-1.22
858.965	-0.13
859.133	0.24
859.301	-1.46
859.468	0.44
859.636	-1.32
859.804	1.89
859.971	0.75
860.139	-1.12
860.307	0.47
860.474	0.75
860.642	-0.92
860.81	-0.7
860.977	-1.4
861.145	1.03
861.313	-0.64
861.48	-0.36
861.648	1.59
861.815	-0.22
861.983	-2.5
862.15	-0.61
862.318	-0.45
862.485	0.47
862.653	-1.12
862.82	-0.67
862.988	2.57
863.155	1.55
863.322	-1.29
863.49	-1.95
863.657	-0.04
863.824	1.62
863.992	0.75
864.159	1.15
864.326	0.93
864.494	-0.7
864.661	2.27
864.828	-2.11
864.996	1.33
865.163	0.76
865.33	-0.31
865.497	-2.69
865.664	-0.06
865.832	-2.27
865.999	-0.57
866.166	-2.58
866.333	-0.06
866.5	-0.21
866.667	-0.46
866.834	0.18
867.001	0.55
867.168	-1.05
867.335	0.55
867.502	-2.46
867.669	0.39
867.836	2.49
868.003	0.19
868.17	0.85
868.337	-0.91
868.504	2.03
868.671	-3.12
868.838	-0.55
869.005	0.31
869.172	0.11
869.339	-1.13
869.505	-1.21
869.672	1.95
869.839	2.13
870.006	-0.33
870.173	-3.2
870.339	0.51
870.506	3.73
870.673	-0.42
870.84	0.07
871.006	0.37
871.173	0.18
871.34	-0.59
871.506	-2.26
871.673	0.64
871.839	-2.46
872.006	0.28
872.173	0.4
872.339	0.84
872.506	1.74
872.672	-0.51
872.839	-2.08
873.005	1.5
873.172	3.02
873.338	3.17
873.505	-0.45
873.671	2.22
873.838	0.24
874.004	-1.03
874.171	-0.7
874.337	0.31
874.503	2.48
874.67	-1.05
874.836	-0.24
875.002	1.2
875.169	0.66
875.335	-0.03
875.501	-2.8
875.668	2.75
875.834	-1.15
876	-2.02
876.166	0.86
876.332	2.39
876.499	3.47
876.665	-2.12
876.831	-0.07
876.997	2.73
877.163	0.83
877.329	-1.22
877.495	0.19
877.662	-0.03
877.828	-0.42
877.994	-0.66
878.16	-4.67
878.326	-0.51
878.492	-0.7
878.658	-0.9
878.824	-1.32
878.99	1.27
879.156	-2.66
879.322	1.91
879.487	-0.58
879.653	-0.03
879.819	1.16
879.985	-1.6
880.151	-0.86
880.317	0.73
880.483	-1.55
880.648	-0.16
880.814	-1.15
880.98	0.7
881.146	-3.54
881.312	-1.89
881.477	-3.04
881.643	1.02
881.809	1.72
881.974	1.07
882.14	-1.69
882.306	-1.39
882.471	3.64
882.637	0.12
882.803	-0.3
882.968	2.38
883.134	2.12
883.299	-1.21
883.465	-0.97
883.63	0.66
883.796	-0.48
883.961	-0.43
884.127	1.44
884.292	-3.32
884.458	-2.64
884.623	-2.63
