Data from Apollo_Calib_20240827__AbsoluteIrradiance__625__09-34-00-136.txt Node

Date: Wed Aug 28 09:34:00 BST 2024
User: biology
Spectrometer: FLMT08252
Trigger mode: 0
Integration Time (sec): 5.000000E-1
Scans to average: 5
Electric dark correction enabled: true
Nonlinearity correction enabled: false
Boxcar width: 0
XAxis mode: Wavelengths
Number of Pixels in Spectrum: 3648
>>>>>Begin Spectral Data<<<<<
179.588	-0
179.809	-0
180.03	-0
180.251	-0
180.473	-0
180.694	0
180.915	0
181.136	-0
181.357	-0
181.578	-0
181.799	0
182.02	-0
182.241	-0
182.462	-0
182.683	0
182.904	0
183.125	0
183.346	-0
183.567	-0
183.788	-0
184.009	-0
184.23	0
184.451	0
184.672	-0
184.892	-0
185.113	-0
185.334	0
185.555	-0
185.776	-0
185.996	0
186.217	-0
186.438	-0
186.659	-0
186.879	0
187.1	-0
187.321	-0
187.541	-0
187.762	-0
187.983	-0
188.203	-0
188.424	0
188.644	-0
188.865	-0
189.086	-0
189.306	-0
189.527	0
189.747	-0
189.968	-0
190.188	-0
190.409	-0
190.629	0
190.849	-0
191.07	-0
191.29	-0
191.511	0
191.731	-0
191.951	-0
192.172	-0
192.392	-0
192.612	-0
192.833	-0
193.053	0
193.273	0
193.493	-0
193.714	-0
193.934	0
194.154	0
194.374	0
194.594	0
194.815	-0
195.035	-0
195.255	-0
195.475	-0
195.695	-0
195.915	0
196.135	-0
196.355	0
196.575	0
196.795	-0
197.015	-0
197.235	-0
197.455	-0
197.675	-0
197.895	-0
198.115	-0
198.335	0
198.555	-0
198.775	-0
198.995	0
199.214	0
199.434	0
199.654	-0
199.874	-0
200.094	0.85
200.313	-0.41
200.533	-0.28
200.753	-1.35
200.973	0.58
201.192	0.16
201.412	-1.08
201.632	-0.42
201.851	0.16
202.071	-0.47
202.291	-0.57
202.51	-0.78
202.73	0.27
202.95	-0.43
203.169	-0.6
203.389	-0.28
203.608	-0.03
203.828	-0.59
204.047	-0.68
204.267	0.09
204.486	-0.24
204.706	-0.33
204.925	-0.4
205.145	-0.26
205.364	0.16
205.583	0.34
205.803	-0.94
206.022	-0.35
206.242	-0.02
206.461	0.06
206.68	-0.34
206.9	0.16
207.119	0.24
207.338	0.33
207.557	-0.46
207.777	-0.15
207.996	-0.41
208.215	0.09
208.434	-0.51
208.654	-0.63
208.873	-0.48
209.092	0.29
209.311	-0.44
209.53	-0.09
209.749	-0.34
209.968	-0.43
210.187	-0.1
210.407	-0.66
210.626	-0.22
210.845	0.18
211.064	-0.24
211.283	-0.24
211.502	0.14
211.721	0
211.94	-0.26
212.159	0.18
212.377	0.11
212.596	-0.05
212.815	0.02
213.034	0.19
213.253	0.2
213.472	-0.11
213.691	-0.33
213.91	-0.33
214.128	-0.29
214.347	0.31
214.566	-0.46
214.785	-0.35
215.003	0.06
215.222	0.06
215.441	0.07
215.66	-0.35
215.878	-0.1
216.097	0.11
216.316	-0.45
216.534	-0.12
216.753	0.12
216.972	-0.21
217.19	-0.09
217.409	-0.31
217.627	-0.2
217.846	-0.25
218.064	-0.14
218.283	-0.23
218.501	0.27
218.72	0.11
218.938	-0.34
219.157	-0.19
219.375	0.05
219.594	0.11
219.812	-0.32
220.031	-0.19
220.249	0.37
220.467	0.03
220.686	-0.09
220.904	-0.3
221.122	-0.36
221.341	0.15
221.559	-0.18
221.777	-0.45
221.995	-0.08
222.214	0.12
222.432	-0.27
222.65	0.09
222.868	0.12
223.086	-0.03
223.305	-0.01
223.523	-0.06
223.741	0.18
223.959	-0.19
224.177	-0.38
224.395	-0.08
224.613	0.06
224.831	0.18
225.049	-0.28
225.267	-0.13
225.485	-0.1
225.703	-0.16
225.921	-0.03
226.139	-0.11
226.357	-0.05
226.575	-0.11
226.793	-0.14
227.011	0.31
227.229	-0.03
227.447	0.06
227.665	-0.29
227.883	-0.31
228.1	0.02
228.318	-0.06
228.536	-0.28
228.754	-0.18
228.972	-0.07
229.189	-0.02
229.407	-0.13
229.625	-0.09
229.843	0.01
230.06	0.08
230.278	-0.1
230.496	-0.16
230.713	-0.03
230.931	0.18
231.149	-0.07
231.366	-0.25
231.584	-0.14
231.801	0.28
232.019	-0.07
232.236	-0.22
232.454	-0.11
232.671	-0.06
232.889	-0.11
233.106	-0.14
233.324	-0.12
233.541	-0.14
233.759	0.01
233.976	-0.16
234.194	-0.07
234.411	-0.05
234.628	-0.05
234.846	-0.08
235.063	-0.02
235.28	-0.08
235.498	-0.1
235.715	-0.28
235.932	0
236.149	-0.13
236.367	-0.2
236.584	-0.07
236.801	0.03
237.018	-0.04
237.236	0.03
237.453	-0.28
237.67	0.12
237.887	-0.05
238.104	-0.13
238.321	-0.13
238.538	-0.06
238.755	0.1
238.973	-0.25
239.19	0
239.407	0.04
239.624	-0.02
239.841	-0.21
240.058	-0.16
240.275	-0.03
240.492	0.02
240.709	-0.05
240.925	-0.11
241.142	-0.06
241.359	-0.12
241.576	-0.13
241.793	-0.05
242.01	0.03
242.227	0.09
242.444	-0.01
242.66	0.09
242.877	-0.07
243.094	-0.13
243.311	-0.05
243.527	0
243.744	0.04
243.961	-0.06
244.178	-0.11
244.394	-0.08
244.611	0
244.828	0.09
245.044	-0.15
245.261	-0.06
245.477	-0.02
245.694	-0.18
245.911	-0.12
246.127	0.01
246.344	0.11
246.56	0.04
246.777	-0.08
246.993	-0.03
247.21	0.02
247.426	-0.03
247.643	-0.11
247.859	-0.12
248.076	-0.03
248.292	0.1
248.508	-0.03
248.725	-0.02
248.941	-0.01
249.157	0.06
249.374	-0.07
249.59	-0.13
249.806	-0.1
250.023	0.02
250.239	-0.15
250.455	-0.1
250.671	-0.04
250.888	-0.02
251.104	0.04
251.32	-0.06
251.536	-0.05
251.752	-0.06
251.969	-0.03
252.185	-0
252.401	0.17
252.617	-0.03
252.833	-0.03
253.049	-0.04
253.265	-0.07
253.481	-0.03
253.697	-0.04
253.913	-0.16
254.129	0
254.345	0.02
254.561	-0.04
254.777	-0.04
254.993	-0.01
255.209	-0.01
255.425	-0.01
255.641	-0.09
255.857	0.04
256.073	-0.08
256.288	-0.15
256.504	-0.14
256.72	-0.05
256.936	0.06
257.152	-0.06
257.367	-0.08
257.583	-0.03
257.799	0.06
258.015	-0.1
258.23	-0.04
258.446	0.08
258.662	-0.07
258.877	-0.09
259.093	-0.05
259.309	-0.08
259.524	0.03
259.74	-0.04
259.955	-0.2
260.171	-0.02
260.387	0.01
260.602	-0.03
260.818	-0.01
261.033	-0.1
261.249	-0.06
261.464	-0.09
261.68	-0.14
261.895	0.05
262.11	-0.04
262.326	-0.08
262.541	-0.16
262.757	0.02
262.972	-0.04
263.187	-0.04
263.403	-0.05
263.618	0.05
263.833	-0.02
264.049	-0.1
264.264	-0.02
264.479	0.02
264.694	0.05
264.91	-0.13
265.125	-0.04
265.34	0.04
265.555	0.1
265.77	0.01
265.986	-0.05
266.201	0.01
266.416	0.07
266.631	-0.06
266.846	-0.01
267.061	-0.02
267.276	-0.03
267.491	-0.16
267.706	0.04
267.921	0.01
268.136	0.04
268.351	-0.05
268.566	-0.15
268.781	0.08
268.996	0.03
269.211	-0.04
269.426	-0.1
269.641	-0
269.856	0.05
270.071	-0.12
270.285	-0.15
270.5	0.01
270.715	0.09
270.93	-0.08
271.145	0.03
271.359	0.01
271.574	-0.05
271.789	0.01
272.004	-0.14
272.218	-0.02
272.433	0.03
272.648	-0.11
272.862	0.06
273.077	-0.05
273.292	-0.03
273.506	-0.05
273.721	-0.02
273.936	0.03
274.15	0.03
274.365	-0.05
274.579	0.01
274.794	0.08
275.008	0.04
275.223	-0.12
275.437	-0.02
275.652	-0
275.866	-0
276.081	-0.02
276.295	0.05
276.509	-0.03
276.724	-0.01
276.938	-0.02
277.153	0.03
277.367	0.01
277.581	-0.07
277.796	-0.04
278.01	-0.08
278.224	0.03
278.438	0.11
278.653	-0.06
278.867	-0.1
279.081	-0.19
279.295	-0.06
279.51	-0.02
279.724	-0.13
279.938	0.02
280.152	0
280.366	-0.04
280.58	-0.04
280.794	0.03
281.008	-0.01
281.222	0.03
281.437	0.1
281.651	-0.02
281.865	0.1
282.079	-0.04
282.293	-0.14
282.507	-0.1
282.721	0.01
282.935	-0.01
283.148	-0.13
283.362	-0.05
283.576	-0.11
283.79	0.02
284.004	-0.1
284.218	0.03
284.432	-0.03
284.646	-0.05
284.859	0
285.073	-0.05
285.287	-0.03
285.501	-0.06
285.714	0.01
285.928	0.05
286.142	0.02
286.356	-0.06
286.569	-0.1
286.783	0.05
286.997	-0
287.21	-0.02
287.424	-0.04
287.637	-0.05
287.851	-0.03
288.065	0.01
288.278	-0.01
288.492	0.06
288.705	-0.03
288.919	0.01
289.132	-0.07
289.346	0.05
289.559	-0.11
289.773	-0.13
289.986	-0.01
290.2	-0.06
290.413	0.09
290.626	-0.07
290.84	-0.03
291.053	-0.01
291.267	0
291.48	0.01
291.693	-0.04
291.906	-0.03
292.12	-0.03
292.333	-0.11
292.546	-0.07
292.76	0.11
292.973	-0.02
293.186	0.01
293.399	-0.04
293.612	0.02
293.826	0
294.039	-0.02
294.252	-0.03
294.465	0
294.678	0.04
294.891	0
295.104	-0.1
295.317	-0.06
295.53	0.01
295.743	-0.03
295.956	-0.02
296.169	0.03
296.382	0.02
296.595	-0.01
296.808	-0.05
297.021	0.05
297.234	0.06
297.447	-0.03
297.66	-0.02
297.873	0.03
298.086	0.01
298.299	-0.04
298.511	-0.08
298.724	-0.03
298.937	-0.04
299.15	-0.05
299.363	-0.01
299.575	0.02
299.788	-0
300.001	-0.04
300.213	-0.09
300.426	-0.04
300.639	-0.04
300.852	-0.06
301.064	0.06
301.277	0.06
301.489	0.08
301.702	0.05
301.915	-0.02
302.127	-0.01
302.34	-0.04
302.552	-0.01
302.765	-0.06
302.977	0.04
303.19	-0.04
303.402	-0
303.615	-0.02
303.827	-0.03
304.04	-0.03
304.252	-0.01
304.464	-0.02
304.677	0.1
304.889	0.04
305.102	-0.06
305.314	-0.06
305.526	0.02
305.739	0.02
305.951	-0.04
306.163	-0.02
306.375	0.06
306.588	-0.01
306.8	-0.03
307.012	-0.05
307.224	0
307.436	0.01
307.649	-0.07
307.861	-0
308.073	0.02
308.285	0.02
308.497	-0.05
308.709	-0.05
308.921	-0.02
309.133	0.06
309.346	-0.02
309.558	-0.01
309.77	0.02
309.982	0.02
310.194	0
310.406	-0.04
310.617	0.08
310.829	0.04
311.041	0.02
311.253	-0.02
311.465	-0.03
311.677	-0.04
311.889	-0.06
312.101	-0.03
312.313	0.02
312.524	0.02
312.736	-0.05
312.948	-0.01
313.16	0.03
313.372	-0.01
313.583	-0.01
313.795	-0.02
314.007	-0.01
314.218	0.03
314.43	0.01
314.642	-0.07
314.853	-0.06
315.065	0
315.277	0.02
315.488	-0.02
315.7	0.02
315.912	-0
316.123	-0.04
316.335	-0.03
316.546	0.09
316.758	0.01
316.969	-0.09
317.181	-0.03
317.392	0.02
317.604	0.06
317.815	-0.06
318.026	-0.05
318.238	0.01
318.449	0.06
318.661	-0.08
318.872	-0.05
319.083	-0.07
319.295	0.04
319.506	-0.1
319.717	-0.01
319.929	-0.03
320.14	-0.01
320.351	-0.01
320.562	-0.08
320.774	0.02
320.985	-0.02
321.196	-0.03
321.407	-0.07
321.618	0.05
321.829	0.01
322.041	0
322.252	-0.06
322.463	0
322.674	-0
322.885	-0.07
323.096	-0.04
323.307	-0.03
323.518	0.01
323.729	-0.05
323.94	0
324.151	-0.03
324.362	-0
324.573	0.02
324.784	-0.04
324.995	0.03
325.206	-0.02
325.417	-0.04
325.628	-0.03
325.838	-0.01
326.049	0
326.26	0.03
326.471	-0.04
326.682	-0.03
326.892	-0.04
327.103	-0.09
327.314	-0.07
327.525	0.02
327.735	-0.05
327.946	-0.05
328.157	-0.02
328.368	-0.01
328.578	-0.06
328.789	-0.03
328.999	-0
329.21	-0.07
329.421	0.01
329.631	-0.08
329.842	-0.02
330.052	0.01
330.263	0.04
330.473	0
330.684	-0.05
330.894	-0.06
331.105	-0.01
331.315	-0.04
331.526	-0.06
331.736	0.06
331.947	-0.03
332.157	-0.01
332.367	-0.06
332.578	0.02
332.788	0.05
332.999	0.01
333.209	0
333.419	-0.05
333.629	0.02
333.84	0.02
334.05	-0.04
334.26	0.05
334.47	-0.05
334.681	0.02
334.891	-0.02
335.101	0.02
335.311	0.07
335.521	-0.02
335.732	-0.03
335.942	0.07
336.152	0.05
336.362	0.03
336.572	-0.01
336.782	-0.02
336.992	-0.05
337.202	-0.01
337.412	-0.04
337.622	0.01
337.832	-0.02
338.042	-0.04
338.252	-0.05
338.462	-0.03
338.672	-0.03
338.882	-0.06
339.092	-0.03
339.302	0.02
339.511	0
339.721	-0.01
339.931	-0.06
340.141	0.03
340.351	0.05
340.561	-0.04
340.77	-0.04
340.98	0
341.19	-0.01
341.4	-0.03
341.609	-0.03
341.819	-0.02
342.029	-0.07
342.238	-0.03
342.448	-0.07
342.658	0.01
342.867	-0
343.077	-0.02
343.286	-0
343.496	-0.01
343.706	0.09
343.915	-0.03
344.125	0.03
344.334	0.01
344.544	-0.03
344.753	-0.04
344.963	-0.03
345.172	-0.02
345.381	-0.02
345.591	-0.03
345.8	-0.01
346.01	0.07
346.219	0.03
346.428	-0.13
346.638	0.02
346.847	-0.01
347.056	0.01
347.266	-0.04
347.475	-0.01
347.684	-0.02
347.893	-0.02
348.103	0.01
348.312	-0.04
348.521	-0.02
348.73	-0.04
348.94	0
349.149	-0.02
349.358	-0.04
349.567	-0.01
349.776	-0.04
349.985	-0.05
350.194	0
350.403	0.03
350.612	-0.03
350.821	-0.05
351.03	-0.01
351.239	-0.02
351.448	-0.02
351.657	-0.07
351.866	0.04
352.075	-0.02
352.284	0
352.493	-0.11
352.702	0.04
352.911	-0
353.12	0.01
353.329	-0.04
353.538	0.01
353.746	-0
353.955	-0.03
354.164	-0.02
354.373	-0.04
354.582	0.02
354.79	0.02
354.999	0.02
355.208	-0.04
355.416	0.05
355.625	-0.03
355.834	0.01
356.042	0
356.251	-0.04
356.46	-0.06
356.668	0
356.877	0.04
357.085	0.05
357.294	-0.09
357.503	-0
357.711	0
357.92	0.09
358.128	-0.02
358.337	-0.03
358.545	0
358.754	-0
358.962	0.01
359.17	-0.03
359.379	-0.01
359.587	0
359.796	-0.01
360.004	0.02
360.212	-0
360.421	-0.01
360.629	-0.02
360.837	-0.07
361.046	0.01
361.254	0.07
361.462	0.01
361.67	-0.01
361.879	-0.01
362.087	0.01
362.295	-0
362.503	-0.03
362.711	-0.05
362.92	-0.07
363.128	-0.03
363.336	-0.02
363.544	-0.08
363.752	0
363.96	-0.04
364.168	-0.04
364.376	-0.03
364.584	-0.04
364.792	0.03
365	0.03
365.208	-0.05
365.416	-0.01
365.624	0.01
365.832	-0.04
366.04	0.04
366.248	0.04
366.456	-0.03
366.664	0.01
366.872	-0.01
367.079	-0.02
367.287	-0.01
367.495	-0.02
367.703	0.01
367.911	-0.05
368.118	-0.04
368.326	-0.07
368.534	-0.06
368.742	0.06
368.949	-0.04
369.157	-0.06
369.365	0.03
369.572	-0.02
369.78	-0.05
369.988	0.02
370.195	0.01
370.403	-0.02
370.61	0.01
370.818	0.01
371.026	0.02
371.233	-0.06
371.441	-0.03
371.648	-0.07
371.856	-0.03
372.063	-0.03
372.271	-0.03
372.478	-0.08
372.685	-0.06
372.893	0.05
373.1	-0.07
373.308	-0.04
373.515	0.06
373.722	-0
373.93	0.01
374.137	0.04
374.344	0.07
374.552	0.04
374.759	0.01
374.966	-0.03
375.173	-0.04
375.381	0.02
375.588	-0.02
375.795	-0.07
376.002	-0.02
376.209	-0.05
376.417	-0.03
376.624	-0.02
376.831	0.01
377.038	-0.01
377.245	-0.05
377.452	-0.04
377.659	0.03
377.866	-0.07
378.073	0.02
378.28	-0.03
378.487	0.05
378.694	0
378.901	-0.02
379.108	-0.03
379.315	0.02
379.522	0.07
379.729	-0.03
379.936	-0.02
380.143	0
380.35	-0.07
380.557	0
380.763	-0.01
380.97	-0.02
381.177	0.01
381.384	0.01
381.591	-0.04
381.797	-0
382.004	-0.01
382.211	0.04
382.418	-0.03
382.624	0.03
382.831	0.03
383.038	-0.03
383.244	-0.01
383.451	-0.01
383.658	-0
383.864	-0.03
384.071	-0.06
384.277	0.04
384.484	-0.06
384.69	0.04
384.897	-0.05
385.103	-0.02
385.31	-0.06
385.516	-0.04
385.723	-0.06
385.929	-0.06
386.136	-0
386.342	0.01
386.549	0
386.755	0
386.961	0.02
387.168	-0.03
387.374	-0.02
387.58	0.02
387.787	-0.01
387.993	0.01
388.199	-0.05
388.406	-0.05
388.612	-0.02
388.818	-0.02
389.024	-0.04
389.231	-0.01
389.437	0.03
389.643	0.03
389.849	-0.01
390.055	-0.03
390.261	-0.04
390.467	0
390.674	-0.06
390.88	-0.03
391.086	-0
391.292	-0.06
391.498	0.03
391.704	0.01
391.91	0
392.116	0
392.322	-0.08
392.528	-0.02
392.734	-0.03
392.94	-0.04
393.146	-0.03
393.352	0
393.557	-0.05
393.763	-0.05
393.969	0.01
394.175	-0.02
394.381	0.02
394.587	-0.04
394.792	0
394.998	0.03
395.204	0
395.41	-0.03
395.615	0.01
395.821	-0.02
396.027	0
396.233	-0.06
396.438	-0.01
396.644	0.03
396.85	0.01
397.055	-0.03
397.261	0.02
397.466	-0.04
397.672	-0.01
397.878	0.02
398.083	-0
398.289	-0.06
398.494	0.03
398.7	-0.01
398.905	-0.08
399.111	0.05
399.316	-0.04
399.522	-0.03
399.727	-0.03
399.932	0.02
400.138	-0.01
400.343	0.03
400.549	0.02
400.754	-0.01
400.959	-0.03
401.165	-0.03
401.37	-0.03
401.575	-0.06
401.78	-0.02
401.986	-0.02
402.191	-0.03
402.396	0
402.601	0
402.807	-0.02
403.012	0
403.217	0.01
403.422	-0.02
403.627	-0.01
403.832	-0.07
404.037	0.02
404.243	0.01
404.448	-0.03
404.653	-0.06
404.858	-0.02
405.063	0.01
405.268	-0.07
405.473	-0.1
405.678	-0.06
405.883	0.07
406.088	-0.01
406.293	-0.05
406.498	-0.05
406.703	0.02
406.907	-0.06
407.112	-0.07
407.317	-0.03
407.522	-0.01
407.727	-0.11
407.932	-0.04
408.136	0.03
408.341	-0.02
408.546	0.01
408.751	-0.01
408.956	-0.04
409.16	-0.01
409.365	-0.05
409.57	0
409.774	-0.02
409.979	0.02
410.184	-0.01
410.388	-0.07
410.593	0.04
410.798	0.01
411.002	-0.07
411.207	-0.03
411.411	0.04
411.616	-0.02
411.82	-0.02
412.025	0.01
412.229	-0.01
412.434	0.07
412.638	0.03
412.843	-0.04
413.047	-0.04
413.252	-0.04
413.456	-0.03
413.66	0.03
413.865	-0.06
414.069	0.04
414.273	-0.02
414.478	-0.05
414.682	-0.05
414.886	-0.09
415.091	-0.05
415.295	-0.08
415.499	0.01
415.703	-0.05
415.908	-0.01
416.112	-0.14
416.316	0.03
416.52	-0.04
416.724	-0.12
416.929	-0.07
417.133	0.08
417.337	-0.07
417.541	-0.04
417.745	-0
417.949	0.02
418.153	0.01
418.357	-0.1
418.561	0.04
418.765	0
418.969	0.06
419.173	0.01
419.377	-0.04
419.581	0.08
419.785	-0.06
419.989	-0.06
420.193	-0.01
420.397	-0.02
420.601	0.01
420.804	-0.01
421.008	-0.02
421.212	0
421.416	0.01
421.62	-0.05
421.823	-0.01
422.027	0.08
422.231	-0.04
422.435	-0.04
422.638	0
422.842	0
423.046	-0.04
423.249	0.03
423.453	0.04
423.657	-0.04
423.86	-0.03
424.064	-0.09
424.268	-0
424.471	-0
424.675	0.02
424.878	0.05
425.082	-0.02
425.285	0.02
425.489	0
425.692	-0.02
425.896	-0.05
426.099	0.02
426.303	-0.07
426.506	-0.04
426.71	-0.03
426.913	0.03
427.116	0.06
427.32	-0.06
427.523	-0.01
427.726	0.06
427.93	-0.09
428.133	-0
428.336	-0.08
428.54	-0.07
428.743	-0.01
428.946	-0.02
429.149	-0.06
429.353	-0.04
429.556	-0.04
429.759	-0.02
429.962	-0.06
430.165	-0.02
430.368	0.01
430.571	-0.04
430.775	-0.02
430.978	-0.02
431.181	-0.02
431.384	-0.01
431.587	-0.01
431.79	-0.04
431.993	-0.11
432.196	-0.06
432.399	-0.06
432.602	0.05
432.805	-0.04
433.008	-0.04
433.211	-0.09
433.414	-0.01
433.616	0.04
433.819	-0.02
434.022	-0.11
434.225	0.1
434.428	0.04
434.631	0.09
434.833	-0.01
435.036	-0.04
435.239	0.01
435.442	0.01
435.645	-0.1
435.847	-0.01
436.05	0.01
436.253	0.01
436.455	-0.06
436.658	-0.02
436.861	0.03
437.063	-0.08
437.266	-0.04
437.468	-0.01
437.671	0.13
437.874	-0.01
438.076	-0.07
438.279	-0.04
438.481	-0.01
438.684	-0.05
438.886	0.03
439.089	-0.08
439.291	-0.02
439.494	-0
439.696	-0.09
439.899	-0.07
440.101	0.02
440.303	-0.1
440.506	-0
440.708	0.01
440.91	-0.05
441.113	-0.05
441.315	-0.02
441.517	-0.08
441.72	-0.02
441.922	-0.06
442.124	-0.04
442.326	0.03
442.529	0.05
442.731	-0.07
442.933	0.03
443.135	0
443.337	-0.02
443.539	-0.01
443.742	-0.04
443.944	-0
444.146	-0.03
444.348	-0.04
444.55	-0.05
444.752	-0.04
444.954	-0.08
445.156	-0.03
445.358	-0.07
445.56	0.02
445.762	-0.07
445.964	-0.05
446.166	-0.08
446.368	-0.04
446.57	0.01
446.772	0.01
446.974	0.02
447.175	0
447.377	-0.08
447.579	-0.07
447.781	-0.09
447.983	0.03
448.184	-0
448.386	-0.02
448.588	-0.08
448.79	-0.02
448.991	-0.04
449.193	-0.07
449.395	-0.04
449.597	-0.01
449.798	0
450	0
450.202	0.01
450.403	-0.01
450.605	0.02
450.806	-0.01
451.008	-0.12
451.21	-0.01
451.411	-0.01
451.613	-0.03
451.814	0.03
452.016	0.01
452.217	-0.05
452.419	0.07
452.62	0.01
452.821	-0.01
453.023	0.04
453.224	0.02
453.426	-0.05
453.627	-0.01
453.828	-0
454.03	-0.07
454.231	-0.02
454.432	-0.06
454.634	0.04
454.835	-0.03
455.036	-0.09
455.238	-0.01
455.439	0.06
455.64	-0.08
455.841	-0.07
456.042	0.1
456.244	0.07
456.445	-0.07
456.646	-0.09
456.847	-0.07
457.048	0.03
457.249	0.03
457.45	0.17
457.651	-0.09
457.852	0.03
458.054	0.01
458.255	-0.03
458.456	0.01
458.657	0.03
458.858	-0.05
459.058	0.05
459.259	0.02
459.46	-0.04
459.661	-0.02
459.862	0.04
460.063	0.03
460.264	-0
460.465	-0.1
460.666	0.1
460.866	-0.07
461.067	-0.04
461.268	-0.06
461.469	-0.02
461.67	0.02
461.87	-0.05
462.071	-0.1
462.272	-0.05
462.473	-0.04
462.673	0.02
462.874	-0.09
463.075	-0.05
463.275	-0.04
463.476	0.02
463.676	-0.02
463.877	-0.01
464.078	-0.02
464.278	0.07
464.479	-0.04
464.679	0.01
464.88	-0.02
465.08	0.02
465.281	-0.05
465.481	-0.05
465.682	-0.05
465.882	0.02
466.083	-0
466.283	-0.06
466.483	-0.04
466.684	-0.05
466.884	-0.06
467.085	-0.03
467.285	0.02
467.485	-0.07
467.686	-0.05
467.886	-0.06
468.086	-0.05
468.286	-0.02
468.487	-0.01
468.687	-0.08
468.887	-0.03
469.087	0.01
469.287	-0.06
469.488	-0.07
469.688	-0.01
469.888	-0.03
470.088	0.01
470.288	0.03
470.488	-0
470.688	-0.06
470.888	-0.04
471.088	-0.05
471.288	0.02
471.488	-0
471.688	-0
471.888	-0.02
472.088	-0
472.288	-0.01
472.488	-0.07
472.688	-0
472.888	-0.05
473.088	-0.04
473.288	0.01
473.488	-0.01
473.688	0.04
473.887	0.01
474.087	-0.05
474.287	-0.01
474.487	-0.03
474.687	0
474.886	-0.05
475.086	-0.06
475.286	-0.01
475.486	-0.02
475.685	-0.01
475.885	-0.01
476.085	0
476.284	0.05
476.484	-0.01
476.684	0.01
476.883	0.03
477.083	0
477.282	-0.04
477.482	0.04
477.681	0.04
477.881	-0.01
478.08	-0.02
478.28	-0.05
478.479	-0.02
478.679	0.03
478.878	-0.03
479.078	-0.04
479.277	-0.02
479.477	-0.02
479.676	0.03
479.875	0.01
480.075	-0.07
480.274	0.01
480.473	0.01
480.673	-0.03
480.872	0
481.071	-0.01
481.271	-0.01
481.47	-0.03
481.669	-0.04
481.868	-0.02
482.067	-0.03
482.267	-0.03
482.466	-0.02
482.665	-0.05
482.864	-0.06
483.063	-0.06
483.262	0.01
483.461	0.03
483.661	-0
483.86	-0.03
484.059	-0.02
484.258	-0.03
484.457	-0.03
484.656	-0.02
484.855	0.02
485.054	-0.04
485.253	-0.02
485.452	-0.03
485.651	-0.02
485.849	-0.01
486.048	-0.02
486.247	-0.01
486.446	-0
486.645	-0.05
486.844	-0.02
487.043	-0.02
487.241	-0.01
487.44	-0.04
487.639	-0.03
487.838	-0.01
488.037	0.01
488.235	0.04
488.434	-0.01
488.633	-0.02
488.831	-0.01
489.03	0.01
489.229	0.03
489.427	-0.01
489.626	0.01
489.825	0.04
490.023	-0.01
490.222	-0.03
490.42	0.02
490.619	0.01
490.817	0
491.016	-0.02
491.214	0.01
491.413	-0.01
491.611	-0.03
491.81	0.02
492.008	-0
492.207	0.01
492.405	0
492.604	-0.05
492.802	-0.01
493	-0.01
493.199	-0.04
493.397	-0.02
493.595	-0.02
493.794	-0.01
493.992	0.04
494.19	-0.04
494.388	0.03
494.587	-0.02
494.785	0.01
494.983	-0.04
495.181	-0.01
495.379	-0.01
495.578	-0.02
495.776	-0.01
495.974	-0.02
496.172	-0.02
496.37	-0.03
496.568	-0.04
496.766	-0
496.964	0.01
497.162	-0.01
497.36	-0.02
497.558	-0
497.756	0.02
497.954	-0.01
498.152	-0.02
498.35	-0.01
498.548	-0.04
498.746	-0.01
498.944	-0.02
499.142	-0.01
499.34	-0.04
499.538	-0.01
499.736	-0.03
499.933	0.05
500.131	0.02
500.329	-0.01
500.527	0.01
500.725	0.03
500.922	0.02
501.12	-0.01
501.318	-0.02
501.516	-0.04
501.713	-0
501.911	-0.02
502.109	-0.05
502.306	-0.01
502.504	-0.01
502.701	-0.02
502.899	-0.01
503.097	0.02
503.294	-0.02
503.492	-0.02
503.689	0
503.887	0.02
504.084	0.03
504.282	-0
504.479	-0.04
504.677	-0.01
504.874	-0.04
505.072	-0.01
505.269	0
505.466	0.03
505.664	0.01
505.861	-0.04
506.059	-0.04
506.256	0.01
506.453	-0.02
506.651	0.04
506.848	0.01
507.045	0
507.242	0.01
507.44	-0.01
507.637	-0.01
507.834	-0.01
508.031	0.04
508.229	-0.02
508.426	-0
508.623	-0
508.82	-0.02
509.017	-0.04
509.214	-0.02
509.411	0.01
509.608	-0.01
509.805	-0.01
510.003	-0.01
510.2	-0.02
510.397	0.01
510.594	-0.02
510.791	-0.02
510.988	-0
511.184	0.03
511.381	-0
511.578	-0.02
511.775	0
511.972	-0.03
512.169	-0.02
512.366	-0.02
512.563	-0
512.76	-0.04
512.956	0.03
513.153	-0.03
513.35	-0.01
513.547	-0.03
513.744	-0.04
513.94	-0.05
514.137	0.01
514.334	-0.01
514.53	-0
514.727	-0.01
514.924	0.03
515.12	-0.03
515.317	-0.05
515.514	-0.02
515.71	-0.03
515.907	-0.01
516.103	-0.01
516.3	0.01
516.497	-0
516.693	0.03
516.89	-0.02
517.086	-0.03
517.283	0
517.479	0.02
517.676	-0.02
517.872	-0.01
518.068	-0.03
518.265	-0.02
518.461	-0.02
518.658	-0.04
518.854	-0.01
519.05	-0.03
519.247	-0.04
519.443	0
519.639	-0
519.836	-0
520.032	-0
520.228	-0.01
520.424	0.02
520.621	-0.02
520.817	-0.01
521.013	-0.02
521.209	0
521.405	0.03
521.601	0
521.798	0.01
521.994	0.03
522.19	-0.02
522.386	-0.04
522.582	-0.02
522.778	-0
522.974	-0.01
523.17	-0.02
523.366	-0.01
523.562	0.03
523.758	-0.01
523.954	-0.01
524.15	-0.04
524.346	0.02
524.542	-0.02
524.738	-0.02
524.934	-0.02
525.129	-0.02
525.325	0.01
525.521	-0
525.717	0.01
525.913	0.01
526.109	0.01
526.304	-0.02
526.5	0
526.696	-0.01
526.892	-0.02
527.087	-0.02
527.283	-0.02
527.479	0
527.674	-0.03
527.87	-0.02
528.066	-0.03
528.261	0.03
528.457	-0.02
528.653	-0.02
528.848	-0.02
529.044	0.01
529.239	-0.01
529.435	-0.01
529.63	-0
529.826	0.03
530.021	-0.04
530.217	0.02
530.412	-0.01
530.608	-0.02
530.803	-0.01
530.999	-0.02
531.194	-0.04
531.389	-0.02
531.585	-0.07
531.78	-0.02
531.975	-0.01
532.171	0.04
532.366	-0.03
532.561	-0
532.757	-0.03
532.952	-0.01
533.147	-0.01
533.342	-0.01
533.538	-0.02
533.733	-0.01
533.928	-0.01
534.123	-0.03
534.318	-0.04
534.513	-0
534.709	-0.01
534.904	-0.03
535.099	-0.03
535.294	-0.01
535.489	-0.01
535.684	-0.03
535.879	-0.05
536.074	0.01
536.269	-0.03
536.464	-0
536.659	-0.02
536.854	-0.01
537.049	-0
537.244	-0.01
537.439	-0.01
537.634	-0.01
537.828	-0
538.023	-0.01
538.218	-0.04
538.413	-0.02
538.608	-0.03
538.803	0.01
538.997	-0.05
539.192	0
539.387	-0.02
539.582	-0
539.776	-0
539.971	-0.02
540.166	-0.02
540.36	-0.03
540.555	-0.01
540.75	-0.04
540.944	-0.01
541.139	-0.04
541.334	-0.02
541.528	0.01
541.723	0.02
541.917	-0.01
542.112	-0.06
542.306	-0.02
542.501	-0
542.695	-0.03
542.89	-0.02
543.084	-0.02
543.279	-0.02
543.473	-0.02
543.668	0
543.862	-0.02
544.056	0.02
544.251	-0.01
544.445	-0.01
544.64	-0.05
544.834	-0.02
545.028	-0.01
545.222	-0.01
545.417	0.02
545.611	-0
545.805	-0.01
546	-0.03
546.194	-0.04
546.388	-0.04
546.582	-0
546.776	-0.02
546.97	-0.01
547.165	-0.01
547.359	0.02
547.553	-0.02
547.747	-0
547.941	-0.01
548.135	-0.02
548.329	0.02
548.523	-0.03
548.717	-0.02
548.911	-0.03
549.105	-0.02
549.299	-0
549.493	0.01
549.687	-0
549.881	0
550.075	-0.01
550.269	-0.04
550.463	-0
550.657	-0.04
550.85	-0.01
551.044	-0.03
551.238	-0.02
551.432	-0.03
551.626	-0.04
551.82	0.02
552.013	-0.03
552.207	0
552.401	0
552.594	0.01
552.788	-0
552.982	0.01
553.176	-0.05
553.369	0.01
553.563	0.01
553.756	-0.04
553.95	-0.02
554.144	-0.03
554.337	0.03
554.531	-0
554.724	-0.01
554.918	-0.01
555.111	0.01
555.305	-0.01
555.498	0.03
555.692	0.03
555.885	-0.03
556.079	0.02
556.272	-0.03
556.466	0.01
556.659	0.02
556.852	-0.02
557.046	-0.02
557.239	0.03
557.432	-0.04
557.626	-0.05
557.819	-0.01
558.012	0.01
558.206	-0
558.399	-0.02
558.592	-0
558.785	-0.04
558.979	0.01
559.172	0.01
559.365	0.01
559.558	-0.02
559.751	-0
559.944	-0.04
560.138	-0.02
560.331	-0.02
560.524	-0.03
560.717	-0.01
560.91	0
561.103	0.01
561.296	0.01
561.489	-0
561.682	-0.02
561.875	0.01
562.068	0.01
562.261	-0.03
562.454	0.03
562.647	-0.01
562.84	-0
563.032	-0.01
563.225	-0.01
563.418	-0.03
563.611	-0.02
563.804	-0.01
563.997	-0.03
564.19	-0.04
564.382	-0.06
564.575	-0.02
564.768	-0.01
564.961	-0.02
565.153	-0.03
565.346	0.01
565.539	0
565.731	0.03
565.924	-0.01
566.117	0.01
566.309	-0
566.502	-0.02
566.695	-0.02
566.887	0
567.08	-0.03
567.272	-0.03
567.465	-0.02
567.657	-0.01
567.85	0
568.042	0.02
568.235	0.02
568.427	-0
568.62	-0.01
568.812	0.02
569.005	-0.01
569.197	-0.04
569.389	-0.02
569.582	0.02
569.774	-0.02
569.966	-0.03
570.159	-0.05
570.351	0.01
570.543	-0.04
570.736	0
570.928	-0.05
571.12	-0.02
571.312	-0.03
571.505	-0.05
571.697	0.03
571.889	-0.04
572.081	-0.03
572.273	-0.02
572.465	0.02
572.658	-0.03
572.85	-0.04
573.042	-0.02
573.234	-0
573.426	0.03
573.618	-0.03
573.81	-0.01
574.002	0.03
574.194	0
574.386	-0.03
574.578	-0.05
574.77	-0.02
574.962	-0.01
575.154	-0.05
575.346	-0.02
575.538	0.02
575.729	-0.04
575.921	-0.03
576.113	-0.03
576.305	0.02
576.497	-0.03
576.689	-0.01
576.88	-0.04
577.072	0.02
577.264	-0
577.456	-0.03
577.647	-0.1
577.839	-0
578.031	0.02
578.223	-0.04
578.414	-0.03
578.606	0
578.798	-0.01
578.989	-0.02
579.181	-0.02
579.372	-0.02
579.564	-0.04
579.755	0.02
579.947	0.01
580.139	0.01
580.33	-0.05
580.522	-0.01
580.713	-0.09
580.905	-0
581.096	0.03
581.287	-0.02
581.479	-0
581.67	-0.01
581.862	-0.03
582.053	-0.04
582.244	-0.04
582.436	-0.01
582.627	-0.02
582.818	-0.05
583.01	-0.05
583.201	0.01
583.392	0
583.583	-0.01
583.775	-0.03
583.966	-0.02
584.157	-0
584.348	-0.04
584.54	-0.05
584.731	0.01
584.922	0.01
585.113	-0.02
585.304	0.01
585.495	0.01
585.686	-0
585.877	0.02
586.068	-0.01
586.259	-0
586.45	-0.02
586.641	-0.04
586.832	-0.09
587.023	-0.01
587.214	-0.03
587.405	-0.01
587.596	-0.01
587.787	0.01
587.978	-0.03
588.169	-0.04
588.36	-0.04
588.551	-0.01
588.742	-0.01
588.932	-0.01
589.123	-0.03
589.314	0
589.505	-0.01
589.696	-0.02
589.886	-0.03
590.077	-0.06
590.268	-0.01
590.458	-0.05
590.649	-0.05
590.84	0.01
591.03	-0.03
591.221	-0.05
591.412	-0.06
591.602	-0
591.793	0.01
591.984	-0.04
592.174	-0.02
592.365	0.05
592.555	-0.02
592.746	0
592.936	0.01
593.127	-0.01
593.317	0.01
593.508	-0.03
593.698	-0.03
593.889	0
594.079	-0.01
594.269	-0.03
594.46	-0.04
594.65	-0
594.84	0.01
595.031	-0.03
595.221	-0.01
595.411	-0.06
595.602	0
595.792	-0.02
595.982	-0.03
596.172	0.04
596.363	-0.02
596.553	-0
596.743	-0.02
596.933	-0.01
597.123	-0
597.314	-0.04
597.504	-0.03
597.694	0.01
597.884	-0.03
598.074	-0.03
598.264	-0.03
598.454	0.01
598.644	-0.03
598.834	-0.02
599.024	-0.02
599.214	-0.04
599.404	0
599.594	-0.04
599.784	-0.03
599.974	-0.01
600.164	0
600.354	-0.04
600.544	-0.05
600.734	-0
600.924	0.01
601.114	-0.05
601.303	-0.01
601.493	-0.02
601.683	-0.03
601.873	-0.02
602.063	-0.07
602.252	0.02
602.442	-0.06
602.632	-0.03
602.821	-0.05
603.011	-0.01
603.201	-0.01
603.39	-0.03
603.58	-0.04
603.77	0.01
603.959	0
604.149	-0.01
604.339	-0.02
604.528	0.03
604.718	0.01
604.907	-0.02
605.097	-0.04
605.286	-0.07
605.476	0
605.665	0.02
605.855	-0.01
606.044	0.04
606.234	0.02
606.423	-0.02
606.612	-0.06
606.802	-0.01
606.991	-0.01
607.181	-0.02
607.37	-0.03
607.559	-0.02
607.749	-0.06
607.938	-0.01
608.127	-0.04
608.316	-0.02
608.506	-0.02
608.695	-0.01
608.884	-0.02
609.073	-0.03
609.263	-0.01
609.452	0.01
609.641	-0.01
609.83	-0.04
610.019	-0.02
610.208	-0.04
610.397	-0.01
610.586	0.01
610.775	-0.08
610.965	-0.01
611.154	-0.04
611.343	-0
611.532	0.01
611.721	-0.04
611.91	-0.03
612.099	0
612.287	-0.01
612.476	-0.07
612.665	-0.02
612.854	-0.03
613.043	0.03
613.232	-0.03
613.421	-0.05
613.61	0.01
613.798	-0.02
613.987	-0.01
614.176	-0.04
614.365	0
614.554	0.01
614.742	0.01
614.931	-0.02
615.12	0.02
615.309	-0.05
615.497	-0.01
615.686	-0.06
615.875	-0.02
616.063	0.01
616.252	-0.03
616.44	-0.04
616.629	-0.01
616.818	0
617.006	-0.05
617.195	-0.03
617.383	-0
617.572	-0.02
617.76	-0.04
617.949	-0.02
618.137	-0.01
618.326	0
618.514	-0.05
618.703	-0.02
618.891	0.02
619.079	-0.06
619.268	-0.01
619.456	-0.02
619.644	0.01
619.833	-0
620.021	-0.03
620.209	-0.07
620.398	-0.04
620.586	-0
620.774	-0
620.962	-0.03
621.151	0.04
621.339	0.01
621.527	-0.04
621.715	-0.04
621.903	-0.07
622.092	-0.02
622.28	-0.03
622.468	-0.01
622.656	-0.03
622.844	-0
623.032	-0.06
623.22	-0.06
623.408	0.01
623.596	-0
623.784	0.01
623.972	-0.03
624.16	-0.04
624.348	0.05
624.536	-0.03
624.724	-0.02
624.912	-0
625.1	0.05
625.288	-0.04
625.476	-0.06
625.664	-0.01
625.851	-0.03
626.039	-0.05
626.227	-0.02
626.415	-0.04
626.603	-0.07
626.79	-0.01
626.978	-0.02
627.166	0
627.354	-0.05
627.541	-0.07
627.729	-0.06
627.917	0.02
628.104	0.03
628.292	-0.02
628.48	-0.01
628.667	0.01
628.855	-0.03
629.042	0
629.23	-0.02
629.418	0
629.605	-0.02
629.793	-0.04
629.98	-0.02
630.168	-0.03
630.355	-0.04
630.543	-0.01
630.73	-0.03
630.917	0.01
631.105	0.02
631.292	-0.04
631.48	-0.04
631.667	0.04
631.854	0.01
632.042	-0.06
632.229	-0.07
632.416	-0.05
632.604	-0.03
632.791	-0.05
632.978	0
633.165	-0.03
633.353	0.03
633.54	0.03
633.727	-0.11
633.914	-0.06
634.101	-0.08
634.289	0.04
634.476	-0.03
634.663	-0.05
634.85	-0.03
635.037	-0.06
635.224	-0.07
635.411	-0
635.598	-0.01
635.785	-0.01
635.972	-0
636.159	0.01
636.346	-0.06
636.533	-0.05
636.72	-0.03
636.907	-0.04
637.094	0.02
637.281	-0.05
637.468	0.01
637.655	-0.03
637.842	-0.03
638.029	-0.02
638.215	0.01
638.402	-0.02
638.589	-0.05
638.776	-0.04
638.963	-0.03
639.149	-0
639.336	0.01
639.523	-0.01
639.709	-0.02
639.896	-0.02
640.083	0.03
640.27	-0
640.456	-0.06
640.643	-0
640.829	-0.05
641.016	-0.03
641.203	-0.06
641.389	0.01
641.576	-0.02
641.762	-0.01
641.949	-0.04
642.135	-0.02
642.322	-0.03
642.508	-0.06
642.695	-0.03
642.881	-0.02
643.068	-0
643.254	-0.04
643.441	0.02
643.627	-0.02
643.813	-0.07
644	0.04
644.186	-0.03
644.372	0.03
644.559	0.02
644.745	-0.04
644.931	-0.03
645.118	-0.01
645.304	-0
645.49	-0.05
645.676	-0.04
645.862	-0.01
646.049	0.03
646.235	-0.02
646.421	0.07
646.607	0.04
646.793	-0.05
646.979	-0.01
647.165	-0.01
647.352	0.01
647.538	0.01
647.724	-0.03
647.91	0
648.096	0
648.282	0
648.468	-0.02
648.654	-0.04
648.84	-0.02
649.026	-0.04
649.212	-0.01
649.397	-0.04
649.583	-0.05
649.769	-0
649.955	-0.02
650.141	0.02
650.327	0.05
650.513	-0.05
650.698	-0.02
650.884	-0.08
651.07	-0.01
651.256	-0
651.442	-0.02
651.627	-0.04
651.813	0.03
651.999	0.02
652.184	0.01
652.37	-0.03
652.556	-0.05
652.741	0.06
652.927	-0.08
653.113	0
653.298	-0.03
653.484	-0.05
653.669	-0.09
653.855	-0.02
654.04	0.01
654.226	-0.02
654.412	-0.02
654.597	-0.06
654.782	-0
654.968	0.02
655.153	0.02
655.339	-0.03
655.524	-0.06
655.71	0.02
655.895	-0.06
656.08	-0.01
656.266	0.01
656.451	0
656.636	-0.06
656.822	0
657.007	-0.07
657.192	-0.04
657.378	-0.05
657.563	-0.01
657.748	0.01
657.933	0.01
658.118	-0.01
658.304	-0.03
658.489	-0.01
658.674	-0
658.859	-0.05
659.044	-0.01
659.229	0.01
659.414	-0.05
659.599	-0.02
659.785	-0.08
659.97	-0.05
660.155	0.01
660.34	-0.03
660.525	-0.03
660.71	-0.06
660.895	0.01
661.08	-0.05
661.264	-0.05
661.449	0.01
661.634	0.02
661.819	0.03
662.004	-0.01
662.189	-0.09
662.374	-0.05
662.559	-0.05
662.743	-0.05
662.928	-0.02
663.113	-0.06
663.298	-0.06
663.483	-0.07
663.667	0
663.852	-0.06
664.037	0
664.221	-0.05
664.406	0.04
664.591	0.01
664.775	-0.04
664.96	-0.03
665.145	-0.03
665.329	0.02
665.514	-0.04
665.698	-0.06
665.883	-0.1
666.068	0.06
666.252	-0.03
666.437	-0.07
666.621	-0.01
666.806	-0.05
666.99	-0.03
667.174	-0.09
667.359	0.04
667.543	-0.02
667.728	-0.02
667.912	-0.07
668.096	0
668.281	-0.06
668.465	-0.06
668.649	-0.01
668.834	-0.05
669.018	0.01
669.202	-0.03
669.387	-0.1
669.571	0.07
669.755	-0.05
669.939	-0.01
670.124	-0.02
670.308	0.03
670.492	-0.01
670.676	-0.03
670.86	0.01
671.044	-0.08
671.228	-0.01
671.413	-0.06
671.597	-0.06
671.781	-0.06
671.965	-0.02
672.149	-0.05
672.333	-0.03
672.517	-0.04
672.701	0.02
672.885	-0.04
673.069	-0.06
673.253	0.03
673.437	-0.02
673.621	-0.03
673.804	-0.06
673.988	-0.03
674.172	-0.03
674.356	-0.09
674.54	-0.02
674.724	0.06
674.908	0.01
675.091	-0.01
675.275	0.02
675.459	0.01
675.643	0
675.826	0
676.01	-0.01
676.194	-0.04
676.377	0.01
676.561	-0
676.745	0.01
676.928	0.04
677.112	0.04
677.296	-0.04
677.479	-0.03
677.663	-0.05
677.846	-0.01
678.03	-0.03
678.213	-0.02
678.397	-0.01
678.58	-0.02
678.764	-0.09
678.947	-0.07
679.131	-0.01
679.314	0.03
679.498	-0.04
679.681	0.03
679.865	0.04
680.048	-0.02
680.231	-0.03
680.415	-0.04
680.598	-0.02
680.781	-0.04
680.965	-0.03
681.148	0.04
681.331	-0.01
681.514	-0.03
681.698	-0.02
681.881	-0
682.064	-0.03
682.247	-0
682.43	-0.05
682.614	0.04
682.797	-0.01
682.98	0.01
683.163	-0.06
683.346	-0.04
683.529	-0.05
683.712	-0.04
683.895	-0.01
684.078	-0.05
684.261	-0.06
684.444	-0.05
684.627	-0.03
684.81	-0.03
684.993	0
685.176	0.01
685.359	-0.06
685.542	-0.07
685.725	0.03
685.908	-0.06
686.091	-0.05
686.274	0.01
686.457	-0.03
686.639	-0.07
686.822	0.02
687.005	0.01
687.188	-0
687.371	0.08
687.553	0.01
687.736	0.02
687.919	0.07
688.102	0.04
688.284	-0.02
688.467	-0.05
688.65	-0.06
688.832	-0.07
689.015	-0.05
689.197	-0.04
689.38	0.06
689.563	0.06
689.745	-0.1
689.928	-0.04
690.11	-0.04
690.293	0.04
690.475	-0.06
690.658	0.01
690.84	-0.08
691.023	0.03
691.205	-0.05
691.388	-0
691.57	-0.01
691.752	-0
691.935	-0.08
692.117	-0.04
692.3	0.02
692.482	0.03
692.664	-0.06
692.847	0.04
693.029	0.04
693.211	0.08
693.393	-0.03
693.576	-0.04
693.758	0.01
693.94	-0.01
694.122	-0.03
694.304	-0
694.487	0
694.669	-0
694.851	-0.04
695.033	-0.04
695.215	-0.04
695.397	-0.08
695.579	-0.02
695.761	-0.05
695.943	-0.04
696.125	0.04
696.308	0.01
696.49	-0.09
696.671	0.09
696.853	-0.05
697.035	0.09
697.217	-0.07
697.399	0.01
697.581	-0.05
697.763	-0.02
697.945	-0.03
698.127	-0.09
698.309	0.09
698.491	-0.03
698.672	0.05
698.854	0.03
699.036	0.05
699.218	-0.06
699.399	0.07
699.581	0.02
699.763	0.03
699.945	-0.01
700.126	-0.03
700.308	-0.01
700.49	-0.02
700.671	-0.07
700.853	-0.03
701.035	0.01
701.216	-0.05
701.398	-0.05
701.579	-0.06
701.761	0.01
701.943	-0.06
702.124	-0.08
702.306	0.01
702.487	0.06
702.669	-0.02
702.85	-0.04
703.031	-0.05
703.213	0.04
703.394	0.1
703.576	-0.04
703.757	0.04
703.938	0.06
704.12	0.16
704.301	0.02
704.483	-0.06
704.664	0.04
704.845	0.12
705.026	-0.01
705.208	-0.03
705.389	-0.02
705.57	-0
705.751	-0.04
705.933	0.01
706.114	0.08
706.295	0.02
706.476	-0.08
706.657	0.08
706.838	0.02
707.02	0.06
707.201	-0.05
707.382	0.03
707.563	0.01
707.744	-0.08
707.925	-0.07
708.106	-0.06
708.287	-0.02
708.468	0.04
708.649	-0.06
708.83	0.03
709.011	-0.02
709.192	0.05
709.373	-0.09
709.554	-0.01
709.734	0.04
709.915	0.03
710.096	0.04
710.277	-0.11
710.458	-0
710.639	0.03
710.819	-0.08
711	-0.07
711.181	0.01
711.362	0.1
711.542	0.04
711.723	0
711.904	0.08
712.085	0.03
712.265	0
712.446	-0.09
712.627	0.03
712.807	0.04
712.988	0.01
713.168	-0.09
713.349	-0
713.53	-0.09
713.71	-0.05
713.891	-0.1
714.071	0
714.252	-0.03
714.432	-0.02
714.613	-0.07
714.793	-0.01
714.974	0.12
715.154	0.11
715.334	0.1
715.515	0.13
715.695	0.02
715.876	-0.03
716.056	0.01
716.236	0.01
716.417	0.04
716.597	-0.05
716.777	0.18
716.957	-0.04
717.138	0.06
717.318	0.08
717.498	-0.02
717.678	0.14
717.859	0.05
718.039	-0.07
718.219	0.03
718.399	0.08
718.579	-0.01
718.759	-0.01
718.939	0.05
719.12	0.02
719.3	0.05
719.48	-0.11
719.66	-0.04
719.84	0.05
720.02	-0.01
720.2	-0.11
720.38	0.02
720.56	0.1
720.74	0.01
720.92	0.04
721.1	0.11
721.279	0.12
721.459	0.03
721.639	-0.03
721.819	0.07
721.999	0.05
722.179	0.05
722.359	0
722.538	0.08
722.718	0.07
722.898	0.03
723.078	0.03
723.257	0.09
723.437	-0.02
723.617	0.05
723.797	0.06
723.976	0.07
724.156	0.07
724.336	0.2
724.515	0.21
724.695	-0.1
724.874	0.03
725.054	0.14
725.234	0.08
725.413	0.09
725.593	-0.02
725.772	0.06
725.952	0.06
726.131	0.13
726.311	0.03
726.49	0.04
726.67	0.03
726.849	0.05
727.028	0.13
727.208	0.08
727.387	0.17
727.567	-0.03
727.746	0.15
727.925	0.11
728.105	0.06
728.284	0.06
728.463	0.1
728.643	0.11
728.822	-0.06
729.001	-0.01
729.18	0.19
729.359	0.11
729.539	0.07
729.718	0.1
729.897	0.16
730.076	0.05
730.255	0.12
730.434	0.2
730.614	0.18
730.793	0.16
730.972	0.13
731.151	0.11
731.33	0.2
731.509	0.21
731.688	0.18
731.867	0.08
732.046	-0.03
732.225	0.33
732.404	0.14
732.583	0.05
732.762	0.21
732.941	0.2
733.12	0.15
733.298	0.01
733.477	0.25
733.656	0.05
733.835	0.04
734.014	0.3
734.193	0.09
734.371	0.25
734.55	0.12
734.729	0.08
734.908	0.1
735.086	0.21
735.265	0.25
735.444	0.07
735.623	0.06
735.801	0.09
735.98	0.22
736.159	0.22
736.337	0.22
736.516	0.2
736.694	0.14
736.873	0.13
737.052	0.39
737.23	0.27
737.409	0.02
737.587	0.29
737.766	0.04
737.944	0.16
738.123	0.24
738.301	0.24
738.479	0.19
738.658	0.15
738.836	-0.11
739.015	0.21
739.193	0.22
739.371	0.01
739.55	0.11
739.728	-0.01
739.906	0.21
740.085	0.2
740.263	0.17
740.441	-0.05
740.62	0.27
740.798	0.28
740.976	-0.05
741.154	0.04
741.332	0.16
741.511	0.09
741.689	0.14
741.867	0.17
742.045	0.15
742.223	0.04
742.401	-0.03
742.579	0.02
742.757	0.19
742.935	-0.02
743.114	0.08
743.292	0.02
743.47	0.07
743.648	0.04
743.826	-0.09
744.004	0.09
744.181	0.07
744.359	0.02
744.537	-0.08
744.715	0.04
744.893	0
745.071	0.09
745.249	0.04
745.427	-0.09
745.605	0.13
745.782	0.09
745.96	0.06
746.138	0.09
746.316	0.12
746.493	-0.04
746.671	0.08
746.849	0.1
747.027	0.16
747.204	-0.07
747.382	0.03
747.56	-0.12
747.737	0.03
747.915	-0.03
748.093	0.06
748.27	-0.06
748.448	-0.06
748.625	-0.07
748.803	-0.08
748.98	-0.01
749.158	-0.03
749.335	0.08
749.513	0.01
749.69	-0.09
749.868	-0.05
750.045	0.09
750.223	0.02
750.4	-0.27
750.578	0.11
750.755	0.02
750.932	-0.16
751.11	0.14
751.287	-0.07
751.464	0.1
751.642	-0.12
751.819	0.02
751.996	-0.06
752.173	-0.1
752.351	-0.1
752.528	0.05
752.705	-0.01
752.882	-0.01
753.06	0.04
753.237	0.05
753.414	0.16
753.591	0.1
753.768	-0.05
753.945	-0.19
754.122	-0.09
754.299	0.03
754.476	-0.2
754.654	0.05
754.831	-0.03
755.008	0.01
755.185	-0.04
755.362	-0.12
755.539	0.11
755.716	-0.16
755.892	-0.08
756.069	-0.14
756.246	-0
756.423	-0.08
756.6	0.13
756.777	-0.07
756.954	0.03
757.131	-0.06
757.307	-0.15
757.484	-0.17
757.661	0.03
757.838	0.01
758.015	-0.15
758.191	0.07
758.368	0.02
758.545	0.08
758.721	-0.04
758.898	-0.07
759.075	-0.03
759.251	0.08
759.428	0.06
759.605	-0.2
759.781	-0.07
759.958	0.01
760.134	-0.01
760.311	-0.2
760.488	0.04
760.664	0.09
760.841	-0.05
761.017	-0.07
761.194	0.09
761.37	0.03
761.547	0.04
761.723	-0.07
761.899	0.1
762.076	-0.16
762.252	-0.12
762.429	-0.08
762.605	0.06
762.781	-0.03
762.958	0
763.134	-0.07
763.31	-0.12
763.486	0.03
763.663	-0.27
763.839	0.08
764.015	-0.11
764.191	-0.13
764.368	0
764.544	-0.1
764.72	0.03
764.896	0.02
765.072	0.02
765.248	-0.02
765.425	-0.07
765.601	-0.08
765.777	0.02
765.953	-0.29
766.129	-0.13
766.305	-0.04
766.481	0.06
766.657	0
766.833	0.16
767.009	-0.19
767.185	-0.14
767.361	-0.04
767.537	-0.2
767.713	-0.03
767.889	-0.08
768.065	-0.07
768.24	0.06
768.416	0.12
768.592	-0.04
768.768	0.05
768.944	-0.08
769.12	-0.13
769.295	-0.11
769.471	-0.11
769.647	-0.12
769.823	0.07
769.998	-0.08
770.174	-0.03
770.35	0.27
770.525	0.1
770.701	0.01
770.877	-0.14
771.052	-0.04
771.228	-0.02
771.403	-0.06
771.579	0.06
771.755	0.21
771.93	-0.03
772.106	-0.08
772.281	-0.23
772.457	-0.09
772.632	0.07
772.808	-0.2
772.983	-0.03
773.159	-0.24
773.334	0.09
773.509	-0.28
773.685	-0.09
773.86	0.26
774.036	0.24
774.211	0
774.386	-0.19
774.562	-0.11
774.737	-0.05
774.912	-0.14
775.087	0.04
775.263	-0.11
775.438	-0.01
775.613	-0.25
775.788	-0.02
775.964	0.03
776.139	0.2
776.314	-0.14
776.489	-0.03
776.664	0.11
776.839	-0.23
777.014	-0.02
777.19	0.24
777.365	0.2
777.54	0.22
777.715	-0.08
777.89	0.11
778.065	-0.14
778.24	0.02
778.415	-0.04
778.59	-0.27
778.765	-0.12
778.94	0.04
779.115	-0.04
779.289	-0.25
779.464	-0.11
779.639	-0.13
779.814	-0.38
779.989	-0.21
780.164	0.09
780.339	-0.15
780.513	-0.3
780.688	-0.21
780.863	-0.19
781.038	-0.08
781.212	-0.21
781.387	0.07
781.562	0.31
781.737	-0.15
781.911	0.13
782.086	-0.21
782.261	-0.07
782.435	0.1
782.61	-0.17
782.784	-0.05
782.959	0.07
783.134	-0.04
783.308	-0.2
783.483	-0.08
783.657	0.4
783.832	-0.05
784.006	-0.35
784.181	-0.01
784.355	0.11
784.53	-0.19
784.704	-0.22
784.878	0.18
785.053	-0.01
785.227	0.1
785.402	0.29
785.576	-0.21
785.75	-0.13
785.925	-0.26
786.099	0.06
786.273	0.18
786.448	0.06
786.622	0.08
786.796	-0.12
786.97	-0.01
787.145	0.44
787.319	-0.53
787.493	-0.29
787.667	-0.3
787.841	-0.19
788.015	0.09
788.19	-0.34
788.364	-0.23
788.538	0.04
788.712	0.17
788.886	-0.05
789.06	0.01
789.234	0.14
789.408	-0.39
789.582	0.08
789.756	-0.03
789.93	-0.16
790.104	0.06
790.278	-0.25
790.452	-0.31
790.626	-0.05
790.8	-0.16
790.973	0.03
791.147	0.04
791.321	0.19
791.495	0.1
791.669	0.06
791.843	0.06
792.016	0.16
792.19	0.44
792.364	-0.41
792.538	0.29
792.711	0.07
792.885	-0.21
793.059	-0.25
793.233	-0.36
793.406	0.1
793.58	-0.19
793.754	-0.01
793.927	-0.18
794.101	0.03
794.274	-0.01
794.448	0.09
794.622	-0.23
794.795	0.14
794.969	-0.23
795.142	0.06
795.316	-0.16
795.489	-0.11
795.663	0.57
795.836	0.07
796.009	-0.3
796.183	0.13
796.356	-0.07
796.53	-0.06
796.703	-0.04
796.876	0.38
797.05	0.02
797.223	-0.17
797.396	0.17
797.57	-0.14
797.743	0.32
797.916	-0.19
798.09	0.02
798.263	-0.02
798.436	0.25
798.609	-0.06
798.782	-0.18
798.956	0.04
799.129	-0.06
799.302	-0.22
799.475	-0.18
799.648	-0.23
799.821	-0.09
799.994	0.03
800.167	-0.58
800.34	-0.11
800.514	-0.11
800.687	-0.05
800.86	-0.31
801.033	-0.03
801.206	-0.02
801.379	-0.42
801.551	0.05
801.724	0.11
801.897	0.56
802.07	-0.1
802.243	-0.58
802.416	-0.37
802.589	-0.26
802.762	-0.05
802.935	-0.27
803.107	0.16
803.28	-0.25
803.453	0.26
803.626	-0.25
803.798	-0.01
803.971	-0.38
804.144	-0.13
804.317	-0.01
804.489	0.11
804.662	0.11
804.835	0.03
805.007	-0.39
805.18	0.28
805.353	0.08
805.525	-0.2
805.698	-0.26
805.87	0.15
806.043	-0.01
806.215	-0.12
806.388	-0.09
806.56	0.26
806.733	0.08
806.905	0.02
807.078	-0.16
807.25	-0.32
807.423	0
807.595	0.06
807.768	-0.22
807.94	0.14
808.112	0.07
808.285	0.04
808.457	-0.21
808.629	0.07
808.802	0.01
808.974	0.21
809.146	-0.36
809.318	-0.47
809.491	0.02
809.663	0.24
809.835	-0.37
810.007	-0.01
810.18	-0.04
810.352	-0.23
810.524	-0.23
810.696	0.23
810.868	0.22
811.04	-0.03
811.212	-0.19
811.384	0.13
811.556	0.04
811.728	-0.06
811.901	0.74
812.073	-0.18
812.245	0.04
812.417	-0.39
812.589	-0.63
812.76	0.28
812.932	0.26
813.104	0.53
813.276	-0.22
813.448	0.14
813.62	-0.24
813.792	0.13
813.964	-0.21
814.136	0.07
814.307	-0.25
814.479	-0.09
814.651	-0.03
814.823	0.74
814.995	0
815.166	-0.16
815.338	-0.31
815.51	-0.77
815.681	0.83
815.853	-0.2
816.025	-0.23
816.196	0.16
816.368	0.14
816.54	-0.91
816.711	-0.53
816.883	-0.28
817.054	1.28
817.226	-0.43
817.398	-0.25
817.569	-0.32
817.741	-0.05
817.912	-0.34
818.084	-0.51
818.255	-0.04
818.426	0.25
818.598	-0.25
818.769	-0.22
818.941	0.21
819.112	0.01
819.283	0.12
819.455	-0.26
819.626	0.01
819.798	0.18
819.969	-0.09
820.14	-0.02
820.311	-0.5
820.483	0.38
820.654	0.38
820.825	-0
820.996	-0.46
821.168	-0.2
821.339	-0.09
821.51	-0.45
821.681	-0.24
821.852	0.08
822.023	-0.39
822.195	-0.37
822.366	0.15
822.537	-0.3
822.708	-0.22
822.879	-0.42
823.05	0.55
823.221	-0.38
823.392	0.21
823.563	0.04
823.734	-0.62
823.905	-0.25
824.076	-0.22
824.247	-0.4
824.418	0.05
824.589	0.04
824.759	-0.27
824.93	-0.63
825.101	-0.43
825.272	-0.09
825.443	0.05
825.614	-0.22
825.784	-0.93
825.955	0.94
826.126	-0.05
826.297	-0.35
826.467	0.39
826.638	0.32
826.809	-0.91
826.98	0.13
827.15	0.13
827.321	-0.09
827.492	0.65
827.662	-0.22
827.833	0.45
828.003	0.2
828.174	-1.17
828.345	-0.77
828.515	0.72
828.686	0.2
828.856	0.09
829.027	-0.18
829.197	-0.06
829.368	0.16
829.538	-0.18
829.709	-0.43
829.879	0.32
830.049	-0.32
830.22	-0.62
830.39	0.38
830.56	0.47
830.731	-0.12
830.901	-0.84
831.072	-0.2
831.242	0.27
831.412	-0.2
831.582	-0.21
831.753	-1.01
831.923	0.19
832.093	-0.18
832.263	-0.46
832.434	-0.5
832.604	-0.47
832.774	0.04
832.944	0.24
833.114	-0.28
833.284	-0.3
833.454	-0.57
833.624	-0.48
833.795	-0.54
833.965	0.94
834.135	0.07
834.305	-0.84
834.475	-0.62
834.645	-0.54
834.815	-0.5
834.985	-0.53
835.155	-0.35
835.325	0.1
835.494	0.73
835.664	-0.56
835.834	-0.78
836.004	0.03
836.174	0.12
836.344	-0.72
836.514	-0.9
836.684	-0.5
836.853	0.31
837.023	-0.08
837.193	-0.66
837.363	0.72
837.532	0.09
837.702	-0.47
837.872	-0.37
838.041	-0.03
838.211	0.56
838.381	-0.56
838.55	-0.29
838.72	0.63
838.89	0.82
839.059	0.12
839.229	-0.25
839.398	0.65
839.568	-0.44
839.738	-0.37
839.907	0.15
840.077	0.02
840.246	-0.52
840.416	-0.81
840.585	-0.92
840.755	0.27
840.924	0.74
841.093	-0.59
841.263	-0.48
841.432	-0.45
841.602	-0.52
841.771	-0.61
841.94	-0.36
842.11	1.25
842.279	1.05
842.448	-1.16
842.617	-1.17
842.787	0.81
842.956	-1.12
843.125	0.5
843.294	0.34
843.464	0.33
843.633	-0.52
843.802	-1.5
843.971	0.06
844.14	0.08
844.309	0.42
844.479	-0.96
844.648	-0.58
844.817	-0.67
844.986	0.62
845.155	-0.36
845.324	-0.37
845.493	-0.14
845.662	-1.43
845.831	-0.47
846	0.18
846.169	-0.44
846.338	0.42
846.507	-0.19
846.676	0.68
846.844	-1.02
847.013	0.94
847.182	0.32
847.351	-0.51
847.52	-0.99
847.689	-0.36
847.858	-0.85
848.026	-0.63
848.195	-0.16
848.364	-0.53
848.533	-0.44
848.701	-1.32
848.87	-0.14
849.039	0.7
849.207	0.4
849.376	0.54
849.545	1.15
849.713	-0.41
849.882	-0.24
850.051	-0.15
850.219	0.6
850.388	0.25
850.556	-1.32
850.725	-0.75
850.893	-0.63
851.062	-0.44
851.23	0.95
851.399	-0.71
851.567	-0.15
851.736	-0.3
851.904	-1.53
852.073	-0.22
852.241	0.49
852.41	-0.19
852.578	0.27
852.746	-0.4
852.915	-0.36
853.083	-0.06
853.251	-1.54
853.42	-0.37
853.588	0.96
853.756	0.28
853.924	-0.31
854.093	-1.35
854.261	-1.12
854.429	-2
854.597	0.03
854.765	-1.37
854.934	1.79
855.102	0.58
855.27	0.09
855.438	-0.4
855.606	0.02
855.774	1.41
855.942	-1.59
856.11	-1.09
856.278	-0.2
856.446	-0.12
856.614	0.16
856.782	-0.32
856.95	1.08
857.118	-0.5
857.286	0.41
857.454	-2.48
857.622	-0.12
857.79	1.32
857.958	0.13
858.126	-1.29
858.294	-2.74
858.462	-0.14
858.629	-0.97
858.797	-0.8
858.965	-0.02
859.133	0.15
859.301	0.34
859.468	1.09
859.636	-1.35
859.804	1.17
859.971	0.55
860.139	-1.96
860.307	0.8
860.474	0.2
860.642	-1.12
860.81	-1.3
860.977	0.03
861.145	-0.99
861.313	-1.82
861.48	-0.71
861.648	0.7
861.815	-0.75
861.983	-2.15
862.15	-0.06
862.318	-0.04
862.485	0.25
862.653	-0.49
862.82	-1.55
862.988	1.33
863.155	0.17
863.322	-2.52
863.49	-0.74
863.657	-0.14
863.824	0.56
863.992	-0.43
864.159	-0.16
864.326	0.6
864.494	-0.43
864.661	1.71
864.828	-1.7
864.996	1.15
865.163	1.39
865.33	-0.45
865.497	-2.88
865.664	-1.06
865.832	-1.74
865.999	-0.12
866.166	-1.94
866.333	-1.22
866.5	0.11
866.667	1.27
866.834	-0.31
867.001	1.42
867.168	-1.69
867.335	0.04
867.502	-2.41
867.669	0.54
867.836	1.49
868.003	-1.38
868.17	1.12
868.337	1.26
868.504	2.43
868.671	-1.86
868.838	-0.94
869.005	-0.86
869.172	-0.91
869.339	-0.95
869.505	0.1
869.672	-0.88
869.839	3.67
870.006	-0.87
870.173	-1.99
870.339	0.12
870.506	2.94
870.673	-1.78
870.84	-0.1
871.006	-0.78
871.173	0.28
871.34	-1.51
871.506	-1.58
871.673	1.83
871.839	-1.4
872.006	-0.66
872.173	-0.78
872.339	-0.97
872.506	1.12
872.672	-0.62
872.839	-1.57
873.005	-0.39
873.172	2.19
873.338	1.08
873.505	-1.11
873.671	-0.28
873.838	0.28
874.004	-2.15
874.171	-1.58
874.337	0.92
874.503	-0.73
874.67	-0.56
874.836	-0.8
875.002	1.41
875.169	2.3
875.335	-0.2
875.501	-1.32
875.668	-0.08
875.834	0.1
876	-1.2
876.166	0.46
876.332	0.82
876.499	2.73
876.665	-1.77
876.831	-0.36
876.997	3.67
877.163	-0.43
877.329	-2.32
877.495	0.58
877.662	0.83
877.828	-0.56
877.994	-2.02
878.16	-3.96
878.326	-1.04
878.492	0.29
878.658	0.69
878.824	0.68
878.99	1.79
879.156	-1
879.322	0.2
879.487	-2.16
879.653	0.78
879.819	0.25
879.985	-1.12
880.151	-0.51
880.317	0.16
880.483	0.49
880.648	1.2
880.814	-2.73
880.98	0.53
881.146	-2.88
881.312	-1.98
881.477	0.89
881.643	-0.52
881.809	2.21
881.974	-0.35
882.14	-4.35
882.306	-1.82
882.471	3.97
882.637	-1.38
882.803	0.83
882.968	1.75
883.134	1.08
883.299	-1.19
883.465	-0.81
883.63	1.58
883.796	2.17
883.961	0.61
884.127	-0.36
884.292	-3.68
884.458	-2.06
884.623	-2.06
