Data from Apollo_Calib_20240827__AbsoluteIrradiance__393__05-42-00-666.txt Node

Date: Wed Aug 28 05:42:00 BST 2024
User: biology
Spectrometer: FLMT08252
Trigger mode: 0
Integration Time (sec): 5.000000E-1
Scans to average: 5
Electric dark correction enabled: true
Nonlinearity correction enabled: false
Boxcar width: 0
XAxis mode: Wavelengths
Number of Pixels in Spectrum: 3648
>>>>>Begin Spectral Data<<<<<
179.588	-0
179.809	-0
180.03	-0
180.251	-0
180.473	-0
180.694	0
180.915	0
181.136	-0
181.357	0
181.578	0
181.799	-0
182.02	-0
182.241	0
182.462	-0
182.683	0
182.904	-0
183.125	-0
183.346	-0
183.567	0
183.788	-0
184.009	-0
184.23	-0
184.451	0
184.672	-0
184.892	-0
185.113	0
185.334	0
185.555	-0
185.776	-0
185.996	0
186.217	0
186.438	-0
186.659	-0
186.879	0
187.1	-0
187.321	-0
187.541	-0
187.762	-0
187.983	-0
188.203	-0
188.424	0
188.644	-0
188.865	0
189.086	-0
189.306	-0
189.527	-0
189.747	0
189.968	-0
190.188	0
190.409	0
190.629	0
190.849	-0
191.07	-0
191.29	0
191.511	0
191.731	-0
191.951	-0
192.172	0
192.392	-0
192.612	0
192.833	-0
193.053	0
193.273	0
193.493	-0
193.714	-0
193.934	0
194.154	0
194.374	0
194.594	-0
194.815	0
195.035	-0
195.255	0
195.475	-0
195.695	0
195.915	0
196.135	-0
196.355	0
196.575	0
196.795	0
197.015	-0
197.235	0
197.455	-0
197.675	-0
197.895	-0
198.115	-0
198.335	0
198.555	-0
198.775	0
198.995	-0
199.214	0
199.434	-0
199.654	-0
199.874	-0
200.094	0.38
200.313	-0.1
200.533	-0.62
200.753	-1.04
200.973	0.64
201.192	0.54
201.412	-0.91
201.632	-0.6
201.851	0.83
202.071	-0.73
202.291	-0.31
202.51	-0.92
202.73	0.32
202.95	-0.55
203.169	-1.04
203.389	-0.19
203.608	-0.34
203.828	-0.53
204.047	-0.58
204.267	0.29
204.486	-0.19
204.706	0.05
204.925	-0.22
205.145	-0.4
205.364	0.07
205.583	0.51
205.803	-0.7
206.022	-0.26
206.242	0.01
206.461	0.13
206.68	-0.49
206.9	-0.06
207.119	0.37
207.338	0.33
207.557	-0.36
207.777	-0.05
207.996	-0.31
208.215	0.39
208.434	-0.38
208.654	-0.53
208.873	0.05
209.092	0.42
209.311	-0.24
209.53	-0.43
209.749	0.02
209.968	-0.07
210.187	-0.26
210.407	-0.46
210.626	-0.23
210.845	0.3
211.064	-0.24
211.283	-0.47
211.502	0.24
211.721	-0.13
211.94	-0.29
212.159	0.08
212.377	0.1
212.596	0.32
212.815	0.14
213.034	0.1
213.253	0.16
213.472	0.2
213.691	-0.24
213.91	-0.38
214.128	-0.32
214.347	0.39
214.566	-0.53
214.785	-0.33
215.003	0.24
215.222	-0.15
215.441	-0.15
215.66	-0.32
215.878	0.13
216.097	0.12
216.316	-0.53
216.534	-0.19
216.753	0.13
216.972	-0.24
217.19	-0.11
217.409	-0.29
217.627	-0.23
217.846	-0.27
218.064	-0.19
218.283	-0.2
218.501	0.33
218.72	0.21
218.938	-0.43
219.157	-0.11
219.375	0.08
219.594	0.07
219.812	-0.29
220.031	-0.22
220.249	0.17
220.467	0.38
220.686	-0.24
220.904	-0.32
221.122	-0.2
221.341	0.26
221.559	-0.09
221.777	-0.24
221.995	-0.13
222.214	0.11
222.432	-0.16
222.65	0.21
222.868	-0.01
223.086	0.06
223.305	-0.05
223.523	-0.17
223.741	0.29
223.959	-0.19
224.177	-0.25
224.395	-0.05
224.613	-0.06
224.831	0.21
225.049	-0.23
225.267	-0.11
225.485	0.08
225.703	-0.2
225.921	-0.15
226.139	-0.21
226.357	0.06
226.575	0.08
226.793	-0.19
227.011	0.57
227.229	0.06
227.447	0.2
227.665	-0.09
227.883	-0.18
228.1	-0.05
228.318	0.04
228.536	-0.26
228.754	-0.21
228.972	0.02
229.189	-0.07
229.407	-0.16
229.625	-0.04
229.843	0.13
230.06	0.06
230.278	-0.11
230.496	-0.14
230.713	0.11
230.931	0.08
231.149	-0.22
231.366	-0.2
231.584	-0.05
231.801	0.44
232.019	-0.13
232.236	-0.14
232.454	-0.25
232.671	0.07
232.889	-0.01
233.106	-0.09
233.324	-0.16
233.541	-0.18
233.759	0.04
233.976	-0.11
234.194	-0.12
234.411	-0.08
234.628	-0.2
234.846	-0.04
235.063	-0.05
235.28	-0
235.498	0.01
235.715	-0.17
235.932	0.08
236.149	-0.05
236.367	-0.15
236.584	-0.07
236.801	-0.09
237.018	0.12
237.236	0.04
237.453	-0.21
237.67	0.06
237.887	-0.1
238.104	0.02
238.321	-0.15
238.538	-0.21
238.755	0.04
238.973	-0.19
239.19	0.06
239.407	0.02
239.624	-0.02
239.841	-0.16
240.058	-0.17
240.275	-0.07
240.492	-0.14
240.709	-0
240.925	-0.17
241.142	0.02
241.359	-0.12
241.576	-0.1
241.793	-0.05
242.01	-0.11
242.227	0.04
242.444	0
242.66	0.06
242.877	-0.04
243.094	-0.09
243.311	-0.03
243.527	0.01
243.744	-0.04
243.961	0.07
244.178	-0.11
244.394	0.05
244.611	0.09
244.828	0.13
245.044	-0.12
245.261	-0.14
245.477	0
245.694	0.1
245.911	-0.03
246.127	0.01
246.344	0.06
246.56	0.07
246.777	-0.03
246.993	-0.07
247.21	0.03
247.426	0.07
247.643	-0.08
247.859	-0.08
248.076	0.01
248.292	0.18
248.508	-0.07
248.725	-0.04
248.941	-0.01
249.157	0.08
249.374	-0.11
249.59	0
249.806	-0.01
250.023	0.11
250.239	-0.04
250.455	-0.11
250.671	0
250.888	0.04
251.104	0.01
251.32	-0.13
251.536	-0.02
251.752	-0.03
251.969	0.02
252.185	-0.02
252.401	0.23
252.617	0.08
252.833	-0.05
253.049	-0
253.265	-0.01
253.481	0.04
253.697	-0.04
253.913	-0.08
254.129	-0.03
254.345	0.04
254.561	-0.04
254.777	-0.06
254.993	0.07
255.209	0.02
255.425	-0.05
255.641	-0.12
255.857	0.1
256.073	-0.07
256.288	-0.14
256.504	-0.1
256.72	-0.03
256.936	0.11
257.152	-0.06
257.367	-0.09
257.583	-0.03
257.799	0.06
258.015	-0.08
258.23	-0.05
258.446	0.16
258.662	0.02
258.877	-0.09
259.093	-0.07
259.309	0.02
259.524	-0.04
259.74	-0.07
259.955	-0.05
260.171	-0
260.387	-0.07
260.602	-0.02
260.818	-0.02
261.033	-0.06
261.249	-0.01
261.464	-0.11
261.68	-0.14
261.895	-0.01
262.11	-0
262.326	-0.03
262.541	-0.12
262.757	0.05
262.972	0.05
263.187	0.03
263.403	0.01
263.618	0.03
263.833	-0.03
264.049	-0.09
264.264	0.07
264.479	-0.02
264.694	0.08
264.91	-0.16
265.125	-0.06
265.34	0.07
265.555	0.1
265.77	0.01
265.986	-0
266.201	0.01
266.416	0.07
266.631	-0.03
266.846	-0
267.061	0.01
267.276	0.07
267.491	-0.1
267.706	0.04
267.921	-0.03
268.136	-0.05
268.351	-0.04
268.566	-0.12
268.781	0.1
268.996	0.06
269.211	-0.02
269.426	-0.13
269.641	-0.03
269.856	-0.01
270.071	-0.1
270.285	-0.11
270.5	0.07
270.715	0.04
270.93	-0.06
271.145	-0.03
271.359	0.03
271.574	-0.06
271.789	-0.05
272.004	-0.08
272.218	0.02
272.433	0.01
272.648	-0.05
272.862	0.03
273.077	0.01
273.292	-0.02
273.506	-0.04
273.721	0.02
273.936	0.03
274.15	0.09
274.365	-0.05
274.579	-0
274.794	0.02
275.008	0.04
275.223	-0.08
275.437	-0.04
275.652	0.08
275.866	0.03
276.081	-0.04
276.295	0.06
276.509	0.04
276.724	0
276.938	-0.05
277.153	0.03
277.367	0.06
277.581	-0.08
277.796	-0.06
278.01	-0.04
278.224	0.01
278.438	0.1
278.653	-0.06
278.867	-0.02
279.081	0.06
279.295	-0.03
279.51	0.01
279.724	-0.11
279.938	0.03
280.152	0.03
280.366	-0.06
280.58	0
280.794	0.04
281.008	0.03
281.222	0.08
281.437	0.13
281.651	0.03
281.865	0.1
282.079	0
282.293	-0.13
282.507	-0.05
282.721	0.01
282.935	-0.02
283.148	-0.12
283.362	-0.06
283.576	-0.03
283.79	-0.05
284.004	-0.02
284.218	0.05
284.432	-0.01
284.646	-0.02
284.859	-0.05
285.073	-0.02
285.287	-0.04
285.501	-0.01
285.714	-0.02
285.928	-0.02
286.142	0.04
286.356	-0.07
286.569	0
286.783	0.08
286.997	0.02
287.21	-0.03
287.424	0.03
287.637	0.05
287.851	-0.06
288.065	0.01
288.278	-0.01
288.492	-0.05
288.705	0.01
288.919	-0.01
289.132	-0.09
289.346	0.06
289.559	-0.09
289.773	-0.06
289.986	-0.03
290.2	0
290.413	0.04
290.626	-0.07
290.84	-0.02
291.053	0.01
291.267	0.1
291.48	-0.02
291.693	-0.02
291.906	-0.06
292.12	-0.01
292.333	-0.04
292.546	-0.06
292.76	0.04
292.973	0.06
293.186	-0
293.399	-0.03
293.612	0
293.826	-0.03
294.039	0.04
294.252	-0.01
294.465	-0.02
294.678	0.02
294.891	-0.03
295.104	-0.07
295.317	0.04
295.53	-0.01
295.743	-0.04
295.956	-0.02
296.169	0.07
296.382	-0.02
296.595	0
296.808	-0.02
297.021	0.04
297.234	0.01
297.447	0.01
297.66	0.05
297.873	0.08
298.086	0.05
298.299	-0.03
298.511	-0.04
298.724	-0.04
298.937	-0.04
299.15	-0.01
299.363	-0
299.575	0.04
299.788	0.05
300.001	-0.03
300.213	-0.07
300.426	-0.06
300.639	-0.05
300.852	-0.01
301.064	0.05
301.277	0.06
301.489	0.04
301.702	0.05
301.915	-0
302.127	0.02
302.34	0
302.552	0.02
302.765	-0.02
302.977	0.06
303.19	0.02
303.402	-0
303.615	-0.05
303.827	-0
304.04	0
304.252	0.04
304.464	-0.03
304.677	0.09
304.889	0.03
305.102	-0.04
305.314	-0.02
305.526	0.05
305.739	-0
305.951	-0.01
306.163	-0.02
306.375	0.09
306.588	-0.03
306.8	-0.06
307.012	-0.07
307.224	0
307.436	0.07
307.649	-0.11
307.861	0.02
308.073	0.06
308.285	-0.01
308.497	-0.02
308.709	-0.05
308.921	-0.04
309.133	0.08
309.346	-0.01
309.558	-0.02
309.77	0.04
309.982	0.06
310.194	0.01
310.406	-0.04
310.617	0.11
310.829	0
311.041	-0.02
311.253	-0.04
311.465	0.01
311.677	-0.01
311.889	-0.02
312.101	-0
312.313	0.02
312.524	0.05
312.736	-0.08
312.948	-0.01
313.16	0.08
313.372	0.05
313.583	-0
313.795	-0.03
314.007	-0.01
314.218	0.06
314.43	0.03
314.642	-0.02
314.853	-0.02
315.065	0.02
315.277	-0.02
315.488	-0
315.7	0.06
315.912	0.05
316.123	0
316.335	0.03
316.546	0.09
316.758	-0.01
316.969	-0.05
317.181	0
317.392	0
317.604	0.02
317.815	-0.04
318.026	-0.05
318.238	-0.04
318.449	0.02
318.661	-0.06
318.872	-0.02
319.083	-0.08
319.295	0.03
319.506	-0.03
319.717	-0.02
319.929	0.02
320.14	-0.01
320.351	0.02
320.562	-0.07
320.774	-0.02
320.985	-0.01
321.196	-0.07
321.407	-0.04
321.618	0.05
321.829	0.04
322.041	-0.02
322.252	0.02
322.463	0.04
322.674	0.07
322.885	-0.06
323.096	-0.05
323.307	-0.01
323.518	0.05
323.729	-0.03
323.94	-0
324.151	-0.01
324.362	0.02
324.573	0.05
324.784	-0.03
324.995	0.06
325.206	0
325.417	0
325.628	-0.04
325.838	0
326.049	0.01
326.26	0.01
326.471	-0.02
326.682	0.01
326.892	-0.01
327.103	-0.09
327.314	-0.04
327.525	0.04
327.735	-0.01
327.946	-0.01
328.157	-0.05
328.368	0.02
328.578	-0.05
328.789	0.01
328.999	0.01
329.21	-0.03
329.421	0.05
329.631	-0.03
329.842	-0.03
330.052	0.01
330.263	0.04
330.473	0.03
330.684	-0
330.894	-0.03
331.105	-0.03
331.315	0.02
331.526	-0.05
331.736	0.06
331.947	0.05
332.157	0.03
332.367	-0.05
332.578	0.03
332.788	0.09
332.999	0.05
333.209	-0
333.419	-0.04
333.629	0.04
333.84	0
334.05	-0.01
334.26	0.06
334.47	-0.01
334.681	0.06
334.891	-0.03
335.101	-0
335.311	0.09
335.521	-0.01
335.732	-0.03
335.942	0.04
336.152	0.03
336.362	0.02
336.572	0.02
336.782	0.04
336.992	-0
337.202	-0.05
337.412	-0.07
337.622	0.06
337.832	-0.01
338.042	0
338.252	-0.05
338.462	-0.03
338.672	-0.02
338.882	0.01
339.092	0
339.302	0.06
339.511	0.03
339.721	-0.04
339.931	-0.04
340.141	0.05
340.351	0.03
340.561	0.03
340.77	-0.02
340.98	0.01
341.19	-0.01
341.4	-0.05
341.609	-0.05
341.819	-0.01
342.029	-0.09
342.238	-0.01
342.448	-0.06
342.658	0.03
342.867	0.01
343.077	0.02
343.286	-0.01
343.496	0.03
343.706	0.07
343.915	-0.03
344.125	-0
344.334	0.04
344.544	-0.05
344.753	-0.03
344.963	0
345.172	-0.04
345.381	-0.04
345.591	-0.02
345.8	-0.01
346.01	0.03
346.219	0.03
346.428	-0.15
346.638	-0.01
346.847	0
347.056	0.06
347.266	0
347.475	0
347.684	-0.01
347.893	0.01
348.103	-0.02
348.312	-0.01
348.521	-0.05
348.73	0.02
348.94	-0
349.149	-0.02
349.358	-0.03
349.567	-0.01
349.776	-0.08
349.985	-0.02
350.194	0.03
350.403	0.05
350.612	-0.06
350.821	0.02
351.03	-0.03
351.239	-0.06
351.448	-0.01
351.657	-0.04
351.866	0.08
352.075	0
352.284	0.04
352.493	-0.07
352.702	0.04
352.911	0
353.12	-0
353.329	-0.03
353.538	0.03
353.746	0.01
353.955	-0.06
354.164	0.01
354.373	-0.04
354.582	0.05
354.79	0.04
354.999	0.04
355.208	-0
355.416	0.08
355.625	-0.07
355.834	-0.02
356.042	-0.02
356.251	-0.04
356.46	-0.03
356.668	0.01
356.877	0.06
357.085	0.04
357.294	-0.06
357.503	0.02
357.711	-0.02
357.92	0.11
358.128	-0
358.337	0.01
358.545	0.03
358.754	-0.02
358.962	0.02
359.17	-0.04
359.379	0.04
359.587	-0.01
359.796	-0.05
360.004	0.05
360.212	0.02
360.421	0.03
360.629	-0.03
360.837	-0.02
361.046	0.03
361.254	0.09
361.462	0.01
361.67	-0.05
361.879	0
362.087	0.07
362.295	-0.01
362.503	-0.02
362.711	-0.06
362.92	-0.05
363.128	-0.04
363.336	-0.05
363.544	-0.04
363.752	-0.02
363.96	-0.03
364.168	-0.01
364.376	0.01
364.584	0.03
364.792	0.04
365	0.02
365.208	0
365.416	0.03
365.624	0.01
365.832	-0.02
366.04	0.06
366.248	0.03
366.456	0.03
366.664	-0.02
366.872	-0
367.079	-0.02
367.287	-0.02
367.495	-0.01
367.703	-0.03
367.911	-0.03
368.118	-0.01
368.326	-0.01
368.534	-0.01
368.742	0.06
368.949	-0.06
369.157	-0.01
369.365	0.04
369.572	-0.03
369.78	-0.04
369.988	0.06
370.195	0.04
370.403	0.05
370.61	-0
370.818	-0.01
371.026	0.09
371.233	-0.04
371.441	0
371.648	-0.01
371.856	0.01
372.063	0.01
372.271	-0.05
372.478	-0.02
372.685	-0.03
372.893	0.02
373.1	-0.01
373.308	0.01
373.515	0.08
373.722	0.02
373.93	-0
374.137	0
374.344	0.09
374.552	0
374.759	0.02
374.966	0
375.173	-0.02
375.381	0.02
375.588	-0.03
375.795	-0.01
376.002	-0.07
376.209	-0.02
376.417	-0.05
376.624	-0.04
376.831	0.04
377.038	-0.03
377.245	-0.11
377.452	-0.02
377.659	0.01
377.866	-0.03
378.073	0.01
378.28	-0.03
378.487	0.05
378.694	0.03
378.901	0.02
379.108	-0.01
379.315	0.01
379.522	0.08
379.729	0.01
379.936	0.02
380.143	0
380.35	0.04
380.557	0.02
380.763	0.02
380.97	0.01
381.177	0.01
381.384	0.02
381.591	-0.01
381.797	0.04
382.004	0.03
382.211	0
382.418	0.01
382.624	0.02
382.831	0.05
383.038	-0.02
383.244	-0
383.451	-0.03
383.658	-0.02
383.864	-0.03
384.071	-0.08
384.277	0.07
384.484	-0.07
384.69	0.05
384.897	-0.03
385.103	-0.01
385.31	-0.02
385.516	-0.02
385.723	-0.03
385.929	-0
386.136	-0.03
386.342	-0.02
386.549	-0.04
386.755	0.05
386.961	-0.01
387.168	-0.03
387.374	-0.01
387.58	0.02
387.787	-0.02
387.993	-0.02
388.199	-0.03
388.406	-0.05
388.612	-0.02
388.818	-0.04
389.024	-0.04
389.231	0.01
389.437	0.09
389.643	0.02
389.849	0.01
390.055	0
390.261	-0
390.467	-0
390.674	-0.04
390.88	-0.04
391.086	0.01
391.292	-0.06
391.498	0.01
391.704	0.02
391.91	-0.05
392.116	0.01
392.322	-0.08
392.528	0.04
392.734	-0.09
392.94	-0.02
393.146	-0.05
393.352	0.04
393.557	-0.03
393.763	-0.01
393.969	0.03
394.175	0
394.381	-0
394.587	-0.06
394.792	-0.03
394.998	0.02
395.204	-0.02
395.41	-0.01
395.615	-0.01
395.821	0.01
396.027	0.01
396.233	-0.05
396.438	0
396.644	0.12
396.85	0.02
397.055	0.02
397.261	0.01
397.466	0.1
397.672	0
397.878	0.03
398.083	0.01
398.289	0.02
398.494	0.03
398.7	0.01
398.905	-0.08
399.111	0.06
399.316	-0.06
399.522	-0.02
399.727	-0.03
399.932	-0.01
400.138	-0
400.343	0.08
400.549	0
400.754	0
400.959	0.01
401.165	-0.03
401.37	0.03
401.575	0.11
401.78	-0.01
401.986	-0.02
402.191	-0.03
402.396	-0.02
402.601	0.06
402.807	-0
403.012	-0.01
403.217	0.01
403.422	-0.02
403.627	-0.03
403.832	-0.01
404.037	0.03
404.243	-0
404.448	-0.09
404.653	-0.03
404.858	0.05
405.063	0.03
405.268	-0.07
405.473	-0.03
405.678	-0.01
405.883	0.13
406.088	-0
406.293	-0.06
406.498	-0.02
406.703	0.02
406.907	0
407.112	-0.06
407.317	0.04
407.522	0.02
407.727	-0.04
407.932	0.01
408.136	0.06
408.341	-0.02
408.546	-0.04
408.751	-0.01
408.956	0
409.16	0.03
409.365	0.01
409.57	-0.01
409.774	0.04
409.979	0.06
410.184	0.01
410.388	-0.02
410.593	0.04
410.798	0.02
411.002	-0.01
411.207	-0.01
411.411	0.01
411.616	0.01
411.82	0.01
412.025	0
412.229	-0.01
412.434	0.04
412.638	0.02
412.843	-0.03
413.047	0.05
413.252	-0
413.456	-0.03
413.66	0.03
413.865	-0.05
414.069	0.04
414.273	-0.05
414.478	-0.05
414.682	-0.02
414.886	-0.02
415.091	-0.06
415.295	-0.08
415.499	0.03
415.703	0
415.908	-0
416.112	-0.1
416.316	-0.02
416.52	-0
416.724	-0.07
416.929	-0.06
417.133	0.08
417.337	-0.04
417.541	-0.06
417.745	-0.04
417.949	0.05
418.153	0.07
418.357	-0.08
418.561	0.06
418.765	0.06
418.969	0.09
419.173	0.03
419.377	-0.02
419.581	-0.02
419.785	-0.05
419.989	-0.07
420.193	-0.06
420.397	-0.03
420.601	0.07
420.804	0.04
421.008	-0
421.212	0.05
421.416	0.03
421.62	-0.04
421.823	-0.01
422.027	0.12
422.231	0.05
422.435	-0.01
422.638	-0.01
422.842	0
423.046	-0.03
423.249	0.04
423.453	0.01
423.657	0.03
423.86	-0
424.064	-0.01
424.268	0.06
424.471	-0.01
424.675	0.02
424.878	0.1
425.082	-0.03
425.285	0.02
425.489	0.01
425.692	-0.01
425.896	-0.08
426.099	0.04
426.303	-0.04
426.506	-0.11
426.71	0.01
426.913	0.04
427.116	0
427.32	-0.02
427.523	0.01
427.726	0.09
427.93	-0.08
428.133	0.02
428.336	-0.05
428.54	-0.04
428.743	0.03
428.946	0.04
429.149	-0.05
429.353	0.05
429.556	-0.05
429.759	-0.03
429.962	-0.04
430.165	-0.02
430.368	0.04
430.571	-0.04
430.775	0.02
430.978	-0.04
431.181	0.04
431.384	-0
431.587	-0.03
431.79	-0.01
431.993	0.01
432.196	0.01
432.399	-0.02
432.602	0.04
432.805	-0.02
433.008	-0.05
433.211	-0.07
433.414	0.05
433.616	0.02
433.819	0.02
434.022	-0.09
434.225	0.07
434.428	0.03
434.631	0.08
434.833	-0.03
435.036	-0.02
435.239	0.06
435.442	0.02
435.645	-0.03
435.847	-0.01
436.05	0.04
436.253	0.03
436.455	-0.04
436.658	0.01
436.861	0.12
437.063	-0.03
437.266	-0.04
437.468	0.03
437.671	0.15
437.874	-0.01
438.076	-0.07
438.279	-0.08
438.481	0.03
438.684	-0.05
438.886	0.06
439.089	-0.12
439.291	0.08
439.494	0.03
439.696	-0.05
439.899	-0
440.101	0.02
440.303	-0.09
440.506	0.04
440.708	-0
440.91	0.06
441.113	-0.03
441.315	0.06
441.517	-0.1
441.72	0.03
441.922	0.01
442.124	-0.02
442.326	0.01
442.529	0.07
442.731	-0.04
442.933	0.03
443.135	-0.01
443.337	-0.02
443.539	-0.05
443.742	-0.01
443.944	0
444.146	-0.05
444.348	-0.03
444.55	-0.03
444.752	0.01
444.954	0.02
445.156	-0.02
445.358	-0.03
445.56	0.07
445.762	-0.02
445.964	-0.02
446.166	-0.03
446.368	-0.06
446.57	0.06
446.772	0.03
446.974	-0.02
447.175	0.05
447.377	-0.07
447.579	0.01
447.781	-0.11
447.983	0.06
448.184	-0.01
448.386	-0.02
448.588	-0.06
448.79	0
448.991	-0.03
449.193	-0.03
449.395	0.05
449.597	0.06
449.798	0.01
450	0.01
450.202	0.02
450.403	0.02
450.605	0.01
450.806	0
451.008	-0.07
451.21	0
451.411	0.02
451.613	-0.03
451.814	-0.02
452.016	0.05
452.217	0.01
452.419	0.05
452.62	0
452.821	0.02
453.023	0.09
453.224	0.04
453.426	-0.04
453.627	0.06
453.828	0.04
454.03	-0
454.231	-0.02
454.432	-0.04
454.634	0.09
454.835	-0.08
455.036	-0.03
455.238	0.03
455.439	0.05
455.64	-0.07
455.841	-0.01
456.042	0.14
456.244	0.06
456.445	-0.01
456.646	-0.09
456.847	0.02
457.048	0.04
457.249	0.04
457.45	0.23
457.651	-0.04
457.852	0.08
458.054	0.03
458.255	-0.01
458.456	0.06
458.657	0.07
458.858	-0.03
459.058	-0.01
459.259	0.01
459.46	0.05
459.661	-0.04
459.862	0.09
460.063	-0.04
460.264	0.11
460.465	-0.06
460.666	0.11
460.866	0
461.067	0.04
461.268	-0.02
461.469	-0.05
461.67	0.03
461.87	-0.05
462.071	-0.04
462.272	-0.05
462.473	0.01
462.673	0.06
462.874	-0.05
463.075	-0.01
463.275	-0.06
463.476	-0.02
463.676	0.04
463.877	-0.03
464.078	-0
464.278	0.05
464.479	0.03
464.679	-0.02
464.88	0.03
465.08	0.1
465.281	-0.04
465.481	0
465.682	0.01
465.882	0.05
466.083	0.03
466.283	0.01
466.483	-0
466.684	-0
466.884	-0.02
467.085	-0.02
467.285	0.02
467.485	-0.03
467.686	0.01
467.886	-0
468.086	0.03
468.286	0.02
468.487	0.03
468.687	-0.05
468.887	-0.01
469.087	0.04
469.287	0.01
469.488	-0.09
469.688	0.02
469.888	0.08
470.088	0.03
470.288	0.07
470.488	0.08
470.688	0.01
470.888	-0.03
471.088	-0.03
471.288	0.04
471.488	0.02
471.688	0.06
471.888	-0.01
472.088	0.05
472.288	0.05
472.488	-0.01
472.688	0.01
472.888	0
473.088	0.05
473.288	0.03
473.488	0
473.688	0.09
473.887	0.06
474.087	-0.04
474.287	0.01
474.487	-0.03
474.687	0.03
474.886	-0
475.086	0.03
475.286	0.04
475.486	0.03
475.685	0.03
475.885	-0.02
476.085	0.03
476.284	0.08
476.484	0
476.684	0.05
476.883	0.1
477.083	0.05
477.282	-0.02
477.482	0.03
477.681	0.07
477.881	0.04
478.08	-0.01
478.28	0.01
478.479	0.07
478.679	0.08
478.878	-0.01
479.078	-0.01
479.277	0.02
479.477	0
479.676	0.04
479.875	0.02
480.075	-0.05
480.274	0.04
480.473	0.02
480.673	-0.01
480.872	0.08
481.071	0.02
481.271	0.04
481.47	0.01
481.669	0.02
481.868	-0.01
482.067	0
482.267	-0.01
482.466	0.03
482.665	-0
482.864	-0
483.063	-0.02
483.262	0.07
483.461	0.07
483.661	0.05
483.86	0.02
484.059	0.05
484.258	0.03
484.457	0.05
484.656	0.03
484.855	0.1
485.054	-0.03
485.253	0
485.452	0
485.651	0.04
485.849	0.03
486.048	0.01
486.247	0.03
486.446	0.06
486.645	0
486.844	0.02
487.043	0.05
487.241	0.08
487.44	0.01
487.639	0.04
487.838	0.08
488.037	0.07
488.235	0.11
488.434	0.05
488.633	0.04
488.831	0.07
489.03	0.11
489.229	0.09
489.427	0.04
489.626	0.1
489.825	0.1
490.023	0.08
490.222	0.06
490.42	0.11
490.619	0.11
490.817	0.1
491.016	0.05
491.214	0.1
491.413	0.08
491.611	0.07
491.81	0.08
492.008	0.1
492.207	0.1
492.405	0.1
492.604	0.04
492.802	0.09
493	0.11
493.199	0.08
493.397	0.13
493.595	0.09
493.794	0.11
493.992	0.18
494.19	0.11
494.388	0.14
494.587	0.11
494.785	0.13
494.983	0.08
495.181	0.13
495.379	0.11
495.578	0.12
495.776	0.15
495.974	0.16
496.172	0.15
496.37	0.14
496.568	0.13
496.766	0.13
496.964	0.17
497.162	0.19
497.36	0.15
497.558	0.18
497.756	0.22
497.954	0.16
498.152	0.16
498.35	0.19
498.548	0.18
498.746	0.21
498.944	0.19
499.142	0.21
499.34	0.17
499.538	0.24
499.736	0.19
499.933	0.28
500.131	0.25
500.329	0.26
500.527	0.28
500.725	0.28
500.922	0.3
501.12	0.28
501.318	0.27
501.516	0.28
501.713	0.31
501.911	0.29
502.109	0.25
502.306	0.3
502.504	0.31
502.701	0.31
502.899	0.31
503.097	0.4
503.294	0.35
503.492	0.37
503.689	0.39
503.887	0.39
504.084	0.46
504.282	0.41
504.479	0.38
504.677	0.43
504.874	0.41
505.072	0.45
505.269	0.44
505.466	0.47
505.664	0.5
505.861	0.46
506.059	0.45
506.256	0.53
506.453	0.51
506.651	0.59
506.848	0.56
507.045	0.56
507.242	0.58
507.44	0.56
507.637	0.61
507.834	0.61
508.031	0.64
508.229	0.58
508.426	0.62
508.623	0.66
508.82	0.65
509.017	0.67
509.214	0.67
509.411	0.72
509.608	0.71
509.805	0.75
510.003	0.72
510.2	0.77
510.397	0.81
510.594	0.8
510.791	0.78
510.988	0.82
511.184	0.86
511.381	0.83
511.578	0.85
511.775	0.92
511.972	0.9
512.169	0.94
512.366	0.93
512.563	1.01
512.76	0.98
512.956	1.02
513.153	0.98
513.35	1.01
513.547	0.97
513.744	1.03
513.94	1.02
514.137	1.09
514.334	1.07
514.53	1.11
514.727	1.16
514.924	1.2
515.12	1.16
515.317	1.16
515.514	1.15
515.71	1.13
515.907	1.23
516.103	1.22
516.3	1.24
516.497	1.29
516.693	1.31
516.89	1.29
517.086	1.29
517.283	1.33
517.479	1.26
517.676	1.37
517.872	1.34
518.068	1.36
518.265	1.36
518.461	1.35
518.658	1.36
518.854	1.4
519.05	1.43
519.247	1.41
519.443	1.44
519.639	1.49
519.836	1.45
520.032	1.46
520.228	1.5
520.424	1.55
520.621	1.5
520.817	1.47
521.013	1.49
521.209	1.52
521.405	1.57
521.601	1.52
521.798	1.51
521.994	1.6
522.19	1.5
522.386	1.47
522.582	1.53
522.778	1.56
522.974	1.53
523.17	1.52
523.366	1.51
523.562	1.55
523.758	1.54
523.954	1.48
524.15	1.56
524.346	1.54
524.542	1.52
524.738	1.52
524.934	1.53
525.129	1.54
525.325	1.52
525.521	1.47
525.717	1.59
525.913	1.5
526.109	1.52
526.304	1.51
526.5	1.49
526.696	1.51
526.892	1.41
527.087	1.51
527.283	1.46
527.479	1.42
527.674	1.38
527.87	1.44
528.066	1.42
528.261	1.4
528.457	1.39
528.653	1.4
528.848	1.39
529.044	1.4
529.239	1.33
529.435	1.36
529.63	1.32
529.826	1.36
530.021	1.27
530.217	1.33
530.412	1.25
530.608	1.26
530.803	1.24
530.999	1.21
531.194	1.2
531.389	1.23
531.585	1.17
531.78	1.24
531.975	1.2
532.171	1.18
532.366	1.15
532.561	1.16
532.757	1.13
532.952	1.14
533.147	1.12
533.342	1.08
533.538	1.07
533.733	1.13
533.928	1.04
534.123	1.05
534.318	1.05
534.513	0.99
534.709	1.02
534.904	1
535.099	1
535.294	0.98
535.489	0.98
535.684	0.95
535.879	0.91
536.074	0.95
536.269	0.92
536.464	0.91
536.659	0.9
536.854	0.91
537.049	0.92
537.244	0.89
537.439	0.87
537.634	0.89
537.828	0.84
538.023	0.82
538.218	0.81
538.413	0.79
538.608	0.76
538.803	0.83
538.997	0.76
539.192	0.8
539.387	0.76
539.582	0.8
539.776	0.74
539.971	0.77
540.166	0.73
540.36	0.7
540.555	0.71
540.75	0.69
540.944	0.72
541.139	0.68
541.334	0.67
541.528	0.7
541.723	0.67
541.917	0.66
542.112	0.62
542.306	0.65
542.501	0.63
542.695	0.64
542.89	0.59
543.084	0.61
543.279	0.62
543.473	0.62
543.668	0.6
543.862	0.58
544.056	0.58
544.251	0.58
544.445	0.57
544.64	0.57
544.834	0.52
545.028	0.52
545.222	0.51
545.417	0.57
545.611	0.54
545.805	0.53
546	0.47
546.194	0.48
546.388	0.51
546.582	0.5
546.776	0.47
546.97	0.49
547.165	0.47
547.359	0.48
547.553	0.43
547.747	0.46
547.941	0.47
548.135	0.46
548.329	0.47
548.523	0.46
548.717	0.42
548.911	0.42
549.105	0.4
549.299	0.41
549.493	0.41
549.687	0.41
549.881	0.42
550.075	0.39
550.269	0.34
550.463	0.38
550.657	0.37
550.85	0.34
551.044	0.35
551.238	0.35
551.432	0.34
551.626	0.32
551.82	0.35
552.013	0.32
552.207	0.33
552.401	0.35
552.594	0.33
552.788	0.3
552.982	0.3
553.176	0.31
553.369	0.35
553.563	0.35
553.756	0.24
553.95	0.27
554.144	0.28
554.337	0.33
554.531	0.28
554.724	0.31
554.918	0.27
555.111	0.32
555.305	0.27
555.498	0.32
555.692	0.27
555.885	0.25
556.079	0.28
556.272	0.24
556.466	0.27
556.659	0.29
556.852	0.23
557.046	0.22
557.239	0.24
557.432	0.19
557.626	0.2
557.819	0.25
558.012	0.24
558.206	0.23
558.399	0.21
558.592	0.25
558.785	0.2
558.979	0.22
559.172	0.22
559.365	0.2
559.558	0.22
559.751	0.2
559.944	0.19
560.138	0.18
560.331	0.17
560.524	0.15
560.717	0.17
560.91	0.16
561.103	0.18
561.296	0.17
561.489	0.17
561.682	0.17
561.875	0.2
562.068	0.17
562.261	0.17
562.454	0.2
562.647	0.15
562.84	0.17
563.032	0.13
563.225	0.15
563.418	0.16
563.611	0.13
563.804	0.13
563.997	0.11
564.19	0.12
564.382	0.15
564.575	0.11
564.768	0.13
564.961	0.12
565.153	0.09
565.346	0.16
565.539	0.14
565.731	0.14
565.924	0.16
566.117	0.15
566.309	0.12
566.502	0.11
566.695	0.1
566.887	0.12
567.08	0.09
567.272	0.11
567.465	0.09
567.657	0.11
567.85	0.14
568.042	0.11
568.235	0.11
568.427	0.11
568.62	0.11
568.812	0.12
569.005	0.09
569.197	0.06
569.389	0.09
569.582	0.09
569.774	0.1
569.966	0.07
570.159	0.09
570.351	0.09
570.543	0.08
570.736	0.09
570.928	0.07
571.12	0.1
571.312	0.06
571.505	0.03
571.697	0.13
571.889	0.07
572.081	0.06
572.273	0.03
572.465	0.11
572.658	0.08
572.85	0.09
573.042	0.06
573.234	0.06
573.426	0.12
573.618	0.03
573.81	0.07
574.002	0.11
574.194	0.11
574.386	0.04
574.578	-0
574.77	0.04
574.962	0.05
575.154	0.03
575.346	0.07
575.538	0.04
575.729	0.04
575.921	0.04
576.113	0.03
576.305	0.07
576.497	0.03
576.689	0.03
576.88	0.03
577.072	0.06
577.264	0.06
577.456	0.07
577.647	-0.03
577.839	0.04
578.031	0.08
578.223	0.04
578.414	-0
578.606	0.07
578.798	0.06
578.989	0.02
579.181	0.05
579.372	0.04
579.564	0.03
579.755	0.05
579.947	0.05
580.139	0.06
580.33	-0.02
580.522	0.01
580.713	-0.03
580.905	0.03
581.096	0.07
581.287	0.05
581.479	0.03
581.67	0.05
581.862	0.03
582.053	0.03
582.244	-0.02
582.436	0.01
582.627	0.06
582.818	0.01
583.01	0.01
583.201	0.06
583.392	0.06
583.583	0.04
583.775	0.01
583.966	0.02
584.157	0.04
584.348	0
584.54	-0
584.731	0.05
584.922	0.02
585.113	0.01
585.304	0.04
585.495	0.04
585.686	0.06
585.877	0.02
586.068	0.03
586.259	0.05
586.45	0.04
586.641	-0.03
586.832	-0.04
587.023	0.03
587.214	0.02
587.405	0.03
587.596	-0
587.787	0.06
587.978	0.04
588.169	-0.01
588.36	0.01
588.551	0.03
588.742	-0.02
588.932	0.04
589.123	0.03
589.314	0.06
589.505	0.04
589.696	0.03
589.886	0
590.077	-0.04
590.268	0.01
590.458	-0.01
590.649	-0.02
590.84	0.05
591.03	-0
591.221	-0.01
591.412	-0.02
591.602	0.04
591.793	0.01
591.984	-0.04
592.174	-0
592.365	0.09
592.555	-0.02
592.746	0.03
592.936	0.03
593.127	0.03
593.317	0.05
593.508	0
593.698	0
593.889	0.04
594.079	0.04
594.269	-0
594.46	0
594.65	-0.01
594.84	-0.01
595.031	-0.02
595.221	-0.01
595.411	-0.03
595.602	0.03
595.792	0.01
595.982	0.02
596.172	0.08
596.363	0.01
596.553	0.02
596.743	0.01
596.933	0.01
597.123	0.05
597.314	-0.02
597.504	-0.03
597.694	0.04
597.884	0.03
598.074	-0
598.264	-0.01
598.454	0.03
598.644	0.01
598.834	-0.02
599.024	-0.06
599.214	-0
599.404	0.03
599.594	-0.01
599.784	-0
599.974	0.07
600.164	0.03
600.354	-0.01
600.544	-0.04
600.734	0.01
600.924	0.03
601.114	-0.02
601.303	-0
601.493	0.03
601.683	0.01
601.873	0
602.063	-0.04
602.252	0.04
602.442	-0.06
602.632	0.01
602.821	-0.05
603.011	0.03
603.201	-0.02
603.39	-0.03
603.58	-0.03
603.77	0
603.959	0.04
604.149	0
604.339	-0.02
604.528	0.03
604.718	0.03
604.907	0.01
605.097	-0.01
605.286	-0.04
605.476	0.01
605.665	0.03
605.855	-0.02
606.044	0.06
606.234	0.03
606.423	-0
606.612	-0.03
606.802	0
606.991	0.03
607.181	0.02
607.37	-0.02
607.559	-0.02
607.749	-0.03
607.938	0.01
608.127	-0.01
608.316	-0.02
608.506	0
608.695	0.02
608.884	-0.02
609.073	0.03
609.263	0.02
609.452	0.05
609.641	0.01
609.83	-0.05
610.019	-0.01
610.208	-0.04
610.397	0.01
610.586	0.02
610.775	-0.05
610.965	-0.04
611.154	0
611.343	-0
611.532	0.01
611.721	-0.03
611.91	-0.02
612.099	0.02
612.287	-0.01
612.476	-0.04
612.665	0.04
612.854	-0.02
613.043	0.06
613.232	0
613.421	-0.04
613.61	0.01
613.798	-0.03
613.987	0.02
614.176	-0
614.365	0.02
614.554	0
614.742	0.04
614.931	-0.02
615.12	0.02
615.309	-0.01
615.497	0.02
615.686	-0.03
615.875	-0.01
616.063	0.01
616.252	-0.04
616.44	-0.01
616.629	0.01
616.818	0.01
617.006	-0.01
617.195	-0.03
617.383	0
617.572	-0
617.76	-0.03
617.949	0.02
618.137	0.01
618.326	0.03
618.514	-0.03
618.703	-0.04
618.891	0.06
619.079	-0.04
619.268	-0.01
619.456	-0.02
619.644	0.05
619.833	-0.02
620.021	-0.02
620.209	-0.08
620.398	-0.01
620.586	0.01
620.774	-0.01
620.962	-0.03
621.151	0.04
621.339	-0.01
621.527	-0.02
621.715	-0.04
621.903	-0.04
622.092	-0.06
622.28	-0.01
622.468	-0
622.656	-0.02
622.844	0.02
623.032	0.01
623.22	-0.04
623.408	0.03
623.596	0.01
623.784	0.03
623.972	0
624.16	-0.02
624.348	0.05
624.536	-0.03
624.724	-0
624.912	0.03
625.1	0.02
625.288	-0.06
625.476	-0
625.664	0.02
625.851	-0.03
626.039	0.01
626.227	0.02
626.415	-0.04
626.603	-0.07
626.79	0
626.978	-0.02
627.166	-0.02
627.354	-0.01
627.541	-0
627.729	-0.05
627.917	0.02
628.104	0.04
628.292	-0.02
628.48	-0.03
628.667	0.04
628.855	0
629.042	0.02
629.23	-0.03
629.418	-0.01
629.605	-0.02
629.793	-0.02
629.98	-0.03
630.168	0
630.355	-0.02
630.543	0.01
630.73	-0.02
630.917	0.02
631.105	0.05
631.292	-0.04
631.48	-0.02
631.667	0.07
631.854	0
632.042	-0.03
632.229	-0.06
632.416	0
632.604	0.01
632.791	-0.04
632.978	-0.01
633.165	0.02
633.353	0.01
633.54	0.01
633.727	-0.07
633.914	-0.03
634.101	-0.07
634.289	0.01
634.476	-0.04
634.663	-0.03
634.85	-0.02
635.037	-0.07
635.224	-0.05
635.411	0.03
635.598	0.02
635.785	-0.01
635.972	-0.01
636.159	0.03
636.346	-0.03
636.533	-0.02
636.72	-0.01
636.907	0.01
637.094	0.02
637.281	-0.03
637.468	0
637.655	-0.01
637.842	0.05
638.029	-0.04
638.215	0.03
638.402	0.01
638.589	-0.04
638.776	-0.01
638.963	-0.03
639.149	0.02
639.336	0.07
639.523	-0.03
639.709	-0.03
639.896	0
640.083	0.05
640.27	-0.01
640.456	-0.03
640.643	0
640.829	-0.04
641.016	-0
641.203	-0.06
641.389	0.02
641.576	0.02
641.762	-0.01
641.949	-0.05
642.135	0
642.322	0.01
642.508	-0.06
642.695	0.01
642.881	-0.01
643.068	-0.01
643.254	-0.01
643.441	0.02
643.627	-0
643.813	-0.06
644	-0
644.186	-0.01
644.372	-0
644.559	0.06
644.745	-0.03
644.931	-0.03
645.118	-0.01
645.304	0
645.49	-0.05
645.676	-0.04
645.862	0
646.049	0.06
646.235	-0.01
646.421	0.06
646.607	0.04
646.793	-0.01
646.979	-0.04
647.165	0.01
647.352	-0.01
647.538	0.02
647.724	0.01
647.91	-0.01
648.096	-0
648.282	0.06
648.468	-0.03
648.654	0
648.84	0.01
649.026	0.02
649.212	-0.01
649.397	-0.02
649.583	-0.05
649.769	0.03
649.955	-0.02
650.141	-0.01
650.327	0.06
650.513	-0.04
650.698	-0
650.884	-0.07
651.07	0.04
651.256	0.02
651.442	-0.01
651.627	-0.01
651.813	0.01
651.999	0.01
652.184	-0
652.37	-0.01
652.556	-0.04
652.741	0.05
652.927	-0.06
653.113	-0.03
653.298	0.01
653.484	0.01
653.669	-0.08
653.855	-0.02
654.04	-0
654.226	-0.02
654.412	-0.01
654.597	-0.04
654.782	0.02
654.968	0.05
655.153	-0.01
655.339	-0.07
655.524	-0.06
655.71	0.02
655.895	-0.03
656.08	-0.02
656.266	0.02
656.451	-0.02
656.636	-0.06
656.822	-0.04
657.007	-0.02
657.192	-0.03
657.378	-0.06
657.563	0.01
657.748	0.01
657.933	0.02
658.118	-0.01
658.304	-0.03
658.489	0.03
658.674	0.03
658.859	-0.04
659.044	0.02
659.229	0.02
659.414	-0.02
659.599	-0.02
659.785	-0.03
659.97	-0
660.155	0.02
660.34	-0.01
660.525	-0.01
660.71	-0.03
660.895	0.02
661.08	-0.05
661.264	-0.04
661.449	0.03
661.634	0.05
661.819	-0.01
662.004	-0.02
662.189	-0.07
662.374	-0.06
662.559	-0.05
662.743	-0.07
662.928	0
663.113	-0.02
663.298	-0.02
663.483	-0.02
663.667	-0.02
663.852	-0.03
664.037	0.01
664.221	-0.02
664.406	-0
664.591	-0.02
664.775	0.03
664.96	-0.01
665.145	0.01
665.329	0.03
665.514	-0.05
665.698	0.01
665.883	-0.06
666.068	0.06
666.252	-0.01
666.437	-0.08
666.621	-0.03
666.806	0.01
666.99	-0.03
667.174	-0.05
667.359	0.05
667.543	-0.01
667.728	-0.01
667.912	-0.05
668.096	0
668.281	-0.06
668.465	-0.04
668.649	-0
668.834	-0.04
669.018	-0.01
669.202	0.01
669.387	-0.03
669.571	0.05
669.755	-0.04
669.939	-0.02
670.124	0.01
670.308	0.04
670.492	0.04
670.676	-0.02
670.86	-0.02
671.044	-0.04
671.228	0.04
671.413	-0.01
671.597	-0.05
671.781	-0.03
671.965	0.03
672.149	-0
672.333	-0.01
672.517	-0.05
672.701	-0.01
672.885	-0.03
673.069	-0.08
673.253	0.02
673.437	-0.05
673.621	-0.06
673.804	0.03
673.988	-0.01
674.172	0.02
674.356	-0.09
674.54	-0.01
674.724	0.07
674.908	0.01
675.091	0.01
675.275	-0.02
675.459	0
675.643	0
675.826	-0.01
676.01	-0.01
676.194	0.01
676.377	0.03
676.561	-0.01
676.745	0.03
676.928	-0.01
677.112	0.03
677.296	-0.04
677.479	-0.05
677.663	-0.01
677.846	0.03
678.03	0.01
678.213	-0.05
678.397	0.03
678.58	-0.03
678.764	-0.03
678.947	-0.01
679.131	-0.01
679.314	0.02
679.498	0
679.681	0.04
679.865	0.02
680.048	-0.01
680.231	0.03
680.415	-0.02
680.598	-0.01
680.781	-0.02
680.965	-0.04
681.148	0
681.331	0
681.514	0.01
681.698	0
681.881	-0.02
682.064	-0.04
682.247	0.03
682.43	-0.1
682.614	-0
682.797	0.01
682.98	0.01
683.163	-0.03
683.346	-0.01
683.529	-0.04
683.712	-0.05
683.895	0.05
684.078	-0.07
684.261	-0.03
684.444	-0.01
684.627	-0.02
684.81	-0.05
684.993	0
685.176	0
685.359	-0.04
685.542	-0.02
685.725	0.03
685.908	-0.02
686.091	-0.02
686.274	-0.01
686.457	-0.01
686.639	-0
686.822	0.02
687.005	-0.03
687.188	0.02
687.371	0.07
687.553	0.07
687.736	0.03
687.919	0.05
688.102	0.09
688.284	-0.01
688.467	0.03
688.65	-0.01
688.832	-0.01
689.015	-0.02
689.197	-0.08
689.38	0.07
689.563	0.08
689.745	-0.05
689.928	-0.03
690.11	-0.02
690.293	0.03
690.475	-0.04
690.658	-0.01
690.84	-0
691.023	-0.02
691.205	-0.05
691.388	-0
691.57	0.03
691.752	0.04
691.935	-0.1
692.117	-0.03
692.3	-0.01
692.482	0
692.664	-0
692.847	0.03
693.029	0.09
693.211	0.03
693.393	-0.01
693.576	-0.02
693.758	-0.04
693.94	-0
694.122	-0.06
694.304	-0.04
694.487	-0.03
694.669	0.05
694.851	-0.08
695.033	-0.04
695.215	-0
695.397	-0.06
695.579	-0
695.761	-0.03
695.943	-0.06
696.125	0.04
696.308	0.03
696.49	-0.14
696.671	0.13
696.853	-0.03
697.035	0.1
697.217	0.03
697.399	0.02
697.581	-0.01
697.763	-0.06
697.945	-0.06
698.127	-0.03
698.309	0.07
698.491	0.01
698.672	0.05
698.854	0.05
699.036	0.03
699.218	-0.07
699.399	0.04
699.581	0.06
699.763	0.03
699.945	-0.07
700.126	-0.08
700.308	0.01
700.49	-0.05
700.671	-0.09
700.853	-0.03
701.035	-0.04
701.216	0.05
701.398	-0.05
701.579	-0.03
701.761	0.01
701.943	-0.04
702.124	-0.09
702.306	0
702.487	0.06
702.669	0.01
702.85	-0.08
703.031	-0.04
703.213	0.09
703.394	0.02
703.576	-0.05
703.757	0.07
703.938	0.06
704.12	0.16
704.301	-0.04
704.483	-0.08
704.664	-0.07
704.845	0.1
705.026	0.05
705.208	0.02
705.389	-0.01
705.57	-0.02
705.751	-0.03
705.933	-0.04
706.114	0.05
706.295	-0.05
706.476	-0.04
706.657	0.1
706.838	0
707.02	0.04
707.201	-0
707.382	-0.06
707.563	-0.01
707.744	-0.02
707.925	-0.07
708.106	-0.12
708.287	0.03
708.468	0.05
708.649	0
708.83	0.04
709.011	-0.05
709.192	0.01
709.373	-0.06
709.554	-0.07
709.734	0.02
709.915	0.02
710.096	-0.04
710.277	-0.1
710.458	0
710.639	0.02
710.819	-0.13
711	-0.04
711.181	0.02
711.362	0.07
711.542	0
711.723	-0.05
711.904	0.02
712.085	-0.07
712.265	0.03
712.446	-0.05
712.627	0.01
712.807	0
712.988	-0.01
713.168	-0.06
713.349	-0
713.53	-0.15
713.71	-0.02
713.891	-0.09
714.071	0.07
714.252	0.01
714.432	-0.07
714.613	-0.16
714.793	-0.07
714.974	0.05
715.154	0.05
715.334	0.04
715.515	0.07
715.695	-0.02
715.876	-0.06
716.056	0.01
716.236	-0.07
716.417	-0.05
716.597	-0.06
716.777	0.07
716.957	-0.02
717.138	0.01
717.318	0.02
717.498	-0.12
717.678	-0.01
717.859	-0.03
718.039	-0.13
718.219	0.05
718.399	0.05
718.579	-0.1
718.759	-0.16
718.939	0.01
719.12	-0.01
719.3	0.01
719.48	-0.11
719.66	-0.07
719.84	0.08
720.02	-0.05
720.2	-0.05
720.38	-0.06
720.56	0.07
720.74	0.02
720.92	0.03
721.1	0.05
721.279	0.09
721.459	0.03
721.639	-0.05
721.819	0
721.999	-0.12
722.179	0.04
722.359	-0.16
722.538	0.03
722.718	-0.01
722.898	-0.04
723.078	-0.07
723.257	-0.08
723.437	-0.01
723.617	-0.07
723.797	-0.07
723.976	-0.02
724.156	0.05
724.336	0.04
724.515	0.09
724.695	-0.15
724.874	-0.02
725.054	0.07
725.234	-0.05
725.413	-0.05
725.593	-0.06
725.772	-0.02
725.952	0
726.131	-0.06
726.311	0.01
726.49	-0.02
726.67	-0.13
726.849	-0.04
727.028	-0.03
727.208	-0
727.387	0.06
727.567	-0.16
727.746	-0.04
727.925	-0.05
728.105	-0.13
728.284	-0.03
728.463	-0.09
728.643	0.08
728.822	-0.14
729.001	-0.07
729.18	0.08
729.359	0.08
729.539	-0.09
729.718	-0.01
729.897	-0
730.076	-0.06
730.255	-0.18
730.434	-0.04
730.614	0.05
730.793	0.07
730.972	-0.01
731.151	0
731.33	0.01
731.509	-0.01
731.688	-0.06
731.867	-0.06
732.046	-0.12
732.225	0.16
732.404	-0.1
732.583	-0.14
732.762	0.08
732.941	0.03
733.12	0.07
733.298	-0.06
733.477	0.02
733.656	-0.11
733.835	-0.15
734.014	0.04
734.193	0.02
734.371	0.01
734.55	0.05
734.729	-0.18
734.908	0.03
735.086	-0.04
735.265	-0
735.444	-0.18
735.623	-0.09
735.801	-0.06
735.98	-0.08
736.159	-0.12
736.337	0.04
736.516	-0.06
736.694	0
736.873	-0.08
737.052	0.11
737.23	0.14
737.409	-0.16
737.587	0.09
737.766	-0.13
737.944	-0.1
738.123	0.02
738.301	0.08
738.479	-0.04
738.658	0.04
738.836	-0.22
739.015	-0.07
739.193	0.09
739.371	-0.24
739.55	-0.1
739.728	-0.25
739.906	0.09
740.085	0.2
740.263	-0.07
740.441	-0.14
740.62	0.12
740.798	0.09
740.976	-0.17
741.154	-0.12
741.332	0.06
741.511	-0.01
741.689	-0.02
741.867	0.04
742.045	-0.03
742.223	-0.15
742.401	-0.05
742.579	-0.12
742.757	0.05
742.935	-0.19
743.114	-0.03
743.292	-0.06
743.47	-0.1
743.648	0.04
743.826	-0.04
744.004	0.13
744.181	0.17
744.359	-0.02
744.537	0.04
744.715	-0.03
744.893	-0.03
745.071	-0.07
745.249	-0.02
745.427	-0.08
745.605	0.04
745.782	-0.1
745.96	0.01
746.138	-0.05
746.316	0.05
746.493	-0.11
746.671	-0
746.849	-0.09
747.027	0.2
747.204	-0.1
747.382	0.06
747.56	-0.08
747.737	-0.09
747.915	-0.15
748.093	0.06
748.27	-0.13
748.448	-0.01
748.625	-0.12
748.803	-0.12
748.98	0.01
749.158	-0.01
749.335	0.07
749.513	-0.07
749.69	-0.06
749.868	0.09
750.045	0.05
750.223	-0.13
750.4	-0.27
750.578	0.21
750.755	-0.08
750.932	-0.16
751.11	0.1
751.287	-0.18
751.464	0.08
751.642	-0.09
751.819	-0.08
751.996	-0.01
752.173	-0.08
752.351	-0.1
752.528	0.01
752.705	0.04
752.882	-0.16
753.06	0.06
753.237	-0.02
753.414	0.15
753.591	0.11
753.768	0.04
753.945	-0.13
754.122	-0.11
754.299	0.05
754.476	-0.15
754.654	-0.05
754.831	0.16
755.008	-0
755.185	-0.17
755.362	-0.13
755.539	0.11
755.716	-0.13
755.892	0.03
756.069	-0.05
756.246	0.03
756.423	-0.1
756.6	0.12
756.777	-0.05
756.954	0.09
757.131	-0.02
757.307	-0.12
757.484	-0.13
757.661	0.01
757.838	-0.02
758.015	-0.12
758.191	0.07
758.368	-0.04
758.545	0.16
758.721	0.04
758.898	-0.26
759.075	-0.01
759.251	0.05
759.428	0.09
759.605	-0.23
759.781	-0.11
759.958	0.02
760.134	-0.05
760.311	-0.11
760.488	0.03
760.664	0.1
760.841	-0
761.017	-0.23
761.194	0.03
761.37	0.08
761.547	-0.11
761.723	-0.02
761.899	0.13
762.076	-0.14
762.252	-0.11
762.429	-0.09
762.605	-0.07
762.781	-0.07
762.958	0.07
763.134	-0.08
763.31	-0.08
763.486	0.08
763.663	-0.19
763.839	-0.09
764.015	-0.3
764.191	-0.02
764.368	-0.11
764.544	-0.16
764.72	0
764.896	0.14
765.072	0.02
765.248	-0.05
765.425	-0.11
765.601	-0.09
765.777	0.08
765.953	-0.26
766.129	-0.16
766.305	-0.19
766.481	0.14
766.657	-0.06
766.833	0.18
767.009	-0.16
767.185	-0.06
767.361	-0.06
767.537	-0.2
767.713	0.19
767.889	-0.17
768.065	-0.08
768.24	0.08
768.416	0.15
768.592	-0.15
768.768	-0.12
768.944	0.01
769.12	-0.21
769.295	-0.07
769.471	-0.16
769.647	0.07
769.823	0.08
769.998	-0.04
770.174	-0.07
770.35	0.29
770.525	0.24
770.701	0.04
770.877	0.04
771.052	-0.02
771.228	0.07
771.403	-0.01
771.579	0.01
771.755	0.42
771.93	-0.12
772.106	-0.14
772.281	-0.07
772.457	0.04
772.632	0.08
772.808	-0.24
772.983	-0.09
773.159	-0.24
773.334	0.13
773.509	-0.14
773.685	-0.18
773.86	0.32
774.036	0.26
774.211	-0.12
774.386	-0.02
774.562	-0.01
774.737	0.07
774.912	-0.03
775.087	0.16
775.263	-0.06
775.438	-0.14
775.613	-0.05
775.788	-0.14
775.964	0.14
776.139	0.39
776.314	-0.23
776.489	0.01
776.664	0.02
776.839	0.04
777.014	0.05
777.19	-0.08
777.365	0.15
777.54	0.19
777.715	-0.16
777.89	-0.08
778.065	-0.05
778.24	0.02
778.415	0.15
778.59	-0.22
778.765	-0.3
778.94	-0.05
779.115	0.02
779.289	-0.06
779.464	-0.11
779.639	0.09
779.814	-0.06
779.989	-0.32
780.164	0.16
780.339	0.19
780.513	-0.18
780.688	-0.23
780.863	0.01
781.038	0.02
781.212	-0.24
781.387	0.07
781.562	0.29
781.737	0.01
781.911	0.12
782.086	-0.05
782.261	0.04
782.435	-0.06
782.61	-0.03
782.784	-0.03
782.959	0.13
783.134	-0
783.308	-0.21
783.483	-0.04
783.657	0.22
783.832	0.2
784.006	-0.36
784.181	0.01
784.355	0.08
784.53	-0.22
784.704	-0.09
784.878	0.17
785.053	0.05
785.227	0.23
785.402	0.18
785.576	-0.3
785.75	-0.2
785.925	-0.26
786.099	0.2
786.273	0.09
786.448	-0
786.622	0.05
786.796	-0.1
786.97	-0.06
787.145	0.41
787.319	-0.37
787.493	-0.07
787.667	-0.44
787.841	0.05
788.015	0.01
788.19	-0.24
788.364	0.01
788.538	0.2
788.712	0.24
788.886	-0.01
789.06	0.16
789.234	0.01
789.408	-0.17
789.582	-0.07
789.756	-0.16
789.93	-0.13
790.104	-0.19
790.278	-0.07
790.452	-0.19
790.626	0.29
790.8	-0.02
790.973	0.06
791.147	0.31
791.321	0.11
791.495	-0.02
791.669	0.03
791.843	0.11
792.016	0.05
792.19	0.35
792.364	-0.11
792.538	0.55
792.711	0.06
792.885	-0.13
793.059	-0.36
793.233	-0.52
793.406	0.23
793.58	0.02
793.754	0.03
793.927	-0.04
794.101	0.27
794.274	-0.01
794.448	-0.07
794.622	-0.42
794.795	0.55
794.969	-0.29
795.142	0.21
795.316	-0.33
795.489	-0.03
795.663	0.28
795.836	0.08
796.009	-0.23
796.183	0.44
796.356	-0.04
796.53	-0.1
796.703	-0.05
796.876	0.44
797.05	-0.12
797.223	-0.16
797.396	-0.07
797.57	0.15
797.743	0.07
797.916	0.1
798.09	0.16
798.263	0.34
798.436	0.12
798.609	-0.08
798.782	-0.06
798.956	-0.04
799.129	0.07
799.302	-0.08
799.475	-0.11
799.648	-0.44
799.821	-0.32
799.994	-0.1
800.167	-0.32
800.34	-0.04
800.514	0.15
800.687	-0.1
800.86	0.1
801.033	-0.27
801.206	0.16
801.379	-0.3
801.551	0.2
801.724	0.19
801.897	0.28
802.07	-0.19
802.243	-0.47
802.416	-0.14
802.589	-0.31
802.762	0.42
802.935	-0.03
803.107	0.25
803.28	0.41
803.453	-0.07
803.626	-0.31
803.798	-0.23
803.971	-0.42
804.144	-0.14
804.317	-0.08
804.489	0.37
804.662	0.05
804.835	0.02
805.007	-0.35
805.18	0.43
805.353	0.08
805.525	-0.08
805.698	-0.3
805.87	0.26
806.043	0.42
806.215	-0.24
806.388	-0.2
806.56	-0.08
806.733	-0.08
806.905	-0.18
807.078	-0.22
807.25	-0.17
807.423	0.05
807.595	-0.31
807.768	0.06
807.94	0.51
808.112	0.07
808.285	-0.06
808.457	-0.26
808.629	-0.17
808.802	-0.22
808.974	-0.09
809.146	-0.06
809.318	-0.48
809.491	-0.13
809.663	-0.02
809.835	-0.15
810.007	0.22
810.18	-0.2
810.352	-0.52
810.524	-0.07
810.696	-0.07
810.868	-0.1
811.04	-0.14
811.212	-0.11
811.384	0.47
811.556	-0.07
811.728	-0.15
811.901	0.82
812.073	-0.12
812.245	0.44
812.417	0.02
812.589	-0.38
812.76	0.15
812.932	-0.04
813.104	0.27
813.276	-0.03
813.448	0.04
813.62	-0.54
813.792	0.17
813.964	-0.1
814.136	-0.05
814.307	-0.3
814.479	-0.24
814.651	-0.59
814.823	0.64
814.995	0.05
815.166	-0.2
815.338	-0.38
815.51	-0.78
815.681	0.52
815.853	-0.1
816.025	-0.16
816.196	-0
816.368	0.11
816.54	-0.52
816.711	-0.35
816.883	-0.02
817.054	0.88
817.226	-0.41
817.398	-0.12
817.569	-0.26
817.741	0.25
817.912	0.4
818.084	-0.12
818.255	0.07
818.426	-0.3
818.598	-0.19
818.769	-0.63
818.941	0.08
819.112	0.33
819.283	0.14
819.455	-0.19
819.626	-0.04
819.798	0.44
819.969	-0.29
820.14	-0.45
820.311	-0.1
820.483	0.19
820.654	-0.33
820.825	0.11
820.996	-0.46
821.168	-0.45
821.339	-0.37
821.51	-0.6
821.681	-0.33
821.852	-0.11
822.023	-0.24
822.195	-0.29
822.366	0.45
822.537	-0.16
822.708	-0.03
822.879	-0.01
823.05	0.41
823.221	-0.14
823.392	0.02
823.563	-0.19
823.734	0.22
823.905	-0.39
824.076	-0.44
824.247	-0.63
824.418	-0.23
824.589	0.4
824.759	0.09
824.93	-0.18
825.101	0.02
825.272	0.04
825.443	0.52
825.614	0.18
825.784	-1.42
825.955	0.26
826.126	0.04
826.297	0.17
826.467	0.86
826.638	0.58
826.809	-1.15
826.98	0.39
827.15	0.23
827.321	0.12
827.492	0.79
827.662	-0.24
827.833	1.41
828.003	0.6
828.174	-0.61
828.345	-0.84
828.515	0.65
828.686	0.54
828.856	-0.38
829.027	-0.06
829.197	0.29
829.368	0.14
829.538	-0.21
829.709	-0.29
829.879	0.34
830.049	-0.15
830.22	-0.27
830.39	-0.01
830.56	1.11
830.731	-0.34
830.901	-0.7
831.072	-0.03
831.242	-0.12
831.412	-0.34
831.582	-0.39
831.753	-0.82
831.923	0.42
832.093	0.54
832.263	-0.25
832.434	-1.15
832.604	-0.61
832.774	0.38
832.944	-0.6
833.114	-0.77
833.284	-0.16
833.454	-1.03
833.624	-0.48
833.795	-0.04
833.965	0.4
834.135	0.48
834.305	-0.38
834.475	-1.36
834.645	0.79
834.815	-0.58
834.985	-0.86
835.155	-0.84
835.325	-0.2
835.494	0.99
835.664	-0.3
835.834	-0.29
836.004	0.29
836.174	0.04
836.344	-0.65
836.514	-0.71
836.684	-0.45
836.853	-0.08
837.023	-0.66
837.193	-0.06
837.363	0.52
837.532	0.4
837.702	-0.36
837.872	-0.88
838.041	0.96
838.211	1.29
838.381	-0.82
838.55	0.33
838.72	0.99
838.89	0.67
839.059	-0.53
839.229	-1.07
839.398	1.43
839.568	-0.1
839.738	-0.11
839.907	0.19
840.077	-0.07
840.246	-1.09
840.416	-0.24
840.585	-1.06
840.755	1.65
840.924	0.61
841.093	-0.34
841.263	-0.13
841.432	-0.5
841.602	-0.94
841.771	-0.78
841.94	0.84
842.11	1.36
842.279	1.13
842.448	-0.46
842.617	-0.56
842.787	0.81
842.956	-0.38
843.125	-0.27
843.294	-0.18
843.464	1.54
843.633	-0.32
843.802	-0.41
843.971	-0.31
844.14	0.92
844.309	0.39
844.479	-1.08
844.648	-0.37
844.817	-0.63
844.986	0.57
845.155	-0.66
845.324	-0.22
845.493	0.31
845.662	-0.47
845.831	-0.52
846	-0.02
846.169	0.01
846.338	1.54
846.507	-0.01
846.676	0.73
846.844	-0.12
847.013	0.51
847.182	-0.23
847.351	-0.68
847.52	-0.18
847.689	-0.3
847.858	0.26
848.026	-0.79
848.195	0.32
848.364	-0.45
848.533	-0.99
848.701	-1.01
848.87	-0.38
849.039	0.94
849.207	0.75
849.376	0.11
849.545	0.93
849.713	-1.16
849.882	-0.73
850.051	0.3
850.219	-0.04
850.388	-0.12
850.556	-0.64
850.725	-0.82
850.893	0.68
851.062	0.06
851.23	0.57
851.399	-0.63
851.567	-0.31
851.736	-1.34
851.904	-1.42
852.073	0.08
852.241	1.11
852.41	-0.26
852.578	-0.49
852.746	-1.02
852.915	0.07
853.083	-0.16
853.251	-1.7
853.42	-1.06
853.588	0.51
853.756	0.7
853.924	-0.29
854.093	-1.17
854.261	-0.3
854.429	-2.28
854.597	-0.64
854.765	-1.28
854.934	0.73
855.102	0.74
855.27	-1.04
855.438	0.48
855.606	1.43
855.774	1.83
855.942	-1.73
856.11	-1.91
856.278	1.28
856.446	0.28
856.614	0.73
856.782	-0.81
856.95	1.49
857.118	0.23
857.286	-0.9
857.454	-0.89
857.622	0.72
857.79	-0.13
857.958	-0.51
858.126	-1.2
858.294	-3.27
858.462	-0.15
858.629	-0.79
858.797	-1.29
858.965	0.79
859.133	0.27
859.301	-0.56
859.468	-0.34
859.636	-0.48
859.804	0.77
859.971	0.87
860.139	-0.69
860.307	0.75
860.474	-0.59
860.642	-0.48
860.81	-1.4
860.977	-0.51
861.145	0.9
861.313	-1.05
861.48	-1.23
861.648	0.11
861.815	-1.44
861.983	-1.04
862.15	-1.6
862.318	0.59
862.485	1.97
862.653	-0.16
862.82	-0.72
862.988	0.83
863.155	0.6
863.322	-1.43
863.49	-1.71
863.657	-0.29
863.824	1.58
863.992	0.4
864.159	-0.71
864.326	2.13
864.494	-1.3
864.661	1.52
864.828	-1.38
864.996	1.31
865.163	1.55
865.33	-1.92
865.497	-0.79
865.664	0.27
865.832	-2.25
865.999	-0.11
866.166	-2.68
866.333	-1.85
866.5	-0.17
866.667	-0.91
866.834	-0.72
867.001	2.31
867.168	-1.79
867.335	0.54
867.502	-2.37
867.669	-0.03
867.836	2.29
868.003	-1.46
868.17	0.56
868.337	-2.13
868.504	2.85
868.671	-2.23
868.838	-0.45
869.005	-0.82
869.172	-0.47
869.339	0.03
869.505	-1.57
869.672	-0.69
869.839	1.77
870.006	-1.49
870.173	-1.09
870.339	1.1
870.506	2.63
870.673	-1.98
870.84	0.33
871.006	0.6
871.173	-0.07
871.34	-0.47
871.506	-2.17
871.673	-0.31
871.839	-2.24
872.006	-0.3
872.173	-0.48
872.339	-0.47
872.506	1.95
872.672	-1.47
872.839	-1.47
873.005	0.56
873.172	2.81
873.338	1.3
873.505	-0.37
873.671	-1.45
873.838	1.84
874.004	-2.49
874.171	-2.47
874.337	0.39
874.503	0.44
874.67	-1.04
874.836	-0.8
875.002	1.77
875.169	0.55
875.335	0.9
875.501	-1.46
875.668	0.52
875.834	-0.09
876	-1.68
876.166	0.05
876.332	0.39
876.499	3.84
876.665	-1.55
876.831	0.36
876.997	4.66
877.163	0.86
877.329	-1.03
877.495	1.13
877.662	1.77
877.828	0.05
877.994	-1.2
878.16	-2.87
878.326	-2.02
878.492	-0.89
878.658	-0.71
878.824	0.61
878.99	-0.43
879.156	-2.67
879.322	3.15
879.487	-0.75
879.653	0.63
879.819	-0.27
879.985	-1.01
880.151	-0.01
880.317	-0.44
880.483	0.54
880.648	1.58
880.814	-2.75
880.98	0.76
881.146	-3.27
881.312	-0.1
881.477	0.11
881.643	-0.12
881.809	1.86
881.974	0.5
882.14	-4.18
882.306	-0.04
882.471	3.1
882.637	-0.65
882.803	0.14
882.968	0.95
883.134	4.18
883.299	0.82
883.465	0.26
883.63	1.92
883.796	3.22
883.961	0.75
884.127	0.78
884.292	-4.76
884.458	-1.83
884.623	-1.83
