Data from Apollo_Calib_20240827__AbsoluteIrradiance__593__09-02-00-208.txt Node

Date: Wed Aug 28 09:02:00 BST 2024
User: biology
Spectrometer: FLMT08252
Trigger mode: 0
Integration Time (sec): 5.000000E-1
Scans to average: 5
Electric dark correction enabled: true
Nonlinearity correction enabled: false
Boxcar width: 0
XAxis mode: Wavelengths
Number of Pixels in Spectrum: 3648
>>>>>Begin Spectral Data<<<<<
179.588	-0
179.809	-0
180.03	-0
180.251	-0
180.473	-0
180.694	0
180.915	0
181.136	-0
181.357	-0
181.578	-0
181.799	-0
182.02	-0
182.241	-0
182.462	-0
182.683	0
182.904	-0
183.125	-0
183.346	0
183.567	0
183.788	0
184.009	-0
184.23	0
184.451	0
184.672	0
184.892	-0
185.113	0
185.334	0
185.555	0
185.776	0
185.996	0
186.217	0
186.438	0
186.659	0
186.879	0
187.1	0
187.321	0
187.541	0
187.762	0
187.983	0
188.203	0
188.424	0
188.644	0
188.865	0
189.086	0
189.306	0
189.527	0
189.747	0
189.968	-0
190.188	0
190.409	0
190.629	0
190.849	0
191.07	0
191.29	0
191.511	0
191.731	0
191.951	0
192.172	0
192.392	0
192.612	0
192.833	0
193.053	0
193.273	0
193.493	0
193.714	0
193.934	0
194.154	0
194.374	0
194.594	0
194.815	0
195.035	0
195.255	0
195.475	0
195.695	0
195.915	0
196.135	0
196.355	0
196.575	0
196.795	0
197.015	-0
197.235	0
197.455	0
197.675	0
197.895	0
198.115	0
198.335	0
198.555	0
198.775	0
198.995	0
199.214	0
199.434	0
199.654	0
199.874	0
200.094	2.39
200.313	0.68
200.533	0.37
200.753	0.07
200.973	2.11
201.192	1.45
201.412	-0.08
201.632	0.14
201.851	1.38
202.071	0.41
202.291	0.68
202.51	-0.11
202.73	1.09
202.95	0.24
203.169	0.13
203.389	0.47
203.608	0.61
203.828	0.07
204.047	0.44
204.267	1.09
204.486	0.68
204.706	0.66
204.925	0.39
205.145	0.42
205.364	0.95
205.583	1.33
205.803	0.61
206.022	0.55
206.242	0.78
206.461	0.96
206.68	0.26
206.9	0.47
207.119	1.04
207.338	1.06
207.557	0.15
207.777	0.13
207.996	0.44
208.215	1
208.434	0.33
208.654	0
208.873	0.5
209.092	1.12
209.311	0.57
209.53	0.35
209.749	0.31
209.968	0.25
210.187	0.05
210.407	0.06
210.626	0.35
210.845	0.72
211.064	0.4
211.283	0.23
211.502	0.82
211.721	0.2
211.94	0.3
212.159	0.85
212.377	0.66
212.596	0.74
212.815	0.45
213.034	0.39
213.253	0.63
213.472	0.51
213.691	0.44
213.91	0.12
214.128	0.36
214.347	0.52
214.566	0.1
214.785	0.04
215.003	0.43
215.222	0.3
215.441	0.38
215.66	0.07
215.878	0.13
216.097	0.57
216.316	-0.01
216.534	0.38
216.753	0.07
216.972	0.37
217.19	0.39
217.409	0.19
217.627	-0.03
217.846	0.1
218.064	0.54
218.283	0.08
218.501	0.6
218.72	0.54
218.938	0.19
219.157	0.19
219.375	0.47
219.594	0.11
219.812	0.04
220.031	0.1
220.249	0.49
220.467	0.6
220.686	0.22
220.904	-0.02
221.122	0.15
221.341	0.49
221.559	0.19
221.777	0.16
221.995	0.33
222.214	0.41
222.432	0.03
222.65	0.39
222.868	0.22
223.086	0.3
223.305	0.44
223.523	0.18
223.741	0.5
223.959	0.14
224.177	-0.08
224.395	0.13
224.613	0.25
224.831	0.35
225.049	0.1
225.267	0.11
225.485	0.29
225.703	0.12
225.921	0.3
226.139	0.2
226.357	0.29
226.575	0.39
226.793	0.12
227.011	0.72
227.229	0.28
227.447	0.39
227.665	0.16
227.883	0.02
228.1	0.33
228.318	0.28
228.536	-0.13
228.754	0.04
228.972	0.26
229.189	0.36
229.407	0.07
229.625	0.09
229.843	0.31
230.06	0.28
230.278	0.15
230.496	0.24
230.713	0.33
230.931	0.38
231.149	0.06
231.366	0.04
231.584	0.26
231.801	0.49
232.019	0.04
232.236	0.03
232.454	0.01
232.671	0.26
232.889	0.09
233.106	0.03
233.324	0.15
233.541	0.16
233.759	0.19
233.976	0.12
234.194	0.14
234.411	0.2
234.628	0.14
234.846	0.16
235.063	0.23
235.28	0.13
235.498	0.1
235.715	0.06
235.932	0.16
236.149	0.13
236.367	0.04
236.584	0.16
236.801	0.09
237.018	0.39
237.236	0.17
237.453	-0
237.67	0.14
237.887	0.06
238.104	0.16
238.321	0.05
238.538	0
238.755	0.19
238.973	-0.03
239.19	0.23
239.407	0.16
239.624	0.16
239.841	-0.03
240.058	0.08
240.275	0.14
240.492	0.14
240.709	0.11
240.925	0.06
241.142	0.13
241.359	0.07
241.576	0.08
241.793	0.03
242.01	0.19
242.227	0.21
242.444	0.18
242.66	0.13
242.877	0.01
243.094	0.06
243.311	0.1
243.527	0.09
243.744	0.22
243.961	0.13
244.178	0.06
244.394	0.12
244.611	0.21
244.828	0.19
245.044	0.1
245.261	0.15
245.477	0.16
245.694	0.23
245.911	0.07
246.127	0.24
246.344	0.27
246.56	0.11
246.777	0.09
246.993	0.11
247.21	0.17
247.426	0.13
247.643	0.02
247.859	0.11
248.076	0.03
248.292	0.29
248.508	0.1
248.725	0.14
248.941	0.21
249.157	0.3
249.374	0.05
249.59	0.19
249.806	0.16
250.023	0.2
250.239	0.12
250.455	0.02
250.671	0.15
250.888	0.21
251.104	0.15
251.32	0.13
251.536	0.12
251.752	0.06
251.969	0.12
252.185	0.14
252.401	0.28
252.617	0.06
252.833	0.07
253.049	0.18
253.265	0.19
253.481	0.12
253.697	0.1
253.913	0.07
254.129	0.1
254.345	0.22
254.561	0.11
254.777	0.14
254.993	0.22
255.209	0.18
255.425	0.15
255.641	0.04
255.857	0.19
256.073	0.13
256.288	-0.04
256.504	0.11
256.72	0.15
256.936	0.27
257.152	0.11
257.367	0.11
257.583	0.15
257.799	0.13
258.015	0.04
258.23	0.1
258.446	0.25
258.662	0.12
258.877	0.07
259.093	0.04
259.309	0.17
259.524	0.12
259.74	0.09
259.955	0.03
260.171	0.14
260.387	0.14
260.602	0.12
260.818	0.13
261.033	-0.02
261.249	0.13
261.464	0.09
261.68	0.04
261.895	0.11
262.11	0.25
262.326	0.07
262.541	0.07
262.757	0.11
262.972	0.19
263.187	0.16
263.403	0.09
263.618	0.21
263.833	0.07
264.049	0.03
264.264	0.09
264.479	0.08
264.694	0.22
264.91	0.04
265.125	0.13
265.34	0.14
265.555	0.28
265.77	0.1
265.986	0.07
266.201	0.15
266.416	0.17
266.631	0.05
266.846	0.11
267.061	0.2
267.276	0.13
267.491	-0.01
267.706	0.14
267.921	0.13
268.136	0.08
268.351	0.09
268.566	0.01
268.781	0.15
268.996	0.16
269.211	0.14
269.426	0.12
269.641	0.05
269.856	0.08
270.071	0.03
270.285	0.03
270.5	0.15
270.715	0.16
270.93	0.09
271.145	0.14
271.359	0.18
271.574	0.06
271.789	0.06
272.004	0.08
272.218	0.12
272.433	0.1
272.648	0.07
272.862	0.19
273.077	0.09
273.292	0.09
273.506	0.1
273.721	0.08
273.936	0.16
274.15	0.15
274.365	0.03
274.579	0.14
274.794	0.08
275.008	0.18
275.223	-0.01
275.437	0.02
275.652	0.15
275.866	0.16
276.081	0.13
276.295	0.13
276.509	0.05
276.724	0.13
276.938	0.04
277.153	0.09
277.367	0.09
277.581	0.04
277.796	0.04
278.01	-0
278.224	0.17
278.438	0.22
278.653	-0
278.867	0.04
279.081	-0.15
279.295	0.12
279.51	0.17
279.724	-0.01
279.938	0.14
280.152	0.13
280.366	0.06
280.58	0.11
280.794	0.22
281.008	0.12
281.222	0.08
281.437	0.19
281.651	0.06
281.865	0.15
282.079	0.06
282.293	0.02
282.507	0.09
282.721	0.08
282.935	0.07
283.148	0.06
283.362	0.01
283.576	-0.01
283.79	0.09
284.004	0.08
284.218	0.14
284.432	0.07
284.646	0.09
284.859	0.05
285.073	0.07
285.287	0.1
285.501	0.06
285.714	0.06
285.928	0.11
286.142	0.05
286.356	0.03
286.569	0.05
286.783	0.13
286.997	0.17
287.21	0.03
287.424	0.09
287.637	0.05
287.851	0.05
288.065	0.11
288.278	0.06
288.492	0.13
288.705	0.07
288.919	0.13
289.132	-0
289.346	0.14
289.559	0.05
289.773	0.01
289.986	0.03
290.2	0.11
290.413	0.12
290.626	0.02
290.84	0.07
291.053	0.12
291.267	0.18
291.48	0.08
291.693	0.11
291.906	0.04
292.12	0.02
292.333	0.03
292.546	0.04
292.76	0.18
292.973	0.08
293.186	0.08
293.399	0.06
293.612	0.14
293.826	0.07
294.039	0.08
294.252	0.13
294.465	0.1
294.678	0.1
294.891	0.06
295.104	0.03
295.317	0.11
295.53	0.05
295.743	0.06
295.956	0.12
296.169	0.11
296.382	0.11
296.595	0.1
296.808	0.06
297.021	0.14
297.234	0.17
297.447	0.07
297.66	0.07
297.873	0.18
298.086	0.08
298.299	0.05
298.511	0.04
298.724	0.03
298.937	0.02
299.15	0.07
299.363	0.03
299.575	0.1
299.788	0.11
300.001	0.05
300.213	0.07
300.426	0.06
300.639	0.01
300.852	0.03
301.064	0.13
301.277	0.07
301.489	0.12
301.702	0.1
301.915	0.07
302.127	0.08
302.34	0.09
302.552	0.12
302.765	0.05
302.977	0.09
303.19	0.03
303.402	0.09
303.615	0.04
303.827	0.03
304.04	0.07
304.252	0.08
304.464	0.03
304.677	0.15
304.889	0.08
305.102	0.02
305.314	0.05
305.526	0.12
305.739	0.1
305.951	0.05
306.163	0.06
306.375	0.13
306.588	0.07
306.8	0.03
307.012	0.03
307.224	0.06
307.436	0.11
307.649	0.02
307.861	0.07
308.073	0.06
308.285	0.05
308.497	0.03
308.709	0.06
308.921	0.07
309.133	0.12
309.346	0.05
309.558	0.05
309.77	0.14
309.982	0.09
310.194	0.1
310.406	0.04
310.617	0.17
310.829	0.07
311.041	0.12
311.253	0.01
311.465	0.08
311.677	0.06
311.889	0.1
312.101	-0
312.313	0.11
312.524	0.08
312.736	-0.03
312.948	0.03
313.16	0.12
313.372	0.06
313.583	0.08
313.795	0.09
314.007	0.02
314.218	0.11
314.43	0.07
314.642	0.01
314.853	-0.01
315.065	0.12
315.277	0.04
315.488	0.07
315.7	0.1
315.912	0.09
316.123	0.03
316.335	0.05
316.546	0.16
316.758	0.06
316.969	0.07
317.181	0.11
317.392	0.06
317.604	0.13
317.815	0.03
318.026	0.05
318.238	0.03
318.449	0.07
318.661	0.01
318.872	-0
319.083	0.05
319.295	0.1
319.506	0.09
319.717	0.1
319.929	0.07
320.14	0.06
320.351	0.09
320.562	0.07
320.774	0.09
320.985	0.08
321.196	0.04
321.407	0.01
321.618	0.1
321.829	0.11
322.041	0.08
322.252	0.09
322.463	0.08
322.674	0.09
322.885	0.04
323.096	0.04
323.307	0.07
323.518	0.08
323.729	0.04
323.94	0.08
324.151	0.04
324.362	0.1
324.573	0.06
324.784	0.04
324.995	0.11
325.206	0.11
325.417	0.06
325.628	0.07
325.838	0.04
326.049	0.06
326.26	0.1
326.471	0.04
326.682	0.11
326.892	0.04
327.103	0.02
327.314	0.02
327.525	0.16
327.735	0.08
327.946	0.03
328.157	0.02
328.368	0.11
328.578	0.07
328.789	0.08
328.999	0.04
329.21	0.08
329.421	0.13
329.631	-0.01
329.842	0.03
330.052	0.07
330.263	0.1
330.473	0.08
330.684	0.07
330.894	0.08
331.105	0.08
331.315	0.05
331.526	0.01
331.736	0.16
331.947	0.09
332.157	0.1
332.367	0.02
332.578	0.07
332.788	0.1
332.999	0.1
333.209	0.06
333.419	0.03
333.629	0.09
333.84	0.07
334.05	0.08
334.26	0.13
334.47	0.09
334.681	0.11
334.891	0.06
335.101	0.09
335.311	0.15
335.521	0.09
335.732	0.04
335.942	0.15
336.152	0.09
336.362	0.09
336.572	0.08
336.782	0.08
336.992	0.07
337.202	0.09
337.412	0.01
337.622	0.1
337.832	0.09
338.042	0.08
338.252	0.05
338.462	0.06
338.672	0.1
338.882	-0.01
339.092	0.07
339.302	0.12
339.511	0.05
339.721	0.03
339.931	0.03
340.141	0.1
340.351	0.14
340.561	0.08
340.77	0.1
340.98	0.04
341.19	0.07
341.4	0.04
341.609	0.02
341.819	0.09
342.029	0.02
342.238	0.09
342.448	0.04
342.658	0.07
342.867	0.07
343.077	0.1
343.286	0.11
343.496	0.08
343.706	0.15
343.915	0.02
344.125	0.09
344.334	0.13
344.544	0.06
344.753	0.02
344.963	0.05
345.172	0.01
345.381	0.06
345.591	0.07
345.8	0.08
346.01	0.12
346.219	0.12
346.428	-0.08
346.638	0.09
346.847	0.06
347.056	0.14
347.266	0.02
347.475	0.05
347.684	0.07
347.893	0.08
348.103	0.07
348.312	0.08
348.521	0.05
348.73	0.11
348.94	0.08
349.149	0.01
349.358	0.04
349.567	0.04
349.776	0.02
349.985	0.06
350.194	0.09
350.403	0.11
350.612	-0.01
350.821	0.05
351.03	0.07
351.239	-0.03
351.448	0.08
351.657	0.06
351.866	0.12
352.075	0.08
352.284	0.14
352.493	0.05
352.702	0.1
352.911	0.07
353.12	0.06
353.329	0.06
353.538	0.06
353.746	0.09
353.955	0.03
354.164	0.1
354.373	0.02
354.582	0.11
354.79	0.07
354.999	0.09
355.208	0.08
355.416	0.1
355.625	0.04
355.834	0.05
356.042	0.06
356.251	0.01
356.46	0.04
356.668	0.09
356.877	0.12
357.085	0.13
357.294	0
357.503	0.1
357.711	0.07
357.92	0.18
358.128	0.09
358.337	0.06
358.545	0.09
358.754	0.02
358.962	0.11
359.17	0.07
359.379	0.07
359.587	0.09
359.796	0.07
360.004	0.09
360.212	0.1
360.421	0.08
360.629	0.05
360.837	0.06
361.046	0.13
361.254	0.14
361.462	0.1
361.67	0.03
361.879	0.08
362.087	0.11
362.295	0.04
362.503	0.06
362.711	0.01
362.92	0.04
363.128	0.03
363.336	-0.03
363.544	0.02
363.752	0.04
363.96	0.05
364.168	0.07
364.376	0.05
364.584	0.09
364.792	0.1
365	0.09
365.208	0.07
365.416	0.08
365.624	0.06
365.832	0.07
366.04	0.13
366.248	0.09
366.456	0.11
366.664	0.09
366.872	0.07
367.079	0.09
367.287	0.07
367.495	0.06
367.703	0.08
367.911	0.04
368.118	0.09
368.326	0.07
368.534	0.01
368.742	0.11
368.949	0.03
369.157	0.03
369.365	0.09
369.572	0.1
369.78	0.05
369.988	0.06
370.195	0.11
370.403	0.08
370.61	0.06
370.818	0.08
371.026	0.07
371.233	0.02
371.441	0.06
371.648	0.07
371.856	0.07
372.063	0.08
372.271	0.01
372.478	0.03
372.685	0.06
372.893	0.07
373.1	0.01
373.308	0.05
373.515	0.12
373.722	0.12
373.93	0.04
374.137	0.08
374.344	0.13
374.552	0.09
374.759	0.09
374.966	0.04
375.173	0.04
375.381	0.12
375.588	0.06
375.795	0.02
376.002	0.06
376.209	0.05
376.417	0.09
376.624	0.06
376.831	0.06
377.038	0.05
377.245	-0.03
377.452	0.05
377.659	0.07
377.866	0.04
378.073	0.05
378.28	0.05
378.487	0.07
378.694	0.09
378.901	0.02
379.108	0.04
379.315	0.07
379.522	0.14
379.729	0.08
379.936	0.08
380.143	0.1
380.35	0.07
380.557	0.07
380.763	0.05
380.97	0.04
381.177	0.09
381.384	0.05
381.591	0.03
381.797	0.07
382.004	0.07
382.211	0.07
382.418	0.07
382.624	0.07
382.831	0.11
383.038	0.05
383.244	0.07
383.451	0.04
383.658	0.04
383.864	0.07
384.071	0.03
384.277	0.14
384.484	0.04
384.69	0.04
384.897	0.09
385.103	0.08
385.31	0.01
385.516	0.07
385.723	-0.01
385.929	0.06
386.136	0.04
386.342	0.1
386.549	0.03
386.755	0.1
386.961	0.08
387.168	0.05
387.374	0.04
387.58	0.07
387.787	0.07
387.993	0.07
388.199	0.06
388.406	0.03
388.612	0.05
388.818	0.03
389.024	0.02
389.231	0.05
389.437	0.1
389.643	0.11
389.849	0.07
390.055	0.07
390.261	0.07
390.467	0.1
390.674	0.01
390.88	0.01
391.086	0.09
391.292	0
391.498	0.07
391.704	0.07
391.91	0.04
392.116	0.02
392.322	-0.05
392.528	0.07
392.734	0.04
392.94	0.04
393.146	0.01
393.352	0.07
393.557	0.07
393.763	0.02
393.969	0.08
394.175	0.04
394.381	0.1
394.587	0.01
394.792	0.06
394.998	0.11
395.204	0.09
395.41	0.05
395.615	0.06
395.821	0.1
396.027	0.09
396.233	0.05
396.438	0.08
396.644	0.15
396.85	0.12
397.055	0.05
397.261	0.06
397.466	0.01
397.672	0.04
397.878	0.08
398.083	0.08
398.289	0.05
398.494	0.08
398.7	0.09
398.905	-0.05
399.111	0.11
399.316	0.02
399.522	0.06
399.727	0.05
399.932	0.04
400.138	0.03
400.343	0.12
400.549	0.08
400.754	0.04
400.959	0.08
401.165	0.07
401.37	0.1
401.575	0.18
401.78	0.1
401.986	0.04
402.191	0.04
402.396	0.03
402.601	0.09
402.807	0.07
403.012	0.11
403.217	0.05
403.422	0.07
403.627	0.04
403.832	0.07
404.037	0.1
404.243	0.08
404.448	0.06
404.653	0.07
404.858	0.08
405.063	0.07
405.268	0.04
405.473	-0.02
405.678	0.02
405.883	0.18
406.088	0.1
406.293	0.04
406.498	0.09
406.703	0.11
406.907	0.03
407.112	0.01
407.317	0.03
407.522	0.1
407.727	-0.04
407.932	0.08
408.136	0.16
408.341	0.08
408.546	0.07
408.751	0.08
408.956	0.04
409.16	0.06
409.365	0.08
409.57	0.05
409.774	0.06
409.979	0.07
410.184	0.08
410.388	0.03
410.593	0.14
410.798	0.07
411.002	0.02
411.207	0.05
411.411	0.09
411.616	-0.01
411.82	0.06
412.025	0.06
412.229	0.04
412.434	0.11
412.638	0.08
412.843	0.05
413.047	0.09
413.252	0.03
413.456	0.03
413.66	0.13
413.865	0.03
414.069	0.1
414.273	0.04
414.478	0
414.682	0.06
414.886	0.03
415.091	0.03
415.295	-0
415.499	0.12
415.703	0.07
415.908	0.02
416.112	-0.03
416.316	0.08
416.52	0.06
416.724	-0
416.929	0.02
417.133	0.13
417.337	0.04
417.541	0.04
417.745	0.07
417.949	0.08
418.153	0.09
418.357	0.02
418.561	0.12
418.765	0.1
418.969	0.15
419.173	0.1
419.377	0.04
419.581	0.18
419.785	0
419.989	-0
420.193	0.02
420.397	0.04
420.601	0.12
420.804	0.1
421.008	0.01
421.212	0.06
421.416	0.13
421.62	0.02
421.823	0.02
422.027	0.11
422.231	0.08
422.435	0.03
422.638	0.09
422.842	0.04
423.046	0.04
423.249	0.09
423.453	0.12
423.657	0.07
423.86	0.02
424.064	0.05
424.268	0.15
424.471	0.03
424.675	0.13
424.878	0.12
425.082	0.08
425.285	0.08
425.489	0.09
425.692	0.06
425.896	0
426.099	0.05
426.303	0.05
426.506	0
426.71	0.1
426.913	0.1
427.116	0.11
427.32	0.07
427.523	0.04
427.726	0.16
427.93	0.01
428.133	0.08
428.336	0
428.54	-0.01
428.743	0.06
428.946	0.1
429.149	0.03
429.353	0.1
429.556	0.04
429.759	0.07
429.962	0.03
430.165	0.07
430.368	0.07
430.571	0.03
430.775	0.06
430.978	0.03
431.181	0.08
431.384	0.09
431.587	0.02
431.79	0.05
431.993	0.03
432.196	0.06
432.399	0.07
432.602	0.11
432.805	0.05
433.008	0.06
433.211	-0.03
433.414	0.12
433.616	0.11
433.819	0.03
434.022	0.02
434.225	0.15
434.428	0.06
434.631	0.14
434.833	0.05
435.036	0.05
435.239	0.11
435.442	0.06
435.645	0.04
435.847	0.09
436.05	0.06
436.253	0.09
436.455	0.06
436.658	0.07
436.861	0.08
437.063	0.06
437.266	0.05
437.468	0.08
437.671	0.18
437.874	0.08
438.076	-0.01
438.279	-0
438.481	0.09
438.684	0.01
438.886	0.13
439.089	0.01
439.291	0.08
439.494	0.1
439.696	0.06
439.899	0.07
440.101	0.13
440.303	-0.02
440.506	0.1
440.708	0.07
440.91	0.09
441.113	0.01
441.315	0.09
441.517	0.02
441.72	0.13
441.922	0.04
442.124	-0.04
442.326	0.06
442.529	0.14
442.731	0.02
442.933	0.16
443.135	0.06
443.337	0.01
443.539	0.05
443.742	0.06
443.944	0.11
444.146	0.01
444.348	0.04
444.55	0.06
444.752	0
444.954	0.05
445.156	0.08
445.358	0.04
445.56	0.09
445.762	0.04
445.964	0.01
446.166	0.11
446.368	0.01
446.57	0.12
446.772	0.1
446.974	0.02
447.175	0.06
447.377	0.02
447.579	0.01
447.781	0.01
447.983	0.14
448.184	0.06
448.386	0.08
448.588	-0.03
448.79	0.06
448.991	0.04
449.193	0.07
449.395	0.07
449.597	0.11
449.798	0.1
450	0.13
450.202	0.05
450.403	0.07
450.605	0.11
450.806	0.04
451.008	-0.04
451.21	0.06
451.411	0.03
451.613	0.09
451.814	0.06
452.016	0.1
452.217	0.07
452.419	0.12
452.62	0.04
452.821	0.07
453.023	0.14
453.224	0.08
453.426	0.07
453.627	0.08
453.828	0.11
454.03	0.03
454.231	0.06
454.432	0.02
454.634	0.2
454.835	0.03
455.036	-0.01
455.238	0.11
455.439	0.17
455.64	0.02
455.841	0.05
456.042	0.17
456.244	0.09
456.445	-0
456.646	0.05
456.847	0.04
457.048	0.1
457.249	0.12
457.45	0.31
457.651	0.04
457.852	0.1
458.054	0.09
458.255	0.02
458.456	0.13
458.657	0.13
458.858	0.04
459.058	0.09
459.259	0.09
459.46	0.06
459.661	0.04
459.862	0.21
460.063	0.07
460.264	0.11
460.465	-0.02
460.666	0.14
460.866	0.09
461.067	0.09
461.268	0.02
461.469	0.03
461.67	0.05
461.87	0.01
462.071	0.02
462.272	0.05
462.473	0.05
462.673	0.14
462.874	-0.05
463.075	0.07
463.275	0.05
463.476	0.11
463.676	0.09
463.877	0.11
464.078	0.08
464.278	0.07
464.479	0.07
464.679	0.07
464.88	0.06
465.08	0.14
465.281	0.03
465.481	0.02
465.682	0.03
465.882	0.11
466.083	0.07
466.283	0.1
466.483	0.05
466.684	0.06
466.884	0.06
467.085	0.06
467.285	0.09
467.485	0.04
467.686	0.06
467.886	0.03
468.086	0.09
468.286	0.03
468.487	0.08
468.687	-0
468.887	0.02
469.087	0.13
469.287	0.06
469.488	0.01
469.688	0.1
469.888	0.13
470.088	0.08
470.288	0.1
470.488	0.11
470.688	0.02
470.888	0
471.088	0.06
471.288	0.06
471.488	0.09
471.688	0.08
471.888	0.05
472.088	0.08
472.288	0.09
472.488	0.04
472.688	-0
472.888	0.07
473.088	0.07
473.288	0.08
473.488	0.06
473.688	0.14
473.887	0.05
474.087	0.01
474.287	0.09
474.487	0.04
474.687	0.09
474.886	0.02
475.086	0.08
475.286	0.06
475.486	0.05
475.685	0.04
475.885	0.01
476.085	0.06
476.284	0.09
476.484	0.05
476.684	0.08
476.883	0.12
477.083	0.05
477.282	0.03
477.482	0.14
477.681	0.12
477.881	0.05
478.08	0.03
478.28	0.01
478.479	0.06
478.679	0.09
478.878	0.03
479.078	-0.02
479.277	0.06
479.477	0.03
479.676	0.07
479.875	0.04
480.075	-0.01
480.274	0.05
480.473	0.09
480.673	0.01
480.872	0.07
481.071	0.05
481.271	0.03
481.47	0.03
481.669	0.05
481.868	0.03
482.067	-0.02
482.267	-0
482.466	-0.01
482.665	-0
482.864	-0.01
483.063	-0.01
483.262	0.06
483.461	0.11
483.661	0.04
483.86	0.02
484.059	0.05
484.258	0.04
484.457	0.06
484.656	0.04
484.855	0.07
485.054	0.02
485.253	0.03
485.452	-0
485.651	0.05
485.849	0.04
486.048	-0.01
486.247	0
486.446	0.05
486.645	0.01
486.844	0.02
487.043	0.04
487.241	0.04
487.44	0.01
487.639	0.03
487.838	0.06
488.037	0.06
488.235	0.06
488.434	0.05
488.633	0.03
488.831	0.07
489.03	0.07
489.229	0.04
489.427	0.03
489.626	0.09
489.825	0.08
490.023	0.04
490.222	0.03
490.42	0.05
490.619	0.06
490.817	0.08
491.016	0.02
491.214	0.07
491.413	0.01
491.611	0.02
491.81	0.04
492.008	0.04
492.207	0.05
492.405	0.02
492.604	-0.01
492.802	0.01
493	0.02
493.199	0.02
493.397	0.03
493.595	0.03
493.794	0.01
493.992	0.07
494.19	0.03
494.388	0.05
494.587	0.01
494.785	0.03
494.983	0
495.181	0.03
495.379	0.03
495.578	0.04
495.776	0.04
495.974	0.02
496.172	0.01
496.37	0.03
496.568	-0
496.766	0.01
496.964	0.05
497.162	0.04
497.36	0.01
497.558	0.05
497.756	0.05
497.954	0.01
498.152	0
498.35	0.03
498.548	0.01
498.746	0.04
498.944	0.01
499.142	0.04
499.34	-0
499.538	0.04
499.736	0.02
499.933	0.05
500.131	0.03
500.329	0.03
500.527	0.08
500.725	0.03
500.922	0.04
501.12	0.04
501.318	0.05
501.516	0.02
501.713	0.05
501.911	0.02
502.109	-0.01
502.306	0.03
502.504	0.01
502.701	0
502.899	0.02
503.097	0.05
503.294	0.02
503.492	0.03
503.689	0.06
503.887	0.07
504.084	0.08
504.282	0.03
504.479	-0
504.677	0.05
504.874	-0
505.072	0.04
505.269	0.01
505.466	0.03
505.664	0.03
505.861	-0.01
506.059	0.01
506.256	0.05
506.453	-0.01
506.651	0.08
506.848	0.05
507.045	0.03
507.242	0.04
507.44	0.02
507.637	0.02
507.834	0.03
508.031	0.04
508.229	0
508.426	0.05
508.623	0.05
508.82	-0
509.017	0.01
509.214	0.03
509.411	0.02
509.608	0.01
509.805	0.01
510.003	0.04
510.2	-0.01
510.397	0.06
510.594	0.02
510.791	-0
510.988	0.02
511.184	0.06
511.381	0.06
511.578	0.03
511.775	0.06
511.972	-0
512.169	0.01
512.366	0.03
512.563	0.03
512.76	0.01
512.956	0.07
513.153	0.01
513.35	0.03
513.547	0.01
513.744	-0.01
513.94	-0
514.137	0.05
514.334	0.05
514.53	0.05
514.727	0.02
514.924	0.08
515.12	0.01
515.317	0
515.514	0.04
515.71	0
515.907	0.02
516.103	0.04
516.3	0.03
516.497	0.05
516.693	0.07
516.89	-0
517.086	0
517.283	0.05
517.479	0.03
517.676	0.01
517.872	0.02
518.068	0.01
518.265	0.02
518.461	0.02
518.658	0.01
518.854	0.03
519.05	0.03
519.247	0.01
519.443	0.05
519.639	0.03
519.836	0.03
520.032	0.02
520.228	0.04
520.424	0.06
520.621	0.05
520.817	0.03
521.013	0.05
521.209	0.05
521.405	0.06
521.601	0.05
521.798	0.04
521.994	0.06
522.19	0.02
522.386	-0
522.582	0.04
522.778	0.02
522.974	0.04
523.17	0.02
523.366	0.02
523.562	0.07
523.758	0.04
523.954	0.02
524.15	0.02
524.346	0.04
524.542	0.04
524.738	0.01
524.934	0.02
525.129	-0.04
525.325	0.05
525.521	0.03
525.717	0.04
525.913	0.05
526.109	0.03
526.304	0.02
526.5	0.04
526.696	0.07
526.892	0.04
527.087	0.03
527.283	0.01
527.479	0.03
527.674	0.05
527.87	0.03
528.066	0.03
528.261	0.05
528.457	0.04
528.653	0.02
528.848	0.02
529.044	0.02
529.239	0.03
529.435	0.06
529.63	0.04
529.826	0.04
530.021	0.04
530.217	0.03
530.412	0.02
530.608	0.03
530.803	0.03
530.999	0.03
531.194	-0.01
531.389	0.04
531.585	-0.01
531.78	0.04
531.975	0.02
532.171	0.05
532.366	-0
532.561	0.03
532.757	0.02
532.952	0.03
533.147	0.05
533.342	0.02
533.538	0.02
533.733	0.05
533.928	0.03
534.123	-0
534.318	0
534.513	0.02
534.709	0.01
534.904	0.03
535.099	0.02
535.294	0.02
535.489	0.02
535.684	0.02
535.879	0.01
536.074	0.03
536.269	0.01
536.464	0.03
536.659	0.02
536.854	0.02
537.049	0.04
537.244	0.03
537.439	0.02
537.634	0.07
537.828	0.03
538.023	0.03
538.218	0
538.413	0.02
538.608	0
538.803	0.05
538.997	-0
539.192	0.04
539.387	0.04
539.582	0.05
539.776	0.07
539.971	0.04
540.166	0.04
540.36	0.03
540.555	0.03
540.75	0.01
540.944	0.04
541.139	-0.02
541.334	0.01
541.528	0.02
541.723	0.06
541.917	0.02
542.112	0.01
542.306	0.03
542.501	0.01
542.695	0.04
542.89	0.03
543.084	0.03
543.279	0.01
543.473	0.03
543.668	0.03
543.862	0.04
544.056	0.05
544.251	0.04
544.445	0.05
544.64	0.05
544.834	0.01
545.028	0.03
545.222	0.05
545.417	0.07
545.611	0.06
545.805	0.03
546	-0.01
546.194	0.03
546.388	0.02
546.582	0.04
546.776	0.03
546.97	0.03
547.165	0.05
547.359	0.06
547.553	0.03
547.747	0.04
547.941	0.06
548.135	0.04
548.329	0.08
548.523	0.05
548.717	0.04
548.911	0.03
549.105	0.05
549.299	0.02
549.493	0.07
549.687	0.04
549.881	0.04
550.075	0.04
550.269	0
550.463	0.06
550.657	0.01
550.85	0.04
551.044	0.02
551.238	0.04
551.432	0.01
551.626	0.02
551.82	0.05
552.013	0.02
552.207	0.03
552.401	0.05
552.594	0.04
552.788	0.01
552.982	0.05
553.176	0.03
553.369	0.06
553.563	0.05
553.756	-0
553.95	0.02
554.144	0.04
554.337	0.04
554.531	0.06
554.724	0.04
554.918	0.05
555.111	0.06
555.305	0.04
555.498	0.06
555.692	0.05
555.885	0.02
556.079	0.03
556.272	0.03
556.466	0.07
556.659	0.05
556.852	0.04
557.046	0.01
557.239	0.05
557.432	0.01
557.626	0.03
557.819	0.06
558.012	0.05
558.206	0.05
558.399	0.06
558.592	0.05
558.785	0.03
558.979	0.05
559.172	0.04
559.365	0.06
559.558	0.05
559.751	0.02
559.944	0.06
560.138	0.02
560.331	0.03
560.524	0.03
560.717	0.04
560.91	0.07
561.103	0.05
561.296	0.04
561.489	0.07
561.682	0.04
561.875	0.08
562.068	0.08
562.261	0.04
562.454	0.06
562.647	0.05
562.84	0.06
563.032	0.03
563.225	0.03
563.418	0.04
563.611	0.04
563.804	0.04
563.997	0.01
564.19	-0
564.382	-0.03
564.575	0.04
564.768	0.02
564.961	0.04
565.153	0.05
565.346	0.05
565.539	0.09
565.731	0.07
565.924	0.07
566.117	0.07
566.309	0.03
566.502	0.06
566.695	0.02
566.887	0.05
567.08	0.01
567.272	0.04
567.465	0.01
567.657	0.07
567.85	0.07
568.042	0.07
568.235	0.09
568.427	0.06
568.62	0.07
568.812	0.08
569.005	0.06
569.197	0
569.389	0.05
569.582	0.05
569.774	0.07
569.966	0.03
570.159	0.02
570.351	0.06
570.543	0.05
570.736	0.04
570.928	0.02
571.12	0.07
571.312	0.04
571.505	0.02
571.697	0.06
571.889	0.01
572.081	0.04
572.273	0.03
572.465	0.07
572.658	0.04
572.85	0.07
573.042	0.05
573.234	0.02
573.426	0.07
573.618	0.01
573.81	0.07
574.002	0.08
574.194	0.07
574.386	0.02
574.578	-0.03
574.77	0.02
574.962	0.06
575.154	0.03
575.346	0.05
575.538	0.04
575.729	0
575.921	0.05
576.113	0.05
576.305	0.06
576.497	0.03
576.689	0.06
576.88	0.05
577.072	0.07
577.264	0.03
577.456	0.04
577.647	0
577.839	0.08
578.031	0.1
578.223	0.03
578.414	0.03
578.606	0.07
578.798	0.06
578.989	0.07
579.181	0.06
579.372	0.07
579.564	0.07
579.755	0.06
579.947	0.06
580.139	0.09
580.33	0.02
580.522	0.05
580.713	-0
580.905	0.09
581.096	0.09
581.287	0.07
581.479	0.06
581.67	0.08
581.862	0.06
582.053	0.04
582.244	0.02
582.436	0.07
582.627	0.07
582.818	0.04
583.01	0.05
583.201	0.07
583.392	0.09
583.583	0.06
583.775	0.05
583.966	0.06
584.157	0.04
584.348	0.05
584.54	0.05
584.731	0.09
584.922	0.05
585.113	0.07
585.304	0.08
585.495	0.12
585.686	0.07
585.877	0.1
586.068	0.09
586.259	0.06
586.45	0.08
586.641	0.04
586.832	0.03
587.023	0.08
587.214	0.08
587.405	0.08
587.596	0.03
587.787	0.12
587.978	0.1
588.169	0.06
588.36	0.07
588.551	0.09
588.742	0.07
588.932	0.06
589.123	0.05
589.314	0.07
589.505	0.11
589.696	0.1
589.886	0.06
590.077	0.04
590.268	0.1
590.458	0.05
590.649	0.06
590.84	0.09
591.03	0.05
591.221	0.02
591.412	0.06
591.602	0.09
591.793	0.11
591.984	0.06
592.174	0.09
592.365	0.14
592.555	0.07
592.746	0.12
592.936	0.09
593.127	0.11
593.317	0.15
593.508	0.07
593.698	0.07
593.889	0.1
594.079	0.12
594.269	0.08
594.46	0.1
594.65	0.1
594.84	0.11
595.031	0.08
595.221	0.08
595.411	0.07
595.602	0.11
595.792	0.11
595.982	0.11
596.172	0.17
596.363	0.13
596.553	0.12
596.743	0.11
596.933	0.11
597.123	0.17
597.314	0.12
597.504	0.1
597.694	0.18
597.884	0.14
598.074	0.12
598.264	0.12
598.454	0.12
598.644	0.13
598.834	0.14
599.024	0.11
599.214	0.11
599.404	0.17
599.594	0.11
599.784	0.14
599.974	0.18
600.164	0.17
600.354	0.09
600.544	0.09
600.734	0.15
600.924	0.17
601.114	0.11
601.303	0.16
601.493	0.16
601.683	0.17
601.873	0.18
602.063	0.12
602.252	0.2
602.442	0.12
602.632	0.14
602.821	0.14
603.011	0.19
603.201	0.15
603.39	0.14
603.58	0.15
603.77	0.17
603.959	0.21
604.149	0.2
604.339	0.18
604.528	0.23
604.718	0.24
604.907	0.19
605.097	0.21
605.286	0.18
605.476	0.25
605.665	0.23
605.855	0.19
606.044	0.26
606.234	0.23
606.423	0.25
606.612	0.19
606.802	0.23
606.991	0.26
607.181	0.27
607.37	0.19
607.559	0.24
607.749	0.24
607.938	0.26
608.127	0.26
608.316	0.26
608.506	0.27
608.695	0.26
608.884	0.28
609.073	0.29
609.263	0.32
609.452	0.32
609.641	0.32
609.83	0.3
610.019	0.29
610.208	0.3
610.397	0.3
610.586	0.36
610.775	0.31
610.965	0.31
611.154	0.35
611.343	0.37
611.532	0.37
611.721	0.34
611.91	0.35
612.099	0.39
612.287	0.38
612.476	0.36
612.665	0.4
612.854	0.36
613.043	0.45
613.232	0.41
613.421	0.37
613.61	0.45
613.798	0.42
613.987	0.47
614.176	0.45
614.365	0.47
614.554	0.48
614.742	0.52
614.931	0.47
615.12	0.54
615.309	0.48
615.497	0.53
615.686	0.5
615.875	0.55
616.063	0.53
616.252	0.54
616.44	0.58
616.629	0.58
616.818	0.6
617.006	0.6
617.195	0.62
617.383	0.63
617.572	0.65
617.76	0.63
617.949	0.63
618.137	0.69
618.326	0.68
618.514	0.64
618.703	0.66
618.891	0.81
619.079	0.69
619.268	0.81
619.456	0.74
619.644	0.81
619.833	0.77
620.021	0.81
620.209	0.78
620.398	0.87
620.586	0.82
620.774	0.94
620.962	0.9
621.151	0.99
621.339	0.91
621.527	0.92
621.715	0.92
621.903	0.94
622.092	0.92
622.28	1.06
622.468	1
622.656	1.07
622.844	1.1
623.032	1.11
623.22	1.07
623.408	1.16
623.596	1.19
623.784	1.22
623.972	1.17
624.16	1.2
624.348	1.27
624.536	1.32
624.724	1.29
624.912	1.35
625.1	1.31
625.288	1.37
625.476	1.36
625.664	1.44
625.851	1.43
626.039	1.49
626.227	1.49
626.415	1.54
626.603	1.49
626.79	1.58
626.978	1.6
627.166	1.62
627.354	1.66
627.541	1.64
627.729	1.66
627.917	1.82
628.104	1.81
628.292	1.8
628.48	1.87
628.667	1.86
628.855	2.02
629.042	2.03
629.23	1.99
629.418	2.02
629.605	2.13
629.793	2.07
629.98	2.15
630.168	2.17
630.355	2.26
630.543	2.26
630.73	2.3
630.917	2.38
631.105	2.46
631.292	2.45
631.48	2.51
631.667	2.58
631.854	2.59
632.042	2.63
632.229	2.64
632.416	2.76
632.604	2.74
632.791	2.71
632.978	2.9
633.165	2.89
633.353	2.93
633.54	3.06
633.727	2.93
633.914	3.03
634.101	3.06
634.289	3.25
634.476	3.19
634.663	3.23
634.85	3.3
635.037	3.4
635.224	3.34
635.411	3.52
635.598	3.52
635.785	3.67
635.972	3.65
636.159	3.73
636.346	3.74
636.533	3.76
636.72	3.88
636.907	3.92
637.094	3.95
637.281	4
637.468	4.13
637.655	4.19
637.842	4.26
638.029	4.23
638.215	4.28
638.402	4.54
638.589	4.47
638.776	4.55
638.963	4.63
639.149	4.8
639.336	4.91
639.523	4.88
639.709	4.91
639.896	4.99
640.083	5.07
640.27	5.28
640.456	5.28
640.643	5.27
640.829	5.27
641.016	5.44
641.203	5.58
641.389	5.64
641.576	5.72
641.762	5.81
641.949	5.85
642.135	6.01
642.322	6.06
642.508	6.14
642.695	6.36
642.881	6.33
643.068	6.43
643.254	6.68
643.441	6.64
643.627	6.83
643.813	6.78
644	7.05
644.186	7.01
644.372	7.31
644.559	7.33
644.745	7.52
644.931	7.63
645.118	7.74
645.304	7.91
645.49	8.04
645.676	8.15
645.862	8.22
646.049	8.54
646.235	8.52
646.421	8.89
646.607	9.02
646.793	8.99
646.979	9.08
647.165	9.35
647.352	9.48
647.538	9.57
647.724	9.75
647.91	9.84
648.096	10.04
648.282	10.31
648.468	10.36
648.654	10.66
648.84	10.7
649.026	10.96
649.212	10.94
649.397	11.22
649.583	11.58
649.769	11.72
649.955	11.77
650.141	12.09
650.327	12.01
650.513	12.34
650.698	12.6
650.884	12.64
651.07	13.01
651.256	13.06
651.442	13.44
651.627	13.25
651.813	13.83
651.999	13.71
652.184	13.98
652.37	14.29
652.556	14.45
652.741	14.59
652.927	14.57
653.113	15.06
653.298	15.22
653.484	15.37
653.669	15.63
653.855	15.86
654.04	16.11
654.226	16.14
654.412	16.41
654.597	16.37
654.782	16.81
654.968	16.94
655.153	17.14
655.339	17.28
655.524	17.53
655.71	17.67
655.895	17.98
656.08	18.13
656.266	18.51
656.451	18.25
656.636	18.48
656.822	18.76
657.007	18.97
657.192	19.25
657.378	19.26
657.563	19.07
657.748	19.3
657.933	19.69
658.118	19.24
658.304	19.84
658.489	19.97
658.674	20.01
658.859	19.79
659.044	19.86
659.229	20.1
659.414	20.19
659.599	19.94
659.785	19.94
659.97	20.06
660.155	19.84
660.34	20.04
660.525	19.67
660.71	19.57
660.895	19.63
661.08	19.33
661.264	18.97
661.449	18.78
661.634	18.47
661.819	18.46
662.004	17.74
662.189	17.73
662.374	17.62
662.559	16.97
662.743	16.84
662.928	16.52
663.113	16
663.298	15.87
663.483	15.46
663.667	15
663.852	14.78
664.037	14.39
664.221	14.14
664.406	13.69
664.591	13.24
664.775	12.89
664.96	12.59
665.145	11.83
665.329	11.66
665.514	11.28
665.698	10.84
665.883	10.54
666.068	10.31
666.252	9.96
666.437	9.52
666.621	9.27
666.806	8.91
666.99	8.53
667.174	8.31
667.359	8.06
667.543	7.7
667.728	7.51
667.912	7.11
668.096	6.89
668.281	6.64
668.465	6.52
668.649	6.36
668.834	5.93
669.018	5.89
669.202	5.65
669.387	5.39
669.571	5.35
669.755	5.06
669.939	4.85
670.124	4.78
670.308	4.63
670.492	4.42
670.676	4.32
670.86	4.14
671.044	3.97
671.228	3.96
671.413	3.75
671.597	3.59
671.781	3.5
671.965	3.46
672.149	3.31
672.333	3.24
672.517	3.05
672.701	3.02
672.885	2.91
673.069	2.75
673.253	2.77
673.437	2.65
673.621	2.52
673.804	2.54
673.988	2.41
674.172	2.28
674.356	2.17
674.54	2.16
674.724	2.28
674.908	2.01
675.091	2.01
675.275	1.9
675.459	1.9
675.643	1.85
675.826	1.75
676.01	1.67
676.194	1.6
676.377	1.61
676.561	1.6
676.745	1.48
676.928	1.47
677.112	1.39
677.296	1.35
677.479	1.3
677.663	1.24
677.846	1.31
678.03	1.21
678.213	1.14
678.397	1.23
678.58	1.08
678.764	1.06
678.947	0.97
679.131	0.98
679.314	0.98
679.498	0.97
679.681	0.95
679.865	1.01
680.048	0.89
680.231	0.86
680.415	0.79
680.598	0.75
680.781	0.75
680.965	0.77
681.148	0.79
681.331	0.71
681.514	0.7
681.698	0.63
681.881	0.7
682.064	0.67
682.247	0.67
682.43	0.6
682.614	0.61
682.797	0.6
682.98	0.61
683.163	0.54
683.346	0.58
683.529	0.53
683.712	0.44
683.895	0.52
684.078	0.5
684.261	0.46
684.444	0.49
684.627	0.51
684.81	0.43
684.993	0.44
685.176	0.43
685.359	0.39
685.542	0.41
685.725	0.55
685.908	0.39
686.091	0.44
686.274	0.43
686.457	0.38
686.639	0.37
686.822	0.42
687.005	0.35
687.188	0.38
687.371	0.39
687.553	0.34
687.736	0.38
687.919	0.39
688.102	0.4
688.284	0.34
688.467	0.3
688.65	0.32
688.832	0.27
689.015	0.27
689.197	0.24
689.38	0.37
689.563	0.35
689.745	0.26
689.928	0.23
690.11	0.32
690.293	0.33
690.475	0.2
690.658	0.25
690.84	0.24
691.023	0.3
691.205	0.26
691.388	0.25
691.57	0.28
691.752	0.3
691.935	0.18
692.117	0.23
692.3	0.24
692.482	0.22
692.664	0.26
692.847	0.24
693.029	0.28
693.211	0.26
693.393	0.22
693.576	0.2
693.758	0.21
693.94	0.2
694.122	0.22
694.304	0.21
694.487	0.18
694.669	0.24
694.851	0.2
695.033	0.24
695.215	0.16
695.397	0.12
695.579	0.19
695.761	0.19
695.943	0.1
696.125	0.21
696.308	0.18
696.49	0.11
696.671	0.29
696.853	0.16
697.035	0.31
697.217	0.15
697.399	0.24
697.581	0.14
697.763	0.15
697.945	0.06
698.127	0.13
698.309	0.23
698.491	0.18
698.672	0.18
698.854	0.2
699.036	0.25
699.218	0.13
699.399	0.19
699.581	0.17
699.763	0.19
699.945	0.09
700.126	0.09
700.308	0.15
700.49	0.19
700.671	0.05
700.853	0.1
701.035	0.15
701.216	0.17
701.398	0.1
701.579	0.1
701.761	0.19
701.943	0.06
702.124	0.11
702.306	0.16
702.487	0.27
702.669	0.16
702.85	0.09
703.031	0.05
703.213	0.23
703.394	0.22
703.576	0.11
703.757	0.18
703.938	0.19
704.12	0.2
704.301	0.11
704.483	0.11
704.664	0.2
704.845	0.26
705.026	0.17
705.208	0.17
705.389	0.14
705.57	0.16
705.751	0.12
705.933	0.19
706.114	0.19
706.295	0.09
706.476	0.04
706.657	0.19
706.838	0.15
707.02	0.14
707.201	0.07
707.382	0.09
707.563	0.15
707.744	0.11
707.925	0.08
708.106	0.11
708.287	0.17
708.468	0.22
708.649	0.08
708.83	0.2
709.011	0.13
709.192	0.2
709.373	0.07
709.554	0.12
709.734	0.15
709.915	0.17
710.096	0.08
710.277	0.03
710.458	0.14
710.639	0.11
710.819	0.08
711	0.08
711.181	0.22
711.362	0.19
711.542	0.16
711.723	0.15
711.904	0.19
712.085	0.17
712.265	0.14
712.446	0.09
712.627	0.11
712.807	0.07
712.988	0.09
713.168	0.09
713.349	0.2
713.53	0.06
713.71	0.04
713.891	0.06
714.071	0.18
714.252	0.13
714.432	0.11
714.613	0.04
714.793	0.08
714.974	0.22
715.154	0.19
715.334	0.13
715.515	0.18
715.695	0.03
715.876	0.11
716.056	0.08
716.236	0.11
716.417	0.07
716.597	0.06
716.777	0.24
716.957	0.14
717.138	0.12
717.318	0.15
717.498	0.01
717.678	0.13
717.859	0.17
718.039	0.03
718.219	0.19
718.399	0.2
718.579	0.11
718.759	0.04
718.939	0.14
719.12	0.14
719.3	0.07
719.48	-0.01
719.66	-0.06
719.84	0.25
720.02	0.12
720.2	0
720.38	0.1
720.56	0.24
720.74	0.1
720.92	0.14
721.1	0.17
721.279	0.25
721.459	0.09
721.639	0.11
721.819	0.2
721.999	0.06
722.179	0.15
722.359	0.02
722.538	0.18
722.718	0.14
722.898	0.08
723.078	0.13
723.257	0.13
723.437	0.11
723.617	0.11
723.797	0.13
723.976	0.07
724.156	0.13
724.336	0.22
724.515	0.24
724.695	-0.07
724.874	0.1
725.054	0.15
725.234	0.06
725.413	0.17
725.593	0.06
725.772	0.07
725.952	0.12
726.131	0.16
726.311	0.1
726.49	0.17
726.67	0.02
726.849	0.05
727.028	0.18
727.208	0.08
727.387	0.17
727.567	0.04
727.746	0.09
727.925	0.08
728.105	0.08
728.284	0.06
728.463	-0.1
728.643	0.15
728.822	-0.03
729.001	0.09
729.18	0.1
729.359	0.11
729.539	0.1
729.718	0.16
729.897	0.23
730.076	0.1
730.255	0.03
730.434	0.12
730.614	0.09
730.793	0.17
730.972	0.08
731.151	0.12
731.33	0.17
731.509	0.2
731.688	0.16
731.867	0.09
732.046	0.01
732.225	0.21
732.404	0.05
732.583	0.07
732.762	0.18
732.941	0.18
733.12	0.11
733.298	0.11
733.477	0.23
733.656	0.04
733.835	0.13
734.014	0.19
734.193	0.05
734.371	0.16
734.55	0.16
734.729	0
734.908	0.2
735.086	0.21
735.265	0.25
735.444	0.01
735.623	0.05
735.801	0.07
735.98	0.19
736.159	0.16
736.337	0.17
736.516	0.08
736.694	0.09
736.873	0.08
737.052	0.21
737.23	0.29
737.409	0.11
737.587	0.33
737.766	-0
737.944	0.07
738.123	0.21
738.301	0.21
738.479	0.08
738.658	0.06
738.836	-0.11
739.015	0.16
739.193	0.25
739.371	0.11
739.55	0.12
739.728	0.01
739.906	0.3
740.085	0.28
740.263	0.04
740.441	0.08
740.62	0.29
740.798	0.25
740.976	0.1
741.154	0.04
741.332	0.36
741.511	0.05
741.689	0.18
741.867	0.15
742.045	0.18
742.223	0.2
742.401	0.04
742.579	0.05
742.757	0.19
742.935	0.06
743.114	0.05
743.292	0.06
743.47	0.23
743.648	0.13
743.826	0.16
744.004	0.24
744.181	0.28
744.359	0.05
744.537	0.14
744.715	0.14
744.893	0.11
745.071	0.14
745.249	0.09
745.427	0.15
745.605	0.21
745.782	0.13
745.96	0.21
746.138	0.06
746.316	0.31
746.493	0.15
746.671	0.14
746.849	0.06
747.027	0.27
747.204	0.01
747.382	0.18
747.56	0.03
747.737	0.03
747.915	0.06
748.093	0.22
748.27	0.11
748.448	0.08
748.625	-0.09
748.803	0.07
748.98	0.04
749.158	0.19
749.335	0.21
749.513	0.04
749.69	0.12
749.868	0.17
750.045	0.18
750.223	0.07
750.4	-0.07
750.578	0.24
750.755	0.18
750.932	-0.05
751.11	0.18
751.287	-0.11
751.464	0.25
751.642	0.07
751.819	0.18
751.996	0.11
752.173	0.18
752.351	0
752.528	0.15
752.705	0.01
752.882	0.1
753.06	0.12
753.237	0.21
753.414	0.27
753.591	0.21
753.768	0.04
753.945	0.02
754.122	0.18
754.299	0.14
754.476	0.13
754.654	0.14
754.831	0.2
755.008	0.14
755.185	0.18
755.362	0.06
755.539	0.15
755.716	-0.04
755.892	0.07
756.069	0.17
756.246	0.06
756.423	0.09
756.6	0.23
756.777	0.13
756.954	0.32
757.131	0.08
757.307	0.05
757.484	-0.04
757.661	0.09
757.838	0.12
758.015	0.03
758.191	0.19
758.368	0.12
758.545	0.25
758.721	0.13
758.898	0.07
759.075	0.17
759.251	0.23
759.428	0.17
759.605	-0.07
759.781	-0
759.958	0.12
760.134	0.16
760.311	0.11
760.488	0.35
760.664	0.23
760.841	0.02
761.017	-0.04
761.194	0.12
761.37	0.31
761.547	0.17
761.723	0.15
761.899	0.25
762.076	0.07
762.252	0.07
762.429	0.13
762.605	0.24
762.781	0.11
762.958	0.23
763.134	0.18
763.31	0.01
763.486	0.17
763.663	-0.03
763.839	0.13
764.015	-0
764.191	-0.03
764.368	0.14
764.544	0.08
764.72	0.21
764.896	0.27
765.072	0.18
765.248	0.1
765.425	0.02
765.601	0.14
765.777	0.11
765.953	-0.1
766.129	0.09
766.305	0.02
766.481	0.09
766.657	0.15
766.833	0.2
767.009	-0.08
767.185	0.06
767.361	0.08
767.537	0.1
767.713	0.29
767.889	0.11
768.065	0.06
768.24	-0.06
768.416	0.23
768.592	0.1
768.768	0.09
768.944	0.2
769.12	0
769.295	0.05
769.471	0.16
769.647	0.22
769.823	0.16
769.998	0.04
770.174	-0.01
770.35	0.41
770.525	0.3
770.701	0.19
770.877	0.03
771.052	0.02
771.228	0.3
771.403	0.2
771.579	0.34
771.755	0.33
771.93	0.02
772.106	-0.02
772.281	-0.04
772.457	0.21
772.632	0.12
772.808	0.01
772.983	0.18
773.159	-0.09
773.334	0.29
773.509	0.07
773.685	0.03
773.86	0.45
774.036	0.18
774.211	0.06
774.386	0.2
774.562	0.17
774.737	0.22
774.912	0.08
775.087	0.13
775.263	0.14
775.438	0.17
775.613	-0.02
775.788	0.14
775.964	0.3
776.139	0.55
776.314	-0.09
776.489	0.17
776.664	0.2
776.839	0.15
777.014	0.22
777.19	0.26
777.365	0.4
777.54	0.39
777.715	-0.01
777.89	0.14
778.065	-0.07
778.24	0.3
778.415	0.25
778.59	-0.05
778.765	-0.06
778.94	0.2
779.115	-0.04
779.289	0.24
779.464	0.1
779.639	0.13
779.814	-0.16
779.989	-0.05
780.164	0.36
780.339	0.15
780.513	0.07
780.688	-0.04
780.863	0.15
781.038	0.23
781.212	-0.15
781.387	0.22
781.562	0.37
781.737	-0.16
781.911	0.25
782.086	-0.03
782.261	-0.02
782.435	0.26
782.61	0.2
782.784	-0.06
782.959	0.36
783.134	0.05
783.308	-0.23
783.483	0.08
783.657	0.5
783.832	0.48
784.006	0.05
784.181	0.1
784.355	0.25
784.53	-0
784.704	-0.03
784.878	0.34
785.053	0.35
785.227	0.25
785.402	0.62
785.576	0.16
785.75	0.22
785.925	0.19
786.099	0.38
786.273	0.17
786.448	0.35
786.622	0.57
786.796	0.14
786.97	0.21
787.145	0.75
787.319	-0.19
787.493	-0.04
787.667	-0.12
787.841	0.14
788.015	0.26
788.19	0.19
788.364	0.14
788.538	0.4
788.712	0.3
788.886	0.16
789.06	0.34
789.234	0.33
789.408	0.09
789.582	0.22
789.756	0.15
789.93	0.09
790.104	0.16
790.278	0.28
790.452	0.11
790.626	0.25
790.8	0.12
790.973	0.37
791.147	0.62
791.321	0.41
791.495	0.27
791.669	0.14
791.843	0.5
792.016	0.27
792.19	0.42
792.364	-0.03
792.538	0.74
792.711	0.36
792.885	-0.02
793.059	0.11
793.233	-0.52
793.406	0.28
793.58	0.29
793.754	0.32
793.927	0.05
794.101	0.47
794.274	0.13
794.448	0.45
794.622	-0.07
794.795	0.48
794.969	0.17
795.142	0.32
795.316	0.11
795.489	0.27
795.663	0.52
795.836	0.37
796.009	0.01
796.183	0.46
796.356	0.31
796.53	0.37
796.703	0.35
796.876	0.41
797.05	0.12
797.223	0.09
797.396	0.35
797.57	0.23
797.743	0.71
797.916	0.5
798.09	0.38
798.263	0.44
798.436	0.35
798.609	0.23
798.782	0.12
798.956	0.13
799.129	0.26
799.302	0.19
799.475	0.26
799.648	0.13
799.821	-0.05
799.994	0.36
800.167	-0.18
800.34	0.56
800.514	0.27
800.687	0.05
800.86	0.02
801.033	0.01
801.206	0.09
801.379	-0.09
801.551	0.61
801.724	0.31
801.897	0.5
802.07	0.25
802.243	-0.13
802.416	-0.01
802.589	0.29
802.762	0.24
802.935	0.04
803.107	0.32
803.28	0.6
803.453	0.3
803.626	0.24
803.798	0.28
803.971	0.03
804.144	0.25
804.317	0.49
804.489	0.58
804.662	0.18
804.835	0.46
805.007	-0.01
805.18	0.71
805.353	0.26
805.525	0.23
805.698	0.07
805.87	0.76
806.043	0.65
806.215	-0.24
806.388	0.22
806.56	0.31
806.733	0.42
806.905	0.25
807.078	0.06
807.25	-0.01
807.423	0.22
807.595	0.34
807.768	0.36
807.94	0.46
808.112	0.69
808.285	0.36
808.457	-0.05
808.629	-0.07
808.802	0.51
808.974	0.04
809.146	0.13
809.318	-0.07
809.491	0.68
809.663	0.76
809.835	0.14
810.007	0.57
810.18	0.31
810.352	0.19
810.524	0.17
810.696	0.57
810.868	0.68
811.04	0.23
811.212	0.13
811.384	0.49
811.556	0.45
811.728	0.33
811.901	0.82
812.073	0.33
812.245	0.63
812.417	0.31
812.589	-0.22
812.76	0.51
812.932	0.47
813.104	0.69
813.276	0.31
813.448	0.52
813.62	0.42
813.792	0.55
813.964	0.6
814.136	0.74
814.307	-0.04
814.479	0.08
814.651	0.17
814.823	0.95
814.995	0.31
815.166	0.23
815.338	0.01
815.51	0
815.681	1.22
815.853	0.98
816.025	0.33
816.196	1.13
816.368	0.85
816.54	-0.2
816.711	0.22
816.883	0.62
817.054	0.99
817.226	-0.15
817.398	0.48
817.569	0.13
817.741	-0.02
817.912	0.55
818.084	-0.07
818.255	0.51
818.426	0.14
818.598	0.49
818.769	0.36
818.941	0.52
819.112	0.89
819.283	0.68
819.455	0.31
819.626	0.24
819.798	0.72
819.969	0.33
820.14	0.27
820.311	0.15
820.483	0.57
820.654	0.65
820.825	0.38
820.996	0.05
821.168	0.11
821.339	0.73
821.51	0.03
821.681	0.75
821.852	0.07
822.023	-0.07
822.195	-0.33
822.366	0.83
822.537	0.46
822.708	0.67
822.879	-0.08
823.05	0.7
823.221	0.42
823.392	0.65
823.563	0.59
823.734	0.35
823.905	0.6
824.076	0.1
824.247	-0.05
824.418	0.38
824.589	1.41
824.759	0.85
824.93	0.65
825.101	-0.13
825.272	0.93
825.443	1.13
825.614	1.24
825.784	-0.55
825.955	1.69
826.126	1.46
826.297	0.65
826.467	1.58
826.638	0.76
826.809	-0.76
826.98	1.12
827.15	0.73
827.321	0.72
827.492	1.16
827.662	0.51
827.833	1.3
828.003	0.48
828.174	0.38
828.345	-0.77
828.515	1.06
828.686	0.67
828.856	0.66
829.027	0.57
829.197	0.97
829.368	0.56
829.538	0.3
829.709	0.16
829.879	0.66
830.049	0.02
830.22	0.33
830.39	0.84
830.56	1.06
830.731	0.05
830.901	-0.19
831.072	0.42
831.242	0.61
831.412	0.42
831.582	0.69
831.753	-0.1
831.923	0.92
832.093	0.8
832.263	0.52
832.434	0.04
832.604	-0.32
832.774	0.88
832.944	0.37
833.114	0.55
833.284	0.63
833.454	-0.18
833.624	0.46
833.795	-0.07
833.965	1.57
834.135	1.43
834.305	-0.02
834.475	-0.2
834.645	0.59
834.815	-0.67
834.985	-0.3
835.155	0.28
835.325	1.08
835.494	0.93
835.664	0.38
835.834	0.03
836.004	0.83
836.174	1.21
836.344	0.34
836.514	-0.32
836.684	0.66
836.853	0.72
837.023	0.81
837.193	0.61
837.363	1.67
837.532	1.21
837.702	0.3
837.872	0.2
838.041	1.69
838.211	2.43
838.381	0.27
838.55	0.54
838.72	1.9
838.89	2.06
839.059	1.19
839.229	0.52
839.398	2.28
839.568	0.82
839.738	0.71
839.907	1.64
840.077	0.99
840.246	-0.14
840.416	-0.29
840.585	0.25
840.755	1.15
840.924	1.35
841.093	0.32
841.263	0.56
841.432	0.88
841.602	0.39
841.771	0
841.94	0.87
842.11	1.67
842.279	2.33
842.448	-0.01
842.617	0.32
842.787	1.16
842.956	-0.39
843.125	-0.26
843.294	0.33
843.464	2.06
843.633	0.69
843.802	0.14
843.971	0.52
844.14	1.44
844.309	0.43
844.479	0.51
844.648	-0.1
844.817	0.51
844.986	0.79
845.155	0.87
845.324	0.91
845.493	0.65
845.662	0.18
845.831	0.72
846	1.04
846.169	0.69
846.338	2.47
846.507	1.02
846.676	1.38
846.844	0.33
847.013	1.49
847.182	0.68
847.351	0.34
847.52	1.22
847.689	0.54
847.858	0.53
848.026	0.35
848.195	1.07
848.364	0.94
848.533	-0.22
848.701	1.2
848.87	0
849.039	1.1
849.207	2.42
849.376	1.8
849.545	2.09
849.713	0.33
849.882	0.06
850.051	0.61
850.219	0.97
850.388	1.89
850.556	0.49
850.725	-0.31
850.893	1.25
851.062	1.2
851.23	1.57
851.399	-0.09
851.567	0.31
851.736	1.1
851.904	-0.32
852.073	1.22
852.241	1.95
852.41	1.27
852.578	0.94
852.746	1.39
852.915	1.57
853.083	0.47
853.251	0.42
853.42	0.69
853.588	1.42
853.756	1.79
853.924	0.69
854.093	0.36
854.261	0.25
854.429	-0.03
854.597	1.04
854.765	-0.14
854.934	1.49
855.102	1.29
855.27	0.78
855.438	0.29
855.606	1.69
855.774	1.08
855.942	-0.79
856.11	-0.58
856.278	0.88
856.446	1.61
856.614	0.31
856.782	0.78
856.95	1.73
857.118	2.66
857.286	1.1
857.454	0.52
857.622	2.04
857.79	2.11
857.958	0.13
858.126	0.51
858.294	-1.22
858.462	0.93
858.629	0.11
858.797	0.83
858.965	1
859.133	0.99
859.301	0.75
859.468	1.42
859.636	0.51
859.804	3.07
859.971	0.75
860.139	-0.22
860.307	1.81
860.474	1.23
860.642	0.3
860.81	1.11
860.977	0.06
861.145	2.74
861.313	0.2
861.48	0.23
861.648	1.99
861.815	1.77
861.983	-0.21
862.15	1.71
862.318	1.75
862.485	0.57
862.653	0.13
862.82	-0.04
862.988	1.91
863.155	2.28
863.322	0.06
863.49	0.42
863.657	0.37
863.824	2.45
863.992	1.6
864.159	1.36
864.326	3.9
864.494	1.93
864.661	3.22
864.828	-0.36
864.996	2.41
865.163	4.39
865.33	0.84
865.497	-0.05
865.664	1.17
865.832	-1.43
865.999	0.44
866.166	0.11
866.333	0.63
866.5	1.64
866.667	0.21
866.834	0.84
867.001	3.93
867.168	-1.23
867.335	1.29
867.502	-0.41
867.669	1.08
867.836	4.58
868.003	1.45
868.17	1.91
868.337	2.68
868.504	3.28
868.671	-0.45
868.838	0.71
869.005	1.53
869.172	1.06
869.339	0.69
869.505	1.42
869.672	1.36
869.839	2.99
870.006	2.16
870.173	-0.01
870.339	3.39
870.506	4.9
870.673	0.54
870.84	2.64
871.006	1.67
871.173	0.72
871.34	0.9
871.506	-0.54
871.673	2.54
871.839	0.87
872.006	1.54
872.173	1.65
872.339	0.37
872.506	1.87
872.672	0.88
872.839	-1.03
873.005	0.54
873.172	4.89
873.338	0.84
873.505	0.74
873.671	0.12
873.838	2.46
874.004	0.7
874.171	-0.56
874.337	2.31
874.503	1.34
874.67	0.92
874.836	-0.36
875.002	4.79
875.169	2.56
875.335	1.63
875.501	0.51
875.668	2.54
875.834	1.07
876	0.31
876.166	1.81
876.332	2.21
876.499	5.56
876.665	0.78
876.831	0.73
876.997	4.91
877.163	1.73
877.329	0.15
877.495	1.08
877.662	2.04
877.828	2.64
877.994	0.48
878.16	-1.12
878.326	-0.4
878.492	2
878.658	1.17
878.824	1.75
878.99	3.35
879.156	1.64
879.322	2.3
879.487	0.69
879.653	1.31
879.819	1.77
879.985	-1.2
880.151	1.89
880.317	2.77
880.483	1.52
880.648	3.89
880.814	-1.51
880.98	1.54
881.146	-0.43
881.312	-0.09
881.477	-0.11
881.643	1.98
881.809	4.52
881.974	2.6
882.14	-0.94
882.306	0.91
882.471	4.22
882.637	0.53
882.803	1.89
882.968	2.64
883.134	4.51
883.299	1.24
883.465	1.12
883.63	2.17
883.796	1.62
883.961	1.79
884.127	2.12
884.292	-2.43
884.458	0.02
884.623	0.02
