Data from Apollo_Calib_20240827__AbsoluteIrradiance__450__06-39-01-336.txt Node

Date: Wed Aug 28 06:39:01 BST 2024
User: biology
Spectrometer: FLMT08252
Trigger mode: 0
Integration Time (sec): 5.000000E-1
Scans to average: 5
Electric dark correction enabled: true
Nonlinearity correction enabled: false
Boxcar width: 0
XAxis mode: Wavelengths
Number of Pixels in Spectrum: 3648
>>>>>Begin Spectral Data<<<<<
179.588	-0
179.809	-0
180.03	-0
180.251	-0
180.473	-0
180.694	0
180.915	0
181.136	-0
181.357	0
181.578	-0
181.799	-0
182.02	-0
182.241	0
182.462	-0
182.683	0
182.904	-0
183.125	-0
183.346	0
183.567	0
183.788	0
184.009	0
184.23	0
184.451	0
184.672	0
184.892	0
185.113	0
185.334	0
185.555	0
185.776	0
185.996	0
186.217	0
186.438	0
186.659	0
186.879	0
187.1	0
187.321	0
187.541	0
187.762	0
187.983	0
188.203	0
188.424	0
188.644	0
188.865	0
189.086	0
189.306	0
189.527	0
189.747	0
189.968	0
190.188	0
190.409	0
190.629	0
190.849	0
191.07	0
191.29	0
191.511	0
191.731	0
191.951	0
192.172	0
192.392	0
192.612	0
192.833	0
193.053	0
193.273	0
193.493	0
193.714	0
193.934	0
194.154	0
194.374	0
194.594	0
194.815	0
195.035	0
195.255	0
195.475	0
195.695	0
195.915	0
196.135	0
196.355	0
196.575	0
196.795	0
197.015	0
197.235	0
197.455	0
197.675	0
197.895	0
198.115	0
198.335	0
198.555	0
198.775	0
198.995	0
199.214	0
199.434	0
199.654	0
199.874	0
200.094	-0.03
200.313	1.34
200.533	1.17
200.753	0.63
200.973	1.92
201.192	2.05
201.412	0.38
201.632	0.96
201.851	1.68
202.071	0.98
202.291	0.71
202.51	0.72
202.73	2.16
202.95	1.09
203.169	0.37
203.389	1.22
203.608	1.14
203.828	0.45
204.047	0.76
204.267	1.67
204.486	0.94
204.706	0.47
204.925	0.89
205.145	0.8
205.364	1.14
205.583	1.45
205.803	0.88
206.022	0.53
206.242	0.75
206.461	0.6
206.68	0.79
206.9	0.87
207.119	1.45
207.338	1.66
207.557	0.79
207.777	0.85
207.996	0.47
208.215	1.43
208.434	0.62
208.654	0.39
208.873	0.67
209.092	1.06
209.311	0.61
209.53	0.82
209.749	0.5
209.968	0.43
210.187	0.59
210.407	0.21
210.626	0.53
210.845	0.87
211.064	0.48
211.283	0.21
211.502	0.86
211.721	0.52
211.94	0.38
212.159	0.76
212.377	0.99
212.596	0.98
212.815	0.61
213.034	0.83
213.253	0.73
213.472	0.71
213.691	0.29
213.91	0.43
214.128	0.36
214.347	1.07
214.566	0.23
214.785	0.16
215.003	0.79
215.222	0.81
215.441	0.47
215.66	0.15
215.878	0.56
216.097	0.68
216.316	0.26
216.534	0.47
216.753	0.45
216.972	0.39
217.19	0.51
217.409	0.49
217.627	0.41
217.846	0.53
218.064	0.43
218.283	0.45
218.501	0.82
218.72	0.63
218.938	0.3
219.157	0.31
219.375	0.6
219.594	0.47
219.812	0.08
220.031	0.42
220.249	0.73
220.467	0.69
220.686	0.38
220.904	0.24
221.122	0.35
221.341	0.65
221.559	0.36
221.777	0.29
221.995	0.31
222.214	0.42
222.432	0.25
222.65	0.6
222.868	0.44
223.086	0.38
223.305	0.52
223.523	0.29
223.741	0.71
223.959	0.35
224.177	0.05
224.395	0.41
224.613	0.45
224.831	0.52
225.049	0.21
225.267	0.33
225.485	0.34
225.703	0.33
225.921	0.34
226.139	0.43
226.357	0.39
226.575	0.45
226.793	0.17
227.011	0.97
227.229	0.34
227.447	0.5
227.665	0.2
227.883	-0
228.1	0.29
228.318	0.43
228.536	0.11
228.754	0.16
228.972	0.43
229.189	0.53
229.407	0.32
229.625	0.14
229.843	0.4
230.06	0.45
230.278	0.23
230.496	0.42
230.713	0.36
230.931	0.55
231.149	0.28
231.366	0.1
231.584	0.33
231.801	0.69
232.019	0.19
232.236	0.28
232.454	0.09
232.671	0.38
232.889	0.3
233.106	0.23
233.324	0.27
233.541	0.31
233.759	0.31
233.976	0.26
234.194	0.21
234.411	0.25
234.628	0.25
234.846	0.27
235.063	0.27
235.28	0.2
235.498	0.21
235.715	0.06
235.932	0.32
236.149	0.29
236.367	0.25
236.584	0.3
236.801	0.21
237.018	0.24
237.236	0.22
237.453	0.1
237.67	0.33
237.887	0.26
238.104	0.29
238.321	0.24
238.538	0.18
238.755	0.34
238.973	0.14
239.19	0.25
239.407	0.23
239.624	0.31
239.841	0.07
240.058	0.2
240.275	0.32
240.492	0.21
240.709	0.29
240.925	0.34
241.142	0.23
241.359	0.21
241.576	0.21
241.793	0.2
242.01	0.28
242.227	0.31
242.444	0.23
242.66	0.33
242.877	0.31
243.094	0.2
243.311	0.22
243.527	0.19
243.744	0.26
243.961	0.23
244.178	0.19
244.394	0.23
244.611	0.26
244.828	0.35
245.044	0.15
245.261	0.19
245.477	0.28
245.694	0.3
245.911	0.19
246.127	0.25
246.344	0.4
246.56	0.27
246.777	0.23
246.993	0.13
247.21	0.28
247.426	0.36
247.643	0.27
247.859	0.12
248.076	0.15
248.292	0.35
248.508	0.11
248.725	0.26
248.941	0.25
249.157	0.39
249.374	0.2
249.59	0.1
249.806	0.29
250.023	0.24
250.239	0.22
250.455	0.14
250.671	0.24
250.888	0.23
251.104	0.25
251.32	0.19
251.536	0.19
251.752	0.17
251.969	0.27
252.185	0.2
252.401	0.35
252.617	0.17
252.833	0.19
253.049	0.21
253.265	0.24
253.481	0.26
253.697	0.16
253.913	0.13
254.129	0.24
254.345	0.22
254.561	0.2
254.777	0.16
254.993	0.27
255.209	0.31
255.425	0.19
255.641	0.13
255.857	0.3
256.073	0.15
256.288	0.09
256.504	0.16
256.72	0.26
256.936	0.35
257.152	0.22
257.367	0.17
257.583	0.28
257.799	0.26
258.015	0.13
258.23	0.25
258.446	0.31
258.662	0.22
258.877	0.1
259.093	0.16
259.309	0.2
259.524	0.2
259.74	0.21
259.955	0.07
260.171	0.23
260.387	0.26
260.602	0.23
260.818	0.29
261.033	0.2
261.249	0.13
261.464	0.2
261.68	0.1
261.895	0.21
262.11	0.27
262.326	0.17
262.541	0.1
262.757	0.21
262.972	0.17
263.187	0.19
263.403	0.24
263.618	0.28
263.833	0.11
264.049	0.16
264.264	0.13
264.479	0.26
264.694	0.29
264.91	0.08
265.125	0.16
265.34	0.22
265.555	0.42
265.77	0.2
265.986	0.22
266.201	0.25
266.416	0.29
266.631	0.14
266.846	0.16
267.061	0.23
267.276	0.23
267.491	0.07
267.706	0.2
267.921	0.26
268.136	0.23
268.351	0.16
268.566	0.11
268.781	0.28
268.996	0.16
269.211	0.2
269.426	0.1
269.641	0.12
269.856	0.26
270.071	0.06
270.285	0.1
270.5	0.22
270.715	0.26
270.93	0.15
271.145	0.22
271.359	0.29
271.574	0.2
271.789	0.15
272.004	0.12
272.218	0.19
272.433	0.24
272.648	0.14
272.862	0.22
273.077	0.2
273.292	0.19
273.506	0.14
273.721	0.12
273.936	0.19
274.15	0.25
274.365	0.15
274.579	0.23
274.794	0.24
275.008	0.22
275.223	0.08
275.437	0.17
275.652	0.2
275.866	0.18
276.081	0.11
276.295	0.19
276.509	0.19
276.724	0.19
276.938	0.11
277.153	0.2
277.367	0.2
277.581	0.1
277.796	0.12
278.01	0.15
278.224	0.22
278.438	0.32
278.653	0.14
278.867	0.12
279.081	0.14
279.295	0.1
279.51	0.19
279.724	0.05
279.938	0.21
280.152	0.15
280.366	0.18
280.58	0.16
280.794	0.28
281.008	0.16
281.222	0.22
281.437	0.27
281.651	0.21
281.865	0.27
282.079	0.14
282.293	0.04
282.507	0.08
282.721	0.2
282.935	0.12
283.148	0.13
283.362	0.12
283.576	0.11
283.79	0.15
284.004	0.16
284.218	0.23
284.432	0.11
284.646	0.13
284.859	0.15
285.073	0.08
285.287	0.19
285.501	0.17
285.714	0.19
285.928	0.16
286.142	0.19
286.356	0.08
286.569	0.13
286.783	0.25
286.997	0.18
287.21	0.14
287.424	0.17
287.637	0.11
287.851	0.12
288.065	0.15
288.278	0.17
288.492	0.17
288.705	0.13
288.919	0.22
289.132	0.14
289.346	0.19
289.559	0.1
289.773	0.06
289.986	0.13
290.2	0.16
290.413	0.21
290.626	0.12
290.84	0.13
291.053	0.11
291.267	0.24
291.48	0.15
291.693	0.15
291.906	0.15
292.12	0.17
292.333	0.09
292.546	0.13
292.76	0.22
292.973	0.11
293.186	0.23
293.399	0.08
293.612	0.2
293.826	0.16
294.039	0.11
294.252	0.12
294.465	0.18
294.678	0.17
294.891	0.18
295.104	0.1
295.317	0.14
295.53	0.14
295.743	0.16
295.956	0.14
296.169	0.21
296.382	0.17
296.595	0.08
296.808	0.1
297.021	0.16
297.234	0.16
297.447	0.18
297.66	0.17
297.873	0.22
298.086	0.17
298.299	0.13
298.511	0.05
298.724	0.09
298.937	0.09
299.15	0.11
299.363	0.15
299.575	0.16
299.788	0.17
300.001	0.12
300.213	0.07
300.426	0.08
300.639	0.12
300.852	0.08
301.064	0.2
301.277	0.16
301.489	0.18
301.702	0.21
301.915	0.12
302.127	0.12
302.34	0.15
302.552	0.17
302.765	0.11
302.977	0.19
303.19	0.15
303.402	0.1
303.615	0.06
303.827	0.09
304.04	0.11
304.252	0.16
304.464	0.13
304.677	0.25
304.889	0.2
305.102	0.1
305.314	0.1
305.526	0.18
305.739	0.12
305.951	0.1
306.163	0.1
306.375	0.21
306.588	0.13
306.8	0.13
307.012	0.08
307.224	0.19
307.436	0.21
307.649	0.07
307.861	0.09
308.073	0.13
308.285	0.12
308.497	0.08
308.709	0.11
308.921	0.11
309.133	0.21
309.346	0.14
309.558	0.08
309.77	0.19
309.982	0.17
310.194	0.15
310.406	0.11
310.617	0.23
310.829	0.14
311.041	0.16
311.253	0.1
311.465	0.12
311.677	0.16
311.889	0.1
312.101	0.12
312.313	0.17
312.524	0.14
312.736	0.1
312.948	0.13
313.16	0.22
313.372	0.13
313.583	0.12
313.795	0.1
314.007	0.13
314.218	0.16
314.43	0.13
314.642	0.11
314.853	0.11
315.065	0.16
315.277	0.15
315.488	0.18
315.7	0.11
315.912	0.16
316.123	0.1
316.335	0.15
316.546	0.2
316.758	0.11
316.969	0.1
317.181	0.11
317.392	0.13
317.604	0.16
317.815	0.08
318.026	0.14
318.238	0.13
318.449	0.15
318.661	0.02
318.872	0.11
319.083	0.07
319.295	0.19
319.506	0.1
319.717	0.11
319.929	0.17
320.14	0.13
320.351	0.16
320.562	0.1
320.774	0.1
320.985	0.18
321.196	0.1
321.407	0.06
321.618	0.21
321.829	0.12
322.041	0.15
322.252	0.14
322.463	0.18
322.674	0.14
322.885	0.05
323.096	0.13
323.307	0.11
323.518	0.09
323.729	0.08
323.94	0.17
324.151	0.11
324.362	0.14
324.573	0.15
324.784	0.08
324.995	0.17
325.206	0.15
325.417	0.11
325.628	0.11
325.838	0.1
326.049	0.11
326.26	0.16
326.471	0.08
326.682	0.17
326.892	0.13
327.103	0.08
327.314	0.08
327.525	0.17
327.735	0.14
327.946	0.15
328.157	0.1
328.368	0.14
328.578	0.09
328.789	0.15
328.999	0.17
329.21	0.12
329.421	0.16
329.631	0.14
329.842	0.1
330.052	0.12
330.263	0.17
330.473	0.11
330.684	0.11
330.894	0.15
331.105	0.11
331.315	0.11
331.526	0.06
331.736	0.19
331.947	0.12
332.157	0.16
332.367	0.08
332.578	0.14
332.788	0.2
332.999	0.17
333.209	0.12
333.419	0.09
333.629	0.16
333.84	0.16
334.05	0.12
334.26	0.2
334.47	0.12
334.681	0.14
334.891	0.14
335.101	0.12
335.311	0.21
335.521	0.12
335.732	0.1
335.942	0.19
336.152	0.15
336.362	0.12
336.572	0.15
336.782	0.16
336.992	0.11
337.202	0.1
337.412	0.09
337.622	0.15
337.832	0.11
338.042	0.12
338.252	0.07
338.462	0.11
338.672	0.17
338.882	0.1
339.092	0.12
339.302	0.2
339.511	0.17
339.721	0.05
339.931	0.11
340.141	0.18
340.351	0.17
340.561	0.14
340.77	0.12
340.98	0.07
341.19	0.13
341.4	0.12
341.609	0.06
341.819	0.1
342.029	0.07
342.238	0.09
342.448	0.12
342.658	0.17
342.867	0.13
343.077	0.11
343.286	0.14
343.496	0.15
343.706	0.17
343.915	0.08
344.125	0.09
344.334	0.13
344.544	0.03
344.753	0.09
344.963	0.09
345.172	0.13
345.381	0.09
345.591	0.08
345.8	0.13
346.01	0.16
346.219	0.17
346.428	-0.03
346.638	0.13
346.847	0.14
347.056	0.22
347.266	0.09
347.475	0.12
347.684	0.17
347.893	0.13
348.103	0.14
348.312	0.12
348.521	0.11
348.73	0.13
348.94	0.14
349.149	0.12
349.358	0.11
349.567	0.11
349.776	0.06
349.985	0.08
350.194	0.19
350.403	0.2
350.612	0.1
350.821	0.1
351.03	0.05
351.239	0.08
351.448	0.13
351.657	0.12
351.866	0.21
352.075	0.13
352.284	0.11
352.493	0.08
352.702	0.13
352.911	0.13
353.12	0.14
353.329	0.11
353.538	0.15
353.746	0.14
353.955	0.11
354.164	0.12
354.373	0.11
354.582	0.17
354.79	0.16
354.999	0.14
355.208	0.13
355.416	0.19
355.625	0.09
355.834	0.11
356.042	0.11
356.251	0.11
356.46	0.1
356.668	0.14
356.877	0.22
357.085	0.15
357.294	0.08
357.503	0.2
357.711	0.16
357.92	0.26
358.128	0.13
358.337	0.1
358.545	0.14
358.754	0.08
358.962	0.15
359.17	0.1
359.379	0.14
359.587	0.13
359.796	0.16
360.004	0.19
360.212	0.13
360.421	0.21
360.629	0.14
360.837	0.13
361.046	0.19
361.254	0.22
361.462	0.14
361.67	0.09
361.879	0.14
362.087	0.21
362.295	0.13
362.503	0.08
362.711	0.08
362.92	0.08
363.128	0.07
363.336	0.07
363.544	0.12
363.752	0.1
363.96	0.13
364.168	0.07
364.376	0.13
364.584	0.12
364.792	0.17
365	0.18
365.208	0.13
365.416	0.14
365.624	0.16
365.832	0.11
366.04	0.19
366.248	0.13
366.456	0.14
366.664	0.17
366.872	0.13
367.079	0.11
367.287	0.12
367.495	0.16
367.703	0.1
367.911	0.1
368.118	0.11
368.326	0.16
368.534	0.11
368.742	0.19
368.949	0.07
369.157	0.12
369.365	0.19
369.572	0.09
369.78	0.1
369.988	0.18
370.195	0.15
370.403	0.18
370.61	0.13
370.818	0.13
371.026	0.19
371.233	0.14
371.441	0.13
371.648	0.1
371.856	0.16
372.063	0.14
372.271	0.12
372.478	0.11
372.685	0.1
372.893	0.2
373.1	0.1
373.308	0.09
373.515	0.22
373.722	0.16
373.93	0.14
374.137	0.17
374.344	0.17
374.552	0.17
374.759	0.19
374.966	0.16
375.173	0.14
375.381	0.22
375.588	0.12
375.795	0.09
376.002	0.13
376.209	0.1
376.417	0.14
376.624	0.1
376.831	0.14
377.038	0.18
377.245	0.04
377.452	0.12
377.659	0.14
377.866	0.1
378.073	0.1
378.28	0.16
378.487	0.14
378.694	0.15
378.901	0.13
379.108	0.13
379.315	0.17
379.522	0.23
379.729	0.12
379.936	0.1
380.143	0.14
380.35	0.16
380.557	0.1
380.763	0.16
380.97	0.09
381.177	0.15
381.384	0.09
381.591	0.11
381.797	0.15
382.004	0.14
382.211	0.16
382.418	0.14
382.624	0.17
382.831	0.16
383.038	0.15
383.244	0.15
383.451	0.14
383.658	0.17
383.864	0.12
384.071	0.1
384.277	0.19
384.484	0.12
384.69	0.19
384.897	0.13
385.103	0.14
385.31	0.12
385.516	0.12
385.723	0.1
385.929	0.12
386.136	0.12
386.342	0.16
386.549	0.12
386.755	0.17
386.961	0.18
387.168	0.14
387.374	0.16
387.58	0.19
387.787	0.16
387.993	0.15
388.199	0.14
388.406	0.13
388.612	0.14
388.818	0.11
389.024	0.13
389.231	0.13
389.437	0.2
389.643	0.18
389.849	0.15
390.055	0.13
390.261	0.17
390.467	0.14
390.674	0.13
390.88	0.16
391.086	0.15
391.292	0.07
391.498	0.18
391.704	0.15
391.91	0.16
392.116	0.11
392.322	0.03
392.528	0.16
392.734	0.14
392.94	0.19
393.146	0.16
393.352	0.17
393.557	0.16
393.763	0.13
393.969	0.16
394.175	0.17
394.381	0.16
394.587	0.1
394.792	0.13
394.998	0.16
395.204	0.21
395.41	0.09
395.615	0.18
395.821	0.11
396.027	0.18
396.233	0.12
396.438	0.18
396.644	0.25
396.85	0.16
397.055	0.1
397.261	0.15
397.466	0.13
397.672	0.17
397.878	0.2
398.083	0.2
398.289	0.13
398.494	0.22
398.7	0.16
398.905	0.11
399.111	0.24
399.316	0.13
399.522	0.15
399.727	0.15
399.932	0.16
400.138	0.15
400.343	0.16
400.549	0.17
400.754	0.16
400.959	0.18
401.165	0.17
401.37	0.2
401.575	0.25
401.78	0.17
401.986	0.14
402.191	0.17
402.396	0.18
402.601	0.21
402.807	0.16
403.012	0.17
403.217	0.19
403.422	0.19
403.627	0.14
403.832	0.14
404.037	0.2
404.243	0.21
404.448	0.14
404.653	0.14
404.858	0.17
405.063	0.22
405.268	0.16
405.473	0.17
405.678	0.14
405.883	0.31
406.088	0.26
406.293	0.15
406.498	0.17
406.703	0.24
406.907	0.17
407.112	0.14
407.317	0.19
407.522	0.2
407.727	0.11
407.932	0.17
408.136	0.26
408.341	0.16
408.546	0.18
408.751	0.17
408.956	0.22
409.16	0.19
409.365	0.2
409.57	0.16
409.774	0.2
409.979	0.19
410.184	0.22
410.388	0.15
410.593	0.23
410.798	0.18
411.002	0.16
411.207	0.2
411.411	0.24
411.616	0.15
411.82	0.12
412.025	0.17
412.229	0.16
412.434	0.27
412.638	0.19
412.843	0.19
413.047	0.19
413.252	0.13
413.456	0.16
413.66	0.22
413.865	0.1
414.069	0.25
414.273	0.2
414.478	0.17
414.682	0.19
414.886	0.14
415.091	0.11
415.295	0.14
415.499	0.2
415.703	0.18
415.908	0.23
416.112	0.12
416.316	0.24
416.52	0.19
416.724	0.16
416.929	0.22
417.133	0.27
417.337	0.17
417.541	0.15
417.745	0.18
417.949	0.25
418.153	0.2
418.357	0.14
418.561	0.29
418.765	0.2
418.969	0.31
419.173	0.24
419.377	0.18
419.581	0.33
419.785	0.22
419.989	0.14
420.193	0.23
420.397	0.25
420.601	0.32
420.804	0.28
421.008	0.22
421.212	0.24
421.416	0.22
421.62	0.16
421.823	0.15
422.027	0.32
422.231	0.22
422.435	0.17
422.638	0.25
422.842	0.19
423.046	0.2
423.249	0.2
423.453	0.27
423.657	0.19
423.86	0.24
424.064	0.21
424.268	0.26
424.471	0.18
424.675	0.28
424.878	0.26
425.082	0.21
425.285	0.28
425.489	0.23
425.692	0.18
425.896	0.22
426.099	0.27
426.303	0.2
426.506	0.17
426.71	0.24
426.913	0.27
427.116	0.26
427.32	0.21
427.523	0.23
427.726	0.29
427.93	0.19
428.133	0.27
428.336	0.2
428.54	0.23
428.743	0.24
428.946	0.28
429.149	0.25
429.353	0.24
429.556	0.24
429.759	0.24
429.962	0.22
430.165	0.25
430.368	0.24
430.571	0.18
430.775	0.22
430.978	0.21
431.181	0.26
431.384	0.24
431.587	0.22
431.79	0.22
431.993	0.15
432.196	0.22
432.399	0.18
432.602	0.34
432.805	0.22
433.008	0.25
433.211	0.16
433.414	0.3
433.616	0.26
433.819	0.24
434.022	0.16
434.225	0.3
434.428	0.26
434.631	0.33
434.833	0.22
435.036	0.23
435.239	0.35
435.442	0.25
435.645	0.24
435.847	0.3
436.05	0.29
436.253	0.23
436.455	0.2
436.658	0.24
436.861	0.27
437.063	0.24
437.266	0.25
437.468	0.25
437.671	0.35
437.874	0.24
438.076	0.18
438.279	0.23
438.481	0.29
438.684	0.2
438.886	0.29
439.089	0.17
439.291	0.26
439.494	0.29
439.696	0.19
439.899	0.25
440.101	0.26
440.303	0.21
440.506	0.3
440.708	0.28
440.91	0.27
441.113	0.26
441.315	0.33
441.517	0.22
441.72	0.32
441.922	0.24
442.124	0.18
442.326	0.29
442.529	0.38
442.731	0.23
442.933	0.38
443.135	0.23
443.337	0.2
443.539	0.25
443.742	0.22
443.944	0.32
444.146	0.2
444.348	0.21
444.55	0.22
444.752	0.28
444.954	0.25
445.156	0.33
445.358	0.24
445.56	0.3
445.762	0.25
445.964	0.24
446.166	0.23
446.368	0.24
446.57	0.31
446.772	0.27
446.974	0.26
447.175	0.3
447.377	0.24
447.579	0.22
447.781	0.25
447.983	0.36
448.184	0.28
448.386	0.31
448.588	0.21
448.79	0.3
448.991	0.25
449.193	0.27
449.395	0.27
449.597	0.36
449.798	0.31
450	0.33
450.202	0.3
450.403	0.31
450.605	0.32
450.806	0.27
451.008	0.21
451.21	0.3
451.411	0.27
451.613	0.3
451.814	0.34
452.016	0.37
452.217	0.31
452.419	0.34
452.62	0.28
452.821	0.34
453.023	0.37
453.224	0.36
453.426	0.31
453.627	0.34
453.828	0.39
454.03	0.32
454.231	0.32
454.432	0.31
454.634	0.44
454.835	0.28
455.036	0.27
455.238	0.33
455.439	0.43
455.64	0.26
455.841	0.31
456.042	0.44
456.244	0.4
456.445	0.3
456.646	0.27
456.847	0.36
457.048	0.4
457.249	0.45
457.45	0.55
457.651	0.31
457.852	0.42
458.054	0.37
458.255	0.3
458.456	0.42
458.657	0.44
458.858	0.33
459.058	0.37
459.259	0.42
459.46	0.34
459.661	0.38
459.862	0.54
460.063	0.36
460.264	0.46
460.465	0.38
460.666	0.54
460.866	0.45
461.067	0.42
461.268	0.39
461.469	0.4
461.67	0.37
461.87	0.39
462.071	0.43
462.272	0.41
462.473	0.47
462.673	0.53
462.874	0.38
463.075	0.48
463.275	0.43
463.476	0.53
463.676	0.5
463.877	0.49
464.078	0.45
464.278	0.55
464.479	0.47
464.679	0.47
464.88	0.49
465.08	0.59
465.281	0.53
465.481	0.5
465.682	0.49
465.882	0.59
466.083	0.54
466.283	0.54
466.483	0.5
466.684	0.46
466.884	0.5
467.085	0.51
467.285	0.6
467.485	0.52
467.686	0.55
467.886	0.55
468.086	0.54
468.286	0.56
468.487	0.65
468.687	0.55
468.887	0.58
469.087	0.65
469.287	0.64
469.488	0.61
469.688	0.65
469.888	0.65
470.088	0.72
470.288	0.75
470.488	0.72
470.688	0.65
470.888	0.69
471.088	0.64
471.288	0.83
471.488	0.78
471.688	0.76
471.888	0.72
472.088	0.77
472.288	0.8
472.488	0.76
472.688	0.77
472.888	0.85
473.088	0.81
473.288	0.87
473.488	0.83
473.688	1.01
473.887	0.87
474.087	0.86
474.287	0.96
474.487	0.95
474.687	0.97
474.886	0.9
475.086	0.98
475.286	1.01
475.486	1.01
475.685	1.01
475.885	1.03
476.085	1.08
476.284	1.13
476.484	1.1
476.684	1.13
476.883	1.23
477.083	1.16
477.282	1.15
477.482	1.26
477.681	1.28
477.881	1.17
478.08	1.18
478.28	1.23
478.479	1.32
478.679	1.4
478.878	1.3
479.078	1.32
479.277	1.41
479.477	1.43
479.676	1.45
479.875	1.49
480.075	1.44
480.274	1.5
480.473	1.57
480.673	1.55
480.872	1.65
481.071	1.66
481.271	1.69
481.47	1.63
481.669	1.71
481.868	1.73
482.067	1.78
482.267	1.71
482.466	1.79
482.665	1.79
482.864	1.85
483.063	1.91
483.262	1.97
483.461	2.05
483.661	2.1
483.86	2.11
484.059	2.16
484.258	2.15
484.457	2.16
484.656	2.21
484.855	2.34
485.054	2.18
485.253	2.26
485.452	2.31
485.651	2.48
485.849	2.42
486.048	2.45
486.247	2.52
486.446	2.58
486.645	2.61
486.844	2.66
487.043	2.65
487.241	2.75
487.44	2.8
487.639	2.88
487.838	2.9
488.037	2.97
488.235	3.05
488.434	3.13
488.633	2.97
488.831	3.26
489.03	3.2
489.229	3.27
489.427	3.36
489.626	3.4
489.825	3.45
490.023	3.57
490.222	3.59
490.42	3.6
490.619	3.7
490.817	3.8
491.016	3.78
491.214	3.84
491.413	3.98
491.611	3.93
491.81	4
492.008	4.1
492.207	4.26
492.405	4.3
492.604	4.24
492.802	4.4
493	4.49
493.199	4.59
493.397	4.68
493.595	4.77
493.794	4.74
493.992	4.96
494.19	5.04
494.388	5.09
494.587	5.06
494.785	5.13
494.983	5.1
495.181	5.35
495.379	5.53
495.578	5.59
495.776	5.65
495.974	5.65
496.172	5.76
496.37	6.03
496.568	6.14
496.766	6.11
496.964	6.3
497.162	6.34
497.36	6.5
497.558	6.5
497.756	6.75
497.954	6.79
498.152	6.9
498.35	7.1
498.548	7.07
498.746	7.17
498.944	7.25
499.142	7.29
499.34	7.56
499.538	7.81
499.736	7.72
499.933	7.83
500.131	7.86
500.329	8.31
500.527	8.3
500.725	8.55
500.922	8.66
501.12	8.72
501.318	8.93
501.516	8.96
501.713	9.24
501.911	9.27
502.109	9.27
502.306	9.53
502.504	9.45
502.701	9.69
502.899	9.94
503.097	10.33
503.294	10.13
503.492	10.47
503.689	10.7
503.887	10.62
504.084	10.94
504.282	10.94
504.479	11.06
504.677	11.46
504.874	11.51
505.072	11.24
505.269	11.92
505.466	11.93
505.664	12.16
505.861	12.11
506.059	12.55
506.256	12.48
506.453	12.73
506.651	12.97
506.848	13.21
507.045	13.26
507.242	13.33
507.44	13.51
507.637	13.78
507.834	13.65
508.031	14.17
508.229	14.13
508.426	14.04
508.623	14.47
508.82	14.81
509.017	14.82
509.214	14.75
509.411	15.15
509.608	15.09
509.805	15.54
510.003	15.56
510.2	15.63
510.397	16.11
510.594	15.94
510.791	16.26
510.988	16.26
511.184	16.21
511.381	16.06
511.578	16.64
511.775	17.02
511.972	16.8
512.169	17.06
512.366	17.03
512.563	17.49
512.76	17.62
512.956	17.71
513.153	17.62
513.35	17.54
513.547	17.65
513.744	18.03
513.94	18.02
514.137	18.27
514.334	18.18
514.53	18.42
514.727	18.9
514.924	18.48
515.12	18.64
515.317	18.85
515.514	18.46
515.71	18.46
515.907	19.12
516.103	19.14
516.3	18.82
516.497	19.19
516.693	19.06
516.89	19.23
517.086	19.28
517.283	19.3
517.479	18.9
517.676	19.5
517.872	19.51
518.068	19.4
518.265	19.4
518.461	19.18
518.658	19.6
518.854	19.39
519.05	19.66
519.247	19.62
519.443	19.28
519.639	19.69
519.836	19.21
520.032	19.12
520.228	19.48
520.424	19.19
520.621	19.27
520.817	19.45
521.013	19.03
521.209	19.54
521.405	19.25
521.601	19.21
521.798	18.99
521.994	18.84
522.19	18.67
522.386	18.74
522.582	18.84
522.778	19.04
522.974	18.53
523.17	18.52
523.366	18.26
523.562	18.29
523.758	18.26
523.954	17.77
524.15	18.15
524.346	18.09
524.542	17.97
524.738	17.66
524.934	17.9
525.129	17.76
525.325	17.29
525.521	17.19
525.717	17.6
525.913	17.03
526.109	16.89
526.304	17.09
526.5	16.86
526.696	16.78
526.892	16.49
527.087	16.85
527.283	16.51
527.479	16.27
527.674	15.7
527.87	15.99
528.066	15.88
528.261	15.67
528.457	15.3
528.653	15.57
528.848	15.35
529.044	15.39
529.239	14.97
529.435	14.77
529.63	14.57
529.826	14.43
530.021	14.34
530.217	14.32
530.412	14.19
530.608	14.06
530.803	13.92
530.999	13.56
531.194	13.58
531.389	13.55
531.585	13.46
531.78	13.56
531.975	13.22
532.171	13.04
532.366	12.92
532.561	12.9
532.757	12.6
532.952	12.85
533.147	12.27
533.342	12.3
533.538	12.08
533.733	12.31
533.928	11.57
534.123	11.82
534.318	11.66
534.513	11.49
534.709	11.59
534.904	11.42
535.099	11.33
535.294	11.19
535.489	11.12
535.684	10.92
535.879	10.78
536.074	10.71
536.269	10.68
536.464	10.52
536.659	10.38
536.854	10.19
537.049	10.2
537.244	10.03
537.439	9.9
537.634	9.77
537.828	9.8
538.023	9.6
538.218	9.53
538.413	9.32
538.608	9.26
538.803	9.2
538.997	9.08
539.192	8.99
539.387	8.83
539.582	8.78
539.776	8.64
539.971	8.67
540.166	8.62
540.36	8.42
540.555	8.48
540.75	8.31
540.944	8.18
541.139	8.14
541.334	7.99
541.528	7.86
541.723	7.88
541.917	7.81
542.112	7.6
542.306	7.48
542.501	7.4
542.695	7.35
542.89	7.22
543.084	7.23
543.279	7.2
543.473	7.11
543.668	7.09
543.862	6.8
544.056	6.78
544.251	6.77
544.445	6.7
544.64	6.69
544.834	6.37
545.028	6.21
545.222	6.38
545.417	6.46
545.611	6.3
545.805	6.16
546	5.96
546.194	6.05
546.388	5.97
546.582	5.83
546.776	5.81
546.97	5.74
547.165	5.62
547.359	5.57
547.553	5.47
547.747	5.46
547.941	5.48
548.135	5.32
548.329	5.27
548.523	5.2
548.717	5.09
548.911	5.09
549.105	4.96
549.299	5
549.493	4.91
549.687	4.77
549.881	4.86
550.075	4.7
550.269	4.58
550.463	4.64
550.657	4.49
550.85	4.47
551.044	4.36
551.238	4.39
551.432	4.26
551.626	4.3
551.82	4.17
552.013	4.12
552.207	4.11
552.401	4.14
552.594	3.99
552.788	3.9
552.982	3.89
553.176	3.8
553.369	3.91
553.563	3.76
553.756	3.7
553.95	3.66
554.144	3.67
554.337	3.63
554.531	3.44
554.724	3.49
554.918	3.48
555.111	3.42
555.305	3.34
555.498	3.31
555.692	3.35
555.885	3.3
556.079	3.18
556.272	3.16
556.466	3.14
556.659	3.05
556.852	3.02
557.046	3
557.239	2.93
557.432	2.88
557.626	2.9
557.819	2.87
558.012	2.8
558.206	2.84
558.399	2.7
558.592	2.72
558.785	2.65
558.979	2.67
559.172	2.6
559.365	2.59
559.558	2.52
559.751	2.47
559.944	2.49
560.138	2.44
560.331	2.39
560.524	2.4
560.717	2.34
560.91	2.31
561.103	2.28
561.296	2.19
561.489	2.25
561.682	2.21
561.875	2.19
562.068	2.19
562.261	2.08
562.454	2.16
562.647	2.06
562.84	2.06
563.032	2
563.225	2
563.418	1.97
563.611	1.96
563.804	1.93
563.997	1.91
564.19	1.81
564.382	1.87
564.575	1.85
564.768	1.78
564.961	1.81
565.153	1.74
565.346	1.74
565.539	1.77
565.731	1.69
565.924	1.74
566.117	1.7
566.309	1.66
566.502	1.6
566.695	1.59
566.887	1.58
567.08	1.55
567.272	1.56
567.465	1.52
567.657	1.53
567.85	1.51
568.042	1.48
568.235	1.47
568.427	1.4
568.62	1.4
568.812	1.42
569.005	1.4
569.197	1.29
569.389	1.35
569.582	1.32
569.774	1.34
569.966	1.25
570.159	1.24
570.351	1.26
570.543	1.22
570.736	1.26
570.928	1.18
571.12	1.2
571.312	1.17
571.505	1.11
571.697	1.21
571.889	1.12
572.081	1.15
572.273	1.08
572.465	1.14
572.658	1.1
572.85	1.07
573.042	1.06
573.234	1.05
573.426	1.08
573.618	0.97
573.81	1.02
574.002	1
574.194	1.03
574.386	0.95
574.578	0.9
574.77	0.96
574.962	0.93
575.154	0.87
575.346	0.91
575.538	0.9
575.729	0.87
575.921	0.9
576.113	0.85
576.305	0.9
576.497	0.85
576.689	0.85
576.88	0.81
577.072	0.85
577.264	0.8
577.456	0.84
577.647	0.69
577.839	0.83
578.031	0.82
578.223	0.73
578.414	0.72
578.606	0.75
578.798	0.76
578.989	0.71
579.181	0.73
579.372	0.73
579.564	0.67
579.755	0.7
579.947	0.68
580.139	0.72
580.33	0.64
580.522	0.64
580.713	0.57
580.905	0.65
581.096	0.69
581.287	0.65
581.479	0.62
581.67	0.63
581.862	0.66
582.053	0.62
582.244	0.55
582.436	0.58
582.627	0.59
582.818	0.55
583.01	0.55
583.201	0.59
583.392	0.59
583.583	0.57
583.775	0.53
583.966	0.51
584.157	0.54
584.348	0.53
584.54	0.5
584.731	0.53
584.922	0.49
585.113	0.5
585.304	0.51
585.495	0.53
585.686	0.53
585.877	0.55
586.068	0.5
586.259	0.51
586.45	0.46
586.641	0.45
586.832	0.42
587.023	0.46
587.214	0.44
587.405	0.48
587.596	0.44
587.787	0.49
587.978	0.43
588.169	0.4
588.36	0.42
588.551	0.43
588.742	0.41
588.932	0.45
589.123	0.42
589.314	0.45
589.505	0.42
589.696	0.39
589.886	0.37
590.077	0.35
590.268	0.41
590.458	0.36
590.649	0.35
590.84	0.39
591.03	0.34
591.221	0.36
591.412	0.33
591.602	0.41
591.793	0.41
591.984	0.3
592.174	0.34
592.365	0.41
592.555	0.33
592.746	0.39
592.936	0.36
593.127	0.34
593.317	0.4
593.508	0.35
593.698	0.34
593.889	0.33
594.079	0.32
594.269	0.29
594.46	0.3
594.65	0.3
594.84	0.29
595.031	0.27
595.221	0.29
595.411	0.25
595.602	0.34
595.792	0.3
595.982	0.26
596.172	0.35
596.363	0.31
596.553	0.31
596.743	0.29
596.933	0.27
597.123	0.33
597.314	0.27
597.504	0.25
597.694	0.31
597.884	0.29
598.074	0.26
598.264	0.27
598.454	0.28
598.644	0.27
598.834	0.25
599.024	0.22
599.214	0.24
599.404	0.29
599.594	0.25
599.784	0.24
599.974	0.31
600.164	0.27
600.354	0.24
600.544	0.19
600.734	0.23
600.924	0.3
601.114	0.23
601.303	0.25
601.493	0.24
601.683	0.23
601.873	0.22
602.063	0.2
602.252	0.28
602.442	0.15
602.632	0.22
602.821	0.22
603.011	0.24
603.201	0.24
603.39	0.2
603.58	0.2
603.77	0.23
603.959	0.26
604.149	0.21
604.339	0.23
604.528	0.23
604.718	0.23
604.907	0.19
605.097	0.2
605.286	0.17
605.476	0.22
605.665	0.22
605.855	0.22
606.044	0.28
606.234	0.21
606.423	0.2
606.612	0.17
606.802	0.21
606.991	0.21
607.181	0.21
607.37	0.17
607.559	0.18
607.749	0.15
607.938	0.2
608.127	0.19
608.316	0.18
608.506	0.21
608.695	0.21
608.884	0.18
609.073	0.19
609.263	0.22
609.452	0.21
609.641	0.19
609.83	0.15
610.019	0.19
610.208	0.17
610.397	0.19
610.586	0.2
610.775	0.2
610.965	0.16
611.154	0.14
611.343	0.17
611.532	0.18
611.721	0.14
611.91	0.16
612.099	0.2
612.287	0.18
612.476	0.18
612.665	0.18
612.854	0.15
613.043	0.21
613.232	0.16
613.421	0.14
613.61	0.16
613.798	0.13
613.987	0.2
614.176	0.17
614.365	0.18
614.554	0.16
614.742	0.21
614.931	0.1
615.12	0.2
615.309	0.18
615.497	0.16
615.686	0.11
615.875	0.16
616.063	0.16
616.252	0.16
616.44	0.17
616.629	0.14
616.818	0.19
617.006	0.12
617.195	0.15
617.383	0.15
617.572	0.16
617.76	0.15
617.949	0.13
618.137	0.19
618.326	0.19
618.514	0.11
618.703	0.11
618.891	0.22
619.079	0.13
619.268	0.19
619.456	0.13
619.644	0.2
619.833	0.16
620.021	0.15
620.209	0.11
620.398	0.21
620.586	0.14
620.774	0.19
620.962	0.16
621.151	0.21
621.339	0.16
621.527	0.12
621.715	0.1
621.903	0.12
622.092	0.11
622.28	0.15
622.468	0.15
622.656	0.16
622.844	0.17
623.032	0.12
623.22	0.07
623.408	0.17
623.596	0.14
623.784	0.17
623.972	0.1
624.16	0.11
624.348	0.18
624.536	0.15
624.724	0.11
624.912	0.19
625.1	0.16
625.288	0.12
625.476	0.13
625.664	0.17
625.851	0.12
626.039	0.15
626.227	0.14
626.415	0.16
626.603	0.06
626.79	0.12
626.978	0.12
627.166	0.16
627.354	0.13
627.541	0.1
627.729	0.07
627.917	0.15
628.104	0.14
628.292	0.16
628.48	0.14
628.667	0.12
628.855	0.14
629.042	0.16
629.23	0.08
629.418	0.14
629.605	0.11
629.793	0.11
629.98	0.09
630.168	0.08
630.355	0.15
630.543	0.12
630.73	0.09
630.917	0.16
631.105	0.18
631.292	0.1
631.48	0.11
631.667	0.16
631.854	0.14
632.042	0.1
632.229	0.06
632.416	0.12
632.604	0.09
632.791	0.09
632.978	0.16
633.165	0.12
633.353	0.19
633.54	0.17
633.727	0.09
633.914	0.13
634.101	0.08
634.289	0.17
634.476	0.09
634.663	0.09
634.85	0.16
635.037	0.11
635.224	0.07
635.411	0.16
635.598	0.17
635.785	0.13
635.972	0.13
636.159	0.18
636.346	0.1
636.533	0.12
636.72	0.1
636.907	0.1
637.094	0.14
637.281	0.11
637.468	0.16
637.655	0.09
637.842	0.13
638.029	0.12
638.215	0.14
638.402	0.11
638.589	0.09
638.776	0.12
638.963	0.1
639.149	0.13
639.336	0.18
639.523	0.12
639.709	0.09
639.896	0.12
640.083	0.19
640.27	0.12
640.456	0.1
640.643	0.13
640.829	0.05
641.016	0.11
641.203	0.04
641.389	0.19
641.576	0.13
641.762	0.11
641.949	0.06
642.135	0.12
642.322	0.14
642.508	0.1
642.695	0.11
642.881	0.12
643.068	0.11
643.254	0.09
643.441	0.19
643.627	0.11
643.813	0.09
644	0.15
644.186	0.09
644.372	0.11
644.559	0.17
644.745	0.1
644.931	0.08
645.118	0.12
645.304	0.15
645.49	0.1
645.676	0.09
645.862	0.16
646.049	0.16
646.235	0.13
646.421	0.19
646.607	0.14
646.793	0.09
646.979	0.07
647.165	0.1
647.352	0.12
647.538	0.14
647.724	0.12
647.91	0.13
648.096	0.14
648.282	0.17
648.468	0.06
648.654	0.13
648.84	0.12
649.026	0.1
649.212	0.12
649.397	0.11
649.583	0.06
649.769	0.11
649.955	0.07
650.141	0.16
650.327	0.17
650.513	0.11
650.698	0.16
650.884	0.08
651.07	0.12
651.256	0.17
651.442	0.12
651.627	0.12
651.813	0.13
651.999	0.11
652.184	0.12
652.37	0.09
652.556	0.06
652.741	0.18
652.927	0.06
653.113	0.08
653.298	0.12
653.484	0.12
653.669	0.06
653.855	0.13
654.04	0.14
654.226	0.1
654.412	0.13
654.597	0.07
654.782	0.11
654.968	0.13
655.153	0.12
655.339	0.08
655.524	0.06
655.71	0.14
655.895	0.1
656.08	0.09
656.266	0.15
656.451	0.15
656.636	0.09
656.822	0.11
657.007	0.08
657.192	0.11
657.378	0.07
657.563	0.12
657.748	0.14
657.933	0.16
658.118	0.1
658.304	0.05
658.489	0.13
658.674	0.15
658.859	0.1
659.044	0.14
659.229	0.13
659.414	0.11
659.599	0.12
659.785	0.08
659.97	0.1
660.155	0.14
660.34	0.14
660.525	0.09
660.71	0.11
660.895	0.15
661.08	0.1
661.264	0.08
661.449	0.15
661.634	0.15
661.819	0.16
662.004	0.14
662.189	0.08
662.374	0.1
662.559	0.05
662.743	0.07
662.928	0.1
663.113	0.11
663.298	0.07
663.483	0.06
663.667	0.11
663.852	0.1
664.037	0.17
664.221	0.12
664.406	0.17
664.591	0.14
664.775	0.1
664.96	0.1
665.145	0.12
665.329	0.12
665.514	0.1
665.698	0.12
665.883	0.06
666.068	0.15
666.252	0.12
666.437	0.07
666.621	0.14
666.806	0.13
666.99	0.08
667.174	0.1
667.359	0.19
667.543	0.14
667.728	0.13
667.912	0.05
668.096	0.13
668.281	0.12
668.465	0.13
668.649	0.13
668.834	0.1
669.018	0.14
669.202	0.08
669.387	0.09
669.571	0.21
669.755	0.11
669.939	0.15
670.124	0.13
670.308	0.18
670.492	0.2
670.676	0.13
670.86	0.12
671.044	0.11
671.228	0.2
671.413	0.13
671.597	0.11
671.781	0.08
671.965	0.14
672.149	0.13
672.333	0.14
672.517	0.14
672.701	0.16
672.885	0.16
673.069	0.03
673.253	0.14
673.437	0.13
673.621	0.09
673.804	0.2
673.988	0.13
674.172	0.14
674.356	0.06
674.54	0.11
674.724	0.22
674.908	0.17
675.091	0.19
675.275	0.17
675.459	0.19
675.643	0.23
675.826	0.19
676.01	0.2
676.194	0.13
676.377	0.19
676.561	0.22
676.745	0.18
676.928	0.14
677.112	0.22
677.296	0.13
677.479	0.11
677.663	0.13
677.846	0.2
678.03	0.14
678.213	0.12
678.397	0.2
678.58	0.13
678.764	0.12
678.947	0.11
679.131	0.09
679.314	0.2
679.498	0.15
679.681	0.21
679.865	0.22
680.048	0.14
680.231	0.13
680.415	0.2
680.598	0.14
680.781	0.15
680.965	0.15
681.148	0.16
681.331	0.19
681.514	0.2
681.698	0.11
681.881	0.15
682.064	0.17
682.247	0.14
682.43	0.08
682.614	0.17
682.797	0.16
682.98	0.17
683.163	0.11
683.346	0.17
683.529	0.14
683.712	0.09
683.895	0.17
684.078	0.07
684.261	0.16
684.444	0.15
684.627	0.16
684.81	0.12
684.993	0.14
685.176	0.2
685.359	0.1
685.542	0.13
685.725	0.24
685.908	0.08
686.091	0.15
686.274	0.17
686.457	0.16
686.639	0.09
686.822	0.2
687.005	0.18
687.188	0.17
687.371	0.21
687.553	0.19
687.736	0.17
687.919	0.22
688.102	0.22
688.284	0.17
688.467	0.13
688.65	0.1
688.832	0.16
689.015	0.16
689.197	0.1
689.38	0.25
689.563	0.21
689.745	0.11
689.928	0.11
690.11	0.09
690.293	0.17
690.475	0.09
690.658	0.19
690.84	0.15
691.023	0.13
691.205	0.13
691.388	0.14
691.57	0.19
691.752	0.15
691.935	0.07
692.117	0.14
692.3	0.14
692.482	0.16
692.664	0.14
692.847	0.16
693.029	0.22
693.211	0.16
693.393	0.1
693.576	0.14
693.758	0.16
693.94	0.12
694.122	0.11
694.304	0.15
694.487	0.18
694.669	0.2
694.851	0.08
695.033	0.11
695.215	0.15
695.397	0.13
695.579	0.13
695.761	0.1
695.943	0.07
696.125	0.23
696.308	0.17
696.49	0.04
696.671	0.27
696.853	0.15
697.035	0.32
697.217	0.11
697.399	0.2
697.581	0.11
697.763	0.16
697.945	0.1
698.127	0.12
698.309	0.05
698.491	0.13
698.672	0.18
698.854	0.2
699.036	0.24
699.218	0.15
699.399	0.19
699.581	0.16
699.763	0.12
699.945	0.09
700.126	0.1
700.308	0.13
700.49	0.18
700.671	0.04
700.853	0.1
701.035	0.11
701.216	0.16
701.398	0.15
701.579	0.1
701.761	0.19
701.943	0.1
702.124	0.06
702.306	0.12
702.487	0.25
702.669	0.13
702.85	0.1
703.031	0.07
703.213	0.3
703.394	0.2
703.576	0.12
703.757	0.22
703.938	0.22
704.12	0.33
704.301	0.16
704.483	0.11
704.664	0.21
704.845	0.28
705.026	0.21
705.208	0.14
705.389	0.19
705.57	0.14
705.751	0.16
705.933	0.15
706.114	0.19
706.295	0.14
706.476	0.04
706.657	0.25
706.838	0.19
707.02	0.21
707.201	0.07
707.382	0.1
707.563	0.22
707.744	0.14
707.925	0.09
708.106	0.09
708.287	0.15
708.468	0.23
708.649	0.17
708.83	0.16
709.011	0.13
709.192	0.13
709.373	0.04
709.554	0.11
709.734	0.24
709.915	0.17
710.096	0.18
710.277	0
710.458	0.17
710.639	0.15
710.819	0.05
711	0.12
711.181	0.23
711.362	0.2
711.542	0.17
711.723	0.1
711.904	0.24
712.085	0.2
712.265	0.14
712.446	0.11
712.627	0.1
712.807	0.12
712.988	0.16
713.168	0.06
713.349	0.17
713.53	0.04
713.71	0.07
713.891	0.13
714.071	0.18
714.252	0.08
714.432	0.1
714.613	0.05
714.793	0.17
714.974	0.21
715.154	0.17
715.334	0.09
715.515	0.29
715.695	0.06
715.876	0.21
716.056	0.1
716.236	0.07
716.417	0.16
716.597	0.12
716.777	0.25
716.957	0.17
717.138	0.16
717.318	0.15
717.498	0.06
717.678	0.18
717.859	0.17
718.039	0.08
718.219	0.18
718.399	0.17
718.579	0.13
718.759	0.12
718.939	0.18
719.12	0.17
719.3	0.18
719.48	-0.01
719.66	0.06
719.84	0.2
720.02	0.13
720.2	0.16
720.38	0.17
720.56	0.22
720.74	0.11
720.92	0.23
721.1	0.25
721.279	0.29
721.459	0.12
721.639	0.05
721.819	0.18
721.999	0.07
722.179	0.27
722.359	0.1
722.538	0.19
722.718	0.11
722.898	0.18
723.078	0.08
723.257	0.17
723.437	0.21
723.617	0.1
723.797	0.09
723.976	0.21
724.156	0.16
724.336	0.3
724.515	0.29
724.695	0.04
724.874	0.12
725.054	0.19
725.234	0.16
725.413	0.19
725.593	0.08
725.772	0.09
725.952	0.1
726.131	0.19
726.311	0.16
726.49	0.21
726.67	0.11
726.849	0.07
727.028	0.19
727.208	0.13
727.387	0.11
727.567	0.11
727.746	0.17
727.925	0.11
728.105	0.1
728.284	0.13
728.463	0.11
728.643	0.13
728.822	0.02
729.001	0.26
729.18	0.1
729.359	0.23
729.539	0.04
729.718	0.13
729.897	0.22
730.076	0.12
730.255	0.1
730.434	0.19
730.614	0.17
730.793	0.23
730.972	0.24
731.151	0.13
731.33	0.27
731.509	0.15
731.688	0.18
731.867	0.17
732.046	0.09
732.225	0.39
732.404	0.03
732.583	0.06
732.762	0.2
732.941	0.25
733.12	0.21
733.298	0.11
733.477	0.21
733.656	0.13
733.835	0.09
734.014	0.25
734.193	0.11
734.371	0.19
734.55	0.26
734.729	0.08
734.908	0.2
735.086	0.18
735.265	0.27
735.444	0.01
735.623	0.12
735.801	0.12
735.98	0.14
736.159	0.21
736.337	0.24
736.516	0.22
736.694	0.15
736.873	0.08
737.052	0.19
737.23	0.37
737.409	0.04
737.587	0.35
737.766	0.01
737.944	0.1
738.123	0.24
738.301	0.31
738.479	0.17
738.658	0.26
738.836	0.02
739.015	0.2
739.193	0.24
739.371	-0.01
739.55	0.07
739.728	0.04
739.906	0.35
740.085	0.27
740.263	0.21
740.441	0.05
740.62	0.37
740.798	0.26
740.976	0.14
741.154	0.09
741.332	0.33
741.511	0.08
741.689	0.19
741.867	0.17
742.045	0.29
742.223	0.12
742.401	0.09
742.579	0.14
742.757	0.23
742.935	-0.06
743.114	0.17
743.292	0.14
743.47	0.13
743.648	0.15
743.826	0
744.004	0.22
744.181	0.17
744.359	0.16
744.537	0.14
744.715	0.2
744.893	0.23
745.071	0.17
745.249	0.1
745.427	0.14
745.605	0.24
745.782	0.24
745.96	0.19
746.138	0.22
746.316	0.26
746.493	0.2
746.671	0.25
746.849	0.11
747.027	0.3
747.204	0.24
747.382	0.22
747.56	0.09
747.737	0.09
747.915	0.04
748.093	0.18
748.27	0.1
748.448	0.17
748.625	0.06
748.803	0.01
748.98	0.17
749.158	0.17
749.335	0.26
749.513	0.18
749.69	0.12
749.868	0.07
750.045	0.2
750.223	0.08
750.4	-0.03
750.578	0.4
750.755	0.24
750.932	0.1
751.11	0.29
751.287	0.03
751.464	0.32
751.642	0.14
751.819	0.14
751.996	0.29
752.173	0.18
752.351	0.14
752.528	0.16
752.705	0.07
752.882	0.12
753.06	0.18
753.237	0.25
753.414	0.31
753.591	0.2
753.768	0.21
753.945	0.16
754.122	0.22
754.299	0.26
754.476	0.02
754.654	0.2
754.831	0.12
755.008	0.23
755.185	0.08
755.362	0.03
755.539	0.06
755.716	0.1
755.892	0.22
756.069	0.14
756.246	0.24
756.423	0.11
756.6	0.25
756.777	0.18
756.954	0.18
757.131	0.13
757.307	0.03
757.484	0
757.661	0.17
757.838	0.16
758.015	0.05
758.191	0.2
758.368	0.33
758.545	0.38
758.721	0.23
758.898	0.15
759.075	0.22
759.251	0.36
759.428	0.21
759.605	0.04
759.781	0.18
759.958	0.12
760.134	0.16
760.311	0.13
760.488	0.18
760.664	0.29
760.841	0.18
761.017	0.05
761.194	0.18
761.37	0.31
761.547	0.24
761.723	0.16
761.899	0.27
762.076	-0.01
762.252	-0.02
762.429	0.19
762.605	0.25
762.781	0.13
762.958	0.25
763.134	0.01
763.31	0.1
763.486	0.33
763.663	-0.05
763.839	0.25
764.015	-0.06
764.191	0.13
764.368	0.12
764.544	0.14
764.72	0.16
764.896	0.23
765.072	0.01
765.248	0.17
765.425	0.06
765.601	0.13
765.777	0.18
765.953	0.05
766.129	0.06
766.305	0.13
766.481	0.35
766.657	0.11
766.833	0.37
767.009	-0.02
767.185	0.13
767.361	0.1
767.537	0.03
767.713	0.18
767.889	0.04
768.065	0.26
768.24	0.16
768.416	0.38
768.592	0.09
768.768	0.12
768.944	0.23
769.12	0.13
769.295	0.08
769.471	0.1
769.647	0.17
769.823	0.3
769.998	0.08
770.174	0.12
770.35	0.37
770.525	0.47
770.701	0.26
770.877	0.12
771.052	0.17
771.228	0.25
771.403	0.18
771.579	0.29
771.755	0.42
771.93	0.14
772.106	0.03
772.281	-0.03
772.457	0.31
772.632	0.33
772.808	-0.08
772.983	0.13
773.159	0.1
773.334	0.4
773.509	0.11
773.685	0.06
773.86	0.45
774.036	0.43
774.211	0.34
774.386	0.24
774.562	0.2
774.737	0.3
774.912	0.05
775.087	0.26
775.263	0.29
775.438	0.11
775.613	0.14
775.788	0.24
775.964	0.44
776.139	0.47
776.314	0.06
776.489	0.21
776.664	0.22
776.839	-0.01
777.014	0.37
777.19	0.31
777.365	0.35
777.54	0.4
777.715	0.11
777.89	0.08
778.065	0.14
778.24	0.05
778.415	0.34
778.59	0.05
778.765	0.25
778.94	0.25
779.115	0.09
779.289	0.25
779.464	0.13
779.639	0.14
779.814	0.02
779.989	-0
780.164	0.3
780.339	0.21
780.513	0.12
780.688	-0.1
780.863	0.09
781.038	0.32
781.212	0.15
781.387	0.25
781.562	0.54
781.737	0.15
781.911	0.47
782.086	0.09
782.261	0.27
782.435	0.29
782.61	0.16
782.784	0.22
782.959	0.41
783.134	0.15
783.308	0.17
783.483	0.16
783.657	0.49
783.832	0.37
784.006	-0.14
784.181	0.15
784.355	0.61
784.53	-0.09
784.704	0.03
784.878	0.49
785.053	0.23
785.227	0.26
785.402	0.6
785.576	-0.05
785.75	0.07
785.925	0.08
786.099	0.26
786.273	0.41
786.448	0.19
786.622	0.29
786.796	0.29
786.97	0.27
787.145	0.61
787.319	-0.14
787.493	0.17
787.667	-0.02
787.841	0.1
788.015	0.41
788.19	0.14
788.364	0.15
788.538	0.4
788.712	0.41
788.886	0.44
789.06	0.36
789.234	0.42
789.408	-0.05
789.582	0.17
789.756	0.18
789.93	0.06
790.104	0.17
790.278	0.01
790.452	-0
790.626	0.49
790.8	0.06
790.973	0.41
791.147	0.48
791.321	0.36
791.495	0.42
791.669	0.27
791.843	0.4
792.016	0.14
792.19	0.56
792.364	-0.1
792.538	0.75
792.711	0.48
792.885	0.08
793.059	-0.02
793.233	-0.26
793.406	0.26
793.58	0.04
793.754	0.26
793.927	0.24
794.101	0.41
794.274	0.03
794.448	0.4
794.622	0
794.795	0.29
794.969	0.14
795.142	0.6
795.316	0.2
795.489	-0.01
795.663	0.45
795.836	0.1
796.009	-0.07
796.183	0.74
796.356	0.68
796.53	0.23
796.703	0.14
796.876	0.61
797.05	0.29
797.223	0.35
797.396	0.21
797.57	0.32
797.743	0.58
797.916	0.41
798.09	0.18
798.263	0.61
798.436	0.13
798.609	0.26
798.782	0.42
798.956	0.35
799.129	0.17
799.302	0.09
799.475	-0.07
799.648	0.02
799.821	0.14
799.994	0.42
800.167	-0.23
800.34	0.42
800.514	0.36
800.687	-0.08
800.86	0.27
801.033	0.27
801.206	0.26
801.379	0.05
801.551	0.51
801.724	0.43
801.897	0.71
802.07	0.03
802.243	-0.23
802.416	0.03
802.589	-0.02
802.762	0.57
802.935	0.07
803.107	0.17
803.28	0.73
803.453	0.45
803.626	0.4
803.798	0.37
803.971	0.22
804.144	0.45
804.317	0.29
804.489	0.46
804.662	0.43
804.835	0.27
805.007	0.08
805.18	0.58
805.353	0.4
805.525	0.14
805.698	0.26
805.87	0.71
806.043	0.38
806.215	0.06
806.388	0.21
806.56	0.32
806.733	0.54
806.905	0.31
807.078	0.2
807.25	0.11
807.423	0.53
807.595	0.35
807.768	0.11
807.94	0.66
808.112	0.5
808.285	0.58
808.457	0.21
808.629	0.15
808.802	0.6
808.974	0.23
809.146	0.32
809.318	-0.15
809.491	0.25
809.663	0.42
809.835	0.16
810.007	0.63
810.18	0.37
810.352	-0.26
810.524	0.1
810.696	0.24
810.868	0.48
811.04	0.08
811.212	0.08
811.384	0.65
811.556	0.49
811.728	0.46
811.901	0.96
812.073	0.23
812.245	0.93
812.417	0.34
812.589	-0.58
812.76	0.5
812.932	0.45
813.104	0.71
813.276	0.33
813.448	0.72
813.62	0.54
813.792	0.42
813.964	0.34
814.136	0.44
814.307	-0.01
814.479	-0.19
814.651	0.02
814.823	0.65
814.995	0.48
815.166	0.28
815.338	-0.18
815.51	-0.07
815.681	1.46
815.853	0.27
816.025	0.14
816.196	1.27
816.368	0.45
816.54	-0.53
816.711	-0.23
816.883	0.37
817.054	1.42
817.226	-0.07
817.398	0.59
817.569	0.07
817.741	-0.12
817.912	0.16
818.084	0.24
818.255	0.47
818.426	-0.15
818.598	0.18
818.769	-0.06
818.941	0.7
819.112	0.87
819.283	0.68
819.455	0.03
819.626	0.01
819.798	0.55
819.969	0.42
820.14	0.07
820.311	0.46
820.483	0.39
820.654	0.3
820.825	0.13
820.996	0.2
821.168	-0.19
821.339	0.14
821.51	-0.1
821.681	-0.16
821.852	0.01
822.023	-0.28
822.195	-0.46
822.366	0.84
822.537	0.22
822.708	0.48
822.879	-0.1
823.05	1.01
823.221	0.01
823.392	0.53
823.563	0.37
823.734	0.39
823.905	0.51
824.076	-0.01
824.247	-0.07
824.418	0.5
824.589	1.53
824.759	0.28
824.93	0.41
825.101	-0.31
825.272	0.7
825.443	1.33
825.614	1.51
825.784	-0.33
825.955	1.65
826.126	0.98
826.297	0.6
826.467	1.2
826.638	1.26
826.809	-0
826.98	0.42
827.15	0.2
827.321	0.18
827.492	1.33
827.662	0.03
827.833	1.6
828.003	0.97
828.174	-0.2
828.345	0.03
828.515	1.36
828.686	0.65
828.856	0.23
829.027	0.36
829.197	0.15
829.368	0.31
829.538	0.52
829.709	0.2
829.879	0.65
830.049	0.31
830.22	0.23
830.39	0.28
830.56	0.88
830.731	0.07
830.901	-0.28
831.072	0.73
831.242	1.49
831.412	0.73
831.582	1.14
831.753	-0.29
831.923	1.32
832.093	0.62
832.263	0.82
832.434	0.1
832.604	0.66
832.774	0.63
832.944	0.57
833.114	-0.38
833.284	0.69
833.454	0.23
833.624	0.34
833.795	-0.23
833.965	0.94
834.135	1.55
834.305	-0.63
834.475	0.08
834.645	0.45
834.815	-0.02
834.985	0.4
835.155	0.37
835.325	0.58
835.494	0.18
835.664	-0.08
835.834	-0.68
836.004	0.71
836.174	1.07
836.344	0.04
836.514	0.04
836.684	0.08
836.853	0.82
837.023	0.2
837.193	-0.31
837.363	0.96
837.532	1
837.702	0.4
837.872	-0.17
838.041	0.78
838.211	1.68
838.381	-0.04
838.55	0.54
838.72	1.81
838.89	1.59
839.059	0.24
839.229	0.1
839.398	2.22
839.568	0.41
839.738	0.46
839.907	1.42
840.077	0.48
840.246	-0.31
840.416	-0.23
840.585	-0.06
840.755	2.11
840.924	1.52
841.093	0.12
841.263	0.63
841.432	0.52
841.602	0.69
841.771	0.63
841.94	-0.19
842.11	1.8
842.279	1.66
842.448	-0.38
842.617	0.01
842.787	1.65
842.956	-0.26
843.125	0.65
843.294	0.81
843.464	1.63
843.633	0.29
843.802	-0.27
843.971	0.95
844.14	0.56
844.309	1.35
844.479	0.63
844.648	-0.36
844.817	0.04
844.986	0.01
845.155	0.1
845.324	-0.05
845.493	-0.53
845.662	0.13
845.831	1.35
846	0.73
846.169	0.6
846.338	1.6
846.507	0.86
846.676	1.08
846.844	-0.82
847.013	1.81
847.182	0.89
847.351	0.33
847.52	0.36
847.689	0.76
847.858	-0.69
848.026	0.36
848.195	0.71
848.364	0.83
848.533	-0.75
848.701	0.23
848.87	0.36
849.039	0.99
849.207	1.48
849.376	1.88
849.545	1.53
849.713	-0.24
849.882	0.41
850.051	0.21
850.219	1.03
850.388	0.51
850.556	-0.32
850.725	-0.31
850.893	1.1
851.062	0.03
851.23	1.43
851.399	0.14
851.567	0.04
851.736	-0.35
851.904	-0.95
852.073	0.57
852.241	1.77
852.41	0.34
852.578	0.91
852.746	0.23
852.915	1.3
853.083	0.79
853.251	-0.08
853.42	-0.34
853.588	1.04
853.756	2.22
853.924	0.03
854.093	1.06
854.261	-0.02
854.429	-0.67
854.597	1.23
854.765	0.13
854.934	1.43
855.102	1.22
855.27	0.03
855.438	0.8
855.606	1.65
855.774	1.64
855.942	-0.81
856.11	-0.93
856.278	1.67
856.446	1.27
856.614	1.32
856.782	-0.8
856.95	1.56
857.118	1.07
857.286	1.81
857.454	-0.31
857.622	1.68
857.79	1.94
857.958	-0.09
858.126	0.49
858.294	-1.55
858.462	0.61
858.629	0.33
858.797	-0.5
858.965	1.28
859.133	1.58
859.301	0.33
859.468	0.8
859.636	-0.84
859.804	2.37
859.971	0.92
860.139	0.41
860.307	1.35
860.474	1.29
860.642	0.37
860.81	-0.3
860.977	-0.03
861.145	0.7
861.313	0.81
861.48	0.87
861.648	2.97
861.815	0.09
861.983	-0.15
862.15	0.31
862.318	1.83
862.485	1.59
862.653	-0.43
862.82	-0.09
862.988	2.39
863.155	2.08
863.322	-0.3
863.49	-1.17
863.657	0.63
863.824	2.89
863.992	1.18
864.159	0.53
864.326	3.63
864.494	-0.16
864.661	4.03
864.828	-0.84
864.996	1.84
865.163	1.51
865.33	-0.42
865.497	-0.67
865.664	0.61
865.832	0
865.999	1.26
866.166	0.61
866.333	0.24
866.5	-2.48
866.667	0.14
866.834	-0.01
867.001	1.81
867.168	-0.29
867.335	1.99
867.502	-0.41
867.669	1.09
867.836	4.08
868.003	0.35
868.17	2.77
868.337	0.33
868.504	3.07
868.671	0.25
868.838	-0.04
869.005	0.93
869.172	1.3
869.339	1.54
869.505	1.41
869.672	0.26
869.839	3.47
870.006	0.24
870.173	0.59
870.339	0.24
870.506	3.29
870.673	1.11
870.84	2.66
871.006	1.59
871.173	0.01
871.34	0.87
871.506	-1.15
871.673	0.2
871.839	-0.68
872.006	2.26
872.173	2.37
872.339	0.78
872.506	1.1
872.672	1.12
872.839	-2.19
873.005	0.77
873.172	5.24
873.338	1.04
873.505	0.46
873.671	2.18
873.838	2.82
874.004	-2.31
874.171	-1.22
874.337	1.65
874.503	1.52
874.67	1.74
874.836	-0.08
875.002	2.41
875.169	2.94
875.335	1.59
875.501	0.55
875.668	2.28
875.834	0.34
876	0.29
876.166	3.46
876.332	1.12
876.499	3.11
876.665	-0.7
876.831	0.08
876.997	4.93
877.163	3.31
877.329	0.08
877.495	1.71
877.662	3.16
877.828	2.97
877.994	1.2
878.16	-1.75
878.326	0.56
878.492	1.64
878.658	-0.99
878.824	-0.35
878.99	2.14
879.156	-0.05
879.322	4.24
879.487	0.17
879.653	0.16
879.819	2.82
879.985	-0.59
880.151	2.41
880.317	-0.05
880.483	0.88
880.648	2.28
880.814	-1.19
880.98	1.34
881.146	-1.66
881.312	0.03
881.477	0.81
881.643	2.24
881.809	1.55
881.974	1.83
882.14	-1.23
882.306	-0.45
882.471	2.94
882.637	0.12
882.803	-0.14
882.968	1.03
883.134	4.63
883.299	1.32
883.465	3.39
883.63	2.28
883.796	2.54
883.961	1.72
884.127	3.17
884.292	-2.89
884.458	-1.43
884.623	-1.43
