Data from Apollo_Calib_20240827__AbsoluteIrradiance__582__08-51-01-034.txt Node

Date: Wed Aug 28 08:51:01 BST 2024
User: biology
Spectrometer: FLMT08252
Trigger mode: 0
Integration Time (sec): 5.000000E-1
Scans to average: 5
Electric dark correction enabled: true
Nonlinearity correction enabled: false
Boxcar width: 0
XAxis mode: Wavelengths
Number of Pixels in Spectrum: 3648
>>>>>Begin Spectral Data<<<<<
179.588	-0
179.809	-0
180.03	-0
180.251	-0
180.473	-0
180.694	0
180.915	0
181.136	-0
181.357	0
181.578	-0
181.799	0
182.02	-0
182.241	0
182.462	-0
182.683	0
182.904	-0
183.125	-0
183.346	0
183.567	0
183.788	0
184.009	-0
184.23	0
184.451	0
184.672	-0
184.892	-0
185.113	0
185.334	0
185.555	-0
185.776	-0
185.996	0
186.217	0
186.438	-0
186.659	-0
186.879	0
187.1	0
187.321	-0
187.541	0
187.762	0
187.983	0
188.203	0
188.424	0
188.644	-0
188.865	0
189.086	0
189.306	0
189.527	0
189.747	0
189.968	0
190.188	0
190.409	0
190.629	0
190.849	0
191.07	0
191.29	0
191.511	0
191.731	-0
191.951	-0
192.172	0
192.392	0
192.612	0
192.833	0
193.053	0
193.273	0
193.493	-0
193.714	-0
193.934	0
194.154	0
194.374	0
194.594	0
194.815	0
195.035	0
195.255	-0
195.475	-0
195.695	0
195.915	0
196.135	0
196.355	0
196.575	0
196.795	0
197.015	-0
197.235	0
197.455	-0
197.675	0
197.895	0
198.115	-0
198.335	0
198.555	0
198.775	0
198.995	0
199.214	0
199.434	0
199.654	-0
199.874	0
200.094	0.98
200.313	-0.16
200.533	0.33
200.753	-0.13
200.973	1.14
201.192	1.17
201.412	-0.3
201.632	0.4
201.851	1.39
202.071	-0.18
202.291	0.13
202.51	0.1
202.73	0.65
202.95	0.25
203.169	0.06
203.389	0.18
203.608	-0.03
203.828	-0.01
204.047	0.02
204.267	0.98
204.486	0.34
204.706	0.56
204.925	-0.05
205.145	0.34
205.364	0.72
205.583	1
205.803	0.23
206.022	-0.12
206.242	0.16
206.461	0.82
206.68	0.04
206.9	0.52
207.119	0.76
207.338	0.55
207.557	0.27
207.777	0.13
207.996	0.07
208.215	0.53
208.434	0.14
208.654	-0.01
208.873	0.2
209.092	0.47
209.311	0.27
209.53	0.1
209.749	-0.03
209.968	0.16
210.187	0.22
210.407	-0.07
210.626	-0.02
210.845	0.26
211.064	0.06
211.283	-0.06
211.502	0.67
211.721	0.2
211.94	0.01
212.159	0.56
212.377	0.26
212.596	0.49
212.815	0.14
213.034	0.13
213.253	0.42
213.472	0.52
213.691	0.05
213.91	-0.07
214.128	0.13
214.347	0.37
214.566	0.01
214.785	-0.18
215.003	0.45
215.222	0.16
215.441	0.24
215.66	-0.14
215.878	0.14
216.097	0.4
216.316	-0.07
216.534	0.02
216.753	0.27
216.972	0.22
217.19	0.13
217.409	-0.1
217.627	-0.06
217.846	0.05
218.064	0.27
218.283	-0.01
218.501	0.56
218.72	0.21
218.938	-0.03
219.157	0.12
219.375	0.28
219.594	0.27
219.812	-0.05
220.031	-0.02
220.249	0.47
220.467	0.34
220.686	0.16
220.904	-0.07
221.122	0.04
221.341	0.43
221.559	0.05
221.777	-0.08
221.995	-0.02
222.214	0.25
222.432	0.02
222.65	0.23
222.868	0.18
223.086	-0.01
223.305	0.36
223.523	0.29
223.741	0.32
223.959	0.09
224.177	-0.05
224.395	0.03
224.613	0.18
224.831	0.33
225.049	-0.06
225.267	0.03
225.485	0.22
225.703	0.11
225.921	0.18
226.139	0.1
226.357	0.2
226.575	0.31
226.793	-0.02
227.011	0.67
227.229	0.19
227.447	0.2
227.665	0.17
227.883	-0.06
228.1	0.16
228.318	0.14
228.536	-0.08
228.754	-0.07
228.972	0.13
229.189	0.24
229.407	0.08
229.625	-0.1
229.843	0.25
230.06	0.2
230.278	-0.07
230.496	0.1
230.713	0.22
230.931	0.26
231.149	0.08
231.366	-0.08
231.584	-0.02
231.801	0.35
232.019	0.02
232.236	-0.01
232.454	-0.01
232.671	0.07
232.889	0.05
233.106	0.02
233.324	0.07
233.541	0.1
233.759	0.02
233.976	-0.08
234.194	0.04
234.411	0
234.628	-0.05
234.846	0.03
235.063	-0.04
235.28	-0
235.498	0.1
235.715	-0.07
235.932	0.26
236.149	0.06
236.367	0.01
236.584	0.19
236.801	0.08
237.018	0.13
237.236	0.07
237.453	-0.06
237.67	0.23
237.887	0.07
238.104	0.07
238.321	-0.04
238.538	0.01
238.755	0.14
238.973	0.03
239.19	0.11
239.407	0.13
239.624	0.04
239.841	0.02
240.058	0.05
240.275	0.16
240.492	0.08
240.709	0.05
240.925	-0.01
241.142	0.16
241.359	-0.03
241.576	-0.13
241.793	-0.02
242.01	-0.01
242.227	0.17
242.444	0.17
242.66	0.17
242.877	0.09
243.094	-0
243.311	0.04
243.527	0.09
243.744	0.11
243.961	0.13
244.178	0.06
244.394	0.06
244.611	0.2
244.828	0.29
245.044	-0.05
245.261	0.04
245.477	0.05
245.694	0.13
245.911	0.04
246.127	0.07
246.344	0.18
246.56	0.07
246.777	-0.05
246.993	0.08
247.21	0.08
247.426	0.11
247.643	0.01
247.859	-0
248.076	-0.03
248.292	0.23
248.508	0.02
248.725	0.01
248.941	0.13
249.157	0.19
249.374	0.12
249.59	0.08
249.806	0.16
250.023	0.15
250.239	0.04
250.455	0.03
250.671	0.07
250.888	0.07
251.104	0.09
251.32	0.04
251.536	0.01
251.752	0.05
251.969	0.1
252.185	0.09
252.401	0.22
252.617	-0
252.833	0.06
253.049	0.11
253.265	0.08
253.481	0.07
253.697	0.04
253.913	0.01
254.129	-0.05
254.345	0.05
254.561	-0
254.777	0.07
254.993	0.12
255.209	0.08
255.425	0.07
255.641	0.06
255.857	0.16
256.073	0.03
256.288	-0.02
256.504	-0.02
256.72	0.05
256.936	0.15
257.152	0.07
257.367	0.01
257.583	0.03
257.799	0.21
258.015	0
258.23	0
258.446	0.2
258.662	-0
258.877	-0
259.093	0.02
259.309	0.07
259.524	0.11
259.74	0.05
259.955	-0
260.171	0.04
260.387	0.05
260.602	0.19
260.818	0.13
261.033	-0.01
261.249	0.02
261.464	-0.01
261.68	-0.04
261.895	0.1
262.11	0.15
262.326	0.04
262.541	-0.03
262.757	0.16
262.972	0.1
263.187	0.12
263.403	0.08
263.618	0.09
263.833	0.03
264.049	0
264.264	0.11
264.479	0.13
264.694	0.17
264.91	-0.06
265.125	0.06
265.34	0.13
265.555	0.14
265.77	0.1
265.986	0.08
266.201	0.08
266.416	0.15
266.631	0.12
266.846	0.04
267.061	0.07
267.276	0.06
267.491	-0.08
267.706	0.12
267.921	0.08
268.136	0.06
268.351	0.12
268.566	-0.05
268.781	0.15
268.996	0.12
269.211	0.05
269.426	-0.03
269.641	0.03
269.856	0.11
270.071	-0
270.285	-0.04
270.5	0.11
270.715	0.11
270.93	0.06
271.145	0.1
271.359	0.09
271.574	0.01
271.789	0.04
272.004	0.02
272.218	0.04
272.433	0.08
272.648	0
272.862	0.08
273.077	0.01
273.292	0.03
273.506	0.02
273.721	-0.03
273.936	0.08
274.15	0.15
274.365	0.07
274.579	0.12
274.794	0.08
275.008	0.06
275.223	0.01
275.437	0.02
275.652	0.06
275.866	0.05
276.081	0.04
276.295	0.12
276.509	0.03
276.724	0.04
276.938	0.08
277.153	0.12
277.367	0.06
277.581	0
277.796	-0.01
278.01	-0
278.224	0.07
278.438	0.12
278.653	-0.01
278.867	0.04
279.081	-0.13
279.295	0.02
279.51	0.04
279.724	-0.03
279.938	0.1
280.152	0.12
280.366	0
280.58	0.08
280.794	0.16
281.008	0.1
281.222	0.14
281.437	0.17
281.651	0.05
281.865	0.07
282.079	0.04
282.293	-0.02
282.507	-0.01
282.721	-0.01
282.935	0.04
283.148	-0.01
283.362	0.01
283.576	0.01
283.79	0.07
284.004	0.04
284.218	0.07
284.432	0.03
284.646	0.02
284.859	0.05
285.073	0.02
285.287	0.08
285.501	0.04
285.714	0.07
285.928	0.08
286.142	0.02
286.356	0.04
286.569	-0.01
286.783	0.12
286.997	0.14
287.21	0.07
287.424	0.03
287.637	-0.04
287.851	0.03
288.065	0.1
288.278	0.04
288.492	0.05
288.705	0.03
288.919	0.1
289.132	-0.01
289.346	0.09
289.559	-0.02
289.773	0.05
289.986	0.06
290.2	0.03
290.413	0.09
290.626	0.03
290.84	0.03
291.053	0.03
291.267	0.09
291.48	0.04
291.693	0.03
291.906	0.04
292.12	0.07
292.333	0.02
292.546	-0
292.76	0.11
292.973	0.06
293.186	0.1
293.399	0.06
293.612	0.12
293.826	0.05
294.039	0.04
294.252	0.03
294.465	0.08
294.678	0.08
294.891	0.04
295.104	-0
295.317	0.02
295.53	0.05
295.743	0.05
295.956	0.02
296.169	0.09
296.382	0.07
296.595	0.07
296.808	0.01
297.021	0.11
297.234	0.11
297.447	0.04
297.66	0.05
297.873	0.08
298.086	0.09
298.299	0.01
298.511	0
298.724	0.01
298.937	0
299.15	0.02
299.363	0.03
299.575	0.06
299.788	0.07
300.001	-0.03
300.213	0.04
300.426	0.03
300.639	0.01
300.852	-0.01
301.064	0.06
301.277	0.13
301.489	0.07
301.702	0.08
301.915	0.02
302.127	0.06
302.34	0.06
302.552	0.08
302.765	-0.02
302.977	0.11
303.19	-0.02
303.402	0.02
303.615	0.03
303.827	0.01
304.04	0
304.252	0.03
304.464	0.02
304.677	0.14
304.889	0.04
305.102	0.06
305.314	0.01
305.526	0.07
305.739	0.06
305.951	0.03
306.163	0.05
306.375	0.12
306.588	0.01
306.8	0
307.012	-0.03
307.224	0.05
307.436	0.08
307.649	-0.03
307.861	0.07
308.073	0.12
308.285	0.03
308.497	-0.01
308.709	0.04
308.921	0.06
309.133	0.06
309.346	0.03
309.558	0.05
309.77	0.1
309.982	0.12
310.194	0.05
310.406	-0.01
310.617	0.12
310.829	0.06
311.041	0.06
311.253	-0
311.465	0.02
311.677	0.06
311.889	0.04
312.101	0.04
312.313	0.1
312.524	0.07
312.736	-0.02
312.948	0.02
313.16	0.14
313.372	0.05
313.583	0.02
313.795	0.03
314.007	0.02
314.218	0.03
314.43	0.01
314.642	0
314.853	-0.05
315.065	0.09
315.277	-0
315.488	0.06
315.7	0.08
315.912	0.05
316.123	0.03
316.335	0.05
316.546	0.11
316.758	0.05
316.969	0.01
317.181	0.01
317.392	0.07
317.604	0.1
317.815	0.01
318.026	0.07
318.238	0
318.449	0.07
318.661	-0.03
318.872	0.05
319.083	0.05
319.295	0.04
319.506	0.03
319.717	0.06
319.929	0.04
320.14	0.07
320.351	0.04
320.562	0.01
320.774	0
320.985	0.05
321.196	0.01
321.407	-0.02
321.618	0.06
321.829	0.03
322.041	0.05
322.252	0.05
322.463	0.06
322.674	0.03
322.885	-0.01
323.096	0.05
323.307	0.01
323.518	0.04
323.729	0.01
323.94	0.07
324.151	0.04
324.362	0.03
324.573	0.01
324.784	0.03
324.995	0.1
325.206	0.04
325.417	0.01
325.628	-0
325.838	0.03
326.049	0.01
326.26	0.07
326.471	0.04
326.682	0.07
326.892	0.03
327.103	-0.01
327.314	-0
327.525	0.07
327.735	0.08
327.946	0.03
328.157	0.03
328.368	0.09
328.578	-0.01
328.789	0.08
328.999	0.04
329.21	0.02
329.421	0.07
329.631	0.04
329.842	-0
330.052	0.08
330.263	0.04
330.473	0.08
330.684	0.08
330.894	-0
331.105	0.04
331.315	-0
331.526	0
331.736	0.14
331.947	0.07
332.157	0.05
332.367	0.02
332.578	0.07
332.788	0.08
332.999	0.1
333.209	0.07
333.419	0.02
333.629	0.05
333.84	0.04
334.05	0.04
334.26	0.05
334.47	0.05
334.681	0.08
334.891	0
335.101	0.05
335.311	0.11
335.521	0.03
335.732	0
335.942	0.1
336.152	0.08
336.362	0.09
336.572	0.07
336.782	0.07
336.992	0.03
337.202	0.03
337.412	0.01
337.622	0.04
337.832	0.06
338.042	0.05
338.252	0.02
338.462	0.04
338.672	0.05
338.882	0.03
339.092	-0.02
339.302	0.1
339.511	0.09
339.721	-0.01
339.931	0.03
340.141	0.1
340.351	0.12
340.561	0.03
340.77	0.03
340.98	0
341.19	0.04
341.4	0.05
341.609	0.04
341.819	0.01
342.029	-0.01
342.238	0.03
342.448	0.03
342.658	0.04
342.867	0
343.077	0.05
343.286	0.04
343.496	0.05
343.706	0.07
343.915	0.04
344.125	0.06
344.334	0.04
344.544	-0.05
344.753	0.05
344.963	0.02
345.172	0.03
345.381	-0.01
345.591	0.02
345.8	0.04
346.01	0.09
346.219	0.05
346.428	-0.08
346.638	0.04
346.847	0.01
347.056	0.1
347.266	0
347.475	0.05
347.684	0.04
347.893	0.04
348.103	0.04
348.312	0.06
348.521	0.06
348.73	0.04
348.94	0.05
349.149	0.05
349.358	0.03
349.567	-0
349.776	-0.01
349.985	-0.02
350.194	0.05
350.403	0.09
350.612	-0.05
350.821	0.01
351.03	0.06
351.239	-0.02
351.448	0.08
351.657	0.02
351.866	0.07
352.075	0.03
352.284	0.05
352.493	-0.04
352.702	0.07
352.911	0.07
353.12	0.06
353.329	0.04
353.538	0.03
353.746	0.06
353.955	0.03
354.164	0.09
354.373	0.08
354.582	0.04
354.79	0.05
354.999	0.08
355.208	0.01
355.416	0.11
355.625	-0.01
355.834	-0.01
356.042	0.03
356.251	0.02
356.46	0.01
356.668	0.07
356.877	0.15
357.085	0.07
357.294	-0.04
357.503	0.06
357.711	0.04
357.92	0.12
358.128	0.04
358.337	0.04
358.545	0.03
358.754	0.02
358.962	0.06
359.17	0.02
359.379	0.06
359.587	0.09
359.796	0.04
360.004	0.04
360.212	0.03
360.421	0.07
360.629	0.02
360.837	0.04
361.046	0.07
361.254	0.1
361.462	0.04
361.67	0.01
361.879	0.03
362.087	0.06
362.295	0.03
362.503	0.01
362.711	-0.03
362.92	-0.02
363.128	0.01
363.336	-0.03
363.544	-0.01
363.752	0.04
363.96	0.02
364.168	0.01
364.376	0.06
364.584	0.05
364.792	0.06
365	0.09
365.208	0.04
365.416	0.04
365.624	0.07
365.832	0.03
366.04	0.06
366.248	0.05
366.456	0.03
366.664	0.02
366.872	0.02
367.079	0.04
367.287	0.01
367.495	0.05
367.703	0.01
367.911	0.03
368.118	0
368.326	-0.01
368.534	-0.01
368.742	0.1
368.949	-0
369.157	0.02
369.365	0.06
369.572	0.02
369.78	0.01
369.988	0.09
370.195	0.07
370.403	0.07
370.61	0.04
370.818	0.06
371.026	0.07
371.233	-0.02
371.441	0.08
371.648	0.01
371.856	0.01
372.063	0.05
372.271	0.01
372.478	0.02
372.685	0.03
372.893	0.09
373.1	0.04
373.308	0.01
373.515	0.07
373.722	0.06
373.93	0.02
374.137	0.07
374.344	0.03
374.552	0.08
374.759	0.09
374.966	0.02
375.173	0.03
375.381	0.1
375.588	0.03
375.795	-0.04
376.002	0.02
376.209	0.02
376.417	0.03
376.624	0.05
376.831	0.07
377.038	0.03
377.245	-0.05
377.452	0.01
377.659	0.06
377.866	-0.01
378.073	0.03
378.28	-0
378.487	0.04
378.694	0.05
378.901	0.07
379.108	0.04
379.315	0.07
379.522	0.09
379.729	0.05
379.936	0.03
380.143	0.03
380.35	0.05
380.557	0.02
380.763	0.02
380.97	0.05
381.177	0.04
381.384	0.05
381.591	0.07
381.797	0.03
382.004	0.03
382.211	0.04
382.418	-0
382.624	0.06
382.831	0.08
383.038	0.04
383.244	0.04
383.451	0.04
383.658	0.07
383.864	0.01
384.071	-0.01
384.277	0.09
384.484	-0.02
384.69	0.04
384.897	0.01
385.103	0
385.31	0.01
385.516	0.01
385.723	0.01
385.929	0.05
386.136	-0.01
386.342	0.02
386.549	-0
386.755	0.06
386.961	0.07
387.168	0
387.374	0.06
387.58	0.08
387.787	0.04
387.993	0.03
388.199	0.03
388.406	0
388.612	0.04
388.818	0.01
389.024	0.01
389.231	0.05
389.437	0.05
389.643	0.05
389.849	0.02
390.055	0.08
390.261	0.03
390.467	0.09
390.674	-0.03
390.88	0.04
391.086	0.05
391.292	0.02
391.498	0.07
391.704	0.03
391.91	0.02
392.116	-0.01
392.322	-0.06
392.528	0.04
392.734	0
392.94	0.01
393.146	0.03
393.352	0.01
393.557	-0.01
393.763	0.01
393.969	0.09
394.175	0.05
394.381	0.08
394.587	0.01
394.792	0.02
394.998	0.07
395.204	0.07
395.41	0.02
395.615	0.05
395.821	0.06
396.027	0.08
396.233	-0.01
396.438	0.06
396.644	0.12
396.85	0.03
397.055	0.04
397.261	0.04
397.466	0.14
397.672	0.07
397.878	0.07
398.083	0.03
398.289	-0.01
398.494	0.08
398.7	0.03
398.905	-0.02
399.111	0.09
399.316	-0
399.522	0.05
399.727	0.05
399.932	0
400.138	0.01
400.343	0.04
400.549	0.02
400.754	0.05
400.959	0.07
401.165	0.03
401.37	0.06
401.575	0.09
401.78	0.03
401.986	0.03
402.191	0.03
402.396	0.05
402.601	0.03
402.807	0.02
403.012	0.03
403.217	0.06
403.422	0.04
403.627	-0.01
403.832	0.01
404.037	0.07
404.243	0.06
404.448	0.02
404.653	0.04
404.858	0.08
405.063	0.01
405.268	-0.01
405.473	-0.01
405.678	-0.02
405.883	0.16
406.088	0.06
406.293	0.01
406.498	-0.02
406.703	0.06
406.907	0.05
407.112	-0.04
407.317	0.05
407.522	0.09
407.727	0.03
407.932	0.01
408.136	0.08
408.341	0.02
408.546	0.05
408.751	0.06
408.956	0.06
409.16	0.03
409.365	0.03
409.57	0.03
409.774	0.04
409.979	0.03
410.184	0.04
410.388	0.01
410.593	0.05
410.798	0.03
411.002	0.03
411.207	0.03
411.411	0.04
411.616	0
411.82	0.01
412.025	0.07
412.229	0
412.434	0.1
412.638	0.02
412.843	0.1
413.047	0.04
413.252	0
413.456	0.03
413.66	0.11
413.865	-0.01
414.069	0.1
414.273	-0
414.478	0.01
414.682	0.05
414.886	0
415.091	0.03
415.295	-0.07
415.499	0.06
415.703	-0.01
415.908	0.05
416.112	-0.05
416.316	0.06
416.52	0.02
416.724	-0.04
416.929	-0.03
417.133	0.11
417.337	0.04
417.541	-0.01
417.745	-0.01
417.949	0.06
418.153	0.09
418.357	-0.03
418.561	0.1
418.765	0.04
418.969	0.14
419.173	0.05
419.377	0.01
419.581	0.13
419.785	0.04
419.989	-0.04
420.193	-0.01
420.397	0.02
420.601	0.11
420.804	0.06
421.008	0.07
421.212	0.02
421.416	0.05
421.62	0.01
421.823	0.04
422.027	0.05
422.231	0.04
422.435	-0.02
422.638	0.05
422.842	0
423.046	0.01
423.249	0.05
423.453	0.04
423.657	0.02
423.86	0.03
424.064	-0
424.268	0.07
424.471	0.05
424.675	0.1
424.878	0.09
425.082	0.04
425.285	0.06
425.489	0.02
425.692	0.02
425.896	0.03
426.099	0.08
426.303	-0
426.506	-0.04
426.71	0.09
426.913	0.08
427.116	0.1
427.32	0.03
427.523	0.03
427.726	0.07
427.93	0.02
428.133	-0.01
428.336	-0.03
428.54	-0.06
428.743	0.06
428.946	0.05
429.149	-0.06
429.353	0.06
429.556	0.02
429.759	0.02
429.962	0.02
430.165	0.03
430.368	0.04
430.571	0.02
430.775	0.06
430.978	-0.01
431.181	0.04
431.384	0.1
431.587	-0.01
431.79	0.03
431.993	0.01
432.196	0.02
432.399	0.02
432.602	0.09
432.805	0.01
433.008	0.02
433.211	-0.06
433.414	0.08
433.616	0.02
433.819	0.04
434.022	-0.03
434.225	0.07
434.428	0.06
434.631	0.12
434.833	0.07
435.036	-0
435.239	0.08
435.442	0.09
435.645	-0.03
435.847	0.04
436.05	0.07
436.253	0.05
436.455	0
436.658	0.03
436.861	0.15
437.063	-0.04
437.266	0.04
437.468	0.02
437.671	0.09
437.874	0.05
438.076	-0.02
438.279	-0.03
438.481	0.01
438.684	-0.05
438.886	0.04
439.089	-0.05
439.291	0.04
439.494	0.06
439.696	-0.01
439.899	0.02
440.101	0.06
440.303	-0.04
440.506	0.05
440.708	0.04
440.91	0.07
441.113	-0.05
441.315	0.08
441.517	0.01
441.72	0.03
441.922	0.01
442.124	-0.08
442.326	0.05
442.529	0.11
442.731	0.02
442.933	0.1
443.135	0.02
443.337	0.03
443.539	0.06
443.742	0.04
443.944	0.06
444.146	-0.02
444.348	0.03
444.55	0.01
444.752	0.01
444.954	-0.06
445.156	0.01
445.358	0.03
445.56	0.08
445.762	0.03
445.964	0.04
446.166	0.02
446.368	-0.01
446.57	0.05
446.772	-0
446.974	0.03
447.175	0.06
447.377	0.01
447.579	0.01
447.781	-0.09
447.983	0.09
448.184	0.02
448.386	0.08
448.588	0.01
448.79	0.04
448.991	-0.01
449.193	-0
449.395	0.06
449.597	0.06
449.798	0.05
450	0.11
450.202	-0.01
450.403	0.02
450.605	0.06
450.806	0.03
451.008	-0.03
451.21	0.01
451.411	0.02
451.613	-0.01
451.814	-0.01
452.016	0.04
452.217	0.02
452.419	0.08
452.62	-0.01
452.821	0.09
453.023	0.1
453.224	0.08
453.426	0.02
453.627	0.03
453.828	0.1
454.03	0.04
454.231	0.03
454.432	-0.02
454.634	0.12
454.835	-0
455.036	-0.04
455.238	0.09
455.439	0.09
455.64	-0.01
455.841	0.02
456.042	0.09
456.244	0.06
456.445	0.01
456.646	-0.03
456.847	-0
457.048	0.1
457.249	0.1
457.45	0.2
457.651	-0.01
457.852	0.08
458.054	0.05
458.255	0.02
458.456	0.03
458.657	0.01
458.858	-0.04
459.058	0.03
459.259	0.08
459.46	-0.01
459.661	-0.01
459.862	0.15
460.063	0.02
460.264	0.05
460.465	-0.01
460.666	0.11
460.866	0.01
461.067	0.04
461.268	0.04
461.469	0.05
461.67	0.08
461.87	0.02
462.071	-0.01
462.272	-0.01
462.473	0.08
462.673	0.07
462.874	-0
463.075	0.05
463.275	0.03
463.476	0.05
463.676	0.08
463.877	0.01
464.078	0.02
464.278	0.07
464.479	-0.01
464.679	0
464.88	0.04
465.08	0.1
465.281	-0.02
465.481	0.01
465.682	0.03
465.882	0.06
466.083	0.06
466.283	0.03
466.483	0.01
466.684	-0.05
466.884	0
467.085	0.03
467.285	0.06
467.485	-0
467.686	-0
467.886	0.01
468.086	0.02
468.286	0.03
468.487	0.03
468.687	-0.02
468.887	0.04
469.087	0.07
469.287	0.01
469.488	0
469.688	0.05
469.888	0.05
470.088	0.03
470.288	0.07
470.488	0.07
470.688	0.02
470.888	0.04
471.088	0.02
471.288	0.05
471.488	0.04
471.688	0.04
471.888	0
472.088	0.09
472.288	0.07
472.488	-0.01
472.688	0.01
472.888	0.02
473.088	0.02
473.288	0.04
473.488	0.05
473.688	0.12
473.887	0.02
474.087	-0
474.287	0.07
474.487	-0.01
474.687	0.05
474.886	-0
475.086	0.03
475.286	0.03
475.486	0.02
475.685	0.03
475.885	0.05
476.085	-0.01
476.284	0.08
476.484	0.02
476.684	0.03
476.883	0.07
477.083	-0
477.282	0.01
477.482	0.09
477.681	0.11
477.881	0.03
478.08	0.02
478.28	-0.02
478.479	0.05
478.679	0.08
478.878	0.03
479.078	0.01
479.277	0.01
479.477	0
479.676	0.07
479.875	0.03
480.075	-0.02
480.274	0.02
480.473	0.04
480.673	-0.01
480.872	0.05
481.071	0.03
481.271	0.02
481.47	0.01
481.669	0.02
481.868	0.01
482.067	0
482.267	0.01
482.466	0.02
482.665	-0.02
482.864	-0.02
483.063	0
483.262	0.04
483.461	0.08
483.661	0.07
483.86	0.02
484.059	0.04
484.258	0.03
484.457	0.01
484.656	0.03
484.855	0.06
485.054	-0.01
485.253	-0.02
485.452	-0.02
485.651	0.01
485.849	0.04
486.048	-0.02
486.247	-0.02
486.446	0.03
486.645	-0.02
486.844	-0.02
487.043	0.02
487.241	0.03
487.44	-0.01
487.639	0.03
487.838	0.04
488.037	0.02
488.235	0.07
488.434	0.03
488.633	0.02
488.831	0.02
489.03	0.04
489.229	0.04
489.427	-0
489.626	0.02
489.825	0.07
490.023	0.02
490.222	-0.01
490.42	0.03
490.619	0.04
490.817	0.02
491.016	0.02
491.214	0.03
491.413	0
491.611	0.02
491.81	0.01
492.008	0.04
492.207	0.04
492.405	0.04
492.604	-0.02
492.802	-0
493	0.02
493.199	-0
493.397	0.01
493.595	0.02
493.794	-0
493.992	0.05
494.19	-0
494.388	0.04
494.587	0.01
494.785	0.03
494.983	-0.01
495.181	0.02
495.379	0.04
495.578	0.01
495.776	0.01
495.974	0.02
496.172	-0
496.37	0.04
496.568	-0.01
496.766	-0.01
496.964	0.03
497.162	0.03
497.36	-0.01
497.558	0.02
497.756	0.03
497.954	0.01
498.152	0
498.35	-0.01
498.548	0.01
498.746	0.02
498.944	-0.02
499.142	-0.02
499.34	-0.02
499.538	0.01
499.736	0.01
499.933	0.06
500.131	0.06
500.329	0.01
500.527	0.03
500.725	0.05
500.922	0.03
501.12	0.03
501.318	0.03
501.516	-0.01
501.713	0.01
501.911	-0
502.109	0.01
502.306	0.03
502.504	0
502.701	0.01
502.899	-0
503.097	0.06
503.294	0.02
503.492	0.01
503.689	0.03
503.887	0.03
504.084	0.06
504.282	0.01
504.479	-0.01
504.677	0.03
504.874	-0.01
505.072	0.03
505.269	0.02
505.466	0.05
505.664	0.03
505.861	-0.01
506.059	-0.01
506.256	0.02
506.453	0
506.651	0.05
506.848	0.04
507.045	0.02
507.242	0.04
507.44	0.02
507.637	0.02
507.834	0.01
508.031	0.01
508.229	-0.02
508.426	0.02
508.623	0.03
508.82	0.01
509.017	-0.01
509.214	0.02
509.411	0.02
509.608	-0
509.805	0.01
510.003	0
510.2	0.01
510.397	0.05
510.594	-0.01
510.791	-0.01
510.988	-0
511.184	0.03
511.381	-0.01
511.578	-0.01
511.775	0.05
511.972	0.01
512.169	0.02
512.366	0.02
512.563	0.02
512.76	0
512.956	0.04
513.153	-0.01
513.35	0.02
513.547	-0.01
513.744	-0
513.94	-0.02
514.137	0.03
514.334	0.01
514.53	-0.01
514.727	0.03
514.924	0.07
515.12	0.01
515.317	-0.02
515.514	0.01
515.71	-0
515.907	0
516.103	0.03
516.3	0.03
516.497	0.02
516.693	0.04
516.89	0.03
517.086	0.01
517.283	0.02
517.479	0.01
517.676	0.01
517.872	0.02
518.068	-0
518.265	0.01
518.461	0.01
518.658	-0.02
518.854	0.03
519.05	-0.01
519.247	0
519.443	0.04
519.639	0.02
519.836	0.02
520.032	0
520.228	0.05
520.424	0.07
520.621	0.03
520.817	-0.01
521.013	0.03
521.209	0.03
521.405	0.06
521.601	0
521.798	0.02
521.994	0.08
522.19	0
522.386	-0.01
522.582	0.01
522.778	0.02
522.974	0.01
523.17	0.01
523.366	0
523.562	0.04
523.758	0
523.954	0
524.15	0.01
524.346	0.03
524.542	0.01
524.738	0.01
524.934	0.01
525.129	-0.07
525.325	0.02
525.521	0.04
525.717	0.02
525.913	0.02
526.109	0.01
526.304	0
526.5	0.04
526.696	0.05
526.892	0
527.087	0.02
527.283	-0.02
527.479	0.02
527.674	0.01
527.87	0.01
528.066	0.02
528.261	0.01
528.457	0.02
528.653	0
528.848	0.02
529.044	0.03
529.239	0.02
529.435	0.04
529.63	0.03
529.826	0.06
530.021	0.01
530.217	0.03
530.412	0.01
530.608	-0.01
530.803	0.01
530.999	0.01
531.194	-0.01
531.389	0.02
531.585	-0.04
531.78	0.01
531.975	0.01
532.171	0.02
532.366	0.01
532.561	0.02
532.757	0
532.952	0.02
533.147	0.03
533.342	0.02
533.538	0.01
533.733	0.03
533.928	0.02
534.123	-0.01
534.318	-0.01
534.513	0.02
534.709	0.03
534.904	0.01
535.099	0.02
535.294	0.01
535.489	0.02
535.684	0.01
535.879	-0.01
536.074	0.02
536.269	0
536.464	0.02
536.659	0.02
536.854	0
537.049	0.04
537.244	0.03
537.439	0.01
537.634	0.04
537.828	0.03
538.023	0.02
538.218	-0.01
538.413	0.03
538.608	-0.01
538.803	0.02
538.997	0.01
539.192	0.05
539.387	0.02
539.582	0.04
539.776	0.02
539.971	0.02
540.166	0.01
540.36	-0
540.555	0.03
540.75	0.02
540.944	0.02
541.139	-0.02
541.334	0.02
541.528	0.03
541.723	0.05
541.917	0.01
542.112	-0.03
542.306	0.01
542.501	-0
542.695	0.02
542.89	0.02
543.084	0.01
543.279	-0
543.473	0.01
543.668	0.02
543.862	0.01
544.056	0.04
544.251	0.01
544.445	0.03
544.64	0.02
544.834	-0.02
545.028	0.02
545.222	0.03
545.417	0.05
545.611	0.04
545.805	0.03
546	0
546.194	0.02
546.388	-0.03
546.582	0.02
546.776	0.02
546.97	0.03
547.165	0.01
547.359	0.02
547.553	-0
547.747	0
547.941	0.04
548.135	0
548.329	0.05
548.523	0.02
548.717	0.01
548.911	0.01
549.105	0
549.299	0.02
549.493	0.04
549.687	0.02
549.881	0.02
550.075	0.01
550.269	-0.01
550.463	0.02
550.657	-0
550.85	0.01
551.044	0.01
551.238	0.03
551.432	0.01
551.626	-0
551.82	0.03
552.013	-0
552.207	0.02
552.401	0.04
552.594	0.01
552.788	-0
552.982	0.02
553.176	0.02
553.369	0.04
553.563	0.02
553.756	-0.01
553.95	0.01
554.144	0.01
554.337	0.06
554.531	0.02
554.724	0.02
554.918	0.03
555.111	0.05
555.305	0.03
555.498	0.08
555.692	0.04
555.885	-0.02
556.079	0.02
556.272	0.01
556.466	0.05
556.659	0.03
556.852	0.03
557.046	0.01
557.239	0.03
557.432	-0
557.626	0
557.819	0.01
558.012	0.03
558.206	0.04
558.399	0.03
558.592	0.03
558.785	-0
558.979	0.05
559.172	0.03
559.365	0.03
559.558	0.03
559.751	0.01
559.944	0.04
560.138	0.02
560.331	0.02
560.524	0.02
560.717	0.02
560.91	0.01
561.103	0.04
561.296	0.03
561.489	0.03
561.682	0.01
561.875	0.06
562.068	0.04
562.261	0.02
562.454	0.07
562.647	0.01
562.84	0.03
563.032	0
563.225	0.03
563.418	0.01
563.611	0.02
563.804	0.05
563.997	-0
564.19	-0.01
564.382	-0.01
564.575	0.01
564.768	0.03
564.961	0.01
565.153	0.01
565.346	0.05
565.539	0.05
565.731	0.05
565.924	0.05
566.117	0.04
566.309	0.03
566.502	0.01
566.695	0.02
566.887	0.03
567.08	-0
567.272	0.02
567.465	0.01
567.657	0.05
567.85	0.03
568.042	0.04
568.235	0.06
568.427	0.03
568.62	0.03
568.812	0.04
569.005	0.02
569.197	-0.02
569.389	0.02
569.582	0.04
569.774	0.04
569.966	-0.01
570.159	0.02
570.351	0.05
570.543	0.01
570.736	0.02
570.928	0
571.12	0.02
571.312	0.01
571.505	-0.02
571.697	0.04
571.889	0.01
572.081	0.03
572.273	0.01
572.465	0.06
572.658	0.02
572.85	0.04
573.042	0.03
573.234	0.02
573.426	0.07
573.618	0
573.81	0.04
574.002	0.07
574.194	0.06
574.386	0
574.578	-0.04
574.77	-0.01
574.962	0.03
575.154	-0
575.346	0.03
575.538	0.04
575.729	0.01
575.921	0.03
576.113	0.05
576.305	0.05
576.497	0.01
576.689	0.03
576.88	0.02
577.072	0.06
577.264	0.04
577.456	0.03
577.647	-0.01
577.839	0.01
578.031	0.07
578.223	0.01
578.414	-0.01
578.606	0.05
578.798	0.05
578.989	0.02
579.181	0.02
579.372	0.02
579.564	0.04
579.755	0.02
579.947	0.05
580.139	0.05
580.33	-0.03
580.522	0.02
580.713	-0.03
580.905	0.06
581.096	0.05
581.287	0.04
581.479	0.03
581.67	0.04
581.862	0.02
582.053	0.01
582.244	-0.01
582.436	0.01
582.627	0.04
582.818	0.01
583.01	0.01
583.201	0.06
583.392	0.06
583.583	0.03
583.775	0.03
583.966	0.02
584.157	0.04
584.348	0.05
584.54	-0.02
584.731	0.04
584.922	0.03
585.113	0.02
585.304	0.07
585.495	0.08
585.686	0.06
585.877	0.07
586.068	0.04
586.259	0.05
586.45	0.05
586.641	0.04
586.832	-0.02
587.023	0.05
587.214	0.06
587.405	0.05
587.596	0.03
587.787	0.06
587.978	0.07
588.169	0.02
588.36	0.01
588.551	0.06
588.742	0.02
588.932	0.06
589.123	0.04
589.314	0.06
589.505	0.04
589.696	0.06
589.886	0.02
590.077	-0
590.268	0.05
590.458	0.02
590.649	0.02
590.84	0.07
591.03	0.02
591.221	0.03
591.412	0.02
591.602	0.06
591.793	0.09
591.984	0.02
592.174	0.04
592.365	0.12
592.555	0.05
592.746	0.08
592.936	0.07
593.127	0.06
593.317	0.11
593.508	0.04
593.698	0.05
593.889	0.08
594.079	0.07
594.269	0.05
594.46	0.09
594.65	0.07
594.84	0.08
595.031	0.04
595.221	0.05
595.411	0.03
595.602	0.08
595.792	0.08
595.982	0.09
596.172	0.13
596.363	0.09
596.553	0.09
596.743	0.09
596.933	0.09
597.123	0.12
597.314	0.05
597.504	0.07
597.694	0.1
597.884	0.1
598.074	0.08
598.264	0.06
598.454	0.08
598.644	0.07
598.834	0.07
599.024	0.05
599.214	0.08
599.404	0.11
599.594	0.08
599.784	0.07
599.974	0.11
600.164	0.12
600.354	0.06
600.544	0.05
600.734	0.12
600.924	0.12
601.114	0.08
601.303	0.1
601.493	0.1
601.683	0.09
601.873	0.12
602.063	0.06
602.252	0.13
602.442	0.06
602.632	0.09
602.821	0.09
603.011	0.15
603.201	0.11
603.39	0.11
603.58	0.11
603.77	0.15
603.959	0.14
604.149	0.14
604.339	0.12
604.528	0.15
604.718	0.17
604.907	0.14
605.097	0.14
605.286	0.13
605.476	0.17
605.665	0.18
605.855	0.12
606.044	0.18
606.234	0.16
606.423	0.12
606.612	0.14
606.802	0.17
606.991	0.18
607.181	0.17
607.37	0.1
607.559	0.17
607.749	0.16
607.938	0.19
608.127	0.18
608.316	0.19
608.506	0.2
608.695	0.22
608.884	0.17
609.073	0.21
609.263	0.22
609.452	0.21
609.641	0.24
609.83	0.18
610.019	0.19
610.208	0.21
610.397	0.22
610.586	0.27
610.775	0.21
610.965	0.23
611.154	0.23
611.343	0.3
611.532	0.24
611.721	0.23
611.91	0.24
612.099	0.27
612.287	0.29
612.476	0.25
612.665	0.3
612.854	0.25
613.043	0.32
613.232	0.3
613.421	0.27
613.61	0.34
613.798	0.32
613.987	0.35
614.176	0.36
614.365	0.38
614.554	0.35
614.742	0.38
614.931	0.35
615.12	0.38
615.309	0.36
615.497	0.4
615.686	0.35
615.875	0.43
616.063	0.38
616.252	0.4
616.44	0.44
616.629	0.43
616.818	0.45
617.006	0.44
617.195	0.46
617.383	0.45
617.572	0.44
617.76	0.47
617.949	0.46
618.137	0.52
618.326	0.54
618.514	0.48
618.703	0.5
618.891	0.61
619.079	0.5
619.268	0.59
619.456	0.54
619.644	0.61
619.833	0.57
620.021	0.6
620.209	0.52
620.398	0.63
620.586	0.65
620.774	0.68
620.962	0.66
621.151	0.73
621.339	0.7
621.527	0.65
621.715	0.66
621.903	0.73
622.092	0.72
622.28	0.79
622.468	0.77
622.656	0.8
622.844	0.78
623.032	0.82
623.22	0.81
623.408	0.92
623.596	0.9
623.784	0.94
623.972	0.87
624.16	0.89
624.348	0.97
624.536	0.96
624.724	0.95
624.912	0.99
625.1	1.04
625.288	1.01
625.476	0.99
625.664	1.05
625.851	1.08
626.039	1.11
626.227	1.13
626.415	1.17
626.603	1.13
626.79	1.19
626.978	1.26
627.166	1.28
627.354	1.25
627.541	1.25
627.729	1.27
627.917	1.37
628.104	1.4
628.292	1.34
628.48	1.42
628.667	1.4
628.855	1.51
629.042	1.56
629.23	1.55
629.418	1.54
629.605	1.61
629.793	1.56
629.98	1.64
630.168	1.63
630.355	1.68
630.543	1.79
630.73	1.75
630.917	1.82
631.105	1.92
631.292	1.88
631.48	1.9
631.667	2.03
631.854	1.98
632.042	1.98
632.229	1.99
632.416	2.09
632.604	2.13
632.791	2.09
632.978	2.2
633.165	2.24
633.353	2.29
633.54	2.32
633.727	2.3
633.914	2.39
634.101	2.37
634.289	2.51
634.476	2.44
634.663	2.5
634.85	2.6
635.037	2.59
635.224	2.57
635.411	2.69
635.598	2.75
635.785	2.77
635.972	2.79
636.159	2.82
636.346	2.93
636.533	2.88
636.72	3.03
636.907	3.05
637.094	3.05
637.281	3.04
637.468	3.17
637.655	3.2
637.842	3.3
638.029	3.35
638.215	3.4
638.402	3.43
638.589	3.44
638.776	3.55
638.963	3.54
639.149	3.77
639.336	3.76
639.523	3.77
639.709	3.81
639.896	3.89
640.083	3.96
640.27	4.08
640.456	4.08
640.643	4.18
640.829	4.12
641.016	4.28
641.203	4.29
641.389	4.48
641.576	4.49
641.762	4.57
641.949	4.57
642.135	4.73
642.322	4.84
642.508	4.84
642.695	5.01
642.881	5.02
643.068	5.09
643.254	5.26
643.441	5.25
643.627	5.44
643.813	5.4
644	5.63
644.186	5.59
644.372	5.81
644.559	5.88
644.745	5.93
644.931	6.02
645.118	6.19
645.304	6.31
645.49	6.43
645.676	6.47
645.862	6.58
646.049	6.79
646.235	6.79
646.421	7.07
646.607	7.27
646.793	7.18
646.979	7.23
647.165	7.42
647.352	7.58
647.538	7.68
647.724	7.85
647.91	7.9
648.096	8.05
648.282	8.36
648.468	8.43
648.654	8.51
648.84	8.61
649.026	8.85
649.212	8.85
649.397	9.09
649.583	9.3
649.769	9.45
649.955	9.47
650.141	9.84
650.327	9.77
650.513	10.09
650.698	10.19
650.884	10.17
651.07	10.59
651.256	10.57
651.442	10.79
651.627	10.75
651.813	11.15
651.999	11.15
652.184	11.28
652.37	11.6
652.556	11.76
652.741	11.86
652.927	11.84
653.113	12.32
653.298	12.41
653.484	12.61
653.669	12.74
653.855	12.83
654.04	13.13
654.226	13.16
654.412	13.35
654.597	13.35
654.782	13.65
654.968	13.72
655.153	13.96
655.339	14.1
655.524	14.27
655.71	14.36
655.895	14.61
656.08	14.71
656.266	15.03
656.451	14.81
656.636	15.03
656.822	15.11
657.007	15.37
657.192	15.53
657.378	15.57
657.563	15.45
657.748	15.67
657.933	15.9
658.118	15.5
658.304	16.03
658.489	16.04
658.674	16.06
658.859	15.9
659.044	15.83
659.229	15.89
659.414	15.86
659.599	15.89
659.785	15.69
659.97	15.63
660.155	15.56
660.34	15.58
660.525	15.35
660.71	15.18
660.895	15.07
661.08	14.82
661.264	14.49
661.449	14.37
661.634	13.87
661.819	13.86
662.004	13.37
662.189	13.26
662.374	13.01
662.559	12.51
662.743	12.23
662.928	12.01
663.113	11.68
663.298	11.45
663.483	11.02
663.667	10.67
663.852	10.4
664.037	10.1
664.221	9.91
664.406	9.56
664.591	9.23
664.775	8.88
664.96	8.62
665.145	8.23
665.329	8.02
665.514	7.73
665.698	7.35
665.883	7.06
666.068	6.93
666.252	6.65
666.437	6.42
666.621	6.23
666.806	5.98
666.99	5.74
667.174	5.6
667.359	5.44
667.543	5.2
667.728	5.02
667.912	4.79
668.096	4.56
668.281	4.4
668.465	4.37
668.649	4.17
668.834	3.89
669.018	3.91
669.202	3.73
669.387	3.56
669.571	3.59
669.755	3.31
669.939	3.27
670.124	3.12
670.308	3.04
670.492	2.94
670.676	2.85
670.86	2.72
671.044	2.64
671.228	2.55
671.413	2.43
671.597	2.35
671.781	2.28
671.965	2.28
672.149	2.12
672.333	2.07
672.517	2.03
672.701	2
672.885	1.89
673.069	1.8
673.253	1.86
673.437	1.71
673.621	1.59
673.804	1.62
673.988	1.54
674.172	1.48
674.356	1.41
674.54	1.41
674.724	1.41
674.908	1.28
675.091	1.35
675.275	1.24
675.459	1.22
675.643	1.23
675.826	1.14
676.01	1.06
676.194	1.04
676.377	1.05
676.561	1.05
676.745	0.98
676.928	0.96
677.112	1
677.296	0.85
677.479	0.83
677.663	0.79
677.846	0.77
678.03	0.8
678.213	0.7
678.397	0.76
678.58	0.66
678.764	0.69
678.947	0.59
679.131	0.63
679.314	0.67
679.498	0.6
679.681	0.64
679.865	0.71
680.048	0.59
680.231	0.54
680.415	0.5
680.598	0.47
680.781	0.51
680.965	0.47
681.148	0.52
681.331	0.42
681.514	0.46
681.698	0.44
681.881	0.47
682.064	0.42
682.247	0.41
682.43	0.34
682.614	0.44
682.797	0.42
682.98	0.41
683.163	0.27
683.346	0.37
683.529	0.31
683.712	0.29
683.895	0.34
684.078	0.28
684.261	0.28
684.444	0.32
684.627	0.33
684.81	0.25
684.993	0.25
685.176	0.29
685.359	0.26
685.542	0.22
685.725	0.29
685.908	0.29
686.091	0.23
686.274	0.33
686.457	0.26
686.639	0.24
686.822	0.28
687.005	0.25
687.188	0.22
687.371	0.29
687.553	0.27
687.736	0.25
687.919	0.3
688.102	0.27
688.284	0.19
688.467	0.18
688.65	0.2
688.832	0.17
689.015	0.18
689.197	0.17
689.38	0.28
689.563	0.24
689.745	0.15
689.928	0.11
690.11	0.17
690.293	0.25
690.475	0.09
690.658	0.24
690.84	0.15
691.023	0.14
691.205	0.17
691.388	0.15
691.57	0.19
691.752	0.16
691.935	0.09
692.117	0.09
692.3	0.18
692.482	0.09
692.664	0.14
692.847	0.15
693.029	0.21
693.211	0.15
693.393	0.12
693.576	0.1
693.758	0.21
693.94	0.12
694.122	0.09
694.304	0.12
694.487	0.09
694.669	0.18
694.851	0.09
695.033	0.1
695.215	0.09
695.397	0.08
695.579	0.14
695.761	0.03
695.943	0.03
696.125	0.19
696.308	0.19
696.49	-0.01
696.671	0.2
696.853	0.09
697.035	0.22
697.217	0.06
697.399	0.13
697.581	0.06
697.763	0.08
697.945	0.07
698.127	0.12
698.309	0.11
698.491	0.13
698.672	0.18
698.854	0.16
699.036	0.17
699.218	0.07
699.399	0.11
699.581	0.12
699.763	0.09
699.945	0.06
700.126	0.06
700.308	0.09
700.49	0.07
700.671	0.01
700.853	0
701.035	0.08
701.216	0.06
701.398	0.03
701.579	0.11
701.761	0.1
701.943	0.03
702.124	0.04
702.306	0.07
702.487	0.18
702.669	0.14
702.85	0.09
703.031	-0
703.213	0.13
703.394	0.17
703.576	0.05
703.757	0.18
703.938	0.14
704.12	0.22
704.301	0.06
704.483	0.05
704.664	0.09
704.845	0.19
705.026	0.09
705.208	0.1
705.389	0.04
705.57	0.15
705.751	0.05
705.933	0.04
706.114	0.14
706.295	0.09
706.476	0.02
706.657	0.19
706.838	0.18
707.02	0.1
707.201	0.04
707.382	0.07
707.563	0.17
707.744	-0.01
707.925	0.03
708.106	0.03
708.287	0.11
708.468	0.17
708.649	0.05
708.83	0.12
709.011	0.04
709.192	0.08
709.373	0.03
709.554	0.07
709.734	0.12
709.915	0.16
710.096	0.03
710.277	-0.02
710.458	0.1
710.639	0.07
710.819	0.01
711	0.06
711.181	0.11
711.362	0.03
711.542	0.07
711.723	0.01
711.904	0.14
712.085	0.04
712.265	0.09
712.446	0.02
712.627	0.09
712.807	0.08
712.988	0.07
713.168	0.05
713.349	0.09
713.53	-0.01
713.71	0.06
713.891	0.03
714.071	0.11
714.252	0.11
714.432	0.09
714.613	-0.05
714.793	0.09
714.974	0.17
715.154	0.1
715.334	0.06
715.515	0.14
715.695	-0.02
715.876	0.12
716.056	0.04
716.236	0.07
716.417	-0
716.597	0
716.777	0.16
716.957	0.09
717.138	0.02
717.318	0.06
717.498	-0.02
717.678	-0
717.859	0.09
718.039	0
718.219	0.05
718.399	0.09
718.579	-0.04
718.759	0.07
718.939	0.08
719.12	0.09
719.3	0.08
719.48	-0.07
719.66	0
719.84	0.13
720.02	0.11
720.2	-0.02
720.38	0.03
720.56	0.15
720.74	0.03
720.92	0.05
721.1	0.13
721.279	0.12
721.459	0.02
721.639	-0.07
721.819	0.08
721.999	-0.02
722.179	0.19
722.359	-0.02
722.538	0.02
722.718	0.16
722.898	0.08
723.078	0.02
723.257	-0
723.437	0.07
723.617	0.08
723.797	0
723.976	0.08
724.156	0.07
724.336	0.1
724.515	0.12
724.695	-0.08
724.874	0.03
725.054	0.13
725.234	0.02
725.413	0.06
725.593	0.02
725.772	0.09
725.952	0.03
726.131	-0.01
726.311	0.13
726.49	0.1
726.67	0.04
726.849	0.07
727.028	0.07
727.208	0.01
727.387	0.1
727.567	-0
727.746	0.13
727.925	-0.03
728.105	-0.03
728.284	0.09
728.463	-0.18
728.643	0.19
728.822	-0.04
729.001	0.01
729.18	0.06
729.359	0.19
729.539	-0
729.718	0.08
729.897	0.11
730.076	0.04
730.255	-0.06
730.434	0.14
730.614	0.07
730.793	0.18
730.972	0.03
731.151	0.08
731.33	0.16
731.509	0.08
731.688	0.09
731.867	0.02
732.046	-0.02
732.225	0.32
732.404	0.02
732.583	-0.03
732.762	-0.01
732.941	0.11
733.12	0.06
733.298	0.17
733.477	0.09
733.656	0.12
733.835	0.01
734.014	0.16
734.193	0.1
734.371	0.05
734.55	0.15
734.729	0.04
734.908	0.18
735.086	0.13
735.265	0.1
735.444	-0.08
735.623	-0.05
735.801	-0.02
735.98	0.07
736.159	0.06
736.337	0.08
736.516	0.04
736.694	0.07
736.873	-0.04
737.052	0.16
737.23	0.17
737.409	0.01
737.587	0.23
737.766	-0.08
737.944	-0.04
738.123	0.14
738.301	0.03
738.479	0.07
738.658	0.11
738.836	-0.1
739.015	0.08
739.193	0.25
739.371	0
739.55	0.01
739.728	0.09
739.906	0.19
740.085	0.29
740.263	0.04
740.441	-0.17
740.62	0.25
740.798	0.18
740.976	-0.03
741.154	-0.1
741.332	0.21
741.511	0.03
741.689	0.13
741.867	0.13
742.045	0.12
742.223	0.11
742.401	0.01
742.579	-0.02
742.757	0.15
742.935	-0.14
743.114	-0.01
743.292	0.09
743.47	0.05
743.648	0.09
743.826	-0.09
744.004	0.14
744.181	0.16
744.359	0.05
744.537	-0.01
744.715	0.09
744.893	-0
745.071	0.07
745.249	-0.08
745.427	0.08
745.605	0.08
745.782	0.18
745.96	0.12
746.138	0.13
746.316	0.08
746.493	0.03
746.671	0.05
746.849	0.04
747.027	0.15
747.204	-0.04
747.382	0.09
747.56	-0.07
747.737	0.01
747.915	-0.03
748.093	0.14
748.27	-0.01
748.448	0.12
748.625	-0.03
748.803	0.03
748.98	0.01
749.158	0.13
749.335	0.11
749.513	0.11
749.69	-0.02
749.868	0.07
750.045	-0.01
750.223	-0.03
750.4	-0.22
750.578	0.21
750.755	0.11
750.932	-0.09
751.11	0.14
751.287	-0.21
751.464	0.15
751.642	0.06
751.819	0.17
751.996	0.08
752.173	0.02
752.351	-0.01
752.528	0.18
752.705	-0.08
752.882	0.01
753.06	0.05
753.237	0.07
753.414	0.3
753.591	0.21
753.768	0.11
753.945	0.01
754.122	-0.09
754.299	0.05
754.476	-0.01
754.654	0.05
754.831	0.11
755.008	0.02
755.185	0.07
755.362	-0.03
755.539	0.09
755.716	0.04
755.892	-0.01
756.069	0.08
756.246	0.02
756.423	0.12
756.6	0.17
756.777	0.06
756.954	0.11
757.131	0
757.307	-0.02
757.484	-0.08
757.661	0.06
757.838	-0.06
758.015	-0.18
758.191	0.18
758.368	0.09
758.545	0.21
758.721	0.08
758.898	0
759.075	0.21
759.251	0.19
759.428	0.04
759.605	-0.02
759.781	0.13
759.958	-0
760.134	0.1
760.311	0.01
760.488	0.24
760.664	0.14
760.841	0.06
761.017	-0.05
761.194	0.06
761.37	0.14
761.547	0.12
761.723	0.06
761.899	0.24
762.076	0.02
762.252	-0.13
762.429	-0.05
762.605	0.22
762.781	-0.05
762.958	0.05
763.134	0.17
763.31	0.07
763.486	0.18
763.663	-0.22
763.839	0.18
764.015	-0.08
764.191	-0
764.368	0.09
764.544	-0.02
764.72	0.07
764.896	0.25
765.072	0.07
765.248	-0.01
765.425	-0
765.601	0.07
765.777	0.03
765.953	-0.2
766.129	0.02
766.305	0.07
766.481	0.08
766.657	0.08
766.833	0.24
767.009	-0.03
767.185	0.03
767.361	0.11
767.537	-0.13
767.713	0.23
767.889	-0.06
768.065	-0
768.24	-0.24
768.416	0.15
768.592	0.08
768.768	0.16
768.944	0.18
769.12	-0.05
769.295	-0.02
769.471	0.09
769.647	0.13
769.823	0.2
769.998	-0.13
770.174	-0.02
770.35	0.45
770.525	0.41
770.701	0.19
770.877	0.14
771.052	-0.12
771.228	0.04
771.403	0.08
771.579	0.24
771.755	0.45
771.93	0.02
772.106	0
772.281	-0.28
772.457	0.07
772.632	0.27
772.808	-0.01
772.983	-0.03
773.159	-0.09
773.334	0.2
773.509	0.04
773.685	0.03
773.86	0.4
774.036	0.09
774.211	-0.09
774.386	-0.04
774.562	0.03
774.737	0.22
774.912	-0.03
775.087	0.21
775.263	0.07
775.438	0.03
775.613	0.06
775.788	0.01
775.964	0.21
776.139	0.44
776.314	0.08
776.489	0.04
776.664	0.11
776.839	-0.17
777.014	0.11
777.19	0.28
777.365	0.3
777.54	0.15
777.715	0
777.89	0.02
778.065	0.06
778.24	0.06
778.415	0.27
778.59	-0.12
778.765	-0.11
778.94	0.16
779.115	-0.05
779.289	0.05
779.464	0.1
779.639	0.13
779.814	-0.02
779.989	-0.05
780.164	0.2
780.339	0.11
780.513	-0.09
780.688	-0.05
780.863	-0.06
781.038	0.08
781.212	-0.09
781.387	-0.01
781.562	0.35
781.737	-0.1
781.911	0.12
782.086	-0.01
782.261	0.08
782.435	0.31
782.61	0.1
782.784	0.01
782.959	0.25
783.134	-0
783.308	-0.18
783.483	0.14
783.657	0.41
783.832	0.26
784.006	-0.18
784.181	0.25
784.355	0.25
784.53	-0.08
784.704	-0.02
784.878	0.26
785.053	0.25
785.227	0.19
785.402	0.39
785.576	-0.2
785.75	0.03
785.925	0.15
786.099	0.08
786.273	0.2
786.448	0.22
786.622	0.28
786.796	-0.13
786.97	0.08
787.145	0.63
787.319	-0.1
787.493	-0.03
787.667	-0.33
787.841	-0.08
788.015	0.27
788.19	-0.11
788.364	-0.02
788.538	0.09
788.712	0.14
788.886	0.14
789.06	0.29
789.234	0.09
789.408	-0.08
789.582	0.02
789.756	-0.08
789.93	-0.14
790.104	0.02
790.278	-0.13
790.452	-0.23
790.626	0.23
790.8	-0.1
790.973	0.27
791.147	0.28
791.321	0.3
791.495	0.42
791.669	0.19
791.843	0.17
792.016	-0.02
792.19	0.49
792.364	-0.11
792.538	0.55
792.711	0.42
792.885	0.07
793.059	-0.22
793.233	-0.35
793.406	0.37
793.58	0.18
793.754	0.18
793.927	0.07
794.101	0.39
794.274	0.1
794.448	0.3
794.622	-0.09
794.795	0.21
794.969	-0.03
795.142	0.31
795.316	-0.13
795.489	-0.05
795.663	0.25
795.836	0.04
796.009	-0.17
796.183	0.35
796.356	0.07
796.53	0.02
796.703	-0.03
796.876	0.45
797.05	0.07
797.223	0.13
797.396	0.19
797.57	0.21
797.743	0.6
797.916	0.23
798.09	0.17
798.263	0.4
798.436	0.22
798.609	-0.06
798.782	-0.14
798.956	0.26
799.129	0.11
799.302	0.03
799.475	-0.06
799.648	0.12
799.821	-0.06
799.994	0.01
800.167	-0.54
800.34	0.17
800.514	0.24
800.687	-0.38
800.86	-0.01
801.033	0
801.206	0.21
801.379	-0.25
801.551	0.47
801.724	0.46
801.897	0.73
802.07	-0.34
802.243	-0.5
802.416	0
802.589	-0.01
802.762	0.15
802.935	0.18
803.107	0.05
803.28	0.24
803.453	0.35
803.626	-0.05
803.798	0.28
803.971	-0.14
804.144	0.3
804.317	0.26
804.489	0.4
804.662	0.3
804.835	0.06
805.007	-0.11
805.18	0.17
805.353	0.1
805.525	-0.1
805.698	0.27
805.87	0.71
806.043	0.6
806.215	-0.15
806.388	-0.32
806.56	0.13
806.733	0.44
806.905	0.3
807.078	-0.21
807.25	-0.12
807.423	0.24
807.595	-0.1
807.768	0.2
807.94	0.45
808.112	0.13
808.285	0.12
808.457	0.01
808.629	0.21
808.802	0.28
808.974	0.04
809.146	-0.04
809.318	-0.25
809.491	0.13
809.663	0.3
809.835	-0.26
810.007	-0.06
810.18	0.05
810.352	-0.3
810.524	-0.07
810.696	0.27
810.868	0.6
811.04	0.01
811.212	-0.21
811.384	0.38
811.556	0.21
811.728	0.09
811.901	0.67
812.073	-0.06
812.245	0.36
812.417	0.18
812.589	-0.39
812.76	-0.02
812.932	0.11
813.104	0.48
813.276	0.04
813.448	0.07
813.62	0.21
813.792	0.26
813.964	0.23
814.136	0.01
814.307	-0.06
814.479	-0.05
814.651	0.02
814.823	0.97
814.995	0.27
815.166	0.3
815.338	-0.26
815.51	-0.65
815.681	0.97
815.853	0.06
816.025	-0.02
816.196	0.85
816.368	0.28
816.54	-0.36
816.711	0.11
816.883	0.4
817.054	1.01
817.226	-0.6
817.398	0.14
817.569	-0.03
817.741	-0.01
817.912	0.03
818.084	-0.12
818.255	0.55
818.426	-0.15
818.598	0.02
818.769	-0.18
818.941	0.59
819.112	0.81
819.283	0.41
819.455	-0.04
819.626	0.24
819.798	0.28
819.969	0.16
820.14	0.27
820.311	0.05
820.483	0.13
820.654	0.25
820.825	0.23
820.996	0.16
821.168	-0.13
821.339	0.29
821.51	-0.23
821.681	-0.01
821.852	0.25
822.023	-0.33
822.195	-0.21
822.366	0.83
822.537	0.1
822.708	-0.04
822.879	-0.27
823.05	0.47
823.221	-0.23
823.392	0.72
823.563	0.55
823.734	0.09
823.905	0.19
824.076	-0.34
824.247	-0.08
824.418	0.06
824.589	0.88
824.759	-0.14
824.93	0.39
825.101	0.21
825.272	0.43
825.443	0.64
825.614	0.48
825.784	-0.38
825.955	1.01
826.126	0.73
826.297	0.27
826.467	1.11
826.638	0.89
826.809	-0.74
826.98	0.32
827.15	-0.24
827.321	0.25
827.492	0.7
827.662	0.21
827.833	0.76
828.003	0.04
828.174	-0.61
828.345	-0.11
828.515	0.89
828.686	0.25
828.856	0.28
829.027	0.03
829.197	-0.09
829.368	0.48
829.538	-0.25
829.709	-0.45
829.879	0.32
830.049	0.11
830.22	-0.06
830.39	0.1
830.56	0.84
830.731	-0.05
830.901	-0.27
831.072	-0.37
831.242	0.4
831.412	0.29
831.582	0.49
831.753	-0.9
831.923	0.51
832.093	0.17
832.263	0.31
832.434	0.04
832.604	0.08
832.774	-0.28
832.944	0.37
833.114	-0.08
833.284	0.41
833.454	-0.77
833.624	0.15
833.795	-0.33
833.965	0.25
834.135	0.17
834.305	-0.38
834.475	-0.75
834.645	-0.06
834.815	-0.65
834.985	-0.57
835.155	-0.28
835.325	0.89
835.494	0.36
835.664	0.21
835.834	-0.28
836.004	0.26
836.174	0.04
836.344	-0.24
836.514	-0.45
836.684	-0.03
836.853	0.33
837.023	0.51
837.193	-0.18
837.363	0.27
837.532	0.85
837.702	-0.05
837.872	0.04
838.041	0.89
838.211	1.76
838.381	-0.32
838.55	0.75
838.72	2.06
838.89	1.27
839.059	0.57
839.229	-0.68
839.398	1.1
839.568	-0.12
839.738	0.37
839.907	1.15
840.077	0.19
840.246	0.35
840.416	-0.42
840.585	-0.2
840.755	1.49
840.924	0.88
841.093	-0.71
841.263	0.23
841.432	0.63
841.602	-0.07
841.771	-0.53
841.94	0.39
842.11	2.18
842.279	1.61
842.448	-0.42
842.617	-0.88
842.787	0.83
842.956	-0.21
843.125	-0.05
843.294	-0.24
843.464	1.17
843.633	0.42
843.802	0.13
843.971	-0.23
844.14	0.51
844.309	1.27
844.479	0.21
844.648	-0.69
844.817	-0.22
844.986	0.62
845.155	-0.12
845.324	-0.15
845.493	-0.34
845.662	-0.62
845.831	0.43
846	0.44
846.169	0.51
846.338	1.43
846.507	0.55
846.676	0.98
846.844	-0.36
847.013	0.6
847.182	-0.07
847.351	0.48
847.52	0.79
847.689	1.15
847.858	-0.03
848.026	0.6
848.195	0.04
848.364	-0.3
848.533	0.23
848.701	0.06
848.87	1.01
849.039	1.88
849.207	0.79
849.376	0.91
849.545	1.55
849.713	-0.08
849.882	0.12
850.051	0.25
850.219	0.53
850.388	0.56
850.556	-0.6
850.725	-0.74
850.893	0.65
851.062	0.66
851.23	0.45
851.399	-0.54
851.567	-0.34
851.736	-0.02
851.904	0.21
852.073	0.13
852.241	1.58
852.41	0.59
852.578	0.07
852.746	0.68
852.915	1.02
853.083	0.99
853.251	-0.4
853.42	-1.01
853.588	0.18
853.756	1.54
853.924	0.81
854.093	0.35
854.261	0.03
854.429	-0.22
854.597	0.86
854.765	-0.55
854.934	0.08
855.102	2.39
855.27	0.63
855.438	0.08
855.606	1.46
855.774	2.36
855.942	-0.81
856.11	-2.15
856.278	0.27
856.446	1.93
856.614	-0.41
856.782	-1.35
856.95	1.62
857.118	1.33
857.286	0.27
857.454	-0.49
857.622	1.65
857.79	0.52
857.958	-0.32
858.126	0.19
858.294	-1.88
858.462	0.6
858.629	-0.16
858.797	-0.51
858.965	1.07
859.133	0.26
859.301	0.6
859.468	1.02
859.636	-0.26
859.804	1.72
859.971	1.33
860.139	-0.35
860.307	0.7
860.474	1.6
860.642	-0.91
860.81	-0.1
860.977	0.15
861.145	1.12
861.313	0
861.48	-0.1
861.648	1.6
861.815	0.62
861.983	-0.52
862.15	-0.02
862.318	0.4
862.485	1.44
862.653	-0.09
862.82	-0.29
862.988	0.76
863.155	0.42
863.322	-0.89
863.49	-0.39
863.657	0.19
863.824	1.69
863.992	-0.21
864.159	0
864.326	2.5
864.494	0.73
864.661	2.65
864.828	-0.69
864.996	1.48
865.163	2.31
865.33	0.65
865.497	-0.87
865.664	-0.1
865.832	-0.95
865.999	0.59
866.166	-1.51
866.333	-0.22
866.5	0.29
866.667	0.3
866.834	0.63
867.001	1.82
867.168	-1.69
867.335	0.85
867.502	-1.85
867.669	0.12
867.836	2.14
868.003	0.03
868.17	1.43
868.337	1.08
868.504	3.09
868.671	-0.44
868.838	0.64
869.005	-0.18
869.172	1.82
869.339	0.02
869.505	1.55
869.672	0.65
869.839	1.81
870.006	1.75
870.173	-1.87
870.339	0.92
870.506	3.36
870.673	-0.39
870.84	2.75
871.006	1.35
871.173	-0.68
871.34	0.96
871.506	-0.24
871.673	1.58
871.839	-1.24
872.006	0.59
872.173	-0.44
872.339	1.01
872.506	1.92
872.672	1.18
872.839	-2
873.005	0.88
873.172	4.2
873.338	1.17
873.505	0.1
873.671	-0.05
873.838	1.12
874.004	-0.32
874.171	0.04
874.337	0.79
874.503	1.72
874.67	-0.58
874.836	-1.31
875.002	2.18
875.169	1.67
875.335	0.59
875.501	-0.49
875.668	1.01
875.834	1.03
876	-0.51
876.166	0.54
876.332	-0.32
876.499	3.56
876.665	0.02
876.831	0.46
876.997	2.67
877.163	1.64
877.329	-1.04
877.495	1.06
877.662	1.12
877.828	0.79
877.994	-0.88
878.16	-2.42
878.326	-1.07
878.492	0.89
878.658	0.11
878.824	0.41
878.99	1.23
879.156	2.2
879.322	3.9
879.487	1.61
879.653	0.99
879.819	0.54
879.985	0.93
880.151	0.3
880.317	-0.17
880.483	1.29
880.648	3.05
880.814	-1.68
880.98	1.16
881.146	-3.11
881.312	-0.97
881.477	-1.46
881.643	1.96
881.809	2.6
881.974	2.5
882.14	-1.31
882.306	0.66
882.471	3.73
882.637	-1.46
882.803	3.45
882.968	2.41
883.134	2.96
883.299	-0.62
883.465	1.01
883.63	1.46
883.796	0.21
883.961	1.66
884.127	1.47
884.292	-3.51
884.458	-1.75
884.623	-1.75
