Data from Apollo_Calib_20240827__AbsoluteIrradiance__152__01-41-03-119.txt Node

Date: Wed Aug 28 01:41:03 BST 2024
User: biology
Spectrometer: FLMT08252
Trigger mode: 0
Integration Time (sec): 5.000000E-1
Scans to average: 5
Electric dark correction enabled: true
Nonlinearity correction enabled: false
Boxcar width: 0
XAxis mode: Wavelengths
Number of Pixels in Spectrum: 3648
>>>>>Begin Spectral Data<<<<<
179.588	-0
179.809	-0
180.03	-0
180.251	-0
180.473	-0
180.694	0
180.915	0
181.136	-0
181.357	0
181.578	-0
181.799	0
182.02	-0
182.241	0
182.462	-0
182.683	0
182.904	-0
183.125	-0
183.346	-0
183.567	0
183.788	-0
184.009	-0
184.23	-0
184.451	0
184.672	-0
184.892	-0
185.113	-0
185.334	0
185.555	-0
185.776	-0
185.996	0
186.217	0
186.438	0
186.659	-0
186.879	0
187.1	-0
187.321	-0
187.541	-0
187.762	-0
187.983	-0
188.203	-0
188.424	-0
188.644	-0
188.865	-0
189.086	-0
189.306	-0
189.527	0
189.747	0
189.968	-0
190.188	0
190.409	-0
190.629	0
190.849	-0
191.07	-0
191.29	0
191.511	0
191.731	-0
191.951	-0
192.172	-0
192.392	-0
192.612	-0
192.833	-0
193.053	-0
193.273	0
193.493	-0
193.714	-0
193.934	0
194.154	0
194.374	-0
194.594	0
194.815	0
195.035	-0
195.255	0
195.475	-0
195.695	0
195.915	0
196.135	0
196.355	0
196.575	0
196.795	-0
197.015	-0
197.235	-0
197.455	-0
197.675	-0
197.895	-0
198.115	-0
198.335	-0
198.555	0
198.775	-0
198.995	-0
199.214	0
199.434	-0
199.654	-0
199.874	-0
200.094	0.66
200.313	-0.63
200.533	-0.3
200.753	-0.98
200.973	0.37
201.192	0.54
201.412	-1
201.632	-0.37
201.851	0.2
202.071	-0.71
202.291	-0.3
202.51	-1.01
202.73	-0.28
202.95	0.15
203.169	-0.59
203.389	-0.47
203.608	-0.19
203.828	-0.67
204.047	-0.14
204.267	0.4
204.486	0.15
204.706	-0.03
204.925	-0.19
205.145	-0.65
205.364	0.36
205.583	0.45
205.803	-0.29
206.022	-0.17
206.242	-0.37
206.461	-0.14
206.68	-0.15
206.9	0.23
207.119	0.17
207.338	0.21
207.557	-0.31
207.777	-0.38
207.996	-0.44
208.215	0.58
208.434	-0.32
208.654	-0.85
208.873	-0.15
209.092	0.39
209.311	-0.29
209.53	-0.24
209.749	-0.26
209.968	-0.4
210.187	-0.24
210.407	-0.42
210.626	-0.12
210.845	0.11
211.064	-0.13
211.283	-0.45
211.502	-0.04
211.721	-0.03
211.94	-0.01
212.159	-0.1
212.377	0.2
212.596	0.14
212.815	0.08
213.034	-0.11
213.253	0.2
213.472	-0.08
213.691	-0.26
213.91	-0.37
214.128	-0.15
214.347	0.06
214.566	-0.3
214.785	-0.45
215.003	0.18
215.222	-0.05
215.441	-0.12
215.66	-0.41
215.878	-0.02
216.097	0.21
216.316	-0.21
216.534	-0.17
216.753	0.03
216.972	-0.41
217.19	-0.01
217.409	-0.12
217.627	-0.24
217.846	-0.13
218.064	-0.05
218.283	-0.2
218.501	0.29
218.72	0.08
218.938	-0.31
219.157	-0.18
219.375	0.16
219.594	0.21
219.812	-0.31
220.031	-0.27
220.249	0.16
220.467	0.25
220.686	-0.19
220.904	-0.28
221.122	-0.3
221.341	0.11
221.559	-0.07
221.777	-0.25
221.995	-0.1
222.214	0.07
222.432	-0.26
222.65	0.12
222.868	0.06
223.086	-0.02
223.305	0.03
223.523	0.01
223.741	0.32
223.959	-0.11
224.177	-0.29
224.395	-0.11
224.613	0.01
224.831	0.03
225.049	-0.16
225.267	-0.03
225.485	-0.04
225.703	0.01
225.921	-0.09
226.139	-0.06
226.357	0.11
226.575	-0.04
226.793	-0.08
227.011	0.48
227.229	0
227.447	0.07
227.665	-0.11
227.883	-0.4
228.1	-0.09
228.318	-0.05
228.536	-0.38
228.754	-0.19
228.972	0.03
229.189	0.02
229.407	-0.16
229.625	-0.14
229.843	0.08
230.06	0.08
230.278	-0.15
230.496	-0.11
230.713	-0.04
230.931	0.12
231.149	-0.16
231.366	-0.29
231.584	0.03
231.801	0.31
232.019	-0.19
232.236	-0.25
232.454	-0.08
232.671	0.02
232.889	-0.04
233.106	-0.22
233.324	-0
233.541	-0.1
233.759	-0.06
233.976	-0.11
234.194	-0.06
234.411	-0.01
234.628	-0.05
234.846	-0.07
235.063	-0.1
235.28	-0.11
235.498	-0.05
235.715	-0.17
235.932	0.05
236.149	0.01
236.367	-0.11
236.584	0.07
236.801	-0.08
237.018	0.05
237.236	-0.03
237.453	-0.19
237.67	0.09
237.887	0.01
238.104	-0.11
238.321	-0.17
238.538	-0.16
238.755	0.03
238.973	-0.13
239.19	0.02
239.407	0
239.624	0.01
239.841	-0.18
240.058	-0.19
240.275	0.03
240.492	-0.02
240.709	-0.04
240.925	-0.19
241.142	-0.04
241.359	-0.07
241.576	-0.15
241.793	-0.06
242.01	-0.04
242.227	0.03
242.444	0.01
242.66	0.12
242.877	-0.08
243.094	-0.11
243.311	0.03
243.527	-0.11
243.744	0.09
243.961	0.08
244.178	-0.13
244.394	-0.17
244.611	0.07
244.828	0.09
245.044	-0.13
245.261	-0.06
245.477	0.02
245.694	-0.01
245.911	-0.09
246.127	0.03
246.344	-0
246.56	0.02
246.777	-0.07
246.993	-0.02
247.21	0.02
247.426	0.11
247.643	-0.07
247.859	-0.13
248.076	-0.07
248.292	0.14
248.508	-0.05
248.725	0.01
248.941	-0.04
249.157	0.01
249.374	-0.09
249.59	-0.05
249.806	-0.02
250.023	-0.04
250.239	-0.12
250.455	-0.11
250.671	-0.01
250.888	-0.03
251.104	0.06
251.32	-0.07
251.536	-0.05
251.752	-0.07
251.969	0.03
252.185	0.02
252.401	0.16
252.617	0.05
252.833	-0.04
253.049	-0.06
253.265	-0.01
253.481	0.05
253.697	0.02
253.913	-0.09
254.129	-0.02
254.345	0.03
254.561	-0.01
254.777	-0.06
254.993	0.05
255.209	-0.03
255.425	-0.06
255.641	-0.03
255.857	0.06
256.073	-0.11
256.288	-0.07
256.504	-0.1
256.72	0.02
256.936	0.06
257.152	-0.05
257.367	-0.13
257.583	0.01
257.799	0.07
258.015	-0.14
258.23	-0.08
258.446	0.09
258.662	0.01
258.877	-0.03
259.093	-0.09
259.309	0.04
259.524	-0.06
259.74	-0.12
259.955	-0.12
260.171	-0.02
260.387	-0.06
260.602	0.01
260.818	0.06
261.033	-0.07
261.249	-0.08
261.464	-0.09
261.68	-0.09
261.895	0.02
262.11	0.07
262.326	0.01
262.541	-0.15
262.757	0.02
262.972	-0.01
263.187	0.01
263.403	0.04
263.618	0.09
263.833	-0.03
264.049	-0.1
264.264	-0.03
264.479	-0
264.694	0.04
264.91	-0.09
265.125	-0.05
265.34	0.06
265.555	0.19
265.77	0.04
265.986	-0.01
266.201	0.01
266.416	0.08
266.631	-0.03
266.846	-0.07
267.061	0
267.276	0.01
267.491	-0.12
267.706	-0.02
267.921	0.03
268.136	-0.01
268.351	-0.04
268.566	-0.07
268.781	0.13
268.996	0.06
269.211	-0
269.426	-0.07
269.641	-0.06
269.856	0.01
270.071	-0.04
270.285	-0.11
270.5	0.06
270.715	0.05
270.93	-0.01
271.145	0
271.359	0.07
271.574	-0.12
271.789	-0.06
272.004	-0.05
272.218	-0.04
272.433	0.07
272.648	-0.03
272.862	0.03
273.077	-0.03
273.292	0
273.506	-0.03
273.721	-0.02
273.936	-0.02
274.15	0.07
274.365	-0.06
274.579	0.03
274.794	0.02
275.008	0.03
275.223	-0.07
275.437	-0.03
275.652	-0
275.866	0.02
276.081	-0.04
276.295	-0
276.509	-0
276.724	-0.03
276.938	-0.01
277.153	0.01
277.367	0.08
277.581	-0.05
277.796	-0.04
278.01	-0.04
278.224	0.03
278.438	0.1
278.653	-0.06
278.867	-0.07
279.081	-0.24
279.295	-0.04
279.51	0.07
279.724	-0.08
279.938	0.01
280.152	0
280.366	-0.04
280.58	-0.01
280.794	0.1
281.008	0.04
281.222	0.07
281.437	0.08
281.651	-0.03
281.865	0.05
282.079	-0.02
282.293	-0.1
282.507	-0.06
282.721	-0.04
282.935	-0.05
283.148	-0.05
283.362	-0.07
283.576	-0.08
283.79	0.04
284.004	-0.06
284.218	0.05
284.432	-0.08
284.646	-0.02
284.859	-0.09
285.073	-0.04
285.287	0
285.501	-0.01
285.714	0.01
285.928	-0
286.142	-0.04
286.356	-0.06
286.569	-0.06
286.783	0.07
286.997	0.02
287.21	0.03
287.424	0.01
287.637	0.02
287.851	0.01
288.065	-0
288.278	-0.05
288.492	0.03
288.705	-0.05
288.919	-0
289.132	-0.06
289.346	0.05
289.559	-0.12
289.773	-0.11
289.986	-0.04
290.2	0.02
290.413	0.03
290.626	-0.08
290.84	-0.05
291.053	-0.05
291.267	0.08
291.48	0.02
291.693	-0
291.906	-0.05
292.12	-0.02
292.333	-0.04
292.546	-0.04
292.76	0.02
292.973	0
293.186	0.03
293.399	-0.03
293.612	0.02
293.826	-0.07
294.039	-0.03
294.252	-0.01
294.465	-0.02
294.678	0.05
294.891	0.04
295.104	-0.05
295.317	-0.03
295.53	-0.02
295.743	-0.04
295.956	0
296.169	0.06
296.382	-0.02
296.595	-0.01
296.808	-0.04
297.021	0.08
297.234	0.03
297.447	-0
297.66	0.02
297.873	0.03
298.086	0.04
298.299	-0.02
298.511	-0.07
298.724	0.04
298.937	-0.06
299.15	-0.03
299.363	-0.03
299.575	0.06
299.788	-0
300.001	-0.03
300.213	-0.01
300.426	-0.07
300.639	-0.03
300.852	-0.04
301.064	0.02
301.277	0.09
301.489	0.05
301.702	0.04
301.915	-0.04
302.127	0.01
302.34	0.06
302.552	0.04
302.765	-0.02
302.977	0.02
303.19	-0.04
303.402	-0.05
303.615	-0.02
303.827	-0.05
304.04	0.02
304.252	0.04
304.464	-0.03
304.677	0.11
304.889	-0.05
305.102	-0.06
305.314	-0.04
305.526	0.03
305.739	0.03
305.951	-0.06
306.163	-0.02
306.375	0.07
306.588	-0.02
306.8	-0.04
307.012	-0.09
307.224	0
307.436	0.01
307.649	-0.07
307.861	0.01
308.073	0.04
308.285	0
308.497	-0.06
308.709	-0.03
308.921	-0.05
309.133	0.01
309.346	-0.02
309.558	-0.02
309.77	0.04
309.982	0.05
310.194	0.01
310.406	-0.05
310.617	0.03
310.829	0
311.041	0.03
311.253	-0.06
311.465	-0.03
311.677	-0.01
311.889	-0.04
312.101	-0.03
312.313	0
312.524	0.07
312.736	-0.07
312.948	-0.04
313.16	0.07
313.372	0.03
313.583	0.01
313.795	-0.03
314.007	-0.04
314.218	0.05
314.43	-0.02
314.642	-0.07
314.853	-0.06
315.065	0.07
315.277	-0.04
315.488	-0.01
315.7	0.01
315.912	0.02
316.123	-0.04
316.335	-0.02
316.546	0.1
316.758	-0.05
316.969	-0.06
317.181	0
317.392	0.02
317.604	0.02
317.815	-0.05
318.026	-0.08
318.238	0.01
318.449	-0.03
318.661	-0.07
318.872	-0.03
319.083	-0.06
319.295	-0
319.506	-0.04
319.717	-0.01
319.929	0.05
320.14	-0.02
320.351	-0
320.562	-0.04
320.774	0.03
320.985	0.03
321.196	-0.04
321.407	-0.09
321.618	0.06
321.829	0
322.041	-0.01
322.252	0.01
322.463	0.02
322.674	0.02
322.885	-0.07
323.096	-0.02
323.307	-0.02
323.518	0.03
323.729	-0.03
323.94	-0.04
324.151	-0.02
324.362	0.01
324.573	0
324.784	-0.05
324.995	0.04
325.206	0.01
325.417	0.01
325.628	-0.04
325.838	-0.01
326.049	0.01
326.26	0.04
326.471	-0.03
326.682	0
326.892	0.01
327.103	-0.07
327.314	-0.02
327.525	0.04
327.735	0.04
327.946	-0.02
328.157	-0.06
328.368	0.01
328.578	0.03
328.789	0.01
328.999	-0.01
329.21	-0.03
329.421	0.01
329.631	-0.04
329.842	-0.02
330.052	0.02
330.263	0.04
330.473	-0
330.684	-0.01
330.894	-0.01
331.105	-0.02
331.315	0.01
331.526	-0.08
331.736	0.09
331.947	0.04
332.157	0
332.367	-0.06
332.578	0
332.788	0.09
332.999	0.04
333.209	-0.01
333.419	-0.06
333.629	-0.02
333.84	-0.01
334.05	0.01
334.26	0.01
334.47	-0.05
334.681	0.03
334.891	-0.01
335.101	0.09
335.311	0.12
335.521	-0.01
335.732	-0.03
335.942	0.06
336.152	0.02
336.362	-0.02
336.572	0.02
336.782	0.01
336.992	-0.04
337.202	-0.03
337.412	-0.01
337.622	-0.03
337.832	-0.01
338.042	-0.03
338.252	-0.03
338.462	-0.05
338.672	0
338.882	-0.04
339.092	0.01
339.302	0.02
339.511	-0.01
339.721	-0.05
339.931	-0.04
340.141	0.03
340.351	0.06
340.561	0
340.77	-0.02
340.98	-0.01
341.19	0.03
341.4	-0.03
341.609	-0.07
341.819	0
342.029	-0.05
342.238	-0.06
342.448	-0.01
342.658	0.01
342.867	0.01
343.077	0.01
343.286	-0.02
343.496	-0
343.706	0.02
343.915	-0.04
344.125	-0.02
344.334	0.03
344.544	-0.06
344.753	0
344.963	-0.01
345.172	-0.03
345.381	-0.04
345.591	-0.04
345.8	-0.01
346.01	0.04
346.219	0.04
346.428	-0.18
346.638	-0.02
346.847	-0.03
347.056	0.06
347.266	-0.09
347.475	0.04
347.684	0.03
347.893	0.03
348.103	-0.01
348.312	-0.01
348.521	0.01
348.73	-0.02
348.94	-0.01
349.149	-0.06
349.358	-0.02
349.567	-0.05
349.776	-0.05
349.985	-0.03
350.194	0.01
350.403	0.05
350.612	-0.03
350.821	-0.02
351.03	-0.03
351.239	-0.06
351.448	0.01
351.657	-0.05
351.866	0.04
352.075	-0.02
352.284	0.04
352.493	-0.06
352.702	0.07
352.911	0.02
353.12	0
353.329	-0.08
353.538	-0.02
353.746	-0.03
353.955	-0.03
354.164	0.06
354.373	0.01
354.582	0.01
354.79	-0.01
354.999	0
355.208	-0.02
355.416	0.06
355.625	-0.07
355.834	-0.01
356.042	0.03
356.251	0.01
356.46	-0.06
356.668	0.01
356.877	0.11
357.085	0.06
357.294	-0.09
357.503	0.01
357.711	-0.02
357.92	0.1
358.128	0.01
358.337	-0.01
358.545	0.03
358.754	0
358.962	0.05
359.17	-0
359.379	0.03
359.587	0.02
359.796	-0.01
360.004	0.05
360.212	-0
360.421	0.07
360.629	-0.05
360.837	-0.03
361.046	0.01
361.254	0.07
361.462	0
361.67	-0.04
361.879	-0
362.087	0.04
362.295	-0
362.503	-0.05
362.711	-0.04
362.92	-0.05
363.128	-0.03
363.336	-0.04
363.544	-0.03
363.752	0.06
363.96	-0.04
364.168	-0.04
364.376	0
364.584	0.02
364.792	0.03
365	-0
365.208	0.03
365.416	0.01
365.624	0.03
365.832	-0.04
366.04	0.04
366.248	0.02
366.456	0.04
366.664	-0.02
366.872	0.02
367.079	0.01
367.287	0.02
367.495	-0
367.703	-0
367.911	-0
368.118	-0.02
368.326	0.02
368.534	-0.01
368.742	0.06
368.949	-0.04
369.157	-0.06
369.365	0.02
369.572	-0.05
369.78	-0.07
369.988	0.02
370.195	0.03
370.403	0.04
370.61	-0.02
370.818	0.02
371.026	0.04
371.233	-0.03
371.441	0.04
371.648	-0.04
371.856	0
372.063	-0.01
372.271	-0.03
372.478	-0.03
372.685	-0.05
372.893	0.06
373.1	-0.01
373.308	-0.01
373.515	0.06
373.722	0.04
373.93	-0.01
374.137	0.01
374.344	0.09
374.552	0.04
374.759	0.01
374.966	0.03
375.173	-0.06
375.381	0.02
375.588	-0.02
375.795	-0.06
376.002	-0.02
376.209	-0.05
376.417	-0.02
376.624	0.02
376.831	0.01
377.038	-0.02
377.245	-0.1
377.452	-0.03
377.659	-0
377.866	-0.04
378.073	-0.02
378.28	0.01
378.487	0.05
378.694	0.04
378.901	-0
379.108	-0.02
379.315	0
379.522	0.09
379.729	0.02
379.936	0.02
380.143	-0
380.35	0.01
380.557	-0.01
380.763	0
380.97	-0.02
381.177	-0
381.384	0.02
381.591	-0.06
381.797	0
382.004	0.06
382.211	0.03
382.418	-0.03
382.624	0.03
382.831	0.02
383.038	-0
383.244	-0.01
383.451	-0.04
383.658	0.05
383.864	0.01
384.071	-0.01
384.277	0.04
384.484	-0.05
384.69	0.04
384.897	-0.03
385.103	0.04
385.31	-0.04
385.516	-0.03
385.723	-0.04
385.929	-0.02
386.136	-0.04
386.342	0.03
386.549	0.01
386.755	0.03
386.961	0.03
387.168	-0
387.374	0.04
387.58	0.07
387.787	-0.02
387.993	0.03
388.199	-0
388.406	0.03
388.612	-0.01
388.818	-0.01
389.024	0.02
389.231	0.03
389.437	0.11
389.643	0.03
389.849	-0.02
390.055	0
390.261	0.04
390.467	0.08
390.674	-0
390.88	0.02
391.086	0.04
391.292	-0.01
391.498	0.11
391.704	0.07
391.91	0.03
392.116	0.03
392.322	-0.02
392.528	0.08
392.734	-0.01
392.94	0.06
393.146	0.05
393.352	0.07
393.557	0.06
393.763	0.09
393.969	0.06
394.175	0.08
394.381	0.08
394.587	0.07
394.792	0.07
394.998	0.15
395.204	0.15
395.41	0.12
395.615	0.17
395.821	0.16
396.027	0.15
396.233	0.13
396.438	0.17
396.644	0.21
396.85	0.19
397.055	0.17
397.261	0.2
397.466	0.29
397.672	0.2
397.878	0.27
398.083	0.29
398.289	0.19
398.494	0.33
398.7	0.27
398.905	0.19
399.111	0.38
399.316	0.25
399.522	0.3
399.727	0.33
399.932	0.34
400.138	0.35
400.343	0.41
400.549	0.4
400.754	0.42
400.959	0.42
401.165	0.49
401.37	0.48
401.575	0.49
401.78	0.53
401.986	0.53
402.191	0.52
402.396	0.65
402.601	0.66
402.807	0.69
403.012	0.69
403.217	0.79
403.422	0.67
403.627	0.8
403.832	0.77
404.037	0.82
404.243	0.87
404.448	0.84
404.653	0.9
404.858	0.89
405.063	0.93
405.268	0.94
405.473	0.94
405.678	1.03
405.883	1.19
406.088	1.04
406.293	0.95
406.498	1.07
406.703	1.05
406.907	1.11
407.112	1.07
407.317	1.18
407.522	1.19
407.727	1.12
407.932	1.21
408.136	1.28
408.341	1.16
408.546	1.17
408.751	1.18
408.956	1.14
409.16	1.22
409.365	1.14
409.57	1.09
409.774	1.1
409.979	1.12
410.184	1.09
410.388	0.99
410.593	1.03
410.798	1.01
411.002	0.98
411.207	1.01
411.411	0.99
411.616	0.87
411.82	0.89
412.025	0.84
412.229	0.83
412.434	0.87
412.638	0.82
412.843	0.73
413.047	0.78
413.252	0.72
413.456	0.74
413.66	0.66
413.865	0.62
414.069	0.69
414.273	0.62
414.478	0.56
414.682	0.57
414.886	0.56
415.091	0.47
415.295	0.48
415.499	0.56
415.703	0.47
415.908	0.47
416.112	0.35
416.316	0.53
416.52	0.41
416.724	0.41
416.929	0.36
417.133	0.51
417.337	0.39
417.541	0.36
417.745	0.37
417.949	0.36
418.153	0.37
418.357	0.29
418.561	0.44
418.765	0.34
418.969	0.42
419.173	0.33
419.377	0.26
419.581	0.38
419.785	0.28
419.989	0.26
420.193	0.31
420.397	0.34
420.601	0.36
420.804	0.36
421.008	0.3
421.212	0.31
421.416	0.29
421.62	0.21
421.823	0.21
422.027	0.34
422.231	0.26
422.435	0.21
422.638	0.24
422.842	0.2
423.046	0.12
423.249	0.19
423.453	0.23
423.657	0.21
423.86	0.15
424.064	0.11
424.268	0.27
424.471	0.12
424.675	0.2
424.878	0.21
425.082	0.15
425.285	0.18
425.489	0.12
425.692	0.14
425.896	0.08
426.099	0.18
426.303	0.1
426.506	0.06
426.71	0.13
426.913	0.15
427.116	0.18
427.32	0.11
427.523	0.11
427.726	0.18
427.93	0.1
428.133	0.05
428.336	0.04
428.54	0.07
428.743	0.11
428.946	0.13
429.149	0.05
429.353	0.08
429.556	0.11
429.759	0.06
429.962	0.05
430.165	0.05
430.368	0.03
430.571	0.07
430.775	0.09
430.978	0.08
431.181	0.05
431.384	0.11
431.587	0.05
431.79	0.06
431.993	-0.03
432.196	0.04
432.399	0.04
432.602	0.13
432.805	0.02
433.008	0.08
433.211	-0.03
433.414	0.16
433.616	0.04
433.819	0.06
434.022	-0.07
434.225	0.12
434.428	0.09
434.631	0.17
434.833	0.09
435.036	0.06
435.239	0.1
435.442	0.08
435.645	-0.02
435.847	0.05
436.05	0.12
436.253	0.05
436.455	0.02
436.658	-0
436.861	0.05
437.063	0.02
437.266	0.04
437.468	0.06
437.671	0.19
437.874	0.06
438.076	-0.03
438.279	0.01
438.481	0.02
438.684	-0.02
438.886	0.05
439.089	-0.08
439.291	0.02
439.494	0.06
439.696	-0.01
439.899	0
440.101	0.04
440.303	-0.05
440.506	0.08
440.708	0.05
440.91	0.07
441.113	-0.03
441.315	0.11
441.517	-0.04
441.72	0.07
441.922	-0.01
442.124	-0.03
442.326	0.03
442.529	0.11
442.731	-0.02
442.933	0.09
443.135	-0.01
443.337	0.03
443.539	-0.02
443.742	-0
443.944	0.01
444.146	0.03
444.348	-0.02
444.55	-0.06
444.752	0.01
444.954	-0.04
445.156	0.04
445.358	-0.04
445.56	0.01
445.762	0.03
445.964	-0
446.166	0.01
446.368	-0.04
446.57	0.07
446.772	0.01
446.974	0.02
447.175	0.02
447.377	0.01
447.579	-0
447.781	-0.07
447.983	0.07
448.184	-0.05
448.386	-0.02
448.588	-0.05
448.79	0.04
448.991	-0.05
449.193	-0.04
449.395	0.04
449.597	0.07
449.798	0.02
450	-0.01
450.202	0.01
450.403	0.02
450.605	0.07
450.806	0.03
451.008	-0.09
451.21	0.03
451.411	-0.04
451.613	-0
451.814	0.01
452.016	0.01
452.217	-0.02
452.419	-0.02
452.62	0.03
452.821	-0
453.023	0.09
453.224	0.07
453.426	0.02
453.627	0.02
453.828	0.01
454.03	0.02
454.231	0.07
454.432	-0.07
454.634	0.08
454.835	-0.04
455.036	0
455.238	0.07
455.439	0.06
455.64	-0.06
455.841	-0.05
456.042	0.09
456.244	0.02
456.445	0.01
456.646	-0.03
456.847	-0.04
457.048	0.04
457.249	0.06
457.45	0.24
457.651	-0.05
457.852	0.04
458.054	0.03
458.255	-0.02
458.456	0.01
458.657	0.03
458.858	-0.05
459.058	0
459.259	0.04
459.46	-0.01
459.661	-0.02
459.862	0.09
460.063	0.01
460.264	0.06
460.465	-0.04
460.666	0.1
460.866	-0.03
461.067	0.02
461.268	-0.02
461.469	-0.01
461.67	-0.05
461.87	0.01
462.071	-0
462.272	-0.01
462.473	0.04
462.673	0.05
462.874	0.01
463.075	0.02
463.275	-0.03
463.476	0.06
463.676	-0.02
463.877	0.02
464.078	0.02
464.278	0.04
464.479	-0.02
464.679	-0.01
464.88	-0
465.08	0.06
465.281	-0.03
465.481	-0.02
465.682	-0.03
465.882	0.03
466.083	0.01
466.283	0.02
466.483	-0.01
466.684	-0.03
466.884	-0
467.085	-0.01
467.285	0.07
467.485	-0.04
467.686	-0
467.886	-0.05
468.086	-0.02
468.286	0.02
468.487	0.02
468.687	-0.05
468.887	0.03
469.087	-0
469.287	-0.01
469.488	-0.05
469.688	0.03
469.888	-0
470.088	0.04
470.288	0.02
470.488	0.05
470.688	-0.02
470.888	-0.03
471.088	-0.02
471.288	-0
471.488	0.05
471.688	0.01
471.888	0
472.088	0.09
472.288	0.06
472.488	0.01
472.688	-0.04
472.888	0.02
473.088	0.01
473.288	0.02
473.488	-0.02
473.688	0.08
473.887	-0.01
474.087	0.01
474.287	0.02
474.487	0.02
474.687	0.03
474.886	-0.02
475.086	0.03
475.286	-0
475.486	0.02
475.685	-0
475.885	-0.02
476.085	-0.01
476.284	0.01
476.484	-0.01
476.684	0.04
476.883	0.05
477.083	0
477.282	-0.01
477.482	0.05
477.681	0.06
477.881	0.02
478.08	-0.03
478.28	-0.02
478.479	0.02
478.679	0.08
478.878	-0.01
479.078	-0.02
479.277	-0.02
479.477	-0.01
479.676	0
479.875	0.01
480.075	-0.07
480.274	0.05
480.473	0.04
480.673	-0.02
480.872	0.03
481.071	-0.03
481.271	0.03
481.47	-0.02
481.669	-0.01
481.868	-0.03
482.067	-0.05
482.267	-0.02
482.466	-0.04
482.665	-0.04
482.864	-0.04
483.063	-0.05
483.262	-0
483.461	0.05
483.661	0
483.86	-0
484.059	0.01
484.258	-0
484.457	-0.01
484.656	0.02
484.855	0.02
485.054	-0.04
485.253	-0.02
485.452	-0.03
485.651	0.03
485.849	-0.02
486.048	-0.05
486.247	-0.04
486.446	-0.01
486.645	-0.04
486.844	-0.03
487.043	-0
487.241	0.01
487.44	-0.02
487.639	-0.02
487.838	0.04
488.037	0.03
488.235	0.06
488.434	0.02
488.633	-0.02
488.831	-0
489.03	0.03
489.229	-0.01
489.427	-0
489.626	0.04
489.825	0.05
490.023	-0
490.222	-0.01
490.42	0.02
490.619	0.02
490.817	0.01
491.016	-0.01
491.214	0.04
491.413	-0.01
491.611	-0.02
491.81	0.02
492.008	0
492.207	0.03
492.405	-0.01
492.604	-0.04
492.802	-0.03
493	0.03
493.199	-0.03
493.397	0.01
493.595	-0.01
493.794	-0.02
493.992	0.05
494.19	-0
494.388	0.02
494.587	-0.03
494.785	0.02
494.983	-0.04
495.181	-0.01
495.379	-0.01
495.578	-0.01
495.776	0.01
495.974	0.04
496.172	0
496.37	-0.04
496.568	-0.04
496.766	-0.03
496.964	0.02
497.162	-0.01
497.36	-0.01
497.558	0.03
497.756	0.03
497.954	-0.01
498.152	-0.04
498.35	-0.01
498.548	0.01
498.746	-0.01
498.944	-0.03
499.142	-0.01
499.34	-0.05
499.538	-0.01
499.736	-0.02
499.933	0.01
500.131	0.02
500.329	0.01
500.527	0.02
500.725	0.01
500.922	0.03
501.12	0
501.318	-0
501.516	-0.02
501.713	0
501.911	0.01
502.109	-0.03
502.306	-0
502.504	0
502.701	-0.03
502.899	0
503.097	0.04
503.294	0.02
503.492	-0
503.689	-0
503.887	0.01
504.084	0.03
504.282	-0.01
504.479	-0.02
504.677	-0
504.874	-0.04
505.072	0
505.269	-0.01
505.466	0.04
505.664	0
505.861	-0.03
506.059	-0.03
506.256	0.01
506.453	-0.03
506.651	0.03
506.848	-0
507.045	0.01
507.242	0.02
507.44	-0.01
507.637	0.01
507.834	-0.03
508.031	-0.01
508.229	-0.04
508.426	-0.03
508.623	0.01
508.82	-0.01
509.017	-0.03
509.214	-0
509.411	0.01
509.608	-0.03
509.805	-0.01
510.003	-0
510.2	-0.02
510.397	0.01
510.594	-0.02
510.791	-0.03
510.988	-0
511.184	0.01
511.381	-0.02
511.578	-0.01
511.775	0.03
511.972	-0.02
512.169	-0.02
512.366	0.01
512.563	0.01
512.76	-0.02
512.956	-0.02
513.153	-0.02
513.35	0.02
513.547	-0.01
513.744	-0.04
513.94	-0.04
514.137	0.01
514.334	-0.01
514.53	-0.01
514.727	0.02
514.924	0.03
515.12	-0.02
515.317	-0.03
515.514	-0.02
515.71	-0.04
515.907	-0.01
516.103	0.01
516.3	0
516.497	-0.01
516.693	0.03
516.89	-0.02
517.086	-0.03
517.283	0.02
517.479	0.01
517.676	0.01
517.872	0.01
518.068	-0.02
518.265	-0.01
518.461	-0.02
518.658	-0.01
518.854	-0.01
519.05	-0.01
519.247	-0.02
519.443	0.01
519.639	0.01
519.836	-0.01
520.032	-0
520.228	0
520.424	0.04
520.621	-0.01
520.817	-0.01
521.013	-0
521.209	0.01
521.405	0.06
521.601	0
521.798	-0
521.994	0.05
522.19	-0.02
522.386	-0.02
522.582	-0
522.778	-0.02
522.974	-0.01
523.17	-0
523.366	-0
523.562	0.02
523.758	-0
523.954	-0.04
524.15	-0
524.346	0.01
524.542	-0.03
524.738	-0.01
524.934	0
525.129	-0.08
525.325	0.01
525.521	-0.01
525.717	0.02
525.913	-0.01
526.109	-0.01
526.304	-0
526.5	0
526.696	0
526.892	-0.01
527.087	0.01
527.283	-0.01
527.479	0.02
527.674	-0.01
527.87	-0.02
528.066	-0.02
528.261	0.01
528.457	0
528.653	-0.02
528.848	-0.01
529.044	0.01
529.239	-0.02
529.435	0.01
529.63	-0.02
529.826	0.02
530.021	0
530.217	-0.01
530.412	-0.02
530.608	-0.02
530.803	-0.01
530.999	-0.01
531.194	-0.03
531.389	0.01
531.585	-0.03
531.78	-0.01
531.975	0.01
532.171	-0
532.366	-0.01
532.561	-0.02
532.757	-0.04
532.952	-0.02
533.147	0.03
533.342	-0.01
533.538	-0.01
533.733	0.03
533.928	-0.01
534.123	-0.01
534.318	-0.02
534.513	-0.01
534.709	-0.01
534.904	-0.02
535.099	-0.01
535.294	-0
535.489	-0.02
535.684	-0.02
535.879	-0.03
536.074	-0.01
536.269	-0.02
536.464	0.03
536.659	0
536.854	-0.01
537.049	-0.01
537.244	-0
537.439	0
537.634	0.01
537.828	-0.01
538.023	0.01
538.218	-0.02
538.413	-0.02
538.608	-0.04
538.803	-0
538.997	-0.05
539.192	0.02
539.387	-0
539.582	0.03
539.776	0.01
539.971	-0.02
540.166	-0.01
540.36	-0.04
540.555	0
540.75	-0
540.944	0.01
541.139	-0.03
541.334	-0.01
541.528	0.03
541.723	0.02
541.917	-0
542.112	-0.03
542.306	-0.02
542.501	0
542.695	0.01
542.89	-0.03
543.084	0
543.279	-0.01
543.473	-0.02
543.668	0.01
543.862	0
544.056	0.02
544.251	-0.01
544.445	-0.01
544.64	-0.02
544.834	-0.01
545.028	-0.01
545.222	0.01
545.417	-0
545.611	-0
545.805	0.01
546	-0.01
546.194	-0.01
546.388	-0.03
546.582	0.02
546.776	0
546.97	-0
547.165	-0.01
547.359	0.01
547.553	-0.04
547.747	-0.01
547.941	-0.02
548.135	-0.01
548.329	0.01
548.523	0
548.717	-0.04
548.911	-0.02
549.105	-0.02
549.299	0.02
549.493	-0
549.687	0
549.881	-0.01
550.075	-0.01
550.269	-0.05
550.463	0.01
550.657	-0.03
550.85	-0.03
551.044	-0.02
551.238	-0.01
551.432	-0.03
551.626	-0.02
551.82	-0.01
552.013	-0.05
552.207	-0.01
552.401	0.01
552.594	0
552.788	-0.01
552.982	-0.01
553.176	-0.04
553.369	0.01
553.563	-0.01
553.756	-0.05
553.95	-0.02
554.144	-0.02
554.337	0.03
554.531	0
554.724	-0.02
554.918	-0
555.111	0.02
555.305	-0
555.498	0.04
555.692	0.04
555.885	-0.03
556.079	0.03
556.272	-0.04
556.466	-0.01
556.659	0
556.852	-0.02
557.046	-0.02
557.239	0.02
557.432	-0.04
557.626	-0.04
557.819	0
558.012	0.02
558.206	-0.01
558.399	0
558.592	0.01
558.785	-0.01
558.979	0.01
559.172	0.01
559.365	0.01
559.558	-0.01
559.751	-0.01
559.944	-0.02
560.138	-0.02
560.331	-0.01
560.524	-0.02
560.717	-0
560.91	-0
561.103	0.01
561.296	0.01
561.489	-0.01
561.682	-0.01
561.875	0.03
562.068	0
562.261	-0.02
562.454	0.04
562.647	0.01
562.84	0.01
563.032	0.01
563.225	0.02
563.418	-0.03
563.611	-0.01
563.804	-0.01
563.997	-0.04
564.19	-0.03
564.382	0.01
564.575	-0.02
564.768	-0.01
564.961	-0.01
565.153	-0
565.346	0.02
565.539	0.02
565.731	0
565.924	0.01
566.117	0.03
566.309	-0.03
566.502	-0.03
566.695	-0.01
566.887	0.01
567.08	-0.03
567.272	-0.02
567.465	-0.03
567.657	0.01
567.85	0.02
568.042	0.01
568.235	0.04
568.427	-0
568.62	-0.01
568.812	0.01
569.005	-0.01
569.197	-0.04
569.389	0.02
569.582	0.01
569.774	0.01
569.966	-0.04
570.159	-0.03
570.351	0.01
570.543	-0.03
570.736	-0.02
570.928	-0.03
571.12	0
571.312	-0.01
571.505	-0.04
571.697	0.02
571.889	-0.04
572.081	-0.02
572.273	-0.01
572.465	0
572.658	-0
572.85	-0.01
573.042	-0.02
573.234	-0.03
573.426	0.04
573.618	-0.01
573.81	-0.01
574.002	0.01
574.194	0.02
574.386	-0.04
574.578	-0.06
574.77	-0.03
574.962	-0
575.154	-0.05
575.346	-0.02
575.538	-0.01
575.729	-0.02
575.921	-0.03
576.113	-0.01
576.305	0.03
576.497	-0.01
576.689	-0.03
576.88	-0.04
577.072	0.03
577.264	-0.02
577.456	-0
577.647	-0.07
577.839	-0.02
578.031	0.02
578.223	-0.03
578.414	-0.04
578.606	0.01
578.798	0.01
578.989	-0.03
579.181	-0.01
579.372	-0
579.564	-0.02
579.755	-0.01
579.947	-0.01
580.139	0.03
580.33	-0.06
580.522	-0.03
580.713	-0.08
580.905	0.01
581.096	0
581.287	-0
581.479	-0.02
581.67	0.01
581.862	-0.02
582.053	-0.02
582.244	-0.04
582.436	-0.01
582.627	-0
582.818	-0.03
583.01	-0.05
583.201	0.01
583.392	0
583.583	-0.01
583.775	-0.01
583.966	-0.02
584.157	-0.05
584.348	-0.01
584.54	-0.04
584.731	-0
584.922	-0
585.113	-0.03
585.304	0.02
585.495	0.05
585.686	-0
585.877	0
586.068	-0
586.259	0
586.45	0
586.641	-0.05
586.832	-0.09
587.023	-0.01
587.214	-0.02
587.405	-0.02
587.596	-0.04
587.787	0.01
587.978	-0.02
588.169	-0.02
588.36	-0.03
588.551	-0.02
588.742	-0.01
588.932	0.01
589.123	-0.01
589.314	0.01
589.505	0
589.696	-0.01
589.886	-0.03
590.077	-0.04
590.268	0.01
590.458	-0.05
590.649	-0.05
590.84	-0
591.03	-0.03
591.221	-0.06
591.412	-0.07
591.602	0.01
591.793	0.03
591.984	-0.04
592.174	-0.02
592.365	0.07
592.555	0.01
592.746	-0
592.936	0.02
593.127	0
593.317	0.01
593.508	-0.03
593.698	-0
593.889	0
594.079	-0.02
594.269	-0.03
594.46	-0.02
594.65	0
594.84	-0.03
595.031	-0.02
595.221	-0.03
595.411	-0.04
595.602	-0
595.792	-0.02
595.982	-0.04
596.172	0.03
596.363	-0.01
596.553	-0.01
596.743	-0.02
596.933	-0.02
597.123	0.02
597.314	-0.03
597.504	-0.01
597.694	0.02
597.884	0.01
598.074	-0.01
598.264	-0.02
598.454	0.01
598.644	-0.02
598.834	-0
599.024	-0.07
599.214	-0.01
599.404	-0
599.594	-0.04
599.784	-0.05
599.974	0.02
600.164	0.02
600.354	-0.03
600.544	-0.03
600.734	-0.01
600.924	0.06
601.114	-0.04
601.303	-0.01
601.493	-0.01
601.683	-0.01
601.873	-0
602.063	-0.05
602.252	0.01
602.442	-0.07
602.632	-0.04
602.821	-0.05
603.011	0.02
603.201	-0.05
603.39	-0.03
603.58	-0.02
603.77	0.01
603.959	0.02
604.149	-0.01
604.339	-0.03
604.528	0
604.718	-0
604.907	-0.02
605.097	-0.03
605.286	-0.06
605.476	-0
605.665	0.01
605.855	-0.03
606.044	0.03
606.234	-0
606.423	-0.03
606.612	-0.05
606.802	0.01
606.991	-0.01
607.181	0
607.37	-0.06
607.559	-0.03
607.749	-0.05
607.938	-0.02
608.127	-0.01
608.316	-0.04
608.506	-0
608.695	-0.01
608.884	-0.03
609.073	0.02
609.263	0.01
609.452	0.02
609.641	-0.02
609.83	-0.07
610.019	-0
610.208	-0.07
610.397	-0.01
610.586	-0.01
610.775	-0.06
610.965	-0.02
611.154	-0
611.343	-0.01
611.532	-0.01
611.721	-0.04
611.91	-0.05
612.099	0
612.287	-0
612.476	-0.05
612.665	0
612.854	-0.03
613.043	0.04
613.232	-0
613.421	-0.05
613.61	0.02
613.798	-0.02
613.987	-0
614.176	-0.01
614.365	0.01
614.554	-0.01
614.742	0.01
614.931	-0.02
615.12	0.01
615.309	-0.02
615.497	0.01
615.686	-0.03
615.875	-0.03
616.063	0
616.252	-0.04
616.44	-0.03
616.629	-0.02
616.818	-0
617.006	-0.05
617.195	-0.02
617.383	-0.02
617.572	-0.02
617.76	-0.03
617.949	-0.04
618.137	0.01
618.326	0.02
618.514	-0.03
618.703	-0.04
618.891	0.06
619.079	-0.09
619.268	0.02
619.456	-0.04
619.644	0.03
619.833	-0.03
620.021	-0.02
620.209	-0.07
620.398	0.02
620.586	-0.01
620.774	0
620.962	-0.01
621.151	0.05
621.339	-0.02
621.527	-0.04
621.715	-0.03
621.903	-0.05
622.092	-0.06
622.28	-0.01
622.468	-0.02
622.656	-0.03
622.844	-0.02
623.032	-0.02
623.22	-0.05
623.408	0.03
623.596	-0.02
623.784	0
623.972	-0.04
624.16	0
624.348	0.02
624.536	-0.04
624.724	-0.04
624.912	0.02
625.1	0.04
625.288	-0.04
625.476	-0.03
625.664	0.01
625.851	-0.03
626.039	0
626.227	-0.02
626.415	-0.03
626.603	-0.06
626.79	-0.01
626.978	-0.04
627.166	0.01
627.354	0.02
627.541	-0.02
627.729	-0.09
627.917	0
628.104	0.04
628.292	0.01
628.48	-0.02
628.667	0
628.855	0
629.042	0.05
629.23	-0.07
629.418	-0.04
629.605	-0.03
629.793	-0.06
629.98	-0.01
630.168	-0.02
630.355	-0.04
630.543	-0
630.73	-0.02
630.917	0.02
631.105	0.01
631.292	-0.02
631.48	-0.01
631.667	0.06
631.854	-0
632.042	-0.05
632.229	-0.08
632.416	0
632.604	-0.04
632.791	-0.08
632.978	0
633.165	0.01
633.353	0.03
633.54	0
633.727	-0.08
633.914	-0.02
634.101	-0.08
634.289	0.02
634.476	-0.03
634.663	-0.05
634.85	0.01
635.037	-0.05
635.224	-0.07
635.411	0.02
635.598	0.07
635.785	-0.02
635.972	-0.03
636.159	0.01
636.346	-0.09
636.533	-0.02
636.72	-0.02
636.907	-0.02
637.094	0.02
637.281	0
637.468	0.01
637.655	-0.03
637.842	-0.01
638.029	-0.04
638.215	0.02
638.402	0.01
638.589	-0.04
638.776	-0.04
638.963	-0.05
639.149	0.05
639.336	0.05
639.523	-0.05
639.709	-0.03
639.896	-0.01
640.083	0.05
640.27	0.01
640.456	-0.02
640.643	0.01
640.829	-0.05
641.016	-0.04
641.203	-0.07
641.389	0.01
641.576	0.04
641.762	-0.03
641.949	-0.08
642.135	-0.02
642.322	0.01
642.508	-0.07
642.695	-0.01
642.881	-0.04
643.068	-0.03
643.254	-0.04
643.441	0.01
643.627	-0.02
643.813	-0.05
644	0.03
644.186	-0.02
644.372	-0.07
644.559	0.02
644.745	-0.01
644.931	-0.02
645.118	-0.01
645.304	-0.04
645.49	-0.06
645.676	-0.04
645.862	-0.02
646.049	0.02
646.235	-0.02
646.421	0.04
646.607	0.05
646.793	-0.01
646.979	-0.05
647.165	-0.01
647.352	-0.01
647.538	0.01
647.724	-0.03
647.91	-0.04
648.096	-0.01
648.282	0.01
648.468	0.01
648.654	-0.01
648.84	-0.02
649.026	-0.01
649.212	-0.01
649.397	-0.03
649.583	-0.08
649.769	-0.02
649.955	-0.02
650.141	-0.01
650.327	0.04
650.513	-0.04
650.698	-0.01
650.884	-0.12
651.07	0.01
651.256	0.01
651.442	-0.03
651.627	-0.04
651.813	-0.01
651.999	-0.02
652.184	0.04
652.37	-0.02
652.556	-0.05
652.741	0.04
652.927	-0.11
653.113	-0.04
653.298	-0
653.484	-0.01
653.669	-0.03
653.855	-0.03
654.04	-0
654.226	-0
654.412	-0.02
654.597	-0.06
654.782	-0
654.968	0
655.153	0.01
655.339	-0.02
655.524	-0.04
655.71	-0.01
655.895	-0.04
656.08	-0.01
656.266	0.03
656.451	0.01
656.636	-0.03
656.822	-0.03
657.007	-0.03
657.192	-0.02
657.378	-0.06
657.563	-0.03
657.748	-0
657.933	0.04
658.118	-0.04
658.304	-0.01
658.489	-0
658.674	0.01
658.859	-0.03
659.044	-0.02
659.229	0.04
659.414	-0.01
659.599	-0.02
659.785	-0.06
659.97	-0.03
660.155	0.03
660.34	-0.04
660.525	-0.04
660.71	-0.05
660.895	0.04
661.08	-0.05
661.264	-0.05
661.449	0.01
661.634	0.03
661.819	-0.02
662.004	-0.02
662.189	-0.11
662.374	-0.05
662.559	-0.05
662.743	-0.06
662.928	-0.02
663.113	-0.03
663.298	-0.08
663.483	-0.03
663.667	-0.04
663.852	-0.05
664.037	0.03
664.221	-0.03
664.406	0.03
664.591	-0.01
664.775	0
664.96	0.01
665.145	-0
665.329	0.02
665.514	-0.02
665.698	-0.01
665.883	-0.06
666.068	0.02
666.252	-0.01
666.437	-0.07
666.621	-0
666.806	0.01
666.99	0.01
667.174	-0.05
667.359	0.06
667.543	-0.03
667.728	-0.06
667.912	-0.09
668.096	-0.03
668.281	-0.04
668.465	-0.07
668.649	-0.03
668.834	-0.05
669.018	-0.01
669.202	-0.04
669.387	-0.03
669.571	0.04
669.755	-0.06
669.939	-0.02
670.124	-0.01
670.308	0.02
670.492	0.05
670.676	-0.03
670.86	-0.04
671.044	-0.08
671.228	0.03
671.413	-0.05
671.597	-0.05
671.781	-0.04
671.965	-0
672.149	-0
672.333	-0.04
672.517	-0.02
672.701	0
672.885	-0.04
673.069	-0.07
673.253	-0.02
673.437	-0.05
673.621	-0.07
673.804	-0.04
673.988	0.01
674.172	-0
674.356	-0.07
674.54	-0.01
674.724	0.09
674.908	-0.03
675.091	-0.01
675.275	-0.05
675.459	0
675.643	0.09
675.826	0.01
676.01	-0.05
676.194	-0.04
676.377	-0
676.561	-0.02
676.745	0.02
676.928	0.04
677.112	0.01
677.296	-0.05
677.479	-0.06
677.663	-0.03
677.846	-0.02
678.03	-0.06
678.213	-0.04
678.397	-0.02
678.58	-0.05
678.764	-0.04
678.947	-0.03
679.131	-0.05
679.314	-0.02
679.498	-0.02
679.681	-0.03
679.865	0.02
680.048	-0.02
680.231	-0.04
680.415	-0.01
680.598	-0.01
680.781	0.01
680.965	-0.05
681.148	0.02
681.331	-0.04
681.514	0.01
681.698	-0.03
681.881	-0.01
682.064	0
682.247	-0
682.43	-0.09
682.614	0.02
682.797	0.03
682.98	0
683.163	-0.06
683.346	0.03
683.529	-0.06
683.712	-0.05
683.895	0.03
684.078	-0.04
684.261	0
684.444	0.02
684.627	-0
684.81	-0.04
684.993	-0.06
685.176	-0.01
685.359	-0.1
685.542	-0.06
685.725	0.05
685.908	0.03
686.091	-0.02
686.274	0.06
686.457	0.02
686.639	-0.01
686.822	-0.02
687.005	-0.01
687.188	0.02
687.371	0.07
687.553	-0.02
687.736	0.03
687.919	0.04
688.102	0.07
688.284	-0.05
688.467	-0.01
688.65	-0.02
688.832	-0.03
689.015	-0.01
689.197	-0.07
689.38	0.09
689.563	0.06
689.745	-0.02
689.928	-0.09
690.11	-0.01
690.293	0.01
690.475	-0.09
690.658	0.02
690.84	-0.02
691.023	0.01
691.205	-0.05
691.388	-0.05
691.57	-0.02
691.752	0
691.935	-0.11
692.117	-0.02
692.3	-0.02
692.482	-0.03
692.664	-0.02
692.847	0.03
693.029	0.05
693.211	-0.03
693.393	-0.03
693.576	-0.03
693.758	0.01
693.94	-0.06
694.122	-0.04
694.304	0.01
694.487	-0.02
694.669	0.05
694.851	-0.06
695.033	0.01
695.215	-0.06
695.397	-0.04
695.579	0
695.761	-0.02
695.943	-0.14
696.125	0.03
696.308	0.04
696.49	-0.12
696.671	0.08
696.853	-0.02
697.035	0.1
697.217	-0.01
697.399	0
697.581	-0.04
697.763	-0.01
697.945	-0.06
698.127	-0
698.309	-0
698.491	-0.01
698.672	-0.02
698.854	0.03
699.036	0.07
699.218	-0.08
699.399	0.01
699.581	-0.01
699.763	-0
699.945	-0.07
700.126	-0.04
700.308	0.02
700.49	-0.01
700.671	-0.09
700.853	-0.05
701.035	-0.05
701.216	-0.01
701.398	-0.05
701.579	-0.11
701.761	0.06
701.943	-0.09
702.124	-0.07
702.306	-0.07
702.487	0.13
702.669	-0.04
702.85	-0.08
703.031	-0.08
703.213	0.07
703.394	0.06
703.576	-0.04
703.757	-0
703.938	0.06
704.12	0.14
704.301	-0.02
704.483	-0.06
704.664	0
704.845	0.06
705.026	0.03
705.208	0.02
705.389	-0.03
705.57	0.07
705.751	-0.08
705.933	-0.05
706.114	0.04
706.295	-0
706.476	-0.09
706.657	0.07
706.838	0.04
707.02	0.01
707.201	-0.05
707.382	-0.03
707.563	0.01
707.744	-0.05
707.925	-0.05
708.106	-0.03
708.287	-0.01
708.468	0.05
708.649	-0.01
708.83	0.06
709.011	-0.06
709.192	0.06
709.373	-0.08
709.554	-0.08
709.734	0.04
709.915	0.03
710.096	-0.02
710.277	-0.12
710.458	-0.02
710.639	0.03
710.819	-0.09
711	-0.09
711.181	-0.03
711.362	0.02
711.542	-0.04
711.723	-0.06
711.904	0.04
712.085	0.05
712.265	0
712.446	-0.11
712.627	-0.03
712.807	-0.05
712.988	-0.02
713.168	-0.09
713.349	-0.03
713.53	-0.14
713.71	-0.05
713.891	-0.11
714.071	-0.05
714.252	-0.08
714.432	-0.06
714.613	-0.08
714.793	-0.03
714.974	0.15
715.154	0.04
715.334	-0
715.515	0.02
715.695	-0.13
715.876	-0.08
716.056	-0.12
716.236	-0.08
716.417	-0.04
716.597	-0.1
716.777	0.19
716.957	-0.02
717.138	-0.06
717.318	0.04
717.498	-0.12
717.678	-0.03
717.859	0.02
718.039	-0.05
718.219	-0.02
718.399	0.01
718.579	-0.07
718.759	-0.05
718.939	0.02
719.12	-0.01
719.3	0.03
719.48	-0.15
719.66	-0.11
719.84	0.09
720.02	0
720.2	-0.04
720.38	0.01
720.56	0.09
720.74	-0.1
720.92	0.04
721.1	-0
721.279	0.06
721.459	-0.01
721.639	-0.12
721.819	0.02
721.999	0
722.179	0.08
722.359	-0.08
722.538	-0.02
722.718	-0.01
722.898	-0.09
723.078	-0.05
723.257	-0.05
723.437	-0
723.617	0.04
723.797	-0.05
723.976	0.01
724.156	-0.01
724.336	0.12
724.515	0.08
724.695	-0.12
724.874	0
725.054	0.03
725.234	-0.07
725.413	-0.02
725.593	-0.01
725.772	-0.01
725.952	-0.11
726.131	-0.05
726.311	-0.09
726.49	-0.07
726.67	-0.13
726.849	0.01
727.028	0
727.208	-0.06
727.387	0.07
727.567	-0.06
727.746	-0.1
727.925	-0.02
728.105	-0.15
728.284	-0.06
728.463	-0.07
728.643	0.03
728.822	-0.15
729.001	-0
729.18	-0
729.359	0.03
729.539	-0.14
729.718	0.05
729.897	0.11
730.076	0.03
730.255	-0.11
730.434	0.05
730.614	0.05
730.793	0.11
730.972	-0.09
731.151	-0.08
731.33	0.09
731.509	0.06
731.688	0.01
731.867	-0.1
732.046	-0.13
732.225	0.14
732.404	-0.09
732.583	-0.12
732.762	0.01
732.941	0.04
733.12	0.06
733.298	-0.04
733.477	-0
733.656	-0.06
733.835	-0.05
734.014	0.03
734.193	-0.02
734.371	0.05
734.55	0.01
734.729	-0.15
734.908	0.1
735.086	0.01
735.265	0.05
735.444	-0.24
735.623	-0.16
735.801	-0.16
735.98	-0.01
736.159	-0.08
736.337	0.06
736.516	-0.02
736.694	-0.01
736.873	-0.07
737.052	0.11
737.23	0.11
737.409	-0.03
737.587	0.14
737.766	-0.19
737.944	-0.13
738.123	0.02
738.301	-0
738.479	-0.08
738.658	0.02
738.836	-0.29
739.015	0.12
739.193	0.02
739.371	-0.16
739.55	0.03
739.728	-0.15
739.906	0.09
740.085	0.14
740.263	0.01
740.441	-0.18
740.62	0.11
740.798	0.12
740.976	-0.16
741.154	0.01
741.332	0.05
741.511	-0.04
741.689	0.02
741.867	0.02
742.045	-0.05
742.223	-0.04
742.401	-0.06
742.579	-0.16
742.757	0.04
742.935	-0.11
743.114	-0.12
743.292	-0.06
743.47	-0.07
743.648	-0.03
743.826	-0.07
744.004	0.06
744.181	-0.07
744.359	-0.1
744.537	-0.01
744.715	0.05
744.893	-0.08
745.071	0.01
745.249	-0.04
745.427	0.04
745.605	-0.02
745.782	-0.07
745.96	0.05
746.138	0.03
746.316	0.01
746.493	-0.04
746.671	0.01
746.849	-0.05
747.027	0.11
747.204	-0.14
747.382	-0.06
747.56	-0.17
747.737	-0.04
747.915	-0.11
748.093	0.01
748.27	-0.11
748.448	-0.05
748.625	-0.15
748.803	-0.1
748.98	-0
749.158	0.02
749.335	0.1
749.513	-0.07
749.69	-0.1
749.868	-0.08
750.045	-0.02
750.223	-0.09
750.4	-0.25
750.578	0.07
750.755	0.03
750.932	-0.18
751.11	0.09
751.287	-0.2
751.464	0.14
751.642	-0.1
751.819	-0.06
751.996	-0.02
752.173	-0.07
752.351	-0.12
752.528	0.02
752.705	-0.02
752.882	-0.05
753.06	0
753.237	-0.12
753.414	0.14
753.591	0.07
753.768	0.08
753.945	-0.03
754.122	-0.08
754.299	0.13
754.476	-0.15
754.654	-0.04
754.831	0.02
755.008	0.02
755.185	-0.19
755.362	-0.07
755.539	-0.07
755.716	-0.13
755.892	-0.12
756.069	-0.1
756.246	-0.03
756.423	-0.14
756.6	0.01
756.777	-0.04
756.954	-0.01
757.131	-0.09
757.307	-0.21
757.484	-0.15
757.661	0.11
757.838	-0.01
758.015	-0.17
758.191	0.02
758.368	0
758.545	0.1
758.721	0
758.898	-0.15
759.075	0.11
759.251	0.12
759.428	-0.06
759.605	-0.1
759.781	-0.09
759.958	0.05
760.134	0.01
760.311	-0.05
760.488	0.05
760.664	0.08
760.841	-0.11
761.017	-0.1
761.194	0.06
761.37	0.01
761.547	0.05
761.723	-0.14
761.899	0.08
762.076	-0.08
762.252	-0.13
762.429	-0.03
762.605	0.03
762.781	-0
762.958	0.09
763.134	0.01
763.31	-0.16
763.486	0.13
763.663	-0.15
763.839	0.04
764.015	-0.22
764.191	-0.1
764.368	-0.09
764.544	-0.03
764.72	0.09
764.896	-0.07
765.072	0.04
765.248	0.01
765.425	-0.09
765.601	0.04
765.777	-0.02
765.953	-0.25
766.129	-0.15
766.305	-0.06
766.481	-0.02
766.657	-0.04
766.833	0.33
767.009	-0.19
767.185	-0.11
767.361	-0.18
767.537	-0.2
767.713	0.19
767.889	-0.16
768.065	-0.02
768.24	-0.19
768.416	0.13
768.592	-0.09
768.768	-0.16
768.944	-0.07
769.12	-0.24
769.295	-0.08
769.471	-0.14
769.647	-0.15
769.823	0.16
769.998	-0.04
770.174	-0.04
770.35	0.37
770.525	0.13
770.701	0.1
770.877	-0.1
771.052	-0.04
771.228	-0.06
771.403	-0.01
771.579	0.02
771.755	0.33
771.93	-0.1
772.106	-0.12
772.281	-0.21
772.457	-0.03
772.632	-0.11
772.808	-0.17
772.983	-0.06
773.159	-0.28
773.334	0.06
773.509	-0.14
773.685	-0.13
773.86	0.17
774.036	0.15
774.211	-0.09
774.386	-0.1
774.562	-0.12
774.737	-0.02
774.912	-0.14
775.087	0.1
775.263	-0.03
775.438	0.02
775.613	-0.05
775.788	-0.13
775.964	0.15
776.139	0.22
776.314	-0.24
776.489	-0.04
776.664	0.07
776.839	-0.14
777.014	0.06
777.19	0.1
777.365	0.06
777.54	0.28
777.715	-0.15
777.89	-0.07
778.065	-0.19
778.24	-0.05
778.415	0.15
778.59	-0.17
778.765	-0.06
778.94	-0.16
779.115	-0
779.289	-0.09
779.464	0.05
779.639	0.01
779.814	-0.24
779.989	-0.25
780.164	0.16
780.339	-0.01
780.513	-0.19
780.688	-0.14
780.863	-0.01
781.038	0.04
781.212	-0.12
781.387	0.01
781.562	0.18
781.737	0.01
781.911	0.19
782.086	-0.26
782.261	-0.19
782.435	0.11
782.61	-0.2
782.784	-0.03
782.959	0.25
783.134	-0.18
783.308	-0.13
783.483	0.13
783.657	0.19
783.832	0
784.006	-0.43
784.181	-0.19
784.355	0.07
784.53	0.01
784.704	-0.18
784.878	0.09
785.053	0.06
785.227	0.09
785.402	0.23
785.576	-0.34
785.75	-0.15
785.925	-0.15
786.099	0.04
786.273	0.08
786.448	0.23
786.622	-0.08
786.796	-0.03
786.97	-0.08
787.145	0.25
787.319	-0.38
787.493	-0.26
787.667	-0.29
787.841	-0.16
788.015	0.05
788.19	-0.29
788.364	-0.02
788.538	0.12
788.712	0.04
788.886	-0.1
789.06	0.15
789.234	0.22
789.408	-0.31
789.582	-0.01
789.756	-0.13
789.93	-0.19
790.104	0.07
790.278	-0.25
790.452	-0.34
790.626	0.08
790.8	-0.12
790.973	0.17
791.147	0.12
791.321	0.3
791.495	0.22
791.669	-0.13
791.843	-0.14
792.016	0.17
792.19	0.45
792.364	-0.34
792.538	0.42
792.711	0.2
792.885	-0.1
793.059	-0.27
793.233	-0.39
793.406	0.1
793.58	-0.03
793.754	-0.12
793.927	-0.14
794.101	0.37
794.274	0.16
794.448	0.32
794.622	-0.37
794.795	0.26
794.969	-0.22
795.142	0.3
795.316	-0.13
795.489	-0.35
795.663	0.14
795.836	-0.13
796.009	-0.35
796.183	0.25
796.356	0.38
796.53	-0.08
796.703	-0.1
796.876	0.58
797.05	-0.11
797.223	0.03
797.396	0.05
797.57	-0.07
797.743	0.31
797.916	-0.05
798.09	-0.07
798.263	0.25
798.436	0.14
798.609	-0.23
798.782	-0.24
798.956	0.11
799.129	0.07
799.302	-0.07
799.475	-0.3
799.648	-0.02
799.821	-0.22
799.994	-0.23
800.167	-0.55
800.34	-0.01
800.514	0.21
800.687	-0.25
800.86	-0.18
801.033	-0
801.206	-0.12
801.379	-0.27
801.551	0.06
801.724	0.12
801.897	0.4
802.07	-0.14
802.243	-0.5
802.416	-0.07
802.589	-0.51
802.762	-0.1
802.935	-0.04
803.107	0.25
803.28	0.36
803.453	0.36
803.626	-0.19
803.798	-0.11
803.971	0.05
804.144	0.27
804.317	0.01
804.489	0.02
804.662	-0.18
804.835	-0.09
805.007	-0.19
805.18	0.38
805.353	-0.15
805.525	-0.44
805.698	-0
805.87	0.05
806.043	0.12
806.215	-0.2
806.388	-0.23
806.56	-0.01
806.733	0.17
806.905	-0.08
807.078	-0.06
807.25	-0.33
807.423	-0.26
807.595	-0.15
807.768	0.03
807.94	0.12
808.112	0.4
808.285	-0.33
808.457	-0.05
808.629	-0.11
808.802	0.17
808.974	-0.02
809.146	-0.25
809.318	-0.11
809.491	0.25
809.663	0.39
809.835	-0.06
810.007	0.17
810.18	-0
810.352	-0.21
810.524	-0.2
810.696	0.07
810.868	0.28
811.04	0.03
811.212	-0
811.384	0.22
811.556	0.19
811.728	-0.3
811.901	0.52
812.073	-0.14
812.245	0.18
812.417	-0.06
812.589	-0.59
812.76	0.04
812.932	0.08
813.104	0.21
813.276	-0
813.448	-0.1
813.62	-0.04
813.792	-0.04
813.964	0.09
814.136	0.22
814.307	-0.15
814.479	-0.65
814.651	-0.29
814.823	0.5
814.995	0.02
815.166	0.2
815.338	-0.25
815.51	-0.66
815.681	0.68
815.853	-0.06
816.025	-0.19
816.196	0.63
816.368	0.04
816.54	-0.53
816.711	-0.39
816.883	0.02
817.054	0.9
817.226	-0.73
817.398	0.33
817.569	-0.78
817.741	-0.02
817.912	0.09
818.084	-0.19
818.255	0.46
818.426	-0.41
818.598	-0.23
818.769	-0.22
818.941	-0.22
819.112	0.66
819.283	0.16
819.455	-0.18
819.626	-0.14
819.798	0.28
819.969	0.11
820.14	-0.03
820.311	-0.15
820.483	-0.05
820.654	0.24
820.825	-0.1
820.996	-0.29
821.168	-0.63
821.339	-0.46
821.51	-0.36
821.681	-0.19
821.852	0.14
822.023	-0.45
822.195	-1.05
822.366	0.33
822.537	-0.2
822.708	-0.07
822.879	-0.15
823.05	0.25
823.221	-0.36
823.392	0.28
823.563	0.14
823.734	0.27
823.905	-0.1
824.076	0.05
824.247	-0.47
824.418	-0.03
824.589	0.47
824.759	-0.4
824.93	-0.07
825.101	-0.59
825.272	0.22
825.443	0.56
825.614	0.06
825.784	-1.06
825.955	0.61
826.126	1.02
826.297	0.44
826.467	0.39
826.638	1
826.809	-0.69
826.98	-0.12
827.15	0.3
827.321	0.06
827.492	0.12
827.662	0.38
827.833	0.86
828.003	0.18
828.174	-0.32
828.345	-0.92
828.515	0.45
828.686	-0.21
828.856	0.22
829.027	0.15
829.197	0.24
829.368	0.35
829.538	-0.29
829.709	-0.6
829.879	0.23
830.049	0.24
830.22	-0.69
830.39	-0.04
830.56	0.43
830.731	-0.52
830.901	-0.33
831.072	0.25
831.242	-0.3
831.412	-0.04
831.582	0.13
831.753	-0.78
831.923	0.6
832.093	-0.64
832.263	-0.35
832.434	-1.03
832.604	-0.22
832.774	-0
832.944	-0.4
833.114	-0.09
833.284	-0.02
833.454	-0.32
833.624	-0.28
833.795	-0.25
833.965	0.36
834.135	0.42
834.305	-0.66
834.475	-0.69
834.645	0.09
834.815	-0.38
834.985	-0.84
835.155	-0.78
835.325	0.94
835.494	0.26
835.664	-0.74
835.834	-0.96
836.004	-0.1
836.174	0.41
836.344	-0.27
836.514	-0.46
836.684	-0.25
836.853	-0.37
837.023	-0.04
837.193	-1
837.363	0.69
837.532	-0.01
837.702	-0.61
837.872	-0.33
838.041	0.51
838.211	0.56
838.381	-0.69
838.55	-0.44
838.72	1.32
838.89	1.37
839.059	-0.06
839.229	-0.55
839.398	1.02
839.568	-0.04
839.738	0.08
839.907	0.22
840.077	0.23
840.246	-0.92
840.416	-0.32
840.585	-0.71
840.755	1.01
840.924	0.86
841.093	-0.41
841.263	-0.3
841.432	0.44
841.602	-0.82
841.771	-0.45
841.94	-0.2
842.11	2.02
842.279	1
842.448	-0.62
842.617	-0.89
842.787	1.07
842.956	-0.64
843.125	0.49
843.294	0.12
843.464	1.35
843.633	-0.62
843.802	-1.33
843.971	-0.79
844.14	0.25
844.309	0.49
844.479	-0.19
844.648	-0.63
844.817	0.15
844.986	-0.02
845.155	-0.29
845.324	-0.75
845.493	-0.03
845.662	-1.15
845.831	-0.38
846	0.67
846.169	0.42
846.338	1.07
846.507	-0.02
846.676	-0.13
846.844	-0.24
847.013	0.8
847.182	0.15
847.351	-0.78
847.52	-0.12
847.689	0.53
847.858	0.31
848.026	-0.31
848.195	0.72
848.364	0.37
848.533	-0.69
848.701	-0.74
848.87	-0.06
849.039	0.59
849.207	-0.26
849.376	1.12
849.545	0.94
849.713	-1.73
849.882	-0.41
850.051	-0.43
850.219	-0.19
850.388	-0.03
850.556	-1.01
850.725	-0.62
850.893	0.13
851.062	-0.18
851.23	0.55
851.399	-1.63
851.567	-1.92
851.736	-0.86
851.904	-1
852.073	-0.36
852.241	1.34
852.41	-1.02
852.578	-0
852.746	-0.59
852.915	0.39
853.083	-0.34
853.251	-0.79
853.42	-0.23
853.588	0.18
853.756	0.98
853.924	-1.07
854.093	-0.82
854.261	-1.06
854.429	-1.27
854.597	-0.66
854.765	-1.65
854.934	1.53
855.102	1.19
855.27	0.08
855.438	0.54
855.606	-0.25
855.774	0.02
855.942	-1.21
856.11	-1.2
856.278	0.57
856.446	0.19
856.614	0.87
856.782	-0.8
856.95	0.93
857.118	0.16
857.286	-0.31
857.454	-1.08
857.622	0.66
857.79	-0.45
857.958	-1.29
858.126	-0.21
858.294	-3.23
858.462	-0.93
858.629	-0.73
858.797	-1.69
858.965	0.52
859.133	0.47
859.301	-1.3
859.468	1.15
859.636	0.29
859.804	0.78
859.971	-0.24
860.139	-0.82
860.307	-0.12
860.474	0.08
860.642	-1.06
860.81	-0.19
860.977	-0.47
861.145	1.58
861.313	-0.69
861.48	-0.49
861.648	1.08
861.815	0.09
861.983	-0.85
862.15	-1.47
862.318	0.81
862.485	0.47
862.653	-1.65
862.82	-1.04
862.988	0.09
863.155	0.56
863.322	-0.3
863.49	-0.83
863.657	-0.83
863.824	1.14
863.992	0.04
864.159	-0.65
864.326	2.22
864.494	-0.76
864.661	2.08
864.828	-1.24
864.996	2.01
865.163	1.93
865.33	-0.67
865.497	-3.21
865.664	-1.47
865.832	-1.84
865.999	-1.03
866.166	-1.35
866.333	-0.64
866.5	-0.36
866.667	-1.07
866.834	-1.26
867.001	0.73
867.168	-1.82
867.335	1.11
867.502	-0.55
867.669	-0.48
867.836	1.27
868.003	0.41
868.17	0.18
868.337	3.32
868.504	2.4
868.671	-3.11
868.838	-2.26
869.005	-0.53
869.172	1.77
869.339	0.17
869.505	1.29
869.672	-0.51
869.839	0.77
870.006	0.03
870.173	-2.9
870.339	-0.48
870.506	2.67
870.673	-1.98
870.84	2.51
871.006	0.77
871.173	-0.03
871.34	-0.45
871.506	-2.01
871.673	-0.18
871.839	-1.9
872.006	0.1
872.173	-0.63
872.339	-1.34
872.506	2.28
872.672	-1.2
872.839	-2.72
873.005	0.78
873.172	3.16
873.338	1.13
873.505	1
873.671	1.61
873.838	1.05
874.004	-1.28
874.171	-1.52
874.337	0.53
874.503	1.94
874.67	-0.11
874.836	0.57
875.002	2.5
875.169	0.94
875.335	-0.68
875.501	-1.37
875.668	1.11
875.834	0.3
876	-1.23
876.166	1.53
876.332	-0.4
876.499	3.39
876.665	-1.76
876.831	0.22
876.997	2.07
877.163	0.02
877.329	-0.26
877.495	0.14
877.662	0.38
877.828	-0.17
877.994	0.05
878.16	-2.26
878.326	-0.24
878.492	0.18
878.658	-1.56
878.824	0.29
878.99	1.41
879.156	-1.36
879.322	1.51
879.487	-0.97
879.653	-0.69
879.819	1.02
879.985	-0.95
880.151	-0.06
880.317	0.2
880.483	-1.83
880.648	1.96
880.814	-2.24
880.98	0.63
881.146	-1.75
881.312	-0.64
881.477	0.5
881.643	-0.74
881.809	0.92
881.974	1.35
882.14	-3.97
882.306	1.16
882.471	3.71
882.637	-1.17
882.803	2
882.968	2.07
883.134	1.68
883.299	-0
883.465	-1.39
883.63	2.7
883.796	1.45
883.961	0.75
884.127	0.61
884.292	-4.57
884.458	-0.39
884.623	-0.39
