Data from Apollo_Calib_20240827__AbsoluteIrradiance__251__03-20-02-092.txt Node

Date: Wed Aug 28 03:20:02 BST 2024
User: biology
Spectrometer: FLMT08252
Trigger mode: 0
Integration Time (sec): 5.000000E-1
Scans to average: 5
Electric dark correction enabled: true
Nonlinearity correction enabled: false
Boxcar width: 0
XAxis mode: Wavelengths
Number of Pixels in Spectrum: 3648
>>>>>Begin Spectral Data<<<<<
179.588	-0
179.809	-0
180.03	-0
180.251	-0
180.473	-0
180.694	0
180.915	0
181.136	-0
181.357	0
181.578	0
181.799	-0
182.02	-0
182.241	-0
182.462	0
182.683	0
182.904	-0
183.125	-0
183.346	0
183.567	-0
183.788	-0
184.009	-0
184.23	0
184.451	0
184.672	-0
184.892	-0
185.113	0
185.334	0
185.555	-0
185.776	-0
185.996	0
186.217	0
186.438	-0
186.659	-0
186.879	0
187.1	-0
187.321	-0
187.541	-0
187.762	0
187.983	0
188.203	0
188.424	-0
188.644	0
188.865	-0
189.086	-0
189.306	0
189.527	-0
189.747	0
189.968	-0
190.188	0
190.409	-0
190.629	0
190.849	-0
191.07	0
191.29	0
191.511	0
191.731	-0
191.951	-0
192.172	-0
192.392	-0
192.612	-0
192.833	-0
193.053	-0
193.273	0
193.493	-0
193.714	-0
193.934	0
194.154	0
194.374	-0
194.594	-0
194.815	0
195.035	0
195.255	-0
195.475	-0
195.695	0
195.915	0
196.135	-0
196.355	0
196.575	0
196.795	0
197.015	-0
197.235	-0
197.455	-0
197.675	0
197.895	-0
198.115	-0
198.335	0
198.555	-0
198.775	-0
198.995	-0
199.214	0
199.434	0
199.654	-0
199.874	-0
200.094	0.26
200.313	0.31
200.533	-0.57
200.753	-0.43
200.973	0.91
201.192	0.45
201.412	-0.74
201.632	-0.58
201.851	0.75
202.071	-0.34
202.291	-0.76
202.51	-0.93
202.73	0.21
202.95	-0.08
203.169	-0.43
203.389	-0.05
203.608	0.35
203.828	-0.68
204.047	-0.43
204.267	0.15
204.486	-0.06
204.706	0.12
204.925	-0.1
205.145	-0.22
205.364	0.48
205.583	0.91
205.803	-0.22
206.022	-0.19
206.242	0.15
206.461	0.27
206.68	-0.57
206.9	0.07
207.119	0.56
207.338	0.56
207.557	-0.35
207.777	0.04
207.996	0.12
208.215	0.66
208.434	-0.33
208.654	-0.5
208.873	-0.05
209.092	0.41
209.311	-0.22
209.53	-0.32
209.749	-0.03
209.968	-0.42
210.187	-0.34
210.407	-0.54
210.626	0.05
210.845	0.16
211.064	-0
211.283	-0.38
211.502	0.26
211.721	0.07
211.94	-0.05
212.159	0.21
212.377	0.06
212.596	0.35
212.815	0.06
213.034	0.16
213.253	0.31
213.472	0.25
213.691	-0.18
213.91	-0.33
214.128	-0.4
214.347	0.21
214.566	-0.35
214.785	-0.34
215.003	0.01
215.222	0.01
215.441	-0.13
215.66	-0.23
215.878	0.05
216.097	0.24
216.316	-0.23
216.534	-0.09
216.753	0.08
216.972	-0.11
217.19	-0.09
217.409	-0.18
217.627	-0.03
217.846	0
218.064	0.01
218.283	-0.27
218.501	0.43
218.72	0.26
218.938	-0.19
219.157	-0.18
219.375	0.14
219.594	0.16
219.812	-0.3
220.031	-0.14
220.249	0.36
220.467	0.13
220.686	-0.1
220.904	-0.23
221.122	-0.17
221.341	0.28
221.559	-0.07
221.777	-0.08
221.995	0.04
222.214	0.09
222.432	-0.12
222.65	0.19
222.868	0.09
223.086	-0.04
223.305	0.13
223.523	-0.11
223.741	0.26
223.959	-0.05
224.177	-0.31
224.395	-0.15
224.613	0.2
224.831	0.1
225.049	-0.29
225.267	-0.13
225.485	0.2
225.703	-0.09
225.921	-0.03
226.139	-0.04
226.357	0.2
226.575	0.07
226.793	-0.05
227.011	0.58
227.229	0.04
227.447	0.14
227.665	-0.06
227.883	-0.23
228.1	0.06
228.318	-0.07
228.536	-0.26
228.754	-0.14
228.972	0.06
229.189	0.15
229.407	-0.15
229.625	-0.03
229.843	0.15
230.06	0.16
230.278	-0.1
230.496	-0.14
230.713	0.16
230.931	0.17
231.149	-0.04
231.366	-0.14
231.584	-0.07
231.801	0.33
232.019	-0.03
232.236	-0.13
232.454	-0.2
232.671	0.15
232.889	-0.09
233.106	-0.2
233.324	-0.08
233.541	-0.05
233.759	-0.07
233.976	-0.12
234.194	0.01
234.411	-0.01
234.628	-0.13
234.846	-0.03
235.063	0.01
235.28	-0.03
235.498	-0.04
235.715	-0.1
235.932	0.08
236.149	0.01
236.367	-0.02
236.584	0.05
236.801	-0.13
237.018	0.14
237.236	-0.02
237.453	-0.16
237.67	0.19
237.887	0.04
238.104	-0.02
238.321	-0.11
238.538	-0.08
238.755	0.12
238.973	-0.17
239.19	0.09
239.407	0.03
239.624	0.01
239.841	-0.23
240.058	-0.05
240.275	0.05
240.492	-0.01
240.709	-0.02
240.925	-0.02
241.142	0.05
241.359	-0.09
241.576	-0.05
241.793	-0.07
242.01	-0
242.227	0.13
242.444	-0.01
242.66	0.08
242.877	0.06
243.094	-0.08
243.311	0.04
243.527	-0.06
243.744	0.01
243.961	0.16
244.178	-0.11
244.394	0.02
244.611	0.12
244.828	0.12
245.044	-0.18
245.261	-0.04
245.477	0.05
245.694	0.03
245.911	-0.04
246.127	-0.03
246.344	0.12
246.56	0.14
246.777	-0
246.993	-0.04
247.21	0.07
247.426	0.12
247.643	-0.02
247.859	-0.05
248.076	0.01
248.292	0.16
248.508	0
248.725	0.05
248.941	0.03
249.157	0.15
249.374	-0.08
249.59	-0.04
249.806	0.01
250.023	0.01
250.239	-0.12
250.455	-0.07
250.671	0.03
250.888	0.09
251.104	0.05
251.32	-0.05
251.536	-0.02
251.752	-0.03
251.969	0.02
252.185	0.02
252.401	0.2
252.617	0.04
252.833	-0.01
253.049	0.01
253.265	-0.01
253.481	0.02
253.697	-0.05
253.913	-0.11
254.129	0.03
254.345	0.07
254.561	-0
254.777	0.01
254.993	0.11
255.209	0.09
255.425	0.02
255.641	-0.01
255.857	0.09
256.073	0.04
256.288	-0.07
256.504	0.01
256.72	-0.03
256.936	0.17
257.152	-0.03
257.367	-0.07
257.583	0.08
257.799	0.04
258.015	-0.01
258.23	-0.04
258.446	0.12
258.662	0.02
258.877	-0.07
259.093	-0.09
259.309	-0.06
259.524	0.05
259.74	-0.03
259.955	-0.11
260.171	0.03
260.387	-0.05
260.602	0.03
260.818	0.07
261.033	-0.05
261.249	-0.02
261.464	-0.04
261.68	-0.08
261.895	0.06
262.11	0.09
262.326	-0.04
262.541	-0.11
262.757	0.1
262.972	0.01
263.187	0.09
263.403	0.01
263.618	0.05
263.833	0.02
264.049	-0.04
264.264	-0.03
264.479	0.02
264.694	0.08
264.91	-0.05
265.125	-0.06
265.34	0.08
265.555	0.17
265.77	0.06
265.986	-0.02
266.201	0.02
266.416	0.06
266.631	0.04
266.846	-0.01
267.061	0.05
267.276	0.05
267.491	-0.13
267.706	0.08
267.921	0.07
268.136	0.01
268.351	0.05
268.566	-0.07
268.781	0.12
268.996	-0.04
269.211	-0.01
269.426	-0.07
269.641	-0.03
269.856	0.07
270.071	-0.04
270.285	-0.08
270.5	0.08
270.715	0.06
270.93	-0.02
271.145	0.05
271.359	0.02
271.574	-0.05
271.789	0.01
272.004	-0.11
272.218	-0.08
272.433	0.01
272.648	-0.04
272.862	0.09
273.077	0.02
273.292	0
273.506	-0.09
273.721	-0.13
273.936	0.07
274.15	0.13
274.365	0.05
274.579	-0
274.794	0.05
275.008	0.09
275.223	-0.11
275.437	-0.03
275.652	0.05
275.866	0.05
276.081	-0.03
276.295	0.08
276.509	-0.01
276.724	0.06
276.938	0.01
277.153	0.05
277.367	0.04
277.581	0
277.796	-0.03
278.01	-0.04
278.224	0.05
278.438	0.16
278.653	-0.02
278.867	-0.04
279.081	0.03
279.295	0.01
279.51	-0.01
279.724	-0.07
279.938	0.03
280.152	0.03
280.366	-0.05
280.58	0.05
280.794	0.1
281.008	0.06
281.222	0.07
281.437	0.14
281.651	0.02
281.865	0.06
282.079	0.02
282.293	-0.04
282.507	-0.08
282.721	-0.01
282.935	-0.03
283.148	-0.04
283.362	0.01
283.576	-0.06
283.79	-0.01
284.004	-0.02
284.218	0.06
284.432	-0.01
284.646	-0.02
284.859	0
285.073	0.03
285.287	-0.02
285.501	-0.01
285.714	0.01
285.928	0.01
286.142	0.03
286.356	-0.02
286.569	0.01
286.783	0.13
286.997	0.05
287.21	0.07
287.424	0.02
287.637	-0.03
287.851	-0.03
288.065	0.05
288.278	0.02
288.492	0.01
288.705	-0.02
288.919	0.01
289.132	-0.06
289.346	0.04
289.559	-0.05
289.773	-0.06
289.986	0.03
290.2	-0.01
290.413	0.06
290.626	-0.02
290.84	-0.03
291.053	0.02
291.267	0.1
291.48	0.01
291.693	-0.05
291.906	-0.02
292.12	0.02
292.333	-0.06
292.546	0.01
292.76	0.14
292.973	0.01
293.186	-0
293.399	-0.01
293.612	0.12
293.826	0.04
294.039	-0.02
294.252	0.01
294.465	0.03
294.678	0.06
294.891	0
295.104	-0.07
295.317	-0.02
295.53	0.05
295.743	0.05
295.956	0.02
296.169	0.09
296.382	0.09
296.595	-0.01
296.808	0
297.021	0.12
297.234	0.03
297.447	-0.01
297.66	0.03
297.873	0.09
298.086	0.08
298.299	-0.03
298.511	-0.09
298.724	0.01
298.937	-0.04
299.15	0.01
299.363	-0.04
299.575	0.06
299.788	0.01
300.001	-0.01
300.213	-0.08
300.426	-0.01
300.639	0.01
300.852	-0
301.064	0.03
301.277	0.09
301.489	0.02
301.702	0.04
301.915	0.01
302.127	0.03
302.34	0.03
302.552	0.04
302.765	-0.01
302.977	0.02
303.19	-0.01
303.402	-0.03
303.615	-0.01
303.827	0.01
304.04	0.01
304.252	0.03
304.464	-0.02
304.677	0.12
304.889	0.07
305.102	0.01
305.314	-0.01
305.526	0
305.739	0.02
305.951	-0
306.163	0
306.375	0.06
306.588	-0.01
306.8	-0.01
307.012	-0.04
307.224	0.08
307.436	0.1
307.649	-0.1
307.861	0.05
308.073	0.02
308.285	-0.03
308.497	-0.02
308.709	-0.02
308.921	0.03
309.133	0.02
309.346	0.05
309.558	0.02
309.77	0.06
309.982	0.04
310.194	0.06
310.406	-0
310.617	0.08
310.829	0.06
311.041	0.04
311.253	0
311.465	0.03
311.677	0
311.889	-0.03
312.101	-0.04
312.313	0.05
312.524	0.08
312.736	-0.02
312.948	-0.03
313.16	0.11
313.372	0.02
313.583	0.01
313.795	-0.01
314.007	-0
314.218	0.08
314.43	-0.02
314.642	0.03
314.853	-0.04
315.065	0.05
315.277	-0.04
315.488	0.02
315.7	0.05
315.912	0.03
316.123	-0
316.335	-0.02
316.546	0.06
316.758	0.03
316.969	-0.01
317.181	-0
317.392	0.01
317.604	0.09
317.815	-0.03
318.026	-0.04
318.238	-0.02
318.449	0.04
318.661	-0.08
318.872	-0.01
319.083	-0.03
319.295	0.03
319.506	0
319.717	0.07
319.929	0.02
320.14	0.01
320.351	0.03
320.562	-0.01
320.774	0.01
320.985	0.03
321.196	-0.03
321.407	-0.06
321.618	0.05
321.829	0.02
322.041	0.03
322.252	0.01
322.463	0.01
322.674	-0
322.885	0.01
323.096	0.02
323.307	-0.01
323.518	0.06
323.729	-0.01
323.94	0
324.151	-0.02
324.362	0.1
324.573	0.03
324.784	-0.04
324.995	0.02
325.206	0.03
325.417	-0.02
325.628	-0.03
325.838	0.01
326.049	-0.02
326.26	0.05
326.471	-0.01
326.682	0.04
326.892	0.01
327.103	-0.04
327.314	-0.01
327.525	0.07
327.735	-0.04
327.946	-0.01
328.157	0
328.368	-0.02
328.578	0.05
328.789	0.03
328.999	0.01
329.21	-0.02
329.421	0.02
329.631	-0.03
329.842	-0.03
330.052	0.02
330.263	0.02
330.473	0.07
330.684	-0.01
330.894	-0.01
331.105	0.06
331.315	0.02
331.526	-0.02
331.736	0.08
331.947	0.07
332.157	0.05
332.367	-0.03
332.578	0.05
332.788	0.11
332.999	0.01
333.209	0.01
333.419	0.01
333.629	0.01
333.84	0.06
334.05	-0.01
334.26	0.05
334.47	0.02
334.681	0.09
334.891	-0.01
335.101	0.03
335.311	0.09
335.521	0.03
335.732	-0.04
335.942	0.06
336.152	0.02
336.362	0.02
336.572	0.03
336.782	0.06
336.992	0.01
337.202	-0.03
337.412	-0.04
337.622	0.01
337.832	0.02
338.042	0.02
338.252	-0.03
338.462	0.03
338.672	0.02
338.882	0.03
339.092	0.01
339.302	0.09
339.511	0.09
339.721	0.01
339.931	-0
340.141	0.06
340.351	0.06
340.561	0.01
340.77	0.01
340.98	0.03
341.19	0.04
341.4	0.01
341.609	-0.02
341.819	0.01
342.029	-0.07
342.238	0.02
342.448	-0.03
342.658	0.03
342.867	0.03
343.077	0
343.286	0.06
343.496	0.01
343.706	0.1
343.915	-0.05
344.125	-0.03
344.334	0
344.544	-0.03
344.753	-0.03
344.963	-0.03
345.172	-0.01
345.381	-0
345.591	-0.05
345.8	0.02
346.01	0.11
346.219	0.03
346.428	-0.12
346.638	-0.03
346.847	0.01
347.056	0.06
347.266	-0.02
347.475	0.03
347.684	0.06
347.893	0.01
348.103	0.01
348.312	0.02
348.521	-0.02
348.73	0.05
348.94	0.06
349.149	0.02
349.358	-0.02
349.567	-0.03
349.776	-0.08
349.985	-0.01
350.194	0.05
350.403	0.09
350.612	-0.04
350.821	-0.01
351.03	-0
351.239	-0.01
351.448	0.05
351.657	-0.03
351.866	0.07
352.075	0.05
352.284	0.05
352.493	-0.03
352.702	0.07
352.911	0.04
353.12	0.05
353.329	0.03
353.538	0.06
353.746	0.06
353.955	-0.03
354.164	0.03
354.373	0.03
354.582	0.07
354.79	0
354.999	0.05
355.208	-0
355.416	0.12
355.625	-0
355.834	-0.01
356.042	0.03
356.251	0.02
356.46	-0.02
356.668	0.03
356.877	0.13
357.085	0.06
357.294	-0.05
357.503	0.01
357.711	-0.01
357.92	0.12
358.128	-0.01
358.337	-0.02
358.545	0.03
358.754	0.03
358.962	0.02
359.17	0.02
359.379	0.03
359.587	0.06
359.796	0.02
360.004	0.07
360.212	0.04
360.421	0.05
360.629	0.01
360.837	-0
361.046	0.06
361.254	0.11
361.462	0.02
361.67	-0.02
361.879	0.03
362.087	0.1
362.295	-0.01
362.503	0.01
362.711	-0.03
362.92	0.01
363.128	-0.02
363.336	-0.05
363.544	-0.02
363.752	0
363.96	-0.02
364.168	0.01
364.376	0.02
364.584	0.04
364.792	0.05
365	0.06
365.208	0.01
365.416	0.05
365.624	0.05
365.832	-0.01
366.04	0.12
366.248	0
366.456	0.04
366.664	0.01
366.872	-0
367.079	0.02
367.287	-0.01
367.495	0.03
367.703	0
367.911	-0.01
368.118	-0.01
368.326	0.04
368.534	-0.04
368.742	0.11
368.949	-0.04
369.157	-0.01
369.365	0.04
369.572	0.03
369.78	-0.06
369.988	0.06
370.195	0.1
370.403	0.08
370.61	-0.01
370.818	0.05
371.026	0.07
371.233	0
371.441	0.04
371.648	0
371.856	0.07
372.063	0.07
372.271	-0
372.478	-0
372.685	-0.02
372.893	0.05
373.1	0.05
373.308	0.02
373.515	0.1
373.722	0.07
373.93	0
374.137	0.03
374.344	0.1
374.552	0.05
374.759	0.05
374.966	0.03
375.173	0.02
375.381	0.05
375.588	0
375.795	-0.07
376.002	-0
376.209	0.02
376.417	0
376.624	-0.01
376.831	0.04
377.038	-0
377.245	-0.06
377.452	-0.01
377.659	0.04
377.866	-0.05
378.073	0.04
378.28	0.01
378.487	0.08
378.694	0.04
378.901	0.04
379.108	0.03
379.315	0.04
379.522	0.12
379.729	0.02
379.936	0.01
380.143	0.02
380.35	0.06
380.557	0.01
380.763	0.03
380.97	0.03
381.177	0.04
381.384	0.02
381.591	0.02
381.797	-0.02
382.004	0.04
382.211	0.04
382.418	0.03
382.624	0.05
382.831	0.05
383.038	0.03
383.244	0.05
383.451	-0.01
383.658	0.05
383.864	0.03
384.071	0.01
384.277	0.09
384.484	0.01
384.69	0.06
384.897	-0.02
385.103	0.01
385.31	0
385.516	0.03
385.723	-0.01
385.929	0.02
386.136	0.04
386.342	0.06
386.549	0.01
386.755	0.09
386.961	0.08
387.168	0.04
387.374	0.03
387.58	0.08
387.787	0.04
387.993	0.06
388.199	0.03
388.406	-0
388.612	0.02
388.818	-0.01
389.024	-0.02
389.231	0.11
389.437	0.11
389.643	0.08
389.849	0.02
390.055	0.03
390.261	0.08
390.467	0.05
390.674	-0.01
390.88	0.07
391.086	0.06
391.292	0.03
391.498	0.08
391.704	0.07
391.91	0.05
392.116	0.02
392.322	-0.07
392.528	0.04
392.734	0.03
392.94	0.06
393.146	0.06
393.352	0.08
393.557	0.02
393.763	0.07
393.969	0.12
394.175	0.09
394.381	0.09
394.587	0.02
394.792	0.05
394.998	0.16
395.204	0.08
395.41	0.06
395.615	0.11
395.821	0.1
396.027	0.11
396.233	0.04
396.438	0.09
396.644	0.18
396.85	0.12
397.055	0.12
397.261	0.07
397.466	0.22
397.672	0.12
397.878	0.16
398.083	0.14
398.289	0.11
398.494	0.15
398.7	0.18
398.905	0.07
399.111	0.21
399.316	0.08
399.522	0.16
399.727	0.15
399.932	0.17
400.138	0.14
400.343	0.21
400.549	0.19
400.754	0.22
400.959	0.2
401.165	0.21
401.37	0.22
401.575	0.33
401.78	0.18
401.986	0.2
402.191	0.27
402.396	0.23
402.601	0.29
402.807	0.31
403.012	0.31
403.217	0.38
403.422	0.38
403.627	0.36
403.832	0.35
404.037	0.41
404.243	0.45
404.448	0.38
404.653	0.46
404.858	0.49
405.063	0.51
405.268	0.47
405.473	0.48
405.678	0.52
405.883	0.79
406.088	0.65
406.293	0.6
406.498	0.64
406.703	0.78
406.907	0.75
407.112	0.72
407.317	0.86
407.522	0.94
407.727	0.84
407.932	0.96
408.136	1.08
408.341	0.96
408.546	1.12
408.751	1.1
408.956	1.18
409.16	1.26
409.365	1.28
409.57	1.37
409.774	1.39
409.979	1.47
410.184	1.54
410.388	1.52
410.593	1.67
410.798	1.7
411.002	1.82
411.207	1.98
411.411	1.94
411.616	1.95
411.82	2.17
412.025	2.23
412.229	2.27
412.434	2.45
412.638	2.53
412.843	2.53
413.047	2.66
413.252	2.7
413.456	2.96
413.66	3.04
413.865	3.16
414.069	3.22
414.273	3.31
414.478	3.3
414.682	3.49
414.886	3.64
415.091	3.71
415.295	3.87
415.499	4.07
415.703	4.09
415.908	4.42
416.112	4.32
416.316	4.53
416.52	4.73
416.724	4.86
416.929	4.98
417.133	5.39
417.337	5.35
417.541	5.49
417.745	5.63
417.949	5.8
418.153	6.09
418.357	6.18
418.561	6.45
418.765	6.45
418.969	6.72
419.173	7.04
419.377	7.13
419.581	7.48
419.785	7.66
419.989	7.66
420.193	7.99
420.397	8.13
420.601	8.32
420.804	8.4
421.008	8.43
421.212	8.69
421.416	8.73
421.62	8.69
421.823	8.63
422.027	8.72
422.231	8.82
422.435	8.66
422.638	8.52
422.842	8.79
423.046	8.82
423.249	8.98
423.453	8.85
423.657	8.93
423.86	8.97
424.064	9.08
424.268	9.09
424.471	8.83
424.675	8.97
424.878	8.84
425.082	8.84
425.285	9.06
425.489	8.7
425.692	8.58
425.896	8.36
426.099	8.39
426.303	8.38
426.506	8.39
426.71	8.34
426.913	8.2
427.116	8.2
427.32	7.88
427.523	7.78
427.726	7.73
427.93	7.57
428.133	7.58
428.336	7.49
428.54	7.25
428.743	7.17
428.946	7.2
429.149	6.78
429.353	6.55
429.556	6.35
429.759	6.1
429.962	5.92
430.165	5.93
430.368	5.42
430.571	5.18
430.775	5.06
430.978	4.91
431.181	4.58
431.384	4.56
431.587	4.35
431.79	4.41
431.993	4.12
432.196	4.18
432.399	4.15
432.602	4.12
432.805	3.96
433.008	4.04
433.211	3.79
433.414	3.89
433.616	3.73
433.819	3.52
434.022	3.46
434.225	3.35
434.428	3.2
434.631	3.39
434.833	3.06
435.036	3.05
435.239	3.06
435.442	2.95
435.645	2.86
435.847	2.85
436.05	2.85
436.253	2.78
436.455	2.66
436.658	2.52
436.861	2.56
437.063	2.46
437.266	2.38
437.468	2.43
437.671	2.54
437.874	2.26
438.076	2.18
438.279	2.13
438.481	2.13
438.684	2.13
438.886	2.06
439.089	1.96
439.291	1.94
439.494	1.96
439.696	1.77
439.899	1.91
440.101	1.82
440.303	1.74
440.506	1.88
440.708	1.71
440.91	1.7
441.113	1.6
441.315	1.64
441.517	1.5
441.72	1.5
441.922	1.37
442.124	1.34
442.326	1.4
442.529	1.4
442.731	1.22
442.933	1.36
443.135	1.2
443.337	1.13
443.539	1.15
443.742	1.05
443.944	1.06
444.146	0.97
444.348	0.95
444.55	0.91
444.752	0.9
444.954	0.89
445.156	0.87
445.358	0.89
445.56	0.94
445.762	0.82
445.964	0.77
446.166	0.68
446.368	0.73
446.57	0.76
446.772	0.69
446.974	0.63
447.175	0.69
447.377	0.65
447.579	0.62
447.781	0.55
447.983	0.69
448.184	0.54
448.386	0.55
448.588	0.48
448.79	0.57
448.991	0.52
449.193	0.48
449.395	0.51
449.597	0.53
449.798	0.51
450	0.53
450.202	0.44
450.403	0.49
450.605	0.5
450.806	0.47
451.008	0.34
451.21	0.44
451.411	0.44
451.613	0.37
451.814	0.42
452.016	0.47
452.217	0.38
452.419	0.39
452.62	0.37
452.821	0.36
453.023	0.44
453.224	0.35
453.426	0.33
453.627	0.33
453.828	0.36
454.03	0.32
454.231	0.33
454.432	0.23
454.634	0.36
454.835	0.24
455.036	0.29
455.238	0.33
455.439	0.3
455.64	0.19
455.841	0.22
456.042	0.31
456.244	0.33
456.445	0.18
456.646	0.17
456.847	0.21
457.048	0.28
457.249	0.28
457.45	0.54
457.651	0.17
457.852	0.26
458.054	0.18
458.255	0.2
458.456	0.2
458.657	0.17
458.858	0.18
459.058	0.18
459.259	0.2
459.46	0.14
459.661	0.16
459.862	0.28
460.063	0.16
460.264	0.2
460.465	0.14
460.666	0.31
460.866	0.13
461.067	0.12
461.268	0.12
461.469	0.11
461.67	0.13
461.87	0.15
462.071	0.15
462.272	0.1
462.473	0.14
462.673	0.15
462.874	0.12
463.075	0.13
463.275	0.12
463.476	0.18
463.676	0.17
463.877	0.14
464.078	0.12
464.278	0.12
464.479	0.11
464.679	0.1
464.88	0.09
465.08	0.16
465.281	0.06
465.481	0.06
465.682	0.14
465.882	0.15
466.083	0.1
466.283	0.1
466.483	0.12
466.684	0.06
466.884	0
467.085	0.09
467.285	0.18
467.485	0.06
467.686	0.08
467.886	0.06
468.086	0.09
468.286	0.07
468.487	0.09
468.687	-0
468.887	0.06
469.087	0.12
469.287	0.05
469.488	0.04
469.688	0.13
469.888	0.17
470.088	0.12
470.288	0.1
470.488	0.11
470.688	0.02
470.888	0.02
471.088	0.03
471.288	0.1
471.488	0.12
471.688	0.07
471.888	-0.01
472.088	0.11
472.288	0.06
472.488	0.05
472.688	0.08
472.888	0.11
473.088	0.07
473.288	0.08
473.488	0.07
473.688	0.08
473.887	0.03
474.087	-0.01
474.287	0.08
474.487	0.02
474.687	0.08
474.886	0.02
475.086	0.06
475.286	0.05
475.486	0.05
475.685	0.03
475.885	0.04
476.085	0.04
476.284	0.08
476.484	0.02
476.684	0.08
476.883	0.08
477.083	0.08
477.282	0.03
477.482	0.1
477.681	0.09
477.881	0.03
478.08	-0.01
478.28	0.04
478.479	0.06
478.679	0.13
478.878	0.05
479.078	0.01
479.277	0.02
479.477	0.04
479.676	0.06
479.875	0.06
480.075	0
480.274	0.06
480.473	0.04
480.673	0.04
480.872	0.08
481.071	0.01
481.271	0.04
481.47	0.05
481.669	0.01
481.868	0.03
482.067	0.02
482.267	0.01
482.466	-0.01
482.665	0.03
482.864	0.01
483.063	-0.01
483.262	0.04
483.461	0.09
483.661	0.07
483.86	0.04
484.059	0.03
484.258	0.05
484.457	0.02
484.656	0.02
484.855	0.07
485.054	-0.03
485.253	0
485.452	-0.04
485.651	0.01
485.849	-0
486.048	0.02
486.247	-0.02
486.446	0.04
486.645	-0
486.844	0.02
487.043	0.03
487.241	0.05
487.44	0.01
487.639	0.02
487.838	0.01
488.037	0.04
488.235	0.07
488.434	0.01
488.633	0
488.831	0.03
489.03	0.04
489.229	0.06
489.427	0.02
489.626	0.06
489.825	0.06
490.023	0.02
490.222	-0
490.42	0.03
490.619	0.05
490.817	0.03
491.016	0.02
491.214	0.05
491.413	0.02
491.611	0.01
491.81	0.02
492.008	0.05
492.207	0.05
492.405	0.03
492.604	-0.01
492.802	-0.01
493	0.03
493.199	-0.02
493.397	0.02
493.595	0.03
493.794	0.01
493.992	0.07
494.19	0.03
494.388	0.02
494.587	0.01
494.785	0.03
494.983	0.01
495.181	0.03
495.379	0.04
495.578	-0
495.776	0.03
495.974	0.03
496.172	0.01
496.37	-0.01
496.568	-0
496.766	-0
496.964	0.06
497.162	0.02
497.36	-0.01
497.558	0.05
497.756	0.03
497.954	0.02
498.152	0
498.35	0
498.548	0
498.746	0
498.944	-0
499.142	0
499.34	-0.02
499.538	0.01
499.736	-0.02
499.933	0.06
500.131	0.05
500.329	0.02
500.527	0.05
500.725	0.06
500.922	0.03
501.12	0.02
501.318	0.02
501.516	-0.01
501.713	0.03
501.911	0.02
502.109	-0.02
502.306	0.01
502.504	0
502.701	0.01
502.899	0.01
503.097	0.04
503.294	0.04
503.492	0.01
503.689	0.02
503.887	0.05
504.084	0.06
504.282	0.01
504.479	-0.01
504.677	0.03
504.874	-0.02
505.072	0.01
505.269	-0.01
505.466	0.04
505.664	0.01
505.861	-0.02
506.059	-0.01
506.256	0.02
506.453	-0.01
506.651	0.04
506.848	0.04
507.045	0.03
507.242	0.03
507.44	-0.01
507.637	0.03
507.834	0
508.031	0.05
508.229	-0.02
508.426	0.03
508.623	0.03
508.82	0.01
509.017	-0.01
509.214	0
509.411	0.03
509.608	-0.01
509.805	-0
510.003	0
510.2	-0.02
510.397	0.04
510.594	-0.02
510.791	-0.02
510.988	0
511.184	0.04
511.381	0.02
511.578	-0.01
511.775	0.03
511.972	0
512.169	0.01
512.366	0.02
512.563	0.02
512.76	-0.01
512.956	0.04
513.153	-0
513.35	0.01
513.547	-0.02
513.744	-0.02
513.94	-0.01
514.137	0.04
514.334	0.02
514.53	0.02
514.727	0.01
514.924	0.07
515.12	0.01
515.317	-0.04
515.514	-0.01
515.71	-0.01
515.907	0.01
516.103	0
516.3	0.03
516.497	0.03
516.693	0.04
516.89	0.01
517.086	-0.01
517.283	0.02
517.479	0
517.676	-0.01
517.872	0.01
518.068	-0
518.265	0
518.461	-0.01
518.658	-0.05
518.854	0.03
519.05	-0.01
519.247	-0.01
519.443	0.01
519.639	0
519.836	0.02
520.032	-0
520.228	-0.01
520.424	0.04
520.621	0.02
520.817	-0.01
521.013	-0
521.209	0
521.405	0.04
521.601	0.03
521.798	0.02
521.994	0.05
522.19	-0.01
522.386	-0.02
522.582	0.01
522.778	-0
522.974	-0.01
523.17	-0.01
523.366	0.02
523.562	0.04
523.758	0
523.954	-0.02
524.15	-0.01
524.346	0.02
524.542	-0
524.738	-0.03
524.934	0.02
525.129	0
525.325	0.02
525.521	-0
525.717	0.03
525.913	-0.01
526.109	0
526.304	-0.01
526.5	0.01
526.696	0.03
526.892	0.02
527.087	-0
527.283	0.02
527.479	0.02
527.674	-0
527.87	0
528.066	-0.01
528.261	0.02
528.457	0.02
528.653	0
528.848	-0.03
529.044	0.02
529.239	0
529.435	0.02
529.63	0.02
529.826	0.07
530.021	0.04
530.217	0.01
530.412	0.01
530.608	-0.02
530.803	0.02
530.999	-0
531.194	-0.03
531.389	0.03
531.585	-0.05
531.78	-0
531.975	-0.02
532.171	0.04
532.366	0
532.561	-0.01
532.757	0.01
532.952	0.01
533.147	-0
533.342	0.01
533.538	-0.01
533.733	0.02
533.928	-0.02
534.123	-0.02
534.318	-0.02
534.513	-0
534.709	0.01
534.904	-0.03
535.099	0
535.294	0
535.489	0.01
535.684	-0.02
535.879	-0.01
536.074	-0.01
536.269	-0.02
536.464	0
536.659	0.01
536.854	0
537.049	-0
537.244	0.01
537.439	-0.01
537.634	0.03
537.828	0.04
538.023	-0.02
538.218	-0.02
538.413	-0
538.608	-0.04
538.803	0.02
538.997	-0.03
539.192	0.03
539.387	0.02
539.582	0.02
539.776	0.01
539.971	-0
540.166	-0
540.36	-0.02
540.555	0.01
540.75	-0.01
540.944	0
541.139	-0.02
541.334	-0.01
541.528	0.01
541.723	0.04
541.917	-0.02
542.112	-0.03
542.306	0.01
542.501	-0
542.695	0.01
542.89	-0.02
543.084	-0.01
543.279	-0
543.473	-0
543.668	0
543.862	-0.01
544.056	0.01
544.251	-0
544.445	0.02
544.64	-0.01
544.834	-0.03
545.028	0.01
545.222	0
545.417	0.03
545.611	0.01
545.805	0.01
546	0.01
546.194	-0.03
546.388	-0.03
546.582	0.02
546.776	0.01
546.97	-0
547.165	-0.01
547.359	0.03
547.553	-0.02
547.747	-0.01
547.941	0
548.135	0
548.329	0.01
548.523	0.02
548.717	0.01
548.911	-0.01
549.105	-0.02
549.299	-0
549.493	0.03
549.687	0.01
549.881	0.02
550.075	-0
550.269	-0.03
550.463	-0.02
550.657	-0.03
550.85	-0.01
551.044	-0.03
551.238	0.02
551.432	-0.02
551.626	-0.02
551.82	0.01
552.013	-0.01
552.207	0.01
552.401	0.01
552.594	0.02
552.788	0.01
552.982	0.02
553.176	-0
553.369	0.01
553.563	0.01
553.756	-0.01
553.95	-0.03
554.144	-0.02
554.337	0.02
554.531	0
554.724	0.01
554.918	0.01
555.111	0.02
555.305	-0.02
555.498	0.03
555.692	0.01
555.885	-0.01
556.079	0.01
556.272	-0.03
556.466	0.03
556.659	0.01
556.852	0
557.046	0
557.239	0.03
557.432	-0.01
557.626	-0.01
557.819	0.02
558.012	0
558.206	0
558.399	0.01
558.592	0.01
558.785	-0.01
558.979	0.03
559.172	-0.01
559.365	0.02
559.558	0.02
559.751	-0.02
559.944	0.01
560.138	-0
560.331	-0
560.524	-0.01
560.717	-0
560.91	0.01
561.103	0.01
561.296	0.02
561.489	0.01
561.682	0.01
561.875	0.04
562.068	0.03
562.261	0.02
562.454	0.04
562.647	0.04
562.84	0.02
563.032	0
563.225	0.01
563.418	-0.02
563.611	-0.01
563.804	0.01
563.997	-0.01
564.19	-0.02
564.382	0.02
564.575	-0.02
564.768	-0.01
564.961	-0.01
565.153	-0.02
565.346	0.03
565.539	0.04
565.731	0.04
565.924	0.03
566.117	0.03
566.309	-0
566.502	-0.01
566.695	0
566.887	0.02
567.08	-0.01
567.272	-0
567.465	-0.02
567.657	0.02
567.85	0.01
568.042	0.02
568.235	0.03
568.427	-0.02
568.62	0
568.812	0.04
569.005	0.01
569.197	-0.03
569.389	0.02
569.582	0.02
569.774	-0.03
569.966	-0.04
570.159	-0.03
570.351	0.01
570.543	-0.02
570.736	0.01
570.928	-0.04
571.12	0.03
571.312	-0.02
571.505	-0.02
571.697	0.01
571.889	-0.04
572.081	0
572.273	-0.06
572.465	0.03
572.658	-0
572.85	0.01
573.042	-0.01
573.234	-0
573.426	0.05
573.618	-0.03
573.81	-0
574.002	0.04
574.194	0.04
574.386	-0.03
574.578	-0.07
574.77	-0.02
574.962	-0.01
575.154	-0.03
575.346	-0.01
575.538	0.01
575.729	-0.01
575.921	-0.02
576.113	-0.01
576.305	0.04
576.497	-0.02
576.689	0.01
576.88	-0.04
577.072	0.02
577.264	-0
577.456	-0.01
577.647	-0.1
577.839	-0
578.031	0.03
578.223	-0.03
578.414	-0.03
578.606	0.01
578.798	0
578.989	-0.04
579.181	0.01
579.372	-0.02
579.564	-0.01
579.755	-0
579.947	0
580.139	0
580.33	-0.05
580.522	-0.01
580.713	-0.07
580.905	-0.01
581.096	0.03
581.287	0.01
581.479	-0
581.67	0.01
581.862	-0.02
582.053	-0.03
582.244	-0.05
582.436	-0
582.627	0.01
582.818	-0.04
583.01	-0.02
583.201	0.01
583.392	0.03
583.583	-0.02
583.775	-0.02
583.966	-0.01
584.157	0.01
584.348	-0.01
584.54	-0.06
584.731	0.03
584.922	-0.01
585.113	-0.03
585.304	0.02
585.495	0.03
585.686	0.01
585.877	0
586.068	0
586.259	0.02
586.45	0.02
586.641	-0.03
586.832	-0.06
587.023	0
587.214	0.01
587.405	-0.03
587.596	-0.02
587.787	0.02
587.978	0
588.169	-0.04
588.36	-0.03
588.551	0.01
588.742	-0.04
588.932	-0
589.123	-0
589.314	0.02
589.505	0.02
589.696	0.01
589.886	-0.02
590.077	-0.05
590.268	0
590.458	-0.04
590.649	-0.02
590.84	0.03
591.03	-0.04
591.221	-0.07
591.412	-0.07
591.602	0.02
591.793	0.03
591.984	-0.04
592.174	-0.02
592.365	0.05
592.555	-0.02
592.746	0
592.936	-0.01
593.127	-0.01
593.317	0.04
593.508	-0.04
593.698	-0.01
593.889	-0.01
594.079	0.01
594.269	-0.04
594.46	-0.02
594.65	0
594.84	-0.01
595.031	-0.04
595.221	-0.04
595.411	-0.05
595.602	0.01
595.792	-0.05
595.982	-0.03
596.172	0.09
596.363	0.01
596.553	-0.02
596.743	0
596.933	0
597.123	0.02
597.314	-0.03
597.504	-0.03
597.694	0.01
597.884	0.02
598.074	-0.01
598.264	-0.02
598.454	-0
598.644	0
598.834	-0
599.024	-0.07
599.214	-0.01
599.404	0.02
599.594	-0.02
599.784	-0.04
599.974	0.04
600.164	0.04
600.354	-0.03
600.544	-0.08
600.734	0.01
600.924	0.04
601.114	0
601.303	-0.01
601.493	0.01
601.683	-0.03
601.873	0.01
602.063	-0.07
602.252	0.02
602.442	-0.07
602.632	-0.02
602.821	-0.04
603.011	0.03
603.201	-0.02
603.39	-0.02
603.58	-0.05
603.77	-0.01
603.959	0.03
604.149	-0.02
604.339	-0.03
604.528	0.02
604.718	0.02
604.907	-0.02
605.097	-0.03
605.286	-0.05
605.476	0
605.665	-0.01
605.855	-0.01
606.044	0.03
606.234	-0.01
606.423	-0.01
606.612	-0.06
606.802	0.03
606.991	0
607.181	0
607.37	-0.05
607.559	0
607.749	-0.01
607.938	-0.04
608.127	-0.02
608.316	-0.04
608.506	-0
608.695	0
608.884	-0.03
609.073	-0.01
609.263	0.01
609.452	0.01
609.641	0.01
609.83	-0.04
610.019	-0
610.208	-0.07
610.397	-0.02
610.586	0.03
610.775	-0.03
610.965	-0.03
611.154	-0.06
611.343	0.01
611.532	-0.02
611.721	-0.04
611.91	-0.03
612.099	0.01
612.287	-0.02
612.476	-0.04
612.665	-0.01
612.854	-0.03
613.043	0.02
613.232	-0.04
613.421	-0.06
613.61	0.03
613.798	-0.03
613.987	0.02
614.176	-0.02
614.365	0.05
614.554	-0.01
614.742	0.04
614.931	0
615.12	0.04
615.309	-0.03
615.497	-0.01
615.686	-0.04
615.875	-0.01
616.063	0.03
616.252	-0.02
616.44	-0.01
616.629	0.02
616.818	0.06
617.006	0.01
617.195	-0.01
617.383	0.01
617.572	-0.02
617.76	-0.03
617.949	-0.01
618.137	0.02
618.326	0.02
618.514	-0.02
618.703	-0.04
618.891	0.06
619.079	-0.07
619.268	-0
619.456	-0.02
619.644	0.04
619.833	0
620.021	-0.01
620.209	-0.09
620.398	-0.02
620.586	-0.03
620.774	-0.03
620.962	-0.01
621.151	0.04
621.339	-0.01
621.527	-0.05
621.715	-0.06
621.903	-0.05
622.092	-0.05
622.28	0
622.468	0.01
622.656	-0.01
622.844	0.02
623.032	-0.03
623.22	-0.05
623.408	0.02
623.596	0.01
623.784	0.01
623.972	-0.04
624.16	-0
624.348	0.02
624.536	-0.02
624.724	-0.03
624.912	0.01
625.1	0.01
625.288	-0.02
625.476	-0.06
625.664	0.01
625.851	-0.05
626.039	-0.01
626.227	0.01
626.415	-0.02
626.603	-0.08
626.79	-0.03
626.978	-0.03
627.166	-0
627.354	-0.03
627.541	-0.06
627.729	-0.07
627.917	0.02
628.104	0.01
628.292	-0.03
628.48	0.01
628.667	-0.03
628.855	-0.01
629.042	-0
629.23	-0.02
629.418	-0.02
629.605	-0.01
629.793	-0.07
629.98	-0.03
630.168	-0.03
630.355	0.01
630.543	0.01
630.73	-0.04
630.917	-0.03
631.105	0.04
631.292	-0.02
631.48	0
631.667	0.03
631.854	0.01
632.042	-0.02
632.229	-0.07
632.416	-0
632.604	-0.03
632.791	-0.07
632.978	0.01
633.165	0.02
633.353	0.06
633.54	0.04
633.727	-0.08
633.914	-0.03
634.101	-0.05
634.289	0.04
634.476	-0.02
634.663	-0.05
634.85	-0.01
635.037	-0.05
635.224	-0.11
635.411	0.04
635.598	0.02
635.785	-0.02
635.972	-0.03
636.159	0.03
636.346	-0.05
636.533	-0.01
636.72	-0
636.907	-0.02
637.094	0.01
637.281	-0.02
637.468	-0
637.655	-0.03
637.842	-0.01
638.029	-0.03
638.215	0.01
638.402	-0.01
638.589	-0.05
638.776	-0.02
638.963	-0.06
639.149	0.05
639.336	0.06
639.523	-0.01
639.709	-0.01
639.896	-0.03
640.083	0.04
640.27	0.01
640.456	-0.02
640.643	-0.01
640.829	-0.05
641.016	0.01
641.203	-0.05
641.389	0.01
641.576	-0.01
641.762	-0.02
641.949	-0.05
642.135	0.01
642.322	0
642.508	-0.05
642.695	-0.01
642.881	-0.02
643.068	-0.03
643.254	-0.02
643.441	0.03
643.627	-0.02
643.813	-0.04
644	0.02
644.186	-0.04
644.372	0.03
644.559	-0.01
644.745	-0.03
644.931	-0.06
645.118	-0.04
645.304	0
645.49	-0.05
645.676	-0.02
645.862	-0.01
646.049	0.06
646.235	0
646.421	0.07
646.607	0.02
646.793	-0.02
646.979	-0.01
647.165	0.01
647.352	-0.02
647.538	0.03
647.724	-0.01
647.91	-0
648.096	0
648.282	0.04
648.468	-0.02
648.654	-0
648.84	-0.03
649.026	-0
649.212	-0.05
649.397	-0.05
649.583	-0.03
649.769	0.02
649.955	0
650.141	0.03
650.327	0.04
650.513	-0.03
650.698	0
650.884	-0.09
651.07	-0
651.256	0.01
651.442	-0.02
651.627	0
651.813	-0.01
651.999	0
652.184	-0
652.37	-0.03
652.556	0
652.741	0.07
652.927	-0.08
653.113	-0.04
653.298	-0.01
653.484	-0.02
653.669	-0.05
653.855	-0.02
654.04	-0
654.226	-0.03
654.412	-0.05
654.597	-0.03
654.782	-0.01
654.968	0.04
655.153	-0
655.339	-0.06
655.524	-0.05
655.71	0.03
655.895	-0.04
656.08	0.01
656.266	0.04
656.451	0.03
656.636	-0.04
656.822	-0.01
657.007	-0.04
657.192	-0.03
657.378	-0.05
657.563	-0.02
657.748	0
657.933	-0.01
658.118	-0.04
658.304	-0.04
658.489	-0
658.674	-0.02
658.859	-0.06
659.044	0.02
659.229	0.01
659.414	-0.02
659.599	-0.01
659.785	-0.07
659.97	-0
660.155	-0.02
660.34	-0.01
660.525	-0.01
660.71	-0.06
660.895	0.02
661.08	-0.04
661.264	-0.03
661.449	0.04
661.634	0.01
661.819	0.02
662.004	0
662.189	-0.06
662.374	-0.04
662.559	-0.05
662.743	-0.05
662.928	-0.02
663.113	-0.08
663.298	-0.09
663.483	-0.02
663.667	0.02
663.852	-0.06
664.037	0.03
664.221	-0.05
664.406	0.04
664.591	0.01
664.775	-0.01
664.96	-0
665.145	0.01
665.329	0.03
665.514	-0.02
665.698	-0.05
665.883	-0.09
666.068	0.04
666.252	0.03
666.437	-0.06
666.621	-0.04
666.806	-0
666.99	-0.03
667.174	-0.07
667.359	0.07
667.543	-0.04
667.728	-0
667.912	-0.06
668.096	-0.02
668.281	-0.02
668.465	-0.02
668.649	0.01
668.834	-0.08
669.018	-0.01
669.202	-0
669.387	-0.06
669.571	0.02
669.755	-0.02
669.939	-0.04
670.124	0.01
670.308	0.08
670.492	0
670.676	0.01
670.86	-0.01
671.044	-0.06
671.228	0.01
671.413	-0.07
671.597	-0.05
671.781	-0.05
671.965	-0
672.149	-0.01
672.333	0.02
672.517	-0.05
672.701	0.06
672.885	-0.01
673.069	-0.07
673.253	0.06
673.437	-0.06
673.621	-0.06
673.804	-0.06
673.988	-0.01
674.172	-0.03
674.356	-0
674.54	-0.05
674.724	0.07
674.908	-0.01
675.091	-0.03
675.275	-0.05
675.459	0.02
675.643	0.04
675.826	-0.01
676.01	0.02
676.194	-0.03
676.377	0.04
676.561	0.03
676.745	-0.01
676.928	0.06
677.112	-0.01
677.296	-0.08
677.479	-0.03
677.663	-0.01
677.846	-0.01
678.03	-0.04
678.213	-0.02
678.397	0
678.58	-0.01
678.764	-0.01
678.947	-0.03
679.131	-0.03
679.314	0.03
679.498	-0.02
679.681	-0.03
679.865	0.01
680.048	-0
680.231	-0.01
680.415	-0.03
680.598	-0.06
680.781	-0.05
680.965	-0.05
681.148	-0.02
681.331	-0.03
681.514	-0
681.698	-0.09
681.881	-0.02
682.064	-0.01
682.247	0.01
682.43	-0.07
682.614	0.01
682.797	0.08
682.98	0.04
683.163	-0.02
683.346	0.03
683.529	-0.04
683.712	-0
683.895	0.03
684.078	-0.08
684.261	-0.03
684.444	-0.02
684.627	-0
684.81	-0.02
684.993	-0
685.176	0
685.359	-0.09
685.542	-0.07
685.725	0.03
685.908	-0.02
686.091	-0.05
686.274	0.05
686.457	0.01
686.639	0.01
686.822	0.01
687.005	-0.01
687.188	0.03
687.371	0.05
687.553	-0.01
687.736	0.03
687.919	0.07
688.102	0.05
688.284	-0.04
688.467	-0.01
688.65	-0.02
688.832	-0.04
689.015	-0.01
689.197	-0.1
689.38	0.12
689.563	0.09
689.745	-0.1
689.928	-0.1
690.11	-0.05
690.293	0.03
690.475	-0.06
690.658	-0.05
690.84	-0.04
691.023	0.02
691.205	-0.02
691.388	-0.06
691.57	0.02
691.752	0.03
691.935	-0.09
692.117	-0.03
692.3	0.02
692.482	-0.06
692.664	-0.01
692.847	-0.05
693.029	0.06
693.211	0.07
693.393	-0
693.576	-0.02
693.758	-0.03
693.94	-0.04
694.122	-0.06
694.304	-0.03
694.487	-0.05
694.669	0.07
694.851	-0.07
695.033	-0.01
695.215	-0.04
695.397	-0.01
695.579	0.03
695.761	-0.09
695.943	-0.08
696.125	0.06
696.308	-0.03
696.49	-0.13
696.671	0.12
696.853	-0.01
697.035	0.11
697.217	-0.02
697.399	-0
697.581	-0.05
697.763	-0.02
697.945	-0.07
698.127	-0.03
698.309	0.03
698.491	-0.02
698.672	-0.05
698.854	0.01
699.036	0.07
699.218	-0.07
699.399	0.02
699.581	0.04
699.763	-0.04
699.945	-0.04
700.126	-0.02
700.308	-0.01
700.49	-0.09
700.671	-0.09
700.853	-0.08
701.035	-0.05
701.216	-0.06
701.398	-0.07
701.579	-0.01
701.761	0.04
701.943	-0.09
702.124	-0.07
702.306	-0.01
702.487	0.09
702.669	-0.04
702.85	-0.02
703.031	-0.05
703.213	0.08
703.394	0.08
703.576	-0.03
703.757	0.05
703.938	0.04
704.12	0.1
704.301	0.01
704.483	-0.01
704.664	0
704.845	0.09
705.026	0.04
705.208	-0.01
705.389	0.03
705.57	-0.01
705.751	-0.03
705.933	0.04
706.114	0.03
706.295	-0.03
706.476	-0.07
706.657	0.07
706.838	0.01
707.02	0.02
707.201	-0.1
707.382	-0.06
707.563	-0.01
707.744	-0.06
707.925	-0.08
708.106	-0.08
708.287	0.02
708.468	0.07
708.649	-0.04
708.83	0.02
709.011	-0.06
709.192	0.01
709.373	-0.11
709.554	-0.01
709.734	-0.01
709.915	0.01
710.096	-0.03
710.277	-0.13
710.458	-0.03
710.639	0.06
710.819	-0.17
711	-0.06
711.181	0.05
711.362	0.06
711.542	-0.02
711.723	-0.02
711.904	0.06
712.085	0.06
712.265	-0.03
712.446	-0.08
712.627	-0.05
712.807	-0.01
712.988	-0.02
713.168	-0.15
713.349	0.02
713.53	-0.15
713.71	-0.09
713.891	-0.12
714.071	-0
714.252	0.03
714.432	0
714.613	-0.12
714.793	0
714.974	-0.02
715.154	0.04
715.334	0.01
715.515	0.11
715.695	-0.05
715.876	-0.04
716.056	-0.06
716.236	-0.05
716.417	-0.06
716.597	-0.1
716.777	0.12
716.957	-0
717.138	0.03
717.318	-0.04
717.498	-0.15
717.678	-0.02
717.859	-0.03
718.039	-0.12
718.219	-0.06
718.399	0.08
718.579	-0.09
718.759	-0.07
718.939	-0.04
719.12	-0.03
719.3	-0.02
719.48	-0.15
719.66	-0.11
719.84	0.14
720.02	0.07
720.2	-0.04
720.38	-0.04
720.56	0.07
720.74	0.01
720.92	0.02
721.1	0.1
721.279	0.02
721.459	-0.01
721.639	-0.08
721.819	-0.08
721.999	-0.04
722.179	0.01
722.359	-0.06
722.538	-0.01
722.718	0.01
722.898	-0.13
723.078	-0.02
723.257	-0.05
723.437	-0.01
723.617	0.01
723.797	-0.09
723.976	-0.03
724.156	-0.02
724.336	0.09
724.515	0.09
724.695	-0.13
724.874	-0.01
725.054	0.06
725.234	-0.1
725.413	0.1
725.593	-0.06
725.772	-0.02
725.952	-0.04
726.131	-0.02
726.311	-0.06
726.49	-0.05
726.67	-0.09
726.849	-0.09
727.028	0.05
727.208	-0
727.387	0.09
727.567	-0.13
727.746	-0.02
727.925	-0.07
728.105	-0.11
728.284	-0.04
728.463	-0.07
728.643	-0.01
728.822	-0.18
729.001	-0.09
729.18	-0.03
729.359	-0.07
729.539	-0.08
729.718	-0.04
729.897	0.08
730.076	-0.12
730.255	-0.1
730.434	-0.01
730.614	-0.03
730.793	0.1
730.972	-0.06
731.151	-0.08
731.33	0.1
731.509	0.07
731.688	0.05
731.867	-0
732.046	-0.2
732.225	0.22
732.404	-0.08
732.583	-0.1
732.762	-0.02
732.941	-0.06
733.12	-0.01
733.298	-0.02
733.477	0.05
733.656	-0
733.835	-0.11
734.014	-0.01
734.193	-0.05
734.371	0.05
734.55	0.04
734.729	-0.14
734.908	-0.03
735.086	-0.02
735.265	0.02
735.444	-0.17
735.623	-0.09
735.801	-0.14
735.98	-0.05
736.159	-0.02
736.337	0.08
736.516	-0.05
736.694	0.04
736.873	-0.08
737.052	0.08
737.23	0.08
737.409	-0.09
737.587	0.18
737.766	-0.19
737.944	-0.07
738.123	0.07
738.301	0.02
738.479	-0.12
738.658	0.01
738.836	-0.27
739.015	0.05
739.193	0.06
739.371	-0.17
739.55	-0.05
739.728	-0.11
739.906	0.11
740.085	0.1
740.263	-0.03
740.441	-0.06
740.62	0.21
740.798	0.05
740.976	-0.12
741.154	-0.17
741.332	0.13
741.511	-0.14
741.689	0.01
741.867	-0.01
742.045	-0.04
742.223	-0
742.401	-0.08
742.579	-0
742.757	0.08
742.935	-0.14
743.114	-0.06
743.292	-0.04
743.47	-0.02
743.648	-0.01
743.826	-0.09
744.004	0.05
744.181	0.06
744.359	-0.14
744.537	0.01
744.715	-0.09
744.893	-0.09
745.071	-0.02
745.249	0
745.427	-0.05
745.605	0
745.782	-0.03
745.96	0.14
746.138	-0.01
746.316	0.04
746.493	-0
746.671	-0
746.849	0.01
747.027	0.13
747.204	-0.1
747.382	0.1
747.56	-0.17
747.737	0.01
747.915	-0.19
748.093	0.02
748.27	-0.14
748.448	-0.06
748.625	-0.04
748.803	-0.08
748.98	-0.06
749.158	-0.04
749.335	0.07
749.513	-0.07
749.69	-0.01
749.868	-0.11
750.045	0.05
750.223	-0.07
750.4	-0.26
750.578	0.16
750.755	-0.01
750.932	-0.2
751.11	0.07
751.287	-0.2
751.464	0.14
751.642	-0.15
751.819	-0.04
751.996	-0.1
752.173	-0.07
752.351	-0.18
752.528	0.03
752.705	-0.06
752.882	-0.07
753.06	-0.04
753.237	0.13
753.414	0.12
753.591	0.14
753.768	0.02
753.945	-0.11
754.122	-0.07
754.299	0.01
754.476	-0.16
754.654	-0.02
754.831	0.13
755.008	-0.02
755.185	-0.14
755.362	-0.16
755.539	-0.05
755.716	-0.13
755.892	-0.14
756.069	-0.11
756.246	0.03
756.423	-0.07
756.6	0.07
756.777	-0.01
756.954	0.07
757.131	-0.01
757.307	-0.22
757.484	-0.17
757.661	0.03
757.838	0.01
758.015	-0.22
758.191	-0
758.368	0.03
758.545	0.17
758.721	0.03
758.898	-0.14
759.075	0.06
759.251	0.04
759.428	-0.03
759.605	-0.15
759.781	-0.15
759.958	0.06
760.134	0.04
760.311	-0.05
760.488	0.05
760.664	0.05
760.841	0.04
761.017	-0.11
761.194	0.1
761.37	0.09
761.547	-0.08
761.723	-0.04
761.899	0.08
762.076	-0.17
762.252	-0.08
762.429	-0.05
762.605	-0
762.781	0
762.958	0.02
763.134	-0.11
763.31	-0.14
763.486	0.09
763.663	-0.13
763.839	-0.09
764.015	-0.2
764.191	-0.11
764.368	-0.07
764.544	-0.15
764.72	0.14
764.896	0.07
765.072	-0.09
765.248	-0.11
765.425	-0.16
765.601	-0.07
765.777	-0.05
765.953	-0.21
766.129	-0.12
766.305	-0.12
766.481	0.01
766.657	0.05
766.833	0.16
767.009	-0.18
767.185	-0.16
767.361	-0.13
767.537	-0.16
767.713	0.11
767.889	-0.09
768.065	0.06
768.24	-0.16
768.416	0.03
768.592	-0.01
768.768	-0.12
768.944	0.05
769.12	-0.17
769.295	-0.07
769.471	-0.11
769.647	-0.13
769.823	0.23
769.998	-0.11
770.174	-0.23
770.35	0.33
770.525	0.28
770.701	-0.08
770.877	-0.08
771.052	-0.09
771.228	0.06
771.403	0.1
771.579	-0.06
771.755	0.35
771.93	-0.25
772.106	-0.29
772.281	-0.32
772.457	-0.17
772.632	-0.02
772.808	-0.17
772.983	-0.11
773.159	-0.13
773.334	0.21
773.509	0.08
773.685	-0.14
773.86	0.12
774.036	0.19
774.211	-0.02
774.386	-0.12
774.562	-0.04
774.737	0.04
774.912	-0.07
775.087	0.05
775.263	-0.09
775.438	-0.03
775.613	-0.05
775.788	-0.07
775.964	0.16
776.139	0.34
776.314	-0.14
776.489	0.02
776.664	0.03
776.839	-0.22
777.014	0.2
777.19	0.11
777.365	0.3
777.54	0.24
777.715	-0.23
777.89	-0.01
778.065	-0.11
778.24	0.05
778.415	0.08
778.59	-0.17
778.765	-0.12
778.94	0.06
779.115	-0.07
779.289	-0.11
779.464	-0.03
779.639	-0.12
779.814	-0.33
779.989	-0.3
780.164	0.07
780.339	-0.12
780.513	-0.19
780.688	-0.29
780.863	-0.01
781.038	0.11
781.212	-0.3
781.387	-0.11
781.562	0.28
781.737	-0.01
781.911	0.08
782.086	-0.2
782.261	-0.2
782.435	0.09
782.61	-0.05
782.784	-0.08
782.959	0.01
783.134	-0.12
783.308	-0.17
783.483	-0.28
783.657	0.38
783.832	0.19
784.006	-0.45
784.181	-0.07
784.355	0.17
784.53	-0.41
784.704	-0.04
784.878	0.14
785.053	-0
785.227	0.23
785.402	0.33
785.576	-0.14
785.75	0.07
785.925	-0.15
786.099	0.15
786.273	-0.13
786.448	0.15
786.622	0.12
786.796	-0.2
786.97	0.01
787.145	0.49
787.319	-0.17
787.493	-0.06
787.667	-0.26
787.841	-0.04
788.015	0.11
788.19	-0.15
788.364	0.08
788.538	0.12
788.712	-0.06
788.886	-0.06
789.06	0.33
789.234	0.07
789.408	-0.38
789.582	-0.04
789.756	-0.03
789.93	-0.13
790.104	-0.1
790.278	-0.27
790.452	-0.28
790.626	0.2
790.8	-0.29
790.973	0.02
791.147	0.23
791.321	0.26
791.495	0.1
791.669	0.08
791.843	0
792.016	0.09
792.19	0.24
792.364	-0.4
792.538	0.38
792.711	0.11
792.885	-0.1
793.059	-0.31
793.233	-0.46
793.406	0.14
793.58	0.05
793.754	-0.31
793.927	0.02
794.101	0.24
794.274	0.19
794.448	0.09
794.622	-0.23
794.795	0.33
794.969	-0.07
795.142	0.3
795.316	-0.24
795.489	-0.16
795.663	0.42
795.836	-0.29
796.009	-0.38
796.183	0.54
796.356	0.07
796.53	-0.08
796.703	-0.12
796.876	0.67
797.05	-0.15
797.223	0.02
797.396	-0
797.57	-0.02
797.743	0.32
797.916	0.14
798.09	-0.03
798.263	0.19
798.436	0.11
798.609	-0.14
798.782	-0.15
798.956	0.01
799.129	0.01
799.302	0.02
799.475	-0.16
799.648	-0.25
799.821	-0.34
799.994	0
800.167	-0.25
800.34	-0.18
800.514	-0.02
800.687	-0.16
800.86	-0.32
801.033	-0.03
801.206	-0.07
801.379	-0.41
801.551	0.36
801.724	0.09
801.897	0.27
802.07	-0.22
802.243	-0.76
802.416	-0.17
802.589	0.02
802.762	-0.14
802.935	0.1
803.107	-0.09
803.28	0.1
803.453	0.22
803.626	-0.47
803.798	-0.06
803.971	-0.28
804.144	0.15
804.317	0.31
804.489	0.31
804.662	-0.32
804.835	-0.11
805.007	-0.1
805.18	0.17
805.353	0.09
805.525	-0.33
805.698	-0.45
805.87	0.07
806.043	0.12
806.215	-0.33
806.388	-0.29
806.56	0.2
806.733	0.14
806.905	0.29
807.078	0.06
807.25	-0.36
807.423	0.08
807.595	-0.25
807.768	0.11
807.94	0.07
808.112	-0.14
808.285	0.02
808.457	-0.46
808.629	-0.22
808.802	0.19
808.974	-0
809.146	-0.49
809.318	-0.44
809.491	0.28
809.663	0.11
809.835	-0.48
810.007	0.02
810.18	0.11
810.352	-0.15
810.524	-0.01
810.696	0.44
810.868	0.37
811.04	-0.39
811.212	-0.15
811.384	0.43
811.556	-0.09
811.728	-0.15
811.901	0.65
812.073	0.07
812.245	0.3
812.417	-0.2
812.589	-1.02
812.76	0.07
812.932	0.26
813.104	0.05
813.276	-0.13
813.448	0.02
813.62	-0.37
813.792	0.06
813.964	-0.35
814.136	-0.08
814.307	-0.25
814.479	-0.27
814.651	-0.23
814.823	1.12
814.995	-0.28
815.166	0.06
815.338	-0.05
815.51	-0.4
815.681	0.61
815.853	-0.02
816.025	-0.03
816.196	0.53
816.368	0.44
816.54	-0.44
816.711	-0.17
816.883	0.04
817.054	0.98
817.226	-0.97
817.398	-0.1
817.569	-0.23
817.741	-0.18
817.912	-0.1
818.084	0.04
818.255	-0.11
818.426	-0.61
818.598	-0.18
818.769	-0.43
818.941	0.76
819.112	-0.07
819.283	0.12
819.455	-0.46
819.626	-0.09
819.798	0.21
819.969	-0.08
820.14	0
820.311	0.12
820.483	-0.11
820.654	0.09
820.825	-0.09
820.996	-0.29
821.168	-0.47
821.339	-0.45
821.51	-0.81
821.681	-0.23
821.852	0.17
822.023	-0.65
822.195	-1.06
822.366	0.31
822.537	-0.26
822.708	-0.09
822.879	-0.56
823.05	0.38
823.221	0.04
823.392	0.14
823.563	-0.05
823.734	0.42
823.905	-0.22
824.076	-0.04
824.247	-0.57
824.418	-0.51
824.589	0.1
824.759	-0.05
824.93	0.03
825.101	-0.56
825.272	0.33
825.443	0.59
825.614	0.46
825.784	-0.71
825.955	0.45
826.126	0.17
826.297	-0.65
826.467	0.47
826.638	0.22
826.809	-0.91
826.98	-0.2
827.15	-0.08
827.321	-0.15
827.492	0.47
827.662	0.01
827.833	0.45
828.003	0.75
828.174	-0.62
828.345	-0.63
828.515	0.77
828.686	-0.06
828.856	-0.24
829.027	-0.17
829.197	-0.48
829.368	0.23
829.538	-0.56
829.709	-0.71
829.879	0.23
830.049	-0.44
830.22	-0.7
830.39	0.05
830.56	0.16
830.731	-0.54
830.901	-0.5
831.072	0.56
831.242	0.11
831.412	0.07
831.582	0.13
831.753	-1.1
831.923	0.62
832.093	0.15
832.263	-0.4
832.434	-0.85
832.604	-0.2
832.774	0.38
832.944	-0.83
833.114	-0.74
833.284	-0.16
833.454	-0.47
833.624	-0.63
833.795	-0.45
833.965	1.11
834.135	1.18
834.305	-1.41
834.475	-1.3
834.645	0.07
834.815	-0.24
834.985	-0.74
835.155	-0.57
835.325	0.16
835.494	0.32
835.664	-0.52
835.834	-1.14
836.004	0.57
836.174	-0.17
836.344	0.3
836.514	-0.8
836.684	0.05
836.853	-0.26
837.023	-0.25
837.193	-0.37
837.363	0.46
837.532	0.5
837.702	-0.48
837.872	-0.84
838.041	0.55
838.211	1.46
838.381	-0.89
838.55	0.16
838.72	1.79
838.89	1
839.059	-0.4
839.229	-0.12
839.398	1.21
839.568	-0.56
839.738	-0.42
839.907	0.55
840.077	0.45
840.246	-0.4
840.416	-1.23
840.585	-0.8
840.755	1
840.924	1.51
841.093	-0.68
841.263	-0.71
841.432	-0.08
841.602	-0.99
841.771	-0.78
841.94	-0.54
842.11	0.93
842.279	1.62
842.448	-1.18
842.617	-0.71
842.787	0.36
842.956	-1.21
843.125	-0.5
843.294	-0.87
843.464	0.72
843.633	0.53
843.802	-0.61
843.971	0.1
844.14	-0.46
844.309	0.38
844.479	-0.53
844.648	-0.96
844.817	-0.61
844.986	-0.48
845.155	-1.18
845.324	-0.48
845.493	-0.03
845.662	-1.15
845.831	-0.31
846	-0.2
846.169	0.12
846.338	0.57
846.507	-0.1
846.676	0.02
846.844	-1.09
847.013	0.03
847.182	-0.09
847.351	-0.95
847.52	-0.25
847.689	1.4
847.858	-0.09
848.026	-0.84
848.195	-0.42
848.364	-0.27
848.533	-1.34
848.701	-0.4
848.87	-0.17
849.039	0.54
849.207	0.27
849.376	0.9
849.545	1.68
849.713	-0.26
849.882	-0.94
850.051	-0.99
850.219	0.2
850.388	-0.15
850.556	-0.96
850.725	-1.48
850.893	-0.17
851.062	0.68
851.23	-0.5
851.399	-0.27
851.567	-0.14
851.736	-0.37
851.904	-0.65
852.073	-0.53
852.241	0.45
852.41	-0.41
852.578	0.04
852.746	-0.42
852.915	0.52
853.083	0.47
853.251	-1.04
853.42	-0.43
853.588	-0.62
853.756	1.89
853.924	0.17
854.093	-0.41
854.261	-0.83
854.429	-1.33
854.597	-0.02
854.765	-1.18
854.934	0.08
855.102	0.55
855.27	0.17
855.438	0.73
855.606	-0.15
855.774	0.49
855.942	-2.05
856.11	-2.59
856.278	-0.35
856.446	1.36
856.614	-1.06
856.782	-0.41
856.95	1.02
857.118	0.91
857.286	-0.4
857.454	-0.57
857.622	1.35
857.79	-0.37
857.958	-1.63
858.126	-1.85
858.294	-2.93
858.462	-0.39
858.629	-0.55
858.797	-0.81
858.965	0.44
859.133	0.07
859.301	-0.46
859.468	-0.86
859.636	-0.25
859.804	1.95
859.971	0.7
860.139	-0.54
860.307	0.24
860.474	-1.17
860.642	-1.39
860.81	-1.54
860.977	-1.34
861.145	1.17
861.313	-0.19
861.48	1.34
861.648	0.94
861.815	0.19
861.983	-0.69
862.15	-0.89
862.318	0.68
862.485	0.04
862.653	-0.6
862.82	-1.08
862.988	1.34
863.155	-1.71
863.322	-1.22
863.49	-1.46
863.657	-1.83
863.824	1.2
863.992	1.48
864.159	0.29
864.326	-0.21
864.494	-1.17
864.661	1.17
864.828	-2.29
864.996	0.36
865.163	2.04
865.33	-1.63
865.497	-2.72
865.664	-1.16
865.832	-2.13
865.999	-1.02
866.166	-2.38
866.333	-1.88
866.5	-0.58
866.667	-0.15
866.834	-1.5
867.001	1.36
867.168	-2.1
867.335	0.03
867.502	-2.31
867.669	0.96
867.836	2.36
868.003	-0.5
868.17	0.95
868.337	-1.32
868.504	2.41
868.671	-1.74
868.838	-1.71
869.005	-0.87
869.172	0.53
869.339	-0.69
869.505	-0.25
869.672	-0.95
869.839	1.35
870.006	0.8
870.173	-3.39
870.339	0.62
870.506	2.4
870.673	-2.43
870.84	-0.84
871.006	0.89
871.173	1.39
871.34	0.06
871.506	-2.78
871.673	1.1
871.839	-1.75
872.006	-0.41
872.173	-1.64
872.339	-0.18
872.506	1.29
872.672	-1.6
872.839	-2.55
873.005	-0.53
873.172	3.37
873.338	0.57
873.505	-0.6
873.671	-1.09
873.838	0.15
874.004	-1.65
874.171	-1.59
874.337	0.77
874.503	1.92
874.67	-0.21
874.836	0.57
875.002	2.82
875.169	0.85
875.335	-0.26
875.501	-2.12
875.668	-0
875.834	-0.82
876	-0.89
876.166	-0.95
876.332	0.93
876.499	2.67
876.665	-1.81
876.831	-1.21
876.997	2.21
877.163	-0.88
877.329	-3.2
877.495	1.56
877.662	1.67
877.828	0.59
877.994	-0
878.16	-3.23
878.326	-1.72
878.492	-0.7
878.658	-1.09
878.824	0.09
878.99	1.93
879.156	-2.68
879.322	1.89
879.487	-1.07
879.653	-0.09
879.819	-0.73
879.985	-1.78
880.151	-0.07
880.317	-0.24
880.483	-0.93
880.648	1.4
880.814	-2.99
880.98	-1.33
881.146	-3.49
881.312	-1.93
881.477	-1.26
881.643	-1.41
881.809	1.62
881.974	1.22
882.14	-1.92
882.306	2.07
882.471	4.41
882.637	-2.07
882.803	0.92
882.968	3.1
883.134	3.5
883.299	-1.22
883.465	-0.67
883.63	1.92
883.796	0.76
883.961	1.92
884.127	-0.63
884.292	-5.33
884.458	-2.82
884.623	-2.82
