Data from Apollo_Calib_20240827__AbsoluteIrradiance__531__08-00-01-951.txt Node

Date: Wed Aug 28 08:00:01 BST 2024
User: biology
Spectrometer: FLMT08252
Trigger mode: 0
Integration Time (sec): 5.000000E-1
Scans to average: 5
Electric dark correction enabled: true
Nonlinearity correction enabled: false
Boxcar width: 0
XAxis mode: Wavelengths
Number of Pixels in Spectrum: 3648
>>>>>Begin Spectral Data<<<<<
179.588	-0
179.809	-0
180.03	-0
180.251	-0
180.473	-0
180.694	0
180.915	0
181.136	-0
181.357	0
181.578	-0
181.799	-0
182.02	-0
182.241	-0
182.462	-0
182.683	0
182.904	-0
183.125	-0
183.346	0
183.567	0
183.788	-0
184.009	-0
184.23	0
184.451	0
184.672	-0
184.892	-0
185.113	0
185.334	0
185.555	0
185.776	-0
185.996	0
186.217	0
186.438	0
186.659	-0
186.879	0
187.1	0
187.321	-0
187.541	-0
187.762	0
187.983	-0
188.203	-0
188.424	0
188.644	-0
188.865	0
189.086	-0
189.306	-0
189.527	0
189.747	0
189.968	-0
190.188	0
190.409	0
190.629	0
190.849	0
191.07	0
191.29	0
191.511	0
191.731	-0
191.951	-0
192.172	-0
192.392	-0
192.612	-0
192.833	0
193.053	0
193.273	0
193.493	0
193.714	0
193.934	0
194.154	0
194.374	0
194.594	0
194.815	0
195.035	0
195.255	0
195.475	-0
195.695	0
195.915	0
196.135	-0
196.355	0
196.575	0
196.795	-0
197.015	-0
197.235	-0
197.455	-0
197.675	0
197.895	-0
198.115	-0
198.335	0
198.555	-0
198.775	-0
198.995	0
199.214	0
199.434	0
199.654	-0
199.874	-0
200.094	1.25
200.313	-0.39
200.533	-0.18
200.753	-0.72
200.973	1.07
201.192	1.05
201.412	-0.31
201.632	-0.05
201.851	1.19
202.071	-0.23
202.291	-0.2
202.51	-0.56
202.73	0.27
202.95	-0.43
203.169	-0.58
203.389	-0.21
203.608	0.22
203.828	-0.31
204.047	-0.29
204.267	0.53
204.486	0.11
204.706	0.03
204.925	0.14
205.145	-0.16
205.364	0.35
205.583	0.88
205.803	-0.16
206.022	-0.27
206.242	0.34
206.461	0.16
206.68	-0.19
206.9	0.25
207.119	0.42
207.338	0.67
207.557	-0.27
207.777	-0.09
207.996	0.04
208.215	0.5
208.434	-0.06
208.654	-0.63
208.873	-0.05
209.092	0.54
209.311	-0.15
209.53	-0.12
209.749	0.07
209.968	-0.25
210.187	-0.24
210.407	-0.42
210.626	0.23
210.845	0.26
211.064	0.02
211.283	0.01
211.502	0.24
211.721	0.12
211.94	-0.18
212.159	0.06
212.377	0.24
212.596	0.25
212.815	0.17
213.034	0.18
213.253	0.38
213.472	0.19
213.691	-0.22
213.91	-0.07
214.128	-0.17
214.347	0.31
214.566	-0.28
214.785	-0.16
215.003	0.3
215.222	0.1
215.441	-0.03
215.66	-0.28
215.878	0.04
216.097	0.37
216.316	-0.18
216.534	-0.17
216.753	0.17
216.972	0.23
217.19	0.08
217.409	-0.18
217.627	-0.27
217.846	0.06
218.064	0.08
218.283	0
218.501	0.47
218.72	0.25
218.938	-0.19
219.157	-0.01
219.375	0.23
219.594	0.16
219.812	-0.18
220.031	-0.12
220.249	0.31
220.467	0.42
220.686	-0.12
220.904	-0.18
221.122	-0.07
221.341	0.26
221.559	-0
221.777	-0.15
221.995	0.02
222.214	0.18
222.432	-0.17
222.65	0.24
222.868	0.02
223.086	0.1
223.305	0.25
223.523	-0.16
223.741	0.38
223.959	-0.15
224.177	-0.18
224.395	0.06
224.613	0.04
224.831	0.22
225.049	-0.09
225.267	0.14
225.485	0.14
225.703	0.04
225.921	0.07
226.139	-0.08
226.357	0.2
226.575	0.1
226.793	-0.09
227.011	0.44
227.229	0.04
227.447	0.18
227.665	-0.16
227.883	-0.11
228.1	0.04
228.318	0.12
228.536	-0.2
228.754	-0.03
228.972	0.05
229.189	0.14
229.407	-0.11
229.625	-0.09
229.843	0.18
230.06	0.14
230.278	-0.08
230.496	0.03
230.713	0.01
230.931	0.2
231.149	-0.13
231.366	-0.14
231.584	-0
231.801	0.24
232.019	-0.03
232.236	-0.09
232.454	-0.14
232.671	0.05
232.889	0.07
233.106	-0.11
233.324	-0.11
233.541	-0.01
233.759	0.04
233.976	-0.04
234.194	-0.03
234.411	0.01
234.628	-0.09
234.846	-0.06
235.063	-0.08
235.28	-0.03
235.498	0.1
235.715	-0.08
235.932	0.17
236.149	0.01
236.367	-0.04
236.584	0.04
236.801	0.01
237.018	0.01
237.236	0.07
237.453	-0.12
237.67	0.07
237.887	0.06
238.104	0
238.321	0.04
238.538	-0.06
238.755	0.16
238.973	-0.02
239.19	0.07
239.407	0.19
239.624	0.06
239.841	-0.15
240.058	-0.01
240.275	0.06
240.492	-0
240.709	0.02
240.925	0.05
241.142	0.02
241.359	-0.11
241.576	-0.12
241.793	-0
242.01	-0.02
242.227	0.13
242.444	-0.05
242.66	0.13
242.877	-0.02
243.094	-0.06
243.311	0.01
243.527	-0.11
243.744	0.05
243.961	0.05
244.178	-0.12
244.394	-0.03
244.611	0.12
244.828	0.16
245.044	-0.06
245.261	0.06
245.477	-0.04
245.694	0.02
245.911	-0.04
246.127	0.11
246.344	0.12
246.56	0.05
246.777	-0.01
246.993	-0.02
247.21	-0.04
247.426	0.04
247.643	-0.04
247.859	-0.09
248.076	-0.06
248.292	0.17
248.508	-0.05
248.725	0.09
248.941	0.08
249.157	0.12
249.374	-0.05
249.59	-0.02
249.806	-0.04
250.023	0.01
250.239	-0.05
250.455	-0.05
250.671	0.07
250.888	0.02
251.104	0.03
251.32	0.01
251.536	-0
251.752	0.01
251.969	0.01
252.185	0.02
252.401	0.24
252.617	0.04
252.833	0.02
253.049	0.03
253.265	0.13
253.481	0.07
253.697	-0
253.913	-0.02
254.129	0.09
254.345	0.03
254.561	-0.02
254.777	0.02
254.993	0.1
255.209	-0.04
255.425	0.01
255.641	-0.02
255.857	0.04
256.073	0.04
256.288	-0.09
256.504	-0.04
256.72	-0.02
256.936	0.11
257.152	0.02
257.367	-0.08
257.583	0.01
257.799	0.01
258.015	-0.04
258.23	0.01
258.446	0.17
258.662	0.01
258.877	0
259.093	-0.02
259.309	0.05
259.524	0.01
259.74	-0.02
259.955	-0.1
260.171	-0.02
260.387	0.03
260.602	0.04
260.818	0.07
261.033	-0.06
261.249	-0.01
261.464	-0.04
261.68	-0.08
261.895	0.08
262.11	0.05
262.326	-0.02
262.541	-0.04
262.757	0.06
262.972	0.06
263.187	0.05
263.403	-0.02
263.618	0.07
263.833	0
264.049	-0.03
264.264	0.01
264.479	0.11
264.694	0.07
264.91	-0.02
265.125	-0.03
265.34	0.02
265.555	0.11
265.77	0.01
265.986	-0.07
266.201	0.06
266.416	0.09
266.631	-0.05
266.846	-0.01
267.061	0.08
267.276	0.06
267.491	-0.1
267.706	0.07
267.921	0.05
268.136	0.04
268.351	0.02
268.566	-0.1
268.781	0.07
268.996	0.08
269.211	0.01
269.426	-0.04
269.641	-0
269.856	0.06
270.071	-0.01
270.285	-0.06
270.5	0.08
270.715	0.04
270.93	0.02
271.145	-0
271.359	0.09
271.574	-0
271.789	-0.1
272.004	-0
272.218	-0.03
272.433	0.06
272.648	-0.01
272.862	0.09
273.077	0.01
273.292	0
273.506	-0.02
273.721	0
273.936	0.03
274.15	0.08
274.365	0.02
274.579	0.05
274.794	0.08
275.008	0.03
275.223	-0.14
275.437	-0.03
275.652	-0
275.866	0.08
276.081	-0.03
276.295	0.01
276.509	-0.01
276.724	0.01
276.938	-0
277.153	0.04
277.367	0.06
277.581	-0.02
277.796	-0.09
278.01	-0.06
278.224	0.02
278.438	0.1
278.653	0
278.867	-0.05
279.081	-0.15
279.295	-0.05
279.51	0.04
279.724	-0.11
279.938	0.02
280.152	0.02
280.366	-0.02
280.58	0.05
280.794	0.06
281.008	0.07
281.222	0.09
281.437	0.16
281.651	0.04
281.865	0.09
282.079	0
282.293	-0.01
282.507	-0.01
282.721	-0.04
282.935	0.01
283.148	-0.06
283.362	-0.04
283.576	-0.05
283.79	0.03
284.004	-0.03
284.218	0.03
284.432	-0.03
284.646	-0.04
284.859	-0.04
285.073	-0.04
285.287	0.06
285.501	-0.01
285.714	0.04
285.928	0.01
286.142	0.04
286.356	-0
286.569	-0.06
286.783	0.09
286.997	0.08
287.21	-0.01
287.424	0.02
287.637	-0.02
287.851	0.02
288.065	0.05
288.278	0.03
288.492	0.03
288.705	0.02
288.919	0.01
289.132	0
289.346	0.1
289.559	-0.06
289.773	0.02
289.986	0.04
290.2	0.05
290.413	0.07
290.626	-0.02
290.84	-0.01
291.053	-0.04
291.267	0.05
291.48	0.04
291.693	0.04
291.906	-0
292.12	-0
292.333	-0.05
292.546	-0.04
292.76	0.08
292.973	0.06
293.186	0
293.399	-0.04
293.612	0.09
293.826	0.05
294.039	0.02
294.252	-0.06
294.465	0.05
294.678	0.03
294.891	-0.01
295.104	-0.04
295.317	-0.01
295.53	0.04
295.743	-0.02
295.956	0.04
296.169	0.06
296.382	0.04
296.595	0
296.808	-0.03
297.021	0.05
297.234	0.08
297.447	-0.07
297.66	0.04
297.873	0.08
298.086	0.01
298.299	0.01
298.511	-0.04
298.724	0.03
298.937	-0.04
299.15	-0.02
299.363	0.01
299.575	0.02
299.788	0.05
300.001	-0.01
300.213	-0.03
300.426	-0.02
300.639	-0.03
300.852	-0
301.064	0.05
301.277	0.06
301.489	0.05
301.702	0.03
301.915	0.01
302.127	-0.01
302.34	0.04
302.552	0.06
302.765	-0.04
302.977	0.05
303.19	-0.02
303.402	-0.03
303.615	0.04
303.827	0
304.04	-0.01
304.252	0.04
304.464	-0.01
304.677	0.14
304.889	0.05
305.102	-0.01
305.314	0.01
305.526	0.09
305.739	0.01
305.951	-0.03
306.163	-0.03
306.375	0.06
306.588	-0
306.8	0
307.012	-0.05
307.224	-0
307.436	0.08
307.649	-0.02
307.861	0.03
308.073	0.03
308.285	-0.05
308.497	-0.03
308.709	0.03
308.921	0.05
309.133	0.05
309.346	0.01
309.558	-0.02
309.77	0.07
309.982	0.02
310.194	0.03
310.406	-0.01
310.617	0.07
310.829	0.07
311.041	0.05
311.253	-0.05
311.465	0.02
311.677	0.02
311.889	-0.01
312.101	-0.01
312.313	0.08
312.524	0.04
312.736	-0.07
312.948	0.01
313.16	0.1
313.372	0.03
313.583	-0
313.795	0.03
314.007	-0.01
314.218	0.05
314.43	-0
314.642	-0.01
314.853	-0.02
315.065	0.04
315.277	0.02
315.488	0.02
315.7	0.11
315.912	0.04
316.123	-0.03
316.335	-0
316.546	0.09
316.758	-0.01
316.969	-0.02
317.181	0.04
317.392	-0
317.604	0.04
317.815	-0.05
318.026	-0
318.238	0.02
318.449	0.01
318.661	-0.05
318.872	-0.04
319.083	-0.01
319.295	0.06
319.506	-0.02
319.717	0
319.929	-0.02
320.14	0.02
320.351	0.03
320.562	0.02
320.774	-0
320.985	0.01
321.196	-0.04
321.407	-0.07
321.618	0.03
321.829	0.02
322.041	0.04
322.252	0.01
322.463	0.03
322.674	0.06
322.885	-0.01
323.096	-0.01
323.307	-0
323.518	0.02
323.729	-0.01
323.94	0
324.151	-0.04
324.362	0.08
324.573	0.02
324.784	-0.03
324.995	0.07
325.206	0.06
325.417	-0.01
325.628	0.01
325.838	0
326.049	0.02
326.26	0.06
326.471	-0.02
326.682	0.08
326.892	0.01
327.103	-0.03
327.314	-0.06
327.525	0.07
327.735	-0
327.946	-0.01
328.157	0.02
328.368	0.02
328.578	0.03
328.789	0.05
328.999	0
329.21	-0.01
329.421	0.02
329.631	-0
329.842	0.02
330.052	0.04
330.263	0.05
330.473	0.01
330.684	-0.03
330.894	-0.03
331.105	0.03
331.315	0.01
331.526	-0.06
331.736	0.08
331.947	0.04
332.157	0.05
332.367	-0.02
332.578	0.04
332.788	0.03
332.999	0.03
333.209	0.04
333.419	-0.06
333.629	0.04
333.84	0.01
334.05	0.01
334.26	0.04
334.47	0
334.681	0.07
334.891	-0.03
335.101	0.02
335.311	0.1
335.521	0
335.732	-0.02
335.942	0.09
336.152	0.05
336.362	0.02
336.572	0.02
336.782	0.02
336.992	0.01
337.202	-0
337.412	-0.03
337.622	0.02
337.832	0.06
338.042	0.03
338.252	-0.01
338.462	0.01
338.672	0.02
338.882	0
339.092	0.01
339.302	0.05
339.511	0.07
339.721	-0.01
339.931	-0.05
340.141	0.07
340.351	0.04
340.561	0.02
340.77	0.01
340.98	0.01
341.19	0.06
341.4	-0.03
341.609	-0.04
341.819	0.02
342.029	-0.04
342.238	0.04
342.448	-0.02
342.658	0.04
342.867	0.03
343.077	0.02
343.286	0
343.496	0
343.706	0.08
343.915	-0.04
344.125	0.03
344.334	0.07
344.544	-0.06
344.753	0.02
344.963	0.01
345.172	-0.04
345.381	-0.04
345.591	-0.01
345.8	0.02
346.01	0.06
346.219	0.09
346.428	-0.13
346.638	0.03
346.847	0.01
347.056	0.06
347.266	-0
347.475	0.02
347.684	0.04
347.893	0.08
348.103	0.03
348.312	0
348.521	0.01
348.73	0.02
348.94	-0
349.149	0
349.358	0
349.567	0.01
349.776	-0
349.985	-0.01
350.194	0.03
350.403	0.07
350.612	-0.06
350.821	0.01
351.03	-0.01
351.239	0
351.448	0.02
351.657	-0.04
351.866	0.04
352.075	-0.01
352.284	0.05
352.493	-0.05
352.702	0.06
352.911	0
353.12	0.02
353.329	-0.02
353.538	0.02
353.746	0.03
353.955	0.01
354.164	0.04
354.373	-0
354.582	0.07
354.79	-0
354.999	0.09
355.208	-0.01
355.416	0.06
355.625	-0.02
355.834	0.03
356.042	0.03
356.251	-0.01
356.46	-0.03
356.668	0
356.877	0.11
357.085	0.05
357.294	-0.03
357.503	-0.01
357.711	-0.02
357.92	0.1
358.128	0.05
358.337	-0.02
358.545	0.01
358.754	0.02
358.962	-0.02
359.17	0.01
359.379	0.03
359.587	0.03
359.796	0.01
360.004	0.06
360.212	0
360.421	0.04
360.629	-0.01
360.837	-0.01
361.046	0.02
361.254	0.12
361.462	-0.01
361.67	-0.01
361.879	0.02
362.087	0.06
362.295	0
362.503	0.01
362.711	-0.03
362.92	-0.01
363.128	-0.01
363.336	-0.03
363.544	-0.07
363.752	0.01
363.96	-0.02
364.168	0.01
364.376	0.01
364.584	-0
364.792	0.06
365	0.03
365.208	0.03
365.416	-0
365.624	0.04
365.832	0.01
366.04	0.08
366.248	-0.03
366.456	0.02
366.664	0.03
366.872	-0.01
367.079	0.01
367.287	0.07
367.495	0.05
367.703	0.04
367.911	-0
368.118	-0.01
368.326	-0.01
368.534	-0.02
368.742	0.08
368.949	-0.03
369.157	-0.02
369.365	0.06
369.572	-0
369.78	-0.02
369.988	0.07
370.195	0.03
370.403	0.03
370.61	-0.02
370.818	-0.01
371.026	0.07
371.233	-0.01
371.441	0.03
371.648	-0.03
371.856	0.03
372.063	0.04
372.271	0.02
372.478	-0
372.685	-0.03
372.893	0.03
373.1	0.01
373.308	-0.01
373.515	0.06
373.722	0.01
373.93	-0.01
374.137	0.03
374.344	0.09
374.552	0.06
374.759	0.07
374.966	0.06
375.173	0
375.381	0.03
375.588	0.02
375.795	-0.06
376.002	-0.03
376.209	-0.01
376.417	0.02
376.624	0.03
376.831	0.01
377.038	-0.01
377.245	-0.08
377.452	-0.04
377.659	0.02
377.866	-0.03
378.073	0.02
378.28	-0.03
378.487	0.05
378.694	0.04
378.901	0.01
379.108	0.04
379.315	0.05
379.522	0.08
379.729	0
379.936	-0.01
380.143	0.06
380.35	0.04
380.557	-0.02
380.763	0.02
380.97	0.02
381.177	0.02
381.384	0
381.591	0.01
381.797	0.04
382.004	0.02
382.211	0.03
382.418	0.04
382.624	0.01
382.831	0.03
383.038	-0.03
383.244	-0.01
383.451	-0.02
383.658	0.02
383.864	-0
384.071	0.01
384.277	0.07
384.484	-0
384.69	0.04
384.897	-0.01
385.103	-0
385.31	-0.02
385.516	0.03
385.723	0.01
385.929	0.02
386.136	-0.03
386.342	0.01
386.549	-0
386.755	0.01
386.961	0.01
387.168	-0.04
387.374	-0.02
387.58	0.03
387.787	0.01
387.993	0.04
388.199	0.01
388.406	-0
388.612	0.03
388.818	-0.03
389.024	-0.02
389.231	0.05
389.437	0.1
389.643	0.01
389.849	0.01
390.055	0.01
390.261	0.03
390.467	0.02
390.674	-0.02
390.88	0.02
391.086	0.02
391.292	0
391.498	0.05
391.704	-0
391.91	-0.01
392.116	-0.02
392.322	-0.1
392.528	0
392.734	-0.01
392.94	0.01
393.146	0.01
393.352	-0.04
393.557	-0
393.763	-0
393.969	0.02
394.175	-0.02
394.381	-0.01
394.587	-0.02
394.792	0.01
394.998	0.06
395.204	0.04
395.41	-0.02
395.615	0.07
395.821	0.01
396.027	0.03
396.233	-0.03
396.438	0.03
396.644	-0.02
396.85	0.04
397.055	0.01
397.261	0.04
397.466	-0.02
397.672	-0.01
397.878	0.05
398.083	0.01
398.289	-0.02
398.494	0.05
398.7	-0.02
398.905	-0.03
399.111	0.05
399.316	-0.03
399.522	0.01
399.727	0.02
399.932	0.01
400.138	-0.02
400.343	0.04
400.549	0
400.754	0
400.959	0.05
401.165	0.05
401.37	0.05
401.575	-0.02
401.78	-0.05
401.986	-0.03
402.191	0.01
402.396	-0
402.601	0.03
402.807	0.02
403.012	0.06
403.217	0.04
403.422	0.03
403.627	-0
403.832	0.02
404.037	0.04
404.243	0.05
404.448	-0
404.653	0
404.858	0.07
405.063	0.04
405.268	-0.04
405.473	-0.06
405.678	-0.05
405.883	0.14
406.088	0.04
406.293	-0.06
406.498	-0.01
406.703	0.07
406.907	-0.02
407.112	-0.02
407.317	-0.04
407.522	0.06
407.727	-0.08
407.932	-0.01
408.136	0.11
408.341	-0.03
408.546	0.01
408.751	-0.02
408.956	-0.02
409.16	0.03
409.365	0.03
409.57	-0.04
409.774	0.03
409.979	0.04
410.184	0.01
410.388	-0.03
410.593	0.04
410.798	0.01
411.002	-0.01
411.207	0.05
411.411	0.05
411.616	0.01
411.82	0.02
412.025	0.05
412.229	-0.03
412.434	0.07
412.638	0.04
412.843	-0
413.047	0.01
413.252	-0.06
413.456	-0.01
413.66	0.06
413.865	-0.02
414.069	0.07
414.273	-0.02
414.478	0.02
414.682	-0.05
414.886	-0.02
415.091	-0.05
415.295	-0.07
415.499	0.01
415.703	-0.01
415.908	0.05
416.112	-0.11
416.316	0.04
416.52	-0.05
416.724	-0.03
416.929	-0
417.133	0.07
417.337	-0.04
417.541	-0.02
417.745	-0
417.949	-0.02
418.153	0.03
418.357	-0.01
418.561	0.07
418.765	0.04
418.969	0.08
419.173	0.03
419.377	0.01
419.581	0.08
419.785	-0.03
419.989	-0.04
420.193	-0.01
420.397	-0.03
420.601	0.05
420.804	0.03
421.008	0.02
421.212	0.02
421.416	0.04
421.62	-0.03
421.823	0.03
422.027	0.06
422.231	-0.01
422.435	-0
422.638	0.04
422.842	0.01
423.046	-0.04
423.249	0.06
423.453	0.03
423.657	-0.01
423.86	0.02
424.064	-0.04
424.268	0.06
424.471	0.01
424.675	0.09
424.878	0.09
425.082	-0.01
425.285	0.08
425.489	0.04
425.692	0.01
425.896	-0.05
426.099	0.06
426.303	-0.04
426.506	-0.06
426.71	0.05
426.913	0.05
427.116	0.07
427.32	0.01
427.523	0.03
427.726	0.1
427.93	0.01
428.133	-0.01
428.336	-0.03
428.54	-0.02
428.743	0.05
428.946	0.02
429.149	-0.01
429.353	0.05
429.556	-0.01
429.759	-0.03
429.962	-0.01
430.165	-0.07
430.368	-0.01
430.571	-0.02
430.775	0.04
430.978	-0.01
431.181	0.06
431.384	-0
431.587	-0.02
431.79	-0.03
431.993	0.04
432.196	0.02
432.399	-0.05
432.602	0.08
432.805	-0.02
433.008	-0.04
433.211	-0.05
433.414	0.04
433.616	0
433.819	0.04
434.022	-0.13
434.225	0.03
434.428	0
434.631	0.05
434.833	0.04
435.036	-0.08
435.239	0.06
435.442	0
435.645	-0.02
435.847	0.07
436.05	0.06
436.253	-0.01
436.455	-0.04
436.658	-0.03
436.861	0.04
437.063	0.03
437.266	-0
437.468	0.01
437.671	0.13
437.874	0.02
438.076	-0.03
438.279	-0.04
438.481	-0.07
438.684	-0.04
438.886	0.03
439.089	-0.04
439.291	0.01
439.494	0.05
439.696	-0.03
439.899	-0.02
440.101	-0
440.303	-0.02
440.506	0.02
440.708	-0
440.91	0.06
441.113	-0.02
441.315	0.02
441.517	-0.04
441.72	0.04
441.922	-0.06
442.124	-0.05
442.326	0.07
442.529	0.08
442.731	-0.03
442.933	0.09
443.135	-0.04
443.337	-0.05
443.539	0.02
443.742	-0.02
443.944	0.04
444.146	-0.06
444.348	-0.02
444.55	-0.05
444.752	-0
444.954	-0.02
445.156	0.04
445.358	-0.05
445.56	0.04
445.762	-0.02
445.964	0.01
446.166	-0.04
446.368	-0.1
446.57	0.1
446.772	-0.01
446.974	0.02
447.175	0.03
447.377	-0.03
447.579	-0.06
447.781	-0.09
447.983	0.02
448.184	0.05
448.386	-0.02
448.588	-0.03
448.79	0.01
448.991	-0.05
449.193	-0.05
449.395	0.02
449.597	0.04
449.798	-0
450	0.02
450.202	0
450.403	-0.05
450.605	0.05
450.806	0.05
451.008	-0.1
451.21	-0.02
451.411	0.01
451.613	-0.01
451.814	0.06
452.016	0.06
452.217	-0.04
452.419	0.1
452.62	0.01
452.821	0.06
453.023	0.05
453.224	0.04
453.426	0.05
453.627	-0.01
453.828	0.02
454.03	0.01
454.231	0
454.432	-0.05
454.634	0.07
454.835	-0.03
455.036	-0.03
455.238	0.02
455.439	0.07
455.64	-0.05
455.841	-0.04
456.042	0.11
456.244	0.06
456.445	-0.01
456.646	-0.05
456.847	-0.03
457.048	0.04
457.249	0.08
457.45	0.13
457.651	0.01
457.852	0.12
458.054	0.05
458.255	-0.03
458.456	0.05
458.657	-0.01
458.858	-0
459.058	0
459.259	0.03
459.46	0
459.661	-0.01
459.862	0.11
460.063	-0.01
460.264	0.08
460.465	-0.07
460.666	0.11
460.866	-0
461.067	0.04
461.268	-0.02
461.469	0.01
461.67	-0.01
461.87	-0.03
462.071	-0.04
462.272	-0.05
462.473	0.01
462.673	0.02
462.874	-0.03
463.075	0.01
463.275	-0.05
463.476	0.05
463.676	-0.01
463.877	0.01
464.078	-0.04
464.278	0.02
464.479	0
464.679	-0.02
464.88	-0.02
465.08	0.07
465.281	0
465.481	-0.06
465.682	-0.03
465.882	0.03
466.083	0.06
466.283	0.05
466.483	0.03
466.684	-0.03
466.884	-0.02
467.085	0.03
467.285	0.03
467.485	0.01
467.686	-0.02
467.886	-0.01
468.086	-0.04
468.286	0.01
468.487	0.03
468.687	-0.04
468.887	0.04
469.087	0.05
469.287	-0.01
469.488	-0.08
469.688	0.03
469.888	0.06
470.088	0.05
470.288	0.04
470.488	0.06
470.688	-0.02
470.888	-0.01
471.088	-0.02
471.288	0.03
471.488	0.03
471.688	0.02
471.888	-0.02
472.088	0.05
472.288	0.04
472.488	-0.05
472.688	-0.01
472.888	-0
473.088	0.01
473.288	0.02
473.488	-0
473.688	0.08
473.887	0
474.087	-0.01
474.287	0.01
474.487	0.01
474.687	0.05
474.886	-0
475.086	0.02
475.286	0
475.486	0.02
475.685	0.02
475.885	-0.01
476.085	0.02
476.284	0.02
476.484	0.01
476.684	0.02
476.883	0.05
477.083	0.02
477.282	-0.04
477.482	0.04
477.681	0.06
477.881	0.02
478.08	-0.04
478.28	-0.01
478.479	0.02
478.679	0.08
478.878	-0
479.078	-0.02
479.277	0.01
479.477	-0.02
479.676	0.05
479.875	0.03
480.075	-0.06
480.274	0.01
480.473	0.02
480.673	-0
480.872	0.04
481.071	-0
481.271	0.05
481.47	0.01
481.669	-0.03
481.868	-0.01
482.067	-0.03
482.267	-0
482.466	-0.01
482.665	-0.01
482.864	-0.02
483.063	-0.03
483.262	0.01
483.461	0.05
483.661	0.04
483.86	0.02
484.059	0
484.258	0.01
484.457	-0.04
484.656	0.03
484.855	0.05
485.054	-0.04
485.253	-0.02
485.452	-0.03
485.651	0.02
485.849	-0.02
486.048	-0.01
486.247	-0.01
486.446	0.01
486.645	-0.03
486.844	-0.02
487.043	-0
487.241	0.02
487.44	-0.03
487.639	-0.02
487.838	0
488.037	0.01
488.235	0.05
488.434	-0.01
488.633	-0.05
488.831	0.03
489.03	0.04
489.229	0.01
489.427	0
489.626	0.06
489.825	0.07
490.023	0.01
490.222	-0.01
490.42	0.04
490.619	0.04
490.817	0
491.016	-0.01
491.214	0.04
491.413	-0.01
491.611	0
491.81	-0.02
492.008	0.01
492.207	0.01
492.405	0
492.604	-0.03
492.802	0.02
493	-0.01
493.199	-0.01
493.397	-0
493.595	-0.01
493.794	-0
493.992	0.06
494.19	0
494.388	0.02
494.587	-0.01
494.785	0.01
494.983	-0.03
495.181	0
495.379	-0.01
495.578	-0.01
495.776	-0
495.974	0.01
496.172	-0.01
496.37	-0.01
496.568	-0.01
496.766	-0.02
496.964	0.01
497.162	0.03
497.36	-0
497.558	0
497.756	0.03
497.954	0.02
498.152	-0.01
498.35	0.03
498.548	-0
498.746	-0
498.944	-0.03
499.142	-0.02
499.34	-0.02
499.538	-0.02
499.736	-0.02
499.933	0.02
500.131	0.03
500.329	0.02
500.527	0.02
500.725	0.02
500.922	0.02
501.12	0.01
501.318	0
501.516	-0.01
501.713	0
501.911	0.01
502.109	0
502.306	0.01
502.504	0.01
502.701	-0.01
502.899	0.04
503.097	0.03
503.294	0
503.492	0.01
503.689	0.01
503.887	0.03
504.084	0.04
504.282	0.01
504.479	-0.03
504.677	-0
504.874	-0.02
505.072	0.03
505.269	-0.01
505.466	0.02
505.664	0
505.861	-0.03
506.059	-0.03
506.256	0.03
506.453	-0.04
506.651	0.04
506.848	0.04
507.045	0.03
507.242	-0.01
507.44	0.01
507.637	0
507.834	-0.01
508.031	0.03
508.229	-0.03
508.426	-0
508.623	0.01
508.82	0
509.017	-0.03
509.214	-0.02
509.411	0.01
509.608	-0.01
509.805	-0
510.003	-0.01
510.2	-0.01
510.397	0.02
510.594	-0.01
510.791	-0.02
510.988	0.01
511.184	0.02
511.381	0.03
511.578	-0.02
511.775	0.03
511.972	-0.01
512.169	0.01
512.366	0
512.563	0.01
512.76	0.01
512.956	-0.01
513.153	0
513.35	0.01
513.547	-0
513.744	0
513.94	-0.02
514.137	-0.01
514.334	0.02
514.53	0.02
514.727	0
514.924	0.06
515.12	-0.01
515.317	-0.05
515.514	0.01
515.71	-0.03
515.907	0
516.103	0.01
516.3	0
516.497	0.04
516.693	0.03
516.89	-0
517.086	-0.02
517.283	0.01
517.479	0.01
517.676	0
517.872	0.01
518.068	-0
518.265	-0.02
518.461	-0.01
518.658	-0.03
518.854	-0.01
519.05	0
519.247	-0.02
519.443	0.02
519.639	0.01
519.836	-0
520.032	-0
520.228	0.01
520.424	0.02
520.621	0.02
520.817	0.01
521.013	0
521.209	0.01
521.405	0.05
521.601	0.01
521.798	0.02
521.994	0.03
522.19	-0.01
522.386	-0.02
522.582	-0
522.778	0
522.974	0.01
523.17	-0.01
523.366	-0.01
523.562	0.04
523.758	0.01
523.954	-0.01
524.15	0.01
524.346	0.02
524.542	-0
524.738	-0.01
524.934	0
525.129	-0.07
525.325	0.02
525.521	0.01
525.717	0.02
525.913	-0
526.109	0.01
526.304	0
526.5	0.02
526.696	0.03
526.892	0.01
527.087	0.01
527.283	0.01
527.479	0.02
527.674	-0.01
527.87	-0
528.066	-0.01
528.261	0.02
528.457	0.02
528.653	0.01
528.848	0.01
529.044	0
529.239	0.03
529.435	0.02
529.63	0.04
529.826	0.03
530.021	0.03
530.217	0.04
530.412	-0
530.608	-0.02
530.803	0.02
530.999	-0
531.194	-0.03
531.389	0.01
531.585	-0.02
531.78	0.01
531.975	0
532.171	0.03
532.366	-0.01
532.561	0
532.757	-0.02
532.952	0.02
533.147	0.03
533.342	-0.02
533.538	0
533.733	0.04
533.928	0.01
534.123	-0.03
534.318	-0.01
534.513	-0.01
534.709	0.01
534.904	-0.02
535.099	-0.01
535.294	-0
535.489	-0.01
535.684	-0.02
535.879	-0.03
536.074	0
536.269	-0.01
536.464	0.03
536.659	-0.01
536.854	-0.01
537.049	0.02
537.244	0.02
537.439	-0.01
537.634	0.04
537.828	0.03
538.023	0
538.218	-0.04
538.413	0.02
538.608	-0.01
538.803	0.02
538.997	-0.03
539.192	0.02
539.387	0.03
539.582	0.03
539.776	0.01
539.971	-0.01
540.166	0.01
540.36	-0.03
540.555	0.01
540.75	-0.01
540.944	0
541.139	-0.01
541.334	0
541.528	0.01
541.723	0.02
541.917	-0.02
542.112	-0.03
542.306	-0.01
542.501	-0.01
542.695	0
542.89	0
543.084	0.02
543.279	0
543.473	0
543.668	0.01
543.862	0.01
544.056	0.03
544.251	-0.01
544.445	0.02
544.64	0.02
544.834	-0.02
545.028	0.01
545.222	0.02
545.417	0.02
545.611	-0.01
545.805	0.01
546	-0.02
546.194	0
546.388	-0.01
546.582	0.04
546.776	-0.01
546.97	-0
547.165	0.03
547.359	0.04
547.553	-0.01
547.747	0.01
547.941	-0.01
548.135	-0.01
548.329	0.03
548.523	0.01
548.717	-0
548.911	-0.01
549.105	0.01
549.299	0
549.493	0.03
549.687	0.02
549.881	0.02
550.075	-0.01
550.269	-0.01
550.463	0.04
550.657	-0.01
550.85	-0
551.044	-0.02
551.238	0.01
551.432	-0.01
551.626	-0.02
551.82	0.01
552.013	-0
552.207	-0
552.401	0.01
552.594	0.03
552.788	0
552.982	0.03
553.176	0
553.369	0.02
553.563	0.02
553.756	-0.01
553.95	-0.02
554.144	0.01
554.337	0.03
554.531	0.03
554.724	0.01
554.918	0.01
555.111	0.02
555.305	0.03
555.498	0.05
555.692	0.03
555.885	0
556.079	0
556.272	0
556.466	0.04
556.659	0.02
556.852	-0.01
557.046	0.01
557.239	0.03
557.432	-0.01
557.626	-0.01
557.819	0.02
558.012	0.01
558.206	0.04
558.399	0.02
558.592	0.01
558.785	0.01
558.979	0.02
559.172	0.04
559.365	0.02
559.558	0
559.751	0.02
559.944	0.03
560.138	0.01
560.331	0.01
560.524	0.01
560.717	0.02
560.91	0.01
561.103	0.03
561.296	0.02
561.489	0.03
561.682	0.02
561.875	0.03
562.068	0.03
562.261	0.02
562.454	0.05
562.647	0.02
562.84	0.01
563.032	0
563.225	0.03
563.418	0.02
563.611	0
563.804	0.04
563.997	-0.01
564.19	-0.02
564.382	-0.04
564.575	0.02
564.768	0.02
564.961	-0.01
565.153	-0.01
565.346	0.03
565.539	0.04
565.731	0.06
565.924	0.03
566.117	0.03
566.309	0.02
566.502	0
566.695	0
566.887	0.01
567.08	-0.02
567.272	-0
567.465	0
567.657	0.01
567.85	0.03
568.042	0.03
568.235	0.05
568.427	0.02
568.62	0.02
568.812	0.02
569.005	0.01
569.197	-0.02
569.389	0.03
569.582	0.04
569.774	0.02
569.966	-0.01
570.159	-0.01
570.351	0.04
570.543	-0.01
570.736	0.03
570.928	0.02
571.12	0.03
571.312	0
571.505	0
571.697	0.05
571.889	0.02
572.081	0.02
572.273	-0
572.465	0.07
572.658	0.03
572.85	0.05
573.042	0.03
573.234	0.04
573.426	0.06
573.618	-0.01
573.81	0.03
574.002	0.07
574.194	0.06
574.386	0.01
574.578	-0.04
574.77	0.03
574.962	0.04
575.154	-0
575.346	0.03
575.538	0.05
575.729	0.01
575.921	0.03
576.113	0.03
576.305	0.07
576.497	0.03
576.689	0.03
576.88	0.01
577.072	0.06
577.264	0.06
577.456	0.03
577.647	-0.04
577.839	0.04
578.031	0.08
578.223	0.01
578.414	0.03
578.606	0.05
578.798	0.05
578.989	0.04
579.181	0.1
579.372	0.06
579.564	0.05
579.755	0.05
579.947	0.07
580.139	0.07
580.33	0.02
580.522	0.05
580.713	-0
580.905	0.09
581.096	0.09
581.287	0.06
581.479	0.06
581.67	0.08
581.862	0.08
582.053	0.07
582.244	0.05
582.436	0.06
582.627	0.09
582.818	0.03
583.01	0.06
583.201	0.11
583.392	0.1
583.583	0.11
583.775	0.07
583.966	0.09
584.157	0.09
584.348	0.09
584.54	0.09
584.731	0.1
584.922	0.07
585.113	0.07
585.304	0.12
585.495	0.14
585.686	0.1
585.877	0.12
586.068	0.11
586.259	0.13
586.45	0.12
586.641	0.1
586.832	0.08
587.023	0.13
587.214	0.15
587.405	0.14
587.596	0.12
587.787	0.17
587.978	0.14
588.169	0.14
588.36	0.14
588.551	0.17
588.742	0.12
588.932	0.18
589.123	0.15
589.314	0.17
589.505	0.2
589.696	0.17
589.886	0.16
590.077	0.15
590.268	0.18
590.458	0.12
590.649	0.13
590.84	0.22
591.03	0.15
591.221	0.18
591.412	0.15
591.602	0.23
591.793	0.24
591.984	0.19
592.174	0.21
592.365	0.31
592.555	0.22
592.746	0.27
592.936	0.25
593.127	0.26
593.317	0.28
593.508	0.25
593.698	0.25
593.889	0.28
594.079	0.27
594.269	0.24
594.46	0.27
594.65	0.27
594.84	0.26
595.031	0.26
595.221	0.31
595.411	0.27
595.602	0.34
595.792	0.33
595.982	0.32
596.172	0.36
596.363	0.37
596.553	0.36
596.743	0.35
596.933	0.35
597.123	0.39
597.314	0.35
597.504	0.38
597.694	0.39
597.884	0.39
598.074	0.39
598.264	0.39
598.454	0.43
598.644	0.42
598.834	0.42
599.024	0.42
599.214	0.46
599.404	0.47
599.594	0.44
599.784	0.42
599.974	0.5
600.164	0.49
600.354	0.47
600.544	0.46
600.734	0.5
600.924	0.56
601.114	0.5
601.303	0.52
601.493	0.54
601.683	0.54
601.873	0.56
602.063	0.53
602.252	0.61
602.442	0.54
602.632	0.59
602.821	0.59
603.011	0.65
603.201	0.61
603.39	0.61
603.58	0.62
603.77	0.7
603.959	0.71
604.149	0.68
604.339	0.71
604.528	0.75
604.718	0.77
604.907	0.78
605.097	0.76
605.286	0.73
605.476	0.78
605.665	0.8
605.855	0.82
606.044	0.88
606.234	0.84
606.423	0.84
606.612	0.85
606.802	0.85
606.991	0.89
607.181	0.93
607.37	0.89
607.559	0.9
607.749	0.93
607.938	0.97
608.127	0.97
608.316	0.97
608.506	0.96
608.695	1.05
608.884	1.01
609.073	1.02
609.263	1.12
609.452	1.11
609.641	1.11
609.83	1.08
610.019	1.12
610.208	1.12
610.397	1.15
610.586	1.21
610.775	1.16
610.965	1.18
611.154	1.21
611.343	1.25
611.532	1.26
611.721	1.26
611.91	1.26
612.099	1.33
612.287	1.34
612.476	1.31
612.665	1.38
612.854	1.36
613.043	1.42
613.232	1.48
613.421	1.44
613.61	1.54
613.798	1.49
613.987	1.56
614.176	1.55
614.365	1.6
614.554	1.62
614.742	1.73
614.931	1.59
615.12	1.66
615.309	1.71
615.497	1.7
615.686	1.71
615.875	1.8
616.063	1.74
616.252	1.85
616.44	1.88
616.629	1.91
616.818	1.9
617.006	1.95
617.195	1.96
617.383	2
617.572	1.99
617.76	2.05
617.949	2.06
618.137	2.2
618.326	2.21
618.514	2.15
618.703	2.2
618.891	2.34
619.079	2.22
619.268	2.38
619.456	2.31
619.644	2.46
619.833	2.37
620.021	2.5
620.209	2.44
620.398	2.55
620.586	2.55
620.774	2.69
620.962	2.66
621.151	2.82
621.339	2.78
621.527	2.78
621.715	2.82
621.903	2.86
622.092	2.86
622.28	3.03
622.468	2.92
622.656	3.05
622.844	3.05
623.032	3.18
623.22	3.14
623.408	3.24
623.596	3.28
623.784	3.42
623.972	3.37
624.16	3.41
624.348	3.5
624.536	3.64
624.724	3.51
624.912	3.57
625.1	3.72
625.288	3.75
625.476	3.71
625.664	3.84
625.851	3.83
626.039	3.92
626.227	3.89
626.415	3.98
626.603	3.9
626.79	4.09
626.978	4.06
627.166	4.16
627.354	4.08
627.541	4.19
627.729	4.1
627.917	4.34
628.104	4.28
628.292	4.31
628.48	4.38
628.667	4.38
628.855	4.53
629.042	4.53
629.23	4.48
629.418	4.48
629.605	4.6
629.793	4.48
629.98	4.58
630.168	4.52
630.355	4.6
630.543	4.57
630.73	4.53
630.917	4.51
631.105	4.64
631.292	4.59
631.48	4.58
631.667	4.66
631.854	4.6
632.042	4.57
632.229	4.51
632.416	4.66
632.604	4.58
632.791	4.36
632.978	4.54
633.165	4.44
633.353	4.46
633.54	4.4
633.727	4.25
633.914	4.25
634.101	4.24
634.289	4.29
634.476	4.11
634.663	4.09
634.85	4.03
635.037	3.94
635.224	3.9
635.411	3.96
635.598	3.79
635.785	3.74
635.972	3.66
636.159	3.58
636.346	3.56
636.533	3.41
636.72	3.37
636.907	3.32
637.094	3.23
637.281	3.11
637.468	3.09
637.655	2.98
637.842	2.92
638.029	2.81
638.215	2.75
638.402	2.68
638.589	2.57
638.776	2.55
638.963	2.41
639.149	2.48
639.336	2.43
639.523	2.27
639.709	2.19
639.896	2.08
640.083	2.06
640.27	2.07
640.456	1.93
640.643	1.97
640.829	1.75
641.016	1.74
641.203	1.65
641.389	1.7
641.576	1.57
641.762	1.59
641.949	1.46
642.135	1.42
642.322	1.37
642.508	1.23
642.695	1.31
642.881	1.25
643.068	1.24
643.254	1.2
643.441	1.17
643.627	1.13
643.813	1.01
644	1.09
644.186	0.94
644.372	0.89
644.559	1
644.745	0.9
644.931	0.86
645.118	0.84
645.304	0.84
645.49	0.8
645.676	0.75
645.862	0.76
646.049	0.72
646.235	0.69
646.421	0.77
646.607	0.71
646.793	0.62
646.979	0.59
647.165	0.64
647.352	0.58
647.538	0.61
647.724	0.57
647.91	0.53
648.096	0.53
648.282	0.5
648.468	0.49
648.654	0.5
648.84	0.45
649.026	0.44
649.212	0.39
649.397	0.38
649.583	0.39
649.769	0.42
649.955	0.39
650.141	0.37
650.327	0.37
650.513	0.33
650.698	0.37
650.884	0.26
651.07	0.34
651.256	0.32
651.442	0.3
651.627	0.28
651.813	0.32
651.999	0.29
652.184	0.3
652.37	0.23
652.556	0.24
652.741	0.26
652.927	0.15
653.113	0.23
653.298	0.22
653.484	0.21
653.669	0.15
653.855	0.18
654.04	0.21
654.226	0.16
654.412	0.19
654.597	0.15
654.782	0.17
654.968	0.21
655.153	0.17
655.339	0.13
655.524	0.13
655.71	0.16
655.895	0.15
656.08	0.15
656.266	0.18
656.451	0.15
656.636	0.1
656.822	0.13
657.007	0.1
657.192	0.12
657.378	0.06
657.563	0.15
657.748	0.13
657.933	0.13
658.118	0.13
658.304	0.12
658.489	0.13
658.674	0.11
658.859	0.06
659.044	0.13
659.229	0.1
659.414	0.06
659.599	0.08
659.785	0.07
659.97	0.1
660.155	0.08
660.34	0.1
660.525	0.1
660.71	0.09
660.895	0.1
661.08	0.07
661.264	0.07
661.449	0.15
661.634	0.14
661.819	0.09
662.004	0.08
662.189	0.02
662.374	0.06
662.559	0.04
662.743	-0.02
662.928	0.04
663.113	0.03
663.298	0.02
663.483	0.02
663.667	0.09
663.852	0.02
664.037	0.1
664.221	0.03
664.406	0.06
664.591	0.06
664.775	0.07
664.96	0.05
665.145	0.07
665.329	0.05
665.514	0.02
665.698	0.05
665.883	-0.02
666.068	0.11
666.252	0.04
666.437	0.01
666.621	0.04
666.806	0.06
666.99	0.08
667.174	-0.01
667.359	0.1
667.543	0.03
667.728	0.03
667.912	-0.01
668.096	0.07
668.281	0.01
668.465	0.01
668.649	0.06
668.834	0.02
669.018	0.04
669.202	0.02
669.387	0.01
669.571	0.08
669.755	0.03
669.939	0
670.124	0.01
670.308	0.09
670.492	0.06
670.676	0.01
670.86	0.01
671.044	-0.01
671.228	0.07
671.413	0.01
671.597	0.04
671.781	-0.02
671.965	0.05
672.149	0.03
672.333	0.01
672.517	-0.01
672.701	0.07
672.885	0.03
673.069	-0.04
673.253	0.09
673.437	0.01
673.621	-0
673.804	-0
673.988	0.03
674.172	0.05
674.356	-0.05
674.54	0
674.724	0.08
674.908	-0.01
675.091	0.07
675.275	0.02
675.459	0.05
675.643	0.06
675.826	0.05
676.01	0.03
676.194	0.05
676.377	0.05
676.561	0.07
676.745	0.08
676.928	0.04
677.112	0.09
677.296	-0.01
677.479	0.04
677.663	-0
677.846	0.05
678.03	0.01
678.213	0
678.397	0.04
678.58	-0.02
678.764	0.02
678.947	-0.02
679.131	0.01
679.314	0.06
679.498	-0.02
679.681	0.05
679.865	0.05
680.048	0.01
680.231	0.03
680.415	0.01
680.598	0.02
680.781	0.01
680.965	0.03
681.148	-0.02
681.331	-0.02
681.514	0.09
681.698	-0.02
681.881	0.01
682.064	0
682.247	-0.02
682.43	-0.02
682.614	0.05
682.797	0.05
682.98	0.03
683.163	0.01
683.346	0.09
683.529	0.03
683.712	0
683.895	0.05
684.078	0.01
684.261	0.05
684.444	0.04
684.627	0.01
684.81	-0.01
684.993	0
685.176	0.02
685.359	-0.01
685.542	0.01
685.725	0.09
685.908	0.02
686.091	0.01
686.274	0.07
686.457	0.05
686.639	-0.01
686.822	0.04
687.005	0.02
687.188	0
687.371	0.11
687.553	0.04
687.736	0.04
687.919	0.03
688.102	0.07
688.284	0.06
688.467	0.05
688.65	-0.05
688.832	-0
689.015	0.07
689.197	-0.03
689.38	0.12
689.563	0.08
689.745	-0.05
689.928	-0.01
690.11	-0
690.293	0.04
690.475	-0.05
690.658	0.06
690.84	0.01
691.023	-0.02
691.205	-0.03
691.388	-0.01
691.57	0.03
691.752	0.07
691.935	-0.03
692.117	0.03
692.3	0.05
692.482	0.04
692.664	-0.02
692.847	0.06
693.029	0.09
693.211	0.01
693.393	-0.01
693.576	-0.03
693.758	0.04
693.94	-0
694.122	-0.05
694.304	0.05
694.487	0.02
694.669	0.09
694.851	0
695.033	-0
695.215	-0.03
695.397	-0.02
695.579	0.05
695.761	0
695.943	-0.06
696.125	0.09
696.308	0.05
696.49	-0.1
696.671	0.15
696.853	-0.01
697.035	0.09
697.217	0.05
697.399	0.01
697.581	0.02
697.763	0.02
697.945	-0.02
698.127	0
698.309	0.04
698.491	0.01
698.672	0.09
698.854	0.04
699.036	0.07
699.218	-0.02
699.399	0.07
699.581	0.03
699.763	0.02
699.945	0
700.126	-0.01
700.308	0.01
700.49	-0.06
700.671	-0.08
700.853	-0.06
701.035	0.01
701.216	-0
701.398	-0.05
701.579	-0.04
701.761	0.1
701.943	-0.05
702.124	-0.01
702.306	0.05
702.487	0.11
702.669	-0
702.85	-0.05
703.031	-0.02
703.213	0.09
703.394	0.1
703.576	0.02
703.757	0.05
703.938	0.05
704.12	0.15
704.301	-0.01
704.483	0.04
704.664	0.03
704.845	0.09
705.026	0.04
705.208	0.07
705.389	0.04
705.57	0.03
705.751	0.03
705.933	0.03
706.114	0
706.295	0.01
706.476	0.02
706.657	0.11
706.838	0.06
707.02	0.05
707.201	0.03
707.382	-0.01
707.563	0.02
707.744	-0
707.925	-0.04
708.106	-0.02
708.287	0.03
708.468	0.12
708.649	0.01
708.83	0.04
709.011	-0.01
709.192	0.07
709.373	-0.04
709.554	-0.02
709.734	0.03
709.915	0.05
710.096	-0.01
710.277	-0.11
710.458	0.04
710.639	0.09
710.819	-0.06
711	-0.01
711.181	0.07
711.362	0.08
711.542	0.04
711.723	-0.02
711.904	0.02
712.085	-0.07
712.265	0
712.446	-0.04
712.627	-0.01
712.807	0.08
712.988	-0.01
713.168	-0.07
713.349	0.04
713.53	-0.1
713.71	-0.05
713.891	-0.05
714.071	0.07
714.252	-0.04
714.432	-0.05
714.613	-0.03
714.793	0.03
714.974	0.09
715.154	0.11
715.334	0.1
715.515	0.08
715.695	-0.05
715.876	-0.02
716.056	-0.03
716.236	0.01
716.417	-0.05
716.597	-0.02
716.777	0.14
716.957	-0.02
717.138	0.04
717.318	0.02
717.498	-0.07
717.678	0.03
717.859	0
718.039	-0.06
718.219	0.04
718.399	0.05
718.579	-0.07
718.759	-0.1
718.939	0.02
719.12	0.04
719.3	0
719.48	-0.11
719.66	-0.15
719.84	0.1
720.02	0.04
720.2	-0.06
720.38	0.04
720.56	0.14
720.74	-0.07
720.92	-0
721.1	0.06
721.279	0.07
721.459	0.06
721.639	-0.02
721.819	0.07
721.999	0.01
722.179	-0.01
722.359	-0.06
722.538	0.02
722.718	0.03
722.898	0.02
723.078	-0.04
723.257	-0
723.437	0.02
723.617	-0
723.797	-0.01
723.976	0.06
724.156	-0.01
724.336	0.09
724.515	0.1
724.695	-0.13
724.874	0.04
725.054	0.1
725.234	-0.01
725.413	0.03
725.593	0.08
725.772	0.06
725.952	-0.01
726.131	-0.05
726.311	0
726.49	0.08
726.67	-0.1
726.849	-0.05
727.028	0.03
727.208	0.03
727.387	0.07
727.567	-0.04
727.746	-0.05
727.925	-0.01
728.105	-0.07
728.284	-0.04
728.463	-0.09
728.643	0.09
728.822	-0.03
729.001	0.05
729.18	0.05
729.359	0.09
729.539	0.02
729.718	-0.05
729.897	-0
730.076	0.03
730.255	-0.1
730.434	0.05
730.614	0.04
730.793	0.08
730.972	-0.03
731.151	-0.1
731.33	0.03
731.509	0.1
731.688	0.02
731.867	-0.03
732.046	-0.15
732.225	0.27
732.404	0.01
732.583	-0.05
732.762	-0.04
732.941	0.06
733.12	-0.03
733.298	-0.14
733.477	0.06
733.656	0.01
733.835	-0.15
734.014	0.14
734.193	0.01
734.371	0.03
734.55	0.02
734.729	-0.05
734.908	0.01
735.086	-0.07
735.265	0.06
735.444	-0.12
735.623	-0.11
735.801	-0.03
735.98	0.1
736.159	-0.11
736.337	0.04
736.516	0
736.694	0.08
736.873	-0.05
737.052	0.23
737.23	0.08
737.409	0.01
737.587	0.09
737.766	-0.17
737.944	-0.11
738.123	0.11
738.301	0.1
738.479	-0.01
738.658	0.04
738.836	-0.2
739.015	0.01
739.193	0.02
739.371	-0.02
739.55	-0.05
739.728	-0.08
739.906	0.07
740.085	0.23
740.263	-0.06
740.441	-0.16
740.62	0.19
740.798	0.08
740.976	-0.1
741.154	-0.02
741.332	0.16
741.511	-0.07
741.689	0
741.867	0.12
742.045	-0.04
742.223	0.02
742.401	-0.05
742.579	-0.07
742.757	0.08
742.935	-0.1
743.114	-0.07
743.292	-0.12
743.47	0.08
743.648	0.09
743.826	-0.13
744.004	-0.02
744.181	0.07
744.359	-0.1
744.537	0.02
744.715	-0.01
744.893	-0.01
745.071	0.02
745.249	-0.15
745.427	-0.04
745.605	0.05
745.782	0
745.96	0.03
746.138	0.03
746.316	-0.01
746.493	-0.07
746.671	0
746.849	0.08
747.027	0.2
747.204	-0.08
747.382	0.09
747.56	-0.09
747.737	-0.03
747.915	-0.13
748.093	0.14
748.27	-0.11
748.448	-0.04
748.625	0.01
748.803	-0.06
748.98	-0.01
749.158	0.04
749.335	0.1
749.513	0
749.69	-0.08
749.868	-0.02
750.045	0
750.223	-0.04
750.4	-0.18
750.578	0.12
750.755	0.07
750.932	-0.13
751.11	0.01
751.287	-0.09
751.464	0.22
751.642	-0.1
751.819	0.07
751.996	0.04
752.173	0.01
752.351	-0.09
752.528	-0.04
752.705	-0.04
752.882	-0.02
753.06	0.01
753.237	0.08
753.414	0.25
753.591	0.16
753.768	-0.04
753.945	-0.04
754.122	-0.09
754.299	0.01
754.476	-0.08
754.654	-0.01
754.831	0.04
755.008	-0
755.185	-0.13
755.362	-0.14
755.539	-0.04
755.716	-0.09
755.892	0.07
756.069	-0.03
756.246	0.03
756.423	-0
756.6	0.06
756.777	0.05
756.954	0.1
757.131	0.02
757.307	-0.07
757.484	-0.25
757.661	0.01
757.838	-0
758.015	-0.03
758.191	0.15
758.368	-0.03
758.545	0.22
758.721	0.06
758.898	-0.09
759.075	0.05
759.251	0.15
759.428	0.14
759.605	-0.1
759.781	-0.08
759.958	0.11
760.134	0.06
760.311	-0.07
760.488	0.05
760.664	0.09
760.841	0.03
761.017	-0.07
761.194	0.12
761.37	-0.04
761.547	0.05
761.723	-0.02
761.899	0.11
762.076	-0.12
762.252	-0.04
762.429	-0.04
762.605	0.12
762.781	-0.07
762.958	0.17
763.134	-0.03
763.31	-0.09
763.486	0.19
763.663	-0.12
763.839	0.16
764.015	-0.18
764.191	-0.13
764.368	0.11
764.544	-0.05
764.72	0.09
764.896	0.05
765.072	0.12
765.248	0.05
765.425	-0.09
765.601	0.02
765.777	0.01
765.953	-0.22
766.129	0.05
766.305	-0.07
766.481	0.01
766.657	-0.02
766.833	0.24
767.009	-0.07
767.185	-0.12
767.361	-0.1
767.537	-0.12
767.713	0.18
767.889	0.04
768.065	-0.05
768.24	-0.02
768.416	0.25
768.592	0.09
768.768	0.06
768.944	-0.06
769.12	-0.15
769.295	-0.06
769.471	-0.05
769.647	-0.01
769.823	0.12
769.998	-0.05
770.174	-0.05
770.35	0.32
770.525	0.27
770.701	0.15
770.877	-0.15
771.052	-0.25
771.228	0.12
771.403	0.08
771.579	0.07
771.755	0.3
771.93	-0.06
772.106	-0.03
772.281	-0.2
772.457	0.06
772.632	0.11
772.808	-0.18
772.983	-0.07
773.159	-0.16
773.334	0.23
773.509	0.03
773.685	-0.11
773.86	0.35
774.036	0.15
774.211	0.07
774.386	-0.04
774.562	-0.07
774.737	0.04
774.912	-0.17
775.087	0.16
775.263	0.04
775.438	0.04
775.613	0.01
775.788	-0.05
775.964	0.16
776.139	0.21
776.314	-0.14
776.489	0.04
776.664	-0.02
776.839	-0.11
777.014	0.2
777.19	0.12
777.365	0.25
777.54	0.23
777.715	-0.18
777.89	0.01
778.065	-0.03
778.24	-0.05
778.415	0.02
778.59	-0.15
778.765	-0.06
778.94	0
779.115	0.12
779.289	-0.02
779.464	0.1
779.639	0.01
779.814	-0.27
779.989	-0.04
780.164	0.25
780.339	0.06
780.513	0.05
780.688	-0.1
780.863	-0.07
781.038	-0.01
781.212	-0.14
781.387	-0.02
781.562	0.17
781.737	-0.07
781.911	0.23
782.086	-0.09
782.261	-0.04
782.435	0.2
782.61	0.03
782.784	-0.01
782.959	0.22
783.134	-0.03
783.308	-0.14
783.483	0
783.657	0.37
783.832	0.3
784.006	-0.27
784.181	0.1
784.355	0.39
784.53	-0.21
784.704	-0.29
784.878	0.42
785.053	0.05
785.227	0.27
785.402	0.39
785.576	-0.17
785.75	0.02
785.925	-0.06
786.099	0.02
786.273	-0.01
786.448	0.18
786.622	0.17
786.796	0.26
786.97	0.12
787.145	0.39
787.319	-0.31
787.493	-0.13
787.667	-0.29
787.841	0.04
788.015	0.34
788.19	-0.18
788.364	0.04
788.538	0.22
788.712	0.08
788.886	-0.02
789.06	0.16
789.234	0.12
789.408	-0.03
789.582	-0.15
789.756	-0.13
789.93	-0.16
790.104	-0.03
790.278	-0.03
790.452	-0.16
790.626	0.06
790.8	-0.19
790.973	0.43
791.147	0.17
791.321	0.13
791.495	0.36
791.669	0.04
791.843	0.06
792.016	0.24
792.19	0.38
792.364	-0.18
792.538	0.47
792.711	0.27
792.885	0.08
793.059	-0.28
793.233	-0.39
793.406	0.1
793.58	-0.03
793.754	0.36
793.927	-0.01
794.101	0.31
794.274	-0.08
794.448	0.25
794.622	-0.28
794.795	0.28
794.969	0.01
795.142	0.24
795.316	-0.02
795.489	-0.09
795.663	0.21
795.836	0.08
796.009	-0.13
796.183	0.41
796.356	0.17
796.53	0.18
796.703	0.17
796.876	0.38
797.05	-0.14
797.223	-0.14
797.396	0.15
797.57	0.05
797.743	0.36
797.916	-0.11
798.09	0.11
798.263	0.35
798.436	0.13
798.609	-0.06
798.782	-0.05
798.956	0.2
799.129	0.05
799.302	0.03
799.475	0.02
799.648	-0.53
799.821	0.27
799.994	0.21
800.167	-0.33
800.34	-0
800.514	0.15
800.687	0.17
800.86	-0.13
801.033	-0.07
801.206	0.08
801.379	-0.18
801.551	0.35
801.724	0.1
801.897	0.28
802.07	-0.08
802.243	-0.38
802.416	0.02
802.589	-0.07
802.762	0.23
802.935	0.02
803.107	0.09
803.28	0.22
803.453	0.38
803.626	-0.27
803.798	-0.17
803.971	0.14
804.144	0.38
804.317	0.64
804.489	0.33
804.662	-0.05
804.835	0.14
805.007	-0.24
805.18	0.22
805.353	0.07
805.525	-0.25
805.698	-0.08
805.87	0.29
806.043	0.41
806.215	-0.33
806.388	-0.36
806.56	-0.12
806.733	0.69
806.905	-0.05
807.078	-0.37
807.25	-0.29
807.423	0.1
807.595	0.16
807.768	-0.01
807.94	0.33
808.112	0.47
808.285	-0.14
808.457	0.14
808.629	0.31
808.802	0.42
808.974	0.21
809.146	-0.14
809.318	-0.11
809.491	0.23
809.663	-0.11
809.835	-0.44
810.007	0.27
810.18	-0.28
810.352	-0.52
810.524	-0.09
810.696	0.07
810.868	0.52
811.04	-0.08
811.212	-0.09
811.384	0.29
811.556	0.2
811.728	0.36
811.901	0.53
812.073	0.05
812.245	0.5
812.417	-0.05
812.589	-0.36
812.76	-0.31
812.932	-0.21
813.104	0.3
813.276	-0.04
813.448	0.27
813.62	0.23
813.792	0.03
813.964	0.1
814.136	0.35
814.307	0.19
814.479	-0.2
814.651	-0.26
814.823	0.69
814.995	-0.14
815.166	0
815.338	-0.16
815.51	-0.51
815.681	0.84
815.853	-0.04
816.025	-0.11
816.196	0.42
816.368	0.41
816.54	-0.14
816.711	-0.69
816.883	0.07
817.054	0.32
817.226	-0.48
817.398	0.04
817.569	-0.18
817.741	0.08
817.912	0.21
818.084	-0.08
818.255	0.02
818.426	0.07
818.598	0.13
818.769	0.02
818.941	0.82
819.112	0.52
819.283	-0.35
819.455	-0.1
819.626	0.05
819.798	0.31
819.969	0.46
820.14	0.23
820.311	0.02
820.483	0.49
820.654	0.24
820.825	-0.29
820.996	0.1
821.168	-0.2
821.339	-0.46
821.51	-0.38
821.681	-0.17
821.852	0.36
822.023	-0.42
822.195	-0.48
822.366	0.79
822.537	-0.08
822.708	0.09
822.879	-0.56
823.05	0.85
823.221	-0.24
823.392	0.32
823.563	0.07
823.734	-0.34
823.905	-0.05
824.076	-0.13
824.247	-0.47
824.418	0.08
824.589	0.65
824.759	-0.26
824.93	-0.35
825.101	-0.07
825.272	0.71
825.443	0.11
825.614	0.33
825.784	-0.47
825.955	0.78
826.126	1.09
826.297	-0.1
826.467	0.18
826.638	0.35
826.809	-0.75
826.98	-0.38
827.15	0.53
827.321	0.43
827.492	0.76
827.662	0.25
827.833	0.8
828.003	0.2
828.174	-0.41
828.345	-0.52
828.515	0.86
828.686	0.58
828.856	-0.25
829.027	0.13
829.197	0.27
829.368	-0.1
829.538	0.01
829.709	-0.51
829.879	0.22
830.049	0.2
830.22	-0.03
830.39	0.05
830.56	0.53
830.731	-0.23
830.901	-0.35
831.072	0.07
831.242	0.11
831.412	-0.09
831.582	0.3
831.753	-0.25
831.923	0.12
832.093	0.09
832.263	0.09
832.434	-0.25
832.604	-0.74
832.774	0.16
832.944	-0.16
833.114	0.3
833.284	0.44
833.454	-0.26
833.624	-1.11
833.795	-0.71
833.965	0.84
834.135	0.8
834.305	-0.51
834.475	-0.82
834.645	0.07
834.815	-0.4
834.985	-0.5
835.155	-0.23
835.325	0.48
835.494	0.84
835.664	0.34
835.834	-0.45
836.004	0.03
836.174	0.58
836.344	0.07
836.514	-0.78
836.684	-0.1
836.853	0.3
837.023	0.04
837.193	-0.27
837.363	0.93
837.532	0.69
837.702	0.02
837.872	0.39
838.041	0.28
838.211	1.11
838.381	-0.78
838.55	-0.22
838.72	1.72
838.89	0.92
839.059	0.2
839.229	-0.26
839.398	0.6
839.568	0.67
839.738	-0.08
839.907	0.73
840.077	0.23
840.246	-0.18
840.416	0.3
840.585	-0.71
840.755	1.11
840.924	0.36
841.093	-0.77
841.263	-0.25
841.432	0.59
841.602	-0.73
841.771	-0.83
841.94	-0.24
842.11	1.91
842.279	1.7
842.448	0.22
842.617	-0.75
842.787	0.79
842.956	-0.57
843.125	0.2
843.294	-0.71
843.464	1.05
843.633	-0.12
843.802	-1.12
843.971	-0.06
844.14	0.21
844.309	0.64
844.479	-0.5
844.648	-0.89
844.817	0.02
844.986	-0.08
845.155	-0.15
845.324	0.17
845.493	-0.15
845.662	-0.93
845.831	0.07
846	0.03
846.169	0.13
846.338	1.45
846.507	0.28
846.676	0.84
846.844	-0.49
847.013	0.73
847.182	0.04
847.351	-0.46
847.52	0.16
847.689	0.15
847.858	-0.22
848.026	-0.76
848.195	0.43
848.364	-0.68
848.533	0.44
848.701	-0.61
848.87	0.16
849.039	0.05
849.207	2.39
849.376	1.08
849.545	0.89
849.713	0.19
849.882	-1.05
850.051	-0.19
850.219	0.58
850.388	0.59
850.556	-0.54
850.725	-0.19
850.893	-0.14
851.062	0.02
851.23	0.55
851.399	-1.1
851.567	-0.34
851.736	0.66
851.904	-0.9
852.073	0.37
852.241	1.22
852.41	-0.03
852.578	0.03
852.746	-0.08
852.915	0.57
853.083	0.2
853.251	-0.95
853.42	-0.31
853.588	0.6
853.756	0.82
853.924	0.21
854.093	-0.55
854.261	0.7
854.429	-1.28
854.597	0.1
854.765	-1.24
854.934	0.84
855.102	1.5
855.27	0.67
855.438	-0.15
855.606	1.12
855.774	0.97
855.942	-1.13
856.11	-1.49
856.278	0.65
856.446	0.09
856.614	0.16
856.782	-0.59
856.95	1.13
857.118	0.51
857.286	0.61
857.454	-1.61
857.622	0.8
857.79	0.91
857.958	-1.6
858.126	0.05
858.294	-2.63
858.462	-0.07
858.629	-0.2
858.797	-1.08
858.965	0.7
859.133	-0.95
859.301	-0.41
859.468	-0.02
859.636	0.66
859.804	0.18
859.971	1.57
860.139	-0.59
860.307	1.2
860.474	0.73
860.642	-0.67
860.81	-0.14
860.977	-0.07
861.145	1.52
861.313	-0.43
861.48	0.76
861.648	0.18
861.815	0.96
861.983	-0.86
862.15	0.55
862.318	0.56
862.485	1.31
862.653	-0.66
862.82	0.66
862.988	0.73
863.155	0.34
863.322	-1.73
863.49	-1.58
863.657	-1.6
863.824	1.64
863.992	1.44
864.159	0.71
864.326	1.48
864.494	-0.42
864.661	2.57
864.828	-1.58
864.996	2.27
865.163	0.74
865.33	-0.58
865.497	-2.37
865.664	0.12
865.832	-2.4
865.999	-0.67
866.166	-1.03
866.333	-0.22
866.5	-0.6
866.667	-0.34
866.834	1.1
867.001	1.58
867.168	-0.99
867.335	-0.77
867.502	0.79
867.669	0.06
867.836	1.84
868.003	0.2
868.17	1.07
868.337	-0.5
868.504	1.6
868.671	-0.36
868.838	0.75
869.005	-0.55
869.172	0.8
869.339	-0.45
869.505	-0.66
869.672	-1.09
869.839	0.62
870.006	0.82
870.173	-1.08
870.339	0.76
870.506	3.3
870.673	1.03
870.84	-0.71
871.006	-0.5
871.173	0.77
871.34	-0.12
871.506	-0.08
871.673	0.7
871.839	-2.14
872.006	0.35
872.173	-0.03
872.339	0.19
872.506	2.06
872.672	0.69
872.839	-0.79
873.005	-0.98
873.172	0.99
873.338	0.29
873.505	1.09
873.671	0.29
873.838	1.95
874.004	-0.95
874.171	-1.74
874.337	1.32
874.503	1.28
874.67	-0.03
874.836	-1.2
875.002	2.39
875.169	1.57
875.335	1.3
875.501	-1.26
875.668	0.44
875.834	-0.42
876	0.98
876.166	1.9
876.332	0.36
876.499	3.29
876.665	0.29
876.831	1.08
876.997	2.13
877.163	0.83
877.329	-1.29
877.495	2.15
877.662	1.21
877.828	1.29
877.994	1.68
878.16	-2.34
878.326	-0.75
878.492	0.67
878.658	-1.75
878.824	0.25
878.99	0.84
879.156	-1.69
879.322	2.25
879.487	-0.76
879.653	-0.67
879.819	-0.22
879.985	0.77
880.151	1.24
880.317	-0.31
880.483	0.79
880.648	0.51
880.814	-2.79
880.98	-0.2
881.146	-2.59
881.312	-0.82
881.477	1.69
881.643	0.36
881.809	1.4
881.974	2.6
882.14	-2.25
882.306	-0.32
882.471	2.96
882.637	1.09
882.803	-0.01
882.968	1.58
883.134	1
883.299	-0.11
883.465	-2.82
883.63	1.66
883.796	2.6
883.961	0.83
884.127	1.34
884.292	-1
884.458	-1.84
884.623	-1.84
