Data from Apollo_Calib_20240827__AbsoluteIrradiance__327__04-36-02-418.txt Node

Date: Wed Aug 28 04:36:02 BST 2024
User: biology
Spectrometer: FLMT08252
Trigger mode: 0
Integration Time (sec): 5.000000E-1
Scans to average: 5
Electric dark correction enabled: true
Nonlinearity correction enabled: false
Boxcar width: 0
XAxis mode: Wavelengths
Number of Pixels in Spectrum: 3648
>>>>>Begin Spectral Data<<<<<
179.588	-0
179.809	-0
180.03	-0
180.251	-0
180.473	-0
180.694	0
180.915	0
181.136	-0
181.357	0
181.578	-0
181.799	-0
182.02	-0
182.241	0
182.462	-0
182.683	0
182.904	-0
183.125	0
183.346	0
183.567	0
183.788	-0
184.009	-0
184.23	0
184.451	0
184.672	-0
184.892	-0
185.113	0
185.334	0
185.555	-0
185.776	-0
185.996	0
186.217	0
186.438	-0
186.659	-0
186.879	0
187.1	-0
187.321	-0
187.541	-0
187.762	0
187.983	0
188.203	-0
188.424	0
188.644	-0
188.865	-0
189.086	-0
189.306	0
189.527	-0
189.747	0
189.968	-0
190.188	0
190.409	0
190.629	0
190.849	-0
191.07	-0
191.29	0
191.511	-0
191.731	-0
191.951	-0
192.172	0
192.392	0
192.612	-0
192.833	-0
193.053	0
193.273	0
193.493	-0
193.714	-0
193.934	0
194.154	0
194.374	-0
194.594	0
194.815	0
195.035	0
195.255	0
195.475	-0
195.695	0
195.915	0
196.135	-0
196.355	0
196.575	0
196.795	0
197.015	-0
197.235	-0
197.455	-0
197.675	0
197.895	-0
198.115	-0
198.335	0
198.555	-0
198.775	-0
198.995	0
199.214	0
199.434	-0
199.654	-0
199.874	-0
200.094	0.99
200.313	-0.3
200.533	-0.78
200.753	-0.56
200.973	1.16
201.192	0.69
201.412	-0.81
201.632	-0.47
201.851	0.99
202.071	-0.42
202.291	-0.28
202.51	-0.76
202.73	0.69
202.95	-0.22
203.169	-0.67
203.389	-0.13
203.608	0.32
203.828	-0.4
204.047	-0.31
204.267	0.53
204.486	0.05
204.706	0.29
204.925	-0.26
205.145	-0.36
205.364	0.59
205.583	0.55
205.803	-0.54
206.022	-0.29
206.242	-0.21
206.461	0.05
206.68	-0.53
206.9	-0.19
207.119	0.77
207.338	0.85
207.557	-0.1
207.777	-0
207.996	0.16
208.215	0.71
208.434	-0.4
208.654	-0.54
208.873	0.06
209.092	0.53
209.311	-0.37
209.53	0.04
209.749	0.13
209.968	-0.08
210.187	-0.47
210.407	-0.42
210.626	-0.14
210.845	0.29
211.064	-0.16
211.283	-0.03
211.502	0.1
211.721	0.1
211.94	-0.06
212.159	0.13
212.377	0.26
212.596	0.36
212.815	-0.11
213.034	0.17
213.253	0.5
213.472	0.05
213.691	-0.18
213.91	-0.23
214.128	-0.07
214.347	0.56
214.566	-0.45
214.785	-0.66
215.003	0.14
215.222	0.18
215.441	0.02
215.66	-0.26
215.878	-0.15
216.097	0.03
216.316	-0.32
216.534	-0.14
216.753	0.02
216.972	-0.06
217.19	-0.13
217.409	-0.2
217.627	-0.27
217.846	0.02
218.064	-0.06
218.283	-0.21
218.501	0.39
218.72	0.2
218.938	-0.25
219.157	-0.23
219.375	0.28
219.594	0.19
219.812	-0.25
220.031	-0.14
220.249	0.26
220.467	0.14
220.686	-0.14
220.904	-0.11
221.122	-0.13
221.341	0.44
221.559	0.06
221.777	-0.15
221.995	0.11
222.214	0.04
222.432	-0.12
222.65	0.16
222.868	-0.01
223.086	-0.01
223.305	0.15
223.523	-0.18
223.741	0.31
223.959	-0.12
224.177	-0.29
224.395	-0.19
224.613	0.11
224.831	0.26
225.049	-0.06
225.267	0.03
225.485	-0.03
225.703	0.07
225.921	-0.08
226.139	-0.1
226.357	0.16
226.575	0.21
226.793	-0.16
227.011	0.65
227.229	0.01
227.447	0.2
227.665	-0.04
227.883	-0.13
228.1	-0.05
228.318	0.03
228.536	-0.28
228.754	-0.09
228.972	0.21
229.189	0.16
229.407	-0.03
229.625	-0.02
229.843	0.2
230.06	0.23
230.278	-0.15
230.496	-0.13
230.713	0.04
230.931	0.24
231.149	-0.05
231.366	-0.22
231.584	0.09
231.801	0.34
232.019	-0.09
232.236	-0.14
232.454	-0.17
232.671	0.04
232.889	-0.02
233.106	-0.19
233.324	0.02
233.541	-0.02
233.759	0.02
233.976	-0.04
234.194	-0.08
234.411	-0.02
234.628	-0.19
234.846	0.06
235.063	0.05
235.28	-0.02
235.498	-0.02
235.715	-0.08
235.932	0.15
236.149	-0.04
236.367	-0.06
236.584	0.02
236.801	-0.01
237.018	0.22
237.236	-0.01
237.453	-0.15
237.67	0.06
237.887	-0.11
238.104	0.03
238.321	-0.07
238.538	-0.07
238.755	0.18
238.973	-0.16
239.19	0.04
239.407	-0.01
239.624	0.07
239.841	-0.09
240.058	-0.09
240.275	0.01
240.492	-0.02
240.709	-0.04
240.925	-0.1
241.142	-0.03
241.359	-0.08
241.576	-0.08
241.793	-0.09
242.01	-0.03
242.227	0.06
242.444	0.01
242.66	0.07
242.877	0.03
243.094	0.03
243.311	0
243.527	0.01
243.744	0.02
243.961	0.05
244.178	-0.07
244.394	-0.04
244.611	0.08
244.828	0.13
245.044	-0.08
245.261	-0.03
245.477	-0.03
245.694	0.03
245.911	-0.06
246.127	0.04
246.344	0.21
246.56	-0.01
246.777	-0.04
246.993	-0.03
247.21	0.11
247.426	0.11
247.643	-0.03
247.859	-0.1
248.076	0
248.292	0.23
248.508	-0
248.725	0.02
248.941	0.08
249.157	0.1
249.374	-0.03
249.59	0.07
249.806	0.01
250.023	0.18
250.239	-0.17
250.455	-0.04
250.671	0.06
250.888	0.06
251.104	0.07
251.32	-0.02
251.536	0.03
251.752	-0.02
251.969	0.01
252.185	-0.03
252.401	0.23
252.617	0.08
252.833	-0.04
253.049	-0
253.265	0.1
253.481	-0.01
253.697	-0.08
253.913	-0.07
254.129	0.06
254.345	0.01
254.561	-0.07
254.777	-0.04
254.993	0.1
255.209	-0.02
255.425	-0
255.641	-0.07
255.857	0.09
256.073	0.02
256.288	-0.06
256.504	-0.02
256.72	0.05
256.936	0.13
257.152	-0.05
257.367	-0.05
257.583	0.05
257.799	0.07
258.015	-0.08
258.23	-0.01
258.446	0.12
258.662	0.05
258.877	-0.08
259.093	-0.1
259.309	0.01
259.524	0.04
259.74	0
259.955	-0.08
260.171	0.07
260.387	-0.05
260.602	0.07
260.818	0.04
261.033	-0.04
261.249	0.01
261.464	-0.07
261.68	-0.06
261.895	0.11
262.11	0.09
262.326	-0.08
262.541	-0.12
262.757	0.08
262.972	0.1
263.187	0.01
263.403	0.01
263.618	0.07
263.833	0.03
264.049	-0.09
264.264	-0.03
264.479	0.07
264.694	0.11
264.91	-0.07
265.125	-0
265.34	0.08
265.555	0.13
265.77	0.11
265.986	-0.03
266.201	0.09
266.416	0.11
266.631	0.02
266.846	0.01
267.061	0.04
267.276	0.1
267.491	-0.14
267.706	0.02
267.921	0.09
268.136	0.03
268.351	-0
268.566	-0.09
268.781	0.1
268.996	0.15
269.211	-0.01
269.426	-0.05
269.641	-0
269.856	0.06
270.071	-0.06
270.285	-0.03
270.5	0.1
270.715	0.05
270.93	-0.02
271.145	-0
271.359	0.1
271.574	-0
271.789	-0.04
272.004	-0
272.218	-0.04
272.433	0.12
272.648	-0.05
272.862	0.07
273.077	0.04
273.292	-0
273.506	-0.03
273.721	0
273.936	0.04
274.15	0.08
274.365	-0
274.579	0.07
274.794	0.03
275.008	0.09
275.223	-0.08
275.437	-0.02
275.652	0.04
275.866	0.07
276.081	-0.01
276.295	0.05
276.509	0
276.724	0.03
276.938	-0.05
277.153	0.04
277.367	0.07
277.581	0.01
277.796	-0.03
278.01	-0.03
278.224	0.1
278.438	0.16
278.653	-0.05
278.867	-0.02
279.081	0.05
279.295	0.02
279.51	0.05
279.724	-0.08
279.938	0.04
280.152	0.03
280.366	-0.07
280.58	0.04
280.794	0.14
281.008	0.05
281.222	0.08
281.437	0.08
281.651	0.02
281.865	0.1
282.079	-0.02
282.293	-0.06
282.507	-0.03
282.721	0.06
282.935	0.03
283.148	-0
283.362	-0.01
283.576	-0.03
283.79	0.02
284.004	-0.06
284.218	0.1
284.432	0.03
284.646	-0.02
284.859	-0.01
285.073	0.01
285.287	0.05
285.501	0.01
285.714	-0.01
285.928	-0.01
286.142	0.02
286.356	-0.04
286.569	-0
286.783	0.09
286.997	0.08
287.21	0.02
287.424	-0.01
287.637	0.02
287.851	0.02
288.065	0.08
288.278	0.02
288.492	0.06
288.705	0.01
288.919	0.09
289.132	-0.03
289.346	0.09
289.559	-0.08
289.773	-0.03
289.986	-0.02
290.2	-0.01
290.413	0.08
290.626	-0.04
290.84	0.01
291.053	0.02
291.267	0.11
291.48	0.02
291.693	0.07
291.906	-0.05
292.12	0.02
292.333	-0.02
292.546	-0.04
292.76	0.11
292.973	0.06
293.186	0.05
293.399	0
293.612	0.08
293.826	0
294.039	-0
294.252	0.04
294.465	0.07
294.678	0.05
294.891	0.07
295.104	-0.03
295.317	-0.03
295.53	0.04
295.743	0.04
295.956	0.01
296.169	0.07
296.382	0.08
296.595	0.02
296.808	-0.01
297.021	0.09
297.234	0.05
297.447	0.01
297.66	0
297.873	0.04
298.086	0.05
298.299	-0.02
298.511	-0.01
298.724	-0.02
298.937	-0.01
299.15	0.01
299.363	0.04
299.575	0.07
299.788	0.06
300.001	-0
300.213	-0.03
300.426	0.01
300.639	0.01
300.852	-0.02
301.064	0.11
301.277	0.08
301.489	0.03
301.702	0.06
301.915	0.03
302.127	0.02
302.34	0.04
302.552	0.05
302.765	-0.04
302.977	0.06
303.19	0.01
303.402	-0.01
303.615	0.04
303.827	-0.01
304.04	-0.01
304.252	0.11
304.464	0.02
304.677	0.14
304.889	0.1
305.102	-0.03
305.314	0
305.526	0.05
305.739	0.05
305.951	0.03
306.163	0.05
306.375	0.14
306.588	-0.04
306.8	0.02
307.012	0
307.224	0.05
307.436	0.15
307.649	-0.04
307.861	0.05
308.073	0.04
308.285	0.01
308.497	-0
308.709	-0.02
308.921	0.03
309.133	0.09
309.346	-0.02
309.558	-0
309.77	0.07
309.982	0.06
310.194	0.07
310.406	-0.02
310.617	0.15
310.829	0.04
311.041	0.08
311.253	-0
311.465	0.05
311.677	0.03
311.889	0.01
312.101	-0.01
312.313	0.05
312.524	0.1
312.736	-0.06
312.948	0
313.16	0.1
313.372	0.06
313.583	0.06
313.795	-0
314.007	0
314.218	0.08
314.43	0.07
314.642	0.02
314.853	-0.06
315.065	0.06
315.277	0.02
315.488	0.04
315.7	0.08
315.912	0.07
316.123	0.03
316.335	0
316.546	0.11
316.758	0.03
316.969	-0.03
317.181	-0
317.392	0.03
317.604	0.14
317.815	0.01
318.026	-0.03
318.238	0.01
318.449	0.02
318.661	-0.05
318.872	-0.01
319.083	-0.01
319.295	0.07
319.506	0.02
319.717	0.03
319.929	0.05
320.14	0.04
320.351	0.05
320.562	0
320.774	0.02
320.985	0.04
321.196	-0.01
321.407	-0.03
321.618	0.07
321.829	0.06
322.041	0.05
322.252	0.01
322.463	0.05
322.674	0.05
322.885	-0.03
323.096	0.02
323.307	0.04
323.518	0.03
323.729	0.04
323.94	0.03
324.151	0.03
324.362	0.04
324.573	0.05
324.784	0.02
324.995	0.11
325.206	0.05
325.417	0.01
325.628	-0.04
325.838	0
326.049	0.07
326.26	0.04
326.471	0
326.682	0.07
326.892	0.05
327.103	-0.03
327.314	-0
327.525	0.13
327.735	0.04
327.946	0.04
328.157	0.01
328.368	0.08
328.578	0.01
328.789	0.09
328.999	0.06
329.21	0.04
329.421	0.03
329.631	-0.03
329.842	-0.05
330.052	0.07
330.263	0.07
330.473	0.07
330.684	-0
330.894	0.02
331.105	0.06
331.315	0.01
331.526	-0.01
331.736	0.08
331.947	0.05
332.157	0.06
332.367	-0.02
332.578	0.1
332.788	0.07
332.999	0.03
333.209	0.02
333.419	-0.04
333.629	0.04
333.84	0.04
334.05	0.06
334.26	0.09
334.47	0.08
334.681	0.08
334.891	-0.02
335.101	0.06
335.311	0.13
335.521	0.03
335.732	-0.01
335.942	0.1
336.152	0.09
336.362	0.03
336.572	-0
336.782	0.11
336.992	-0.02
337.202	-0
337.412	0.03
337.622	0.04
337.832	0.03
338.042	0.03
338.252	0.02
338.462	0.02
338.672	0.02
338.882	0.01
339.092	-0.03
339.302	0.09
339.511	0.06
339.721	0.02
339.931	-0.05
340.141	0.08
340.351	0.07
340.561	0.01
340.77	0.07
340.98	0.04
341.19	0.05
341.4	-0.01
341.609	-0.02
341.819	0.04
342.029	0
342.238	0.02
342.448	0.01
342.658	0.04
342.867	0.07
343.077	0.03
343.286	0.04
343.496	0.03
343.706	0.08
343.915	-0.05
344.125	0.01
344.334	0.07
344.544	-0
344.753	-0
344.963	0.01
345.172	0
345.381	-0.02
345.591	-0.02
345.8	0.06
346.01	0.08
346.219	0.07
346.428	-0.09
346.638	0.06
346.847	0.07
347.056	0.1
347.266	0.02
347.475	0.02
347.684	0.07
347.893	0.07
348.103	0.07
348.312	0.01
348.521	0.01
348.73	0.04
348.94	0.04
349.149	0.01
349.358	0.01
349.567	0.02
349.776	0
349.985	-0.02
350.194	0.1
350.403	0.06
350.612	-0
350.821	-0
351.03	0.03
351.239	-0.02
351.448	0.04
351.657	-0.01
351.866	0.11
352.075	0.04
352.284	0.06
352.493	-0.01
352.702	0.08
352.911	0.05
353.12	0.04
353.329	0.04
353.538	0.07
353.746	0.03
353.955	-0.03
354.164	0.03
354.373	0.02
354.582	0.08
354.79	0.05
354.999	0.08
355.208	0
355.416	0.08
355.625	-0.03
355.834	-0.01
356.042	0.04
356.251	0
356.46	-0.04
356.668	0.01
356.877	0.13
357.085	0.03
357.294	-0.04
357.503	0.04
357.711	0.01
357.92	0.16
358.128	0.04
358.337	0.01
358.545	0.06
358.754	0.02
358.962	0.03
359.17	-0.01
359.379	0.07
359.587	0.07
359.796	0.04
360.004	0.07
360.212	0.08
360.421	0.11
360.629	0.06
360.837	-0.02
361.046	0.05
361.254	0.14
361.462	0
361.67	0.02
361.879	0.06
362.087	0.1
362.295	0.02
362.503	0.01
362.711	-0.04
362.92	-0.02
363.128	0.03
363.336	-0.02
363.544	0.01
363.752	-0.01
363.96	-0.01
364.168	0.02
364.376	0.04
364.584	0.07
364.792	0.05
365	0.04
365.208	0.02
365.416	0.06
365.624	0.07
365.832	0.03
366.04	0.11
366.248	0.05
366.456	0.04
366.664	-0
366.872	0.02
367.079	0.03
367.287	0.03
367.495	0.02
367.703	0.01
367.911	0.05
368.118	0.01
368.326	0.03
368.534	0.02
368.742	0.09
368.949	-0.05
369.157	0.02
369.365	0.05
369.572	0.01
369.78	0.01
369.988	0.04
370.195	0.04
370.403	0.1
370.61	-0.03
370.818	-0
371.026	0.08
371.233	0.03
371.441	0.03
371.648	-0.03
371.856	0.05
372.063	0.07
372.271	0.01
372.478	0.02
372.685	0.02
372.893	0.07
373.1	0.01
373.308	0.02
373.515	0.14
373.722	0.05
373.93	0.02
374.137	0.01
374.344	0.11
374.552	0.08
374.759	0.11
374.966	0.09
375.173	0.01
375.381	0.1
375.588	0.03
375.795	-0.02
376.002	0
376.209	-0.03
376.417	0.05
376.624	0.04
376.831	0.05
377.038	0.02
377.245	-0.02
377.452	0.04
377.659	0.06
377.866	0.04
378.073	0
378.28	0.06
378.487	0.09
378.694	0.05
378.901	0.05
379.108	0
379.315	0.07
379.522	0.12
379.729	0.02
379.936	0.03
380.143	0.03
380.35	0.05
380.557	0.03
380.763	0.09
380.97	0.01
381.177	0.06
381.384	0.04
381.591	-0.02
381.797	0.04
382.004	0.06
382.211	0.04
382.418	0.03
382.624	0.06
382.831	0.08
383.038	-0.02
383.244	0.06
383.451	0.02
383.658	0.05
383.864	0.02
384.071	0.02
384.277	0.06
384.484	-0.01
384.69	0.09
384.897	-0
385.103	0.01
385.31	0.01
385.516	0.01
385.723	0.01
385.929	0.02
386.136	-0.03
386.342	0.07
386.549	0.03
386.755	0.1
386.961	0.11
387.168	0
387.374	0.03
387.58	0.07
387.787	0.05
387.993	0.04
388.199	0.03
388.406	0.01
388.612	0.03
388.818	0.03
389.024	0
389.231	0.04
389.437	0.11
389.643	0.05
389.849	0.06
390.055	0.06
390.261	0.03
390.467	0.04
390.674	-0.01
390.88	-0.02
391.086	0.08
391.292	-0
391.498	0.07
391.704	0.09
391.91	0.01
392.116	-0.01
392.322	-0.07
392.528	0.07
392.734	0.07
392.94	0.04
393.146	0.02
393.352	0.03
393.557	0.01
393.763	0.04
393.969	0.04
394.175	0
394.381	0.05
394.587	0.03
394.792	0.02
394.998	0.1
395.204	0.07
395.41	0
395.615	0.04
395.821	0.01
396.027	0.04
396.233	-0
396.438	0
396.644	0.16
396.85	0.05
397.055	0.04
397.261	0.08
397.466	0.02
397.672	0.08
397.878	0.06
398.083	0.08
398.289	0.02
398.494	0.12
398.7	0.08
398.905	0.01
399.111	0.16
399.316	0.01
399.522	0.07
399.727	0.03
399.932	0.01
400.138	-0.01
400.343	0.06
400.549	0.07
400.754	0.04
400.959	0.1
401.165	0.03
401.37	0.08
401.575	0.09
401.78	0.05
401.986	-0.01
402.191	0
402.396	0.03
402.601	0.09
402.807	0.04
403.012	0.06
403.217	0.07
403.422	0.08
403.627	0.06
403.832	0.02
404.037	0.1
404.243	0.07
404.448	0.04
404.653	0.13
404.858	0.06
405.063	0.09
405.268	0.06
405.473	0.01
405.678	0.06
405.883	0.21
406.088	0.09
406.293	0.02
406.498	0.07
406.703	0.15
406.907	0.08
407.112	0.01
407.317	0.11
407.522	0.09
407.727	0.04
407.932	0.06
408.136	0.16
408.341	0.07
408.546	0.09
408.751	0.05
408.956	0.08
409.16	0.15
409.365	0.11
409.57	0.1
409.774	0.09
409.979	0.18
410.184	0.12
410.388	0.04
410.593	0.15
410.798	0.18
411.002	0.07
411.207	0.12
411.411	0.1
411.616	0.09
411.82	0.13
412.025	0.15
412.229	0.12
412.434	0.26
412.638	0.15
412.843	0.13
413.047	0.16
413.252	0.14
413.456	0.11
413.66	0.2
413.865	0.16
414.069	0.25
414.273	0.13
414.478	0.14
414.682	0.19
414.886	0.16
415.091	0.18
415.295	0.16
415.499	0.22
415.703	0.2
415.908	0.25
416.112	0.13
416.316	0.3
416.52	0.23
416.724	0.21
416.929	0.24
417.133	0.4
417.337	0.31
417.541	0.27
417.745	0.32
417.949	0.37
418.153	0.44
418.357	0.33
418.561	0.51
418.765	0.42
418.969	0.56
419.173	0.46
419.377	0.48
419.581	0.59
419.785	0.51
419.989	0.48
420.193	0.53
420.397	0.57
420.601	0.69
420.804	0.64
421.008	0.66
421.212	0.75
421.416	0.69
421.62	0.68
421.823	0.71
422.027	0.82
422.231	0.84
422.435	0.79
422.638	0.81
422.842	0.82
423.046	0.83
423.249	0.9
423.453	0.94
423.657	1.01
423.86	0.98
424.064	1.03
424.268	1.14
424.471	1.11
424.675	1.24
424.878	1.25
425.082	1.21
425.285	1.35
425.489	1.32
425.692	1.38
425.896	1.33
426.099	1.51
426.303	1.49
426.506	1.47
426.71	1.68
426.913	1.76
427.116	1.8
427.32	1.78
427.523	1.81
427.726	2
427.93	1.93
428.133	2.12
428.336	2.1
428.54	2.11
428.743	2.34
428.946	2.41
429.149	2.32
429.353	2.4
429.556	2.44
429.759	2.55
429.962	2.45
430.165	2.58
430.368	2.52
430.571	2.54
430.775	2.58
430.978	2.51
431.181	2.61
431.384	2.69
431.587	2.7
431.79	2.89
431.993	2.76
432.196	2.92
432.399	3.09
432.602	3.24
432.805	3.15
433.008	3.42
433.211	3.29
433.414	3.55
433.616	3.65
433.819	3.56
434.022	3.59
434.225	3.7
434.428	3.8
434.631	3.8
434.833	3.83
435.036	3.89
435.239	4.06
435.442	4.14
435.645	4.18
435.847	4.29
436.05	4.49
436.253	4.6
436.455	4.55
436.658	4.53
436.861	4.81
437.063	4.88
437.266	4.84
437.468	5.03
437.671	5.32
437.874	5.29
438.076	5.22
438.279	5.5
438.481	5.53
438.684	5.9
438.886	5.98
439.089	6.11
439.291	6.18
439.494	6.35
439.696	6.44
439.899	6.86
440.101	7.08
440.303	7.18
440.506	7.87
440.708	7.65
440.91	7.93
441.113	8.16
441.315	8.35
441.517	8.32
441.72	8.81
441.922	8.65
442.124	8.77
442.326	9.11
442.529	9.35
442.731	9.31
442.933	9.83
443.135	9.78
443.337	9.8
443.539	10.33
443.742	10.12
443.944	10.85
444.146	10.61
444.348	10.89
444.55	10.87
444.752	11.2
444.954	11.22
445.156	11.3
445.358	11.78
445.56	12.17
445.762	12.11
445.964	12.42
446.166	12.37
446.368	12.53
446.57	12.68
446.772	12.38
446.974	12.41
447.175	12.78
447.377	12.76
447.579	13.04
447.781	12.96
447.983	12.84
448.184	12.69
448.386	13.05
448.588	12.66
448.79	12.75
448.991	13.03
449.193	13.12
449.395	12.7
449.597	12.39
449.798	12.33
450	12.02
450.202	12.14
450.403	12.07
450.605	12.07
450.806	11.78
451.008	11.54
451.21	11.51
451.411	11.12
451.613	10.59
451.814	10.83
452.016	10.73
452.217	10.07
452.419	10.14
452.62	9.8
452.821	9.64
453.023	9.49
453.224	9.23
453.426	8.93
453.627	8.31
453.828	8.26
454.03	8.37
454.231	8.25
454.432	8.13
454.634	7.89
454.835	7.64
455.036	7.51
455.238	7.25
455.439	6.95
455.64	6.82
455.841	6.62
456.042	6.73
456.244	6.45
456.445	6.17
456.646	5.99
456.847	5.87
457.048	5.79
457.249	5.83
457.45	5.79
457.651	5.23
457.852	5.17
458.054	4.94
458.255	4.89
458.456	4.94
458.657	4.86
458.858	4.5
459.058	4.47
459.259	4.48
459.46	4.26
459.661	4.23
459.862	4.32
460.063	4.18
460.264	4.12
460.465	3.94
460.666	3.91
460.866	3.75
461.067	3.65
461.268	3.63
461.469	3.58
461.67	3.46
461.87	3.37
462.071	3.41
462.272	3.32
462.473	3.24
462.673	3.33
462.874	3.23
463.075	3.28
463.275	3.22
463.476	3.23
463.676	3.17
463.877	3.05
464.078	2.94
464.278	3.07
464.479	2.95
464.679	2.93
464.88	2.8
465.08	2.84
465.281	2.55
465.481	2.54
465.682	2.38
465.882	2.43
466.083	2.31
466.283	2.31
466.483	2.16
466.684	2.04
466.884	2.01
467.085	1.91
467.285	2.03
467.485	1.88
467.686	1.85
467.886	1.74
468.086	1.75
468.286	1.68
468.487	1.7
468.687	1.58
468.887	1.56
469.087	1.63
469.287	1.49
469.488	1.42
469.688	1.51
469.888	1.49
470.088	1.41
470.288	1.38
470.488	1.38
470.688	1.19
470.888	1.16
471.088	1.08
471.288	1.18
471.488	1.13
471.688	1.08
471.888	0.99
472.088	1.15
472.288	1.05
472.488	1
472.688	0.95
472.888	0.98
473.088	0.93
473.288	0.93
473.488	0.84
473.688	0.97
473.887	0.81
474.087	0.74
474.287	0.84
474.487	0.78
474.687	0.82
474.886	0.71
475.086	0.73
475.286	0.74
475.486	0.68
475.685	0.7
475.885	0.63
476.085	0.65
476.284	0.68
476.484	0.68
476.684	0.66
476.883	0.66
477.083	0.59
477.282	0.56
477.482	0.62
477.681	0.59
477.881	0.53
478.08	0.5
478.28	0.48
478.479	0.51
478.679	0.58
478.878	0.48
479.078	0.44
479.277	0.46
479.477	0.47
479.676	0.5
479.875	0.43
480.075	0.36
480.274	0.44
480.473	0.49
480.673	0.37
480.872	0.44
481.071	0.43
481.271	0.39
481.47	0.37
481.669	0.36
481.868	0.35
482.067	0.31
482.267	0.28
482.466	0.3
482.665	0.3
482.864	0.3
483.063	0.26
483.262	0.34
483.461	0.35
483.661	0.3
483.86	0.28
484.059	0.28
484.258	0.28
484.457	0.25
484.656	0.24
484.855	0.29
485.054	0.17
485.253	0.22
485.452	0.22
485.651	0.24
485.849	0.23
486.048	0.21
486.247	0.19
486.446	0.24
486.645	0.18
486.844	0.18
487.043	0.19
487.241	0.21
487.44	0.14
487.639	0.19
487.838	0.19
488.037	0.17
488.235	0.22
488.434	0.16
488.633	0.14
488.831	0.19
489.03	0.18
489.229	0.16
489.427	0.15
489.626	0.19
489.825	0.17
490.023	0.15
490.222	0.12
490.42	0.15
490.619	0.15
490.817	0.13
491.016	0.1
491.214	0.14
491.413	0.14
491.611	0.11
491.81	0.1
492.008	0.15
492.207	0.14
492.405	0.13
492.604	0.04
492.802	0.12
493	0.12
493.199	0.09
493.397	0.11
493.595	0.12
493.794	0.09
493.992	0.14
494.19	0.09
494.388	0.12
494.587	0.08
494.785	0.08
494.983	0.03
495.181	0.08
495.379	0.1
495.578	0.08
495.776	0.09
495.974	0.1
496.172	0.06
496.37	0.06
496.568	0.05
496.766	0.05
496.964	0.12
497.162	0.08
497.36	0.04
497.558	0.07
497.756	0.08
497.954	0.07
498.152	0.03
498.35	0.06
498.548	0.07
498.746	0.07
498.944	0.02
499.142	0.04
499.34	0.04
499.538	0.06
499.736	0.02
499.933	0.12
500.131	0.09
500.329	0.06
500.527	0.06
500.725	0.1
500.922	0.07
501.12	0.06
501.318	0.05
501.516	0.03
501.713	0.04
501.911	0.05
502.109	-0.01
502.306	0.05
502.504	0.05
502.701	0.03
502.899	0.06
503.097	0.08
503.294	0.05
503.492	0.03
503.689	0.05
503.887	0.07
504.084	0.09
504.282	0.04
504.479	0
504.677	0.05
504.874	0
505.072	0.03
505.269	0.04
505.466	0.05
505.664	0.04
505.861	-0
506.059	0.03
506.256	0.05
506.453	0.02
506.651	0.06
506.848	0.05
507.045	0.04
507.242	0.05
507.44	0.02
507.637	0.03
507.834	0.03
508.031	0.06
508.229	0.02
508.426	0.03
508.623	0.08
508.82	0.02
509.017	0.02
509.214	0.02
509.411	0.03
509.608	-0.01
509.805	0.04
510.003	0.01
510.2	0
510.397	0.04
510.594	0
510.791	0.01
510.988	0.02
511.184	0.04
511.381	0.02
511.578	-0
511.775	0.06
511.972	0.01
512.169	0
512.366	0.02
512.563	0.05
512.76	0.03
512.956	0.02
513.153	-0.01
513.35	0.02
513.547	0.01
513.744	0
513.94	-0
514.137	0.03
514.334	0.04
514.53	0.01
514.727	0.03
514.924	0.08
515.12	-0
515.317	-0
515.514	0.01
515.71	0.02
515.907	0.03
516.103	0.02
516.3	0.03
516.497	0.03
516.693	0.07
516.89	0.03
517.086	0
517.283	0.03
517.479	0.03
517.676	0.02
517.872	0.02
518.068	0.02
518.265	0.02
518.461	-0.01
518.658	0
518.854	0.03
519.05	0
519.247	-0.01
519.443	0.02
519.639	0.04
519.836	0.04
520.032	-0
520.228	0.02
520.424	0.07
520.621	0.04
520.817	0.01
521.013	0.02
521.209	0.03
521.405	0.04
521.601	0.01
521.798	0.03
521.994	0.06
522.19	-0.01
522.386	0.01
522.582	0.01
522.778	0.03
522.974	0
523.17	0.02
523.366	0.01
523.562	0.04
523.758	0.02
523.954	-0
524.15	0.02
524.346	0.04
524.542	0.01
524.738	-0.02
524.934	0.02
525.129	0.01
525.325	0.04
525.521	0
525.717	0.01
525.913	0.03
526.109	0.02
526.304	0.02
526.5	0.05
526.696	0.04
526.892	0.03
527.087	0
527.283	-0
527.479	0.03
527.674	0.02
527.87	0.02
528.066	0.01
528.261	0.04
528.457	0.04
528.653	0.01
528.848	0
529.044	0.02
529.239	0.01
529.435	0.05
529.63	0.03
529.826	0.06
530.021	0.02
530.217	0.04
530.412	-0.01
530.608	-0.02
530.803	-0.01
530.999	-0.01
531.194	-0.04
531.389	0.03
531.585	-0.01
531.78	-0.02
531.975	0.02
532.171	0.04
532.366	0.01
532.561	0.02
532.757	-0
532.952	0
533.147	0.02
533.342	0
533.538	-0.01
533.733	0.03
533.928	0.02
534.123	0
534.318	-0.01
534.513	0.02
534.709	0.02
534.904	-0.01
535.099	-0
535.294	0.03
535.489	-0
535.684	-0
535.879	-0.02
536.074	0.02
536.269	0
536.464	0.01
536.659	0.01
536.854	0.01
537.049	0
537.244	0.01
537.439	0
537.634	0.02
537.828	0.02
538.023	-0
538.218	-0.02
538.413	0.02
538.608	-0.01
538.803	0.02
538.997	-0.05
539.192	0.04
539.387	0.02
539.582	0.02
539.776	0.01
539.971	-0
540.166	0.02
540.36	-0.02
540.555	-0.01
540.75	0
540.944	0.02
541.139	-0.02
541.334	-0.01
541.528	0.04
541.723	0.03
541.917	-0
542.112	-0.03
542.306	0
542.501	-0.01
542.695	0.01
542.89	-0.02
543.084	0.03
543.279	-0.01
543.473	0.02
543.668	-0.01
543.862	-0
544.056	0.02
544.251	-0.01
544.445	-0
544.64	-0
544.834	-0.03
545.028	0
545.222	0.03
545.417	0.02
545.611	0.02
545.805	0
546	-0.02
546.194	0.01
546.388	0
546.582	0.02
546.776	0
546.97	0
547.165	0.04
547.359	0.04
547.553	-0.03
547.747	0.01
547.941	0.01
548.135	-0
548.329	0.03
548.523	0.03
548.717	0
548.911	-0
549.105	0
549.299	0
549.493	0.01
549.687	0.02
549.881	0.02
550.075	-0
550.269	-0.02
550.463	0.04
550.657	-0.02
550.85	-0.01
551.044	-0.03
551.238	0.02
551.432	-0.01
551.626	-0.03
551.82	0.02
552.013	-0
552.207	0.01
552.401	0.01
552.594	0.02
552.788	0
552.982	0.01
553.176	-0.02
553.369	0.03
553.563	0.03
553.756	-0.01
553.95	-0.01
554.144	0.02
554.337	0.03
554.531	0.01
554.724	0
554.918	-0.01
555.111	0.02
555.305	0
555.498	0.06
555.692	0.03
555.885	-0
556.079	0.04
556.272	0.01
556.466	0.03
556.659	0.01
556.852	-0.01
557.046	-0
557.239	0.03
557.432	0
557.626	-0.01
557.819	0.02
558.012	0.05
558.206	0.01
558.399	0
558.592	0
558.785	0
558.979	0.02
559.172	0.02
559.365	0.03
559.558	0.02
559.751	-0.01
559.944	-0.01
560.138	0.02
560.331	-0
560.524	-0.01
560.717	0
560.91	-0.01
561.103	0
561.296	0.01
561.489	0.03
561.682	0.01
561.875	0.05
562.068	0.05
562.261	0.01
562.454	0.04
562.647	0.02
562.84	0.02
563.032	0.01
563.225	0
563.418	0
563.611	-0.02
563.804	0.01
563.997	-0.01
564.19	-0.03
564.382	0
564.575	-0
564.768	0.01
564.961	0.01
565.153	-0
565.346	0.01
565.539	0.04
565.731	0.03
565.924	0.02
566.117	0.02
566.309	0
566.502	-0.01
566.695	-0.01
566.887	0.01
567.08	-0
567.272	-0.02
567.465	0.02
567.657	0
567.85	0.01
568.042	0.05
568.235	0.05
568.427	-0
568.62	0.02
568.812	0.01
569.005	0.02
569.197	-0.03
569.389	0.02
569.582	0.02
569.774	0.01
569.966	-0.05
570.159	-0.04
570.351	0.04
570.543	-0.02
570.736	-0.01
570.928	-0.03
571.12	0
571.312	-0.01
571.505	-0.03
571.697	0.04
571.889	-0.02
572.081	-0
572.273	-0.03
572.465	0.06
572.658	-0.02
572.85	0.01
573.042	0.02
573.234	-0
573.426	0.06
573.618	-0.01
573.81	0.02
574.002	0.05
574.194	0.05
574.386	-0.02
574.578	-0.06
574.77	-0.02
574.962	-0.01
575.154	-0.03
575.346	-0.01
575.538	0.02
575.729	-0.01
575.921	0
576.113	-0.01
576.305	0.01
576.497	-0.01
576.689	-0.01
576.88	-0.01
577.072	0.05
577.264	-0.01
577.456	0.02
577.647	-0.05
577.839	-0.02
578.031	0.05
578.223	-0.05
578.414	-0.05
578.606	0.02
578.798	0.02
578.989	-0.01
579.181	-0.01
579.372	0.01
579.564	-0
579.755	0.02
579.947	-0.01
580.139	0.01
580.33	-0.04
580.522	-0.02
580.713	-0.08
580.905	-0.01
581.096	0.04
581.287	0
581.479	0.02
581.67	0.03
581.862	-0.02
582.053	-0.04
582.244	-0.07
582.436	0.01
582.627	0.02
582.818	-0
583.01	-0.03
583.201	0.04
583.392	0.01
583.583	0
583.775	-0.02
583.966	-0.01
584.157	-0.02
584.348	-0.02
584.54	-0.05
584.731	0.04
584.922	-0.01
585.113	-0.03
585.304	0.01
585.495	0.06
585.686	0.01
585.877	0.01
586.068	0.01
586.259	0.04
586.45	0.02
586.641	-0.03
586.832	-0.06
587.023	0
587.214	-0
587.405	0.01
587.596	-0
587.787	0.03
587.978	0.01
588.169	-0.02
588.36	-0.02
588.551	0.01
588.742	-0.01
588.932	0
589.123	0
589.314	0.04
589.505	0.01
589.696	0
589.886	-0.01
590.077	-0.02
590.268	0.02
590.458	-0.04
590.649	-0.06
590.84	0.04
591.03	-0.03
591.221	-0.05
591.412	-0.04
591.602	0.02
591.793	0.04
591.984	-0.04
592.174	0
592.365	0.06
592.555	-0.02
592.746	-0.01
592.936	0.02
593.127	0.03
593.317	0.04
593.508	-0.03
593.698	-0
593.889	0.01
594.079	0.03
594.269	-0.03
594.46	0.02
594.65	0.01
594.84	0
595.031	-0.03
595.221	0
595.411	-0.02
595.602	0.03
595.792	-0
595.982	-0.01
596.172	0.05
596.363	-0.01
596.553	-0.01
596.743	0
596.933	0.01
597.123	0.06
597.314	-0.02
597.504	-0.01
597.694	0.02
597.884	0.04
598.074	-0.05
598.264	-0.02
598.454	0.02
598.644	0.03
598.834	-0.02
599.024	-0.03
599.214	-0.02
599.404	0.03
599.594	-0.01
599.784	-0.04
599.974	0.03
600.164	0.02
600.354	-0.03
600.544	-0.05
600.734	0.02
600.924	0.03
601.114	-0.03
601.303	0.02
601.493	0.02
601.683	-0.01
601.873	-0.02
602.063	-0.05
602.252	0.05
602.442	-0.04
602.632	-0.01
602.821	-0.03
603.011	0.01
603.201	0
603.39	-0.04
603.58	-0.04
603.77	-0
603.959	0.02
604.149	0.01
604.339	0
604.528	0.02
604.718	0.02
604.907	-0.01
605.097	-0
605.286	-0.04
605.476	0.03
605.665	0.01
605.855	0
606.044	0.06
606.234	-0.01
606.423	-0.01
606.612	-0.04
606.802	0.01
606.991	0.02
607.181	0.01
607.37	-0.04
607.559	-0.01
607.749	-0.03
607.938	-0.03
608.127	-0.03
608.316	-0.02
608.506	0.02
608.695	-0
608.884	-0.03
609.073	0.02
609.263	0.02
609.452	0.01
609.641	0
609.83	-0.05
610.019	-0.01
610.208	-0.05
610.397	0.01
610.586	0.01
610.775	-0.03
610.965	-0.01
611.154	-0.04
611.343	0.01
611.532	-0.01
611.721	-0.03
611.91	-0.04
612.099	0.04
612.287	0.02
612.476	-0.03
612.665	0.01
612.854	-0.05
613.043	0.06
613.232	-0.02
613.421	-0.05
613.61	-0.01
613.798	-0.04
613.987	0.02
614.176	-0.01
614.365	0.02
614.554	0.01
614.742	0.02
614.931	-0
615.12	0.03
615.309	-0.03
615.497	0.01
615.686	-0.04
615.875	0
616.063	-0.01
616.252	-0.02
616.44	-0.02
616.629	0.01
616.818	0.06
617.006	0
617.195	-0.02
617.383	0.02
617.572	0.02
617.76	-0.03
617.949	-0.01
618.137	0.03
618.326	0.07
618.514	-0.01
618.703	0
618.891	0.05
619.079	-0.06
619.268	0.03
619.456	-0.01
619.644	0.02
619.833	-0
620.021	-0.05
620.209	-0.05
620.398	0.01
620.586	0.02
620.774	-0
620.962	0
621.151	0.05
621.339	-0.01
621.527	-0.05
621.715	-0.04
621.903	-0.03
622.092	-0.04
622.28	-0.01
622.468	-0.02
622.656	-0.03
622.844	-0.01
623.032	-0.01
623.22	-0.04
623.408	0.03
623.596	0
623.784	-0.01
623.972	-0.03
624.16	-0.03
624.348	0.05
624.536	-0.04
624.724	-0.04
624.912	0.06
625.1	0.03
625.288	-0.04
625.476	-0.02
625.664	0.02
625.851	-0.05
626.039	-0.02
626.227	0.02
626.415	0.02
626.603	-0.08
626.79	-0.01
626.978	-0.03
627.166	0.01
627.354	-0.02
627.541	-0.04
627.729	-0.07
627.917	-0.01
628.104	0.01
628.292	-0.02
628.48	-0.03
628.667	-0.01
628.855	0.04
629.042	0.04
629.23	-0.01
629.418	0.02
629.605	-0.04
629.793	-0.04
629.98	-0.05
630.168	-0.01
630.355	0
630.543	0.01
630.73	-0.06
630.917	0.02
631.105	0.04
631.292	-0.02
631.48	-0.01
631.667	0.06
631.854	0.01
632.042	-0.04
632.229	-0.06
632.416	-0.01
632.604	-0.02
632.791	-0.03
632.978	0.03
633.165	0
633.353	0.05
633.54	0.07
633.727	-0.07
633.914	-0.03
634.101	-0.05
634.289	0.04
634.476	-0.03
634.663	-0.05
634.85	0.01
635.037	-0.06
635.224	-0.05
635.411	0.04
635.598	0.05
635.785	-0.02
635.972	-0.01
636.159	0.01
636.346	-0.01
636.533	-0.03
636.72	-0.01
636.907	-0.04
637.094	0
637.281	-0.02
637.468	-0
637.655	-0.02
637.842	-0.01
638.029	-0.04
638.215	0.04
638.402	0.06
638.589	-0.04
638.776	-0.01
638.963	-0.03
639.149	0.03
639.336	0.05
639.523	-0.02
639.709	-0
639.896	-0.01
640.083	0.05
640.27	-0.01
640.456	-0.03
640.643	-0.02
640.829	-0.06
641.016	0.02
641.203	-0.06
641.389	0.01
641.576	0.04
641.762	-0.04
641.949	-0.04
642.135	0.02
642.322	0
642.508	-0.06
642.695	-0.01
642.881	-0.03
643.068	-0.05
643.254	-0.03
643.441	0.03
643.627	0.01
643.813	-0.04
644	0.02
644.186	-0.03
644.372	0.02
644.559	0.04
644.745	-0.04
644.931	-0.06
645.118	-0.02
645.304	0.01
645.49	-0.04
645.676	-0.01
645.862	-0
646.049	0.06
646.235	0.01
646.421	0.02
646.607	0.06
646.793	-0.03
646.979	-0.03
647.165	-0
647.352	0.01
647.538	0.04
647.724	-0
647.91	-0.01
648.096	0.07
648.282	0.07
648.468	-0.01
648.654	0.04
648.84	-0.03
649.026	-0.01
649.212	-0.02
649.397	-0.04
649.583	-0.06
649.769	0.01
649.955	-0.05
650.141	-0.01
650.327	0.04
650.513	-0.04
650.698	0.02
650.884	-0.1
651.07	-0
651.256	-0.01
651.442	-0.03
651.627	-0.04
651.813	0
651.999	-0.02
652.184	-0.02
652.37	-0
652.556	-0.04
652.741	0.06
652.927	-0.07
653.113	-0.02
653.298	0
653.484	-0.03
653.669	-0.05
653.855	-0
654.04	-0.01
654.226	-0.03
654.412	-0.04
654.597	-0.05
654.782	-0.01
654.968	0.01
655.153	-0.01
655.339	-0.01
655.524	-0.06
655.71	0
655.895	-0.02
656.08	-0.03
656.266	0.02
656.451	-0.02
656.636	-0.02
656.822	0.01
657.007	-0.03
657.192	0
657.378	-0.05
657.563	0.01
657.748	0.06
657.933	0.01
658.118	-0.02
658.304	-0.01
658.489	0.06
658.674	0.01
658.859	-0.06
659.044	-0.02
659.229	0.03
659.414	-0.04
659.599	0.02
659.785	-0.05
659.97	-0.04
660.155	0.02
660.34	-0.03
660.525	0.01
660.71	0
660.895	0.06
661.08	-0.02
661.264	-0.02
661.449	0.03
661.634	0.04
661.819	0.02
662.004	0.04
662.189	-0.07
662.374	-0.04
662.559	-0.03
662.743	-0.1
662.928	-0.02
663.113	-0.05
663.298	-0.07
663.483	-0.02
663.667	-0.01
663.852	-0.03
664.037	0.02
664.221	-0.05
664.406	0.03
664.591	0.04
664.775	-0.03
664.96	-0.04
665.145	0
665.329	0.04
665.514	-0.03
665.698	-0.06
665.883	-0.08
666.068	0.05
666.252	-0.02
666.437	-0.06
666.621	-0.02
666.806	-0
666.99	-0.02
667.174	-0.06
667.359	0.04
667.543	-0.05
667.728	-0.03
667.912	-0.08
668.096	0.03
668.281	-0.03
668.465	-0.01
668.649	-0.01
668.834	-0.02
669.018	-0.02
669.202	-0.04
669.387	-0.07
669.571	0.03
669.755	-0.04
669.939	-0.04
670.124	-0.03
670.308	0.02
670.492	0.04
670.676	-0.02
670.86	-0.01
671.044	-0.07
671.228	0.05
671.413	-0.04
671.597	-0.03
671.781	-0.03
671.965	-0.03
672.149	-0.03
672.333	-0.04
672.517	-0.05
672.701	0.03
672.885	-0.04
673.069	-0.07
673.253	0.03
673.437	-0.01
673.621	-0.02
673.804	-0.06
673.988	-0.02
674.172	-0.02
674.356	-0.1
674.54	-0.02
674.724	0.07
674.908	-0.02
675.091	0.05
675.275	-0.06
675.459	0.03
675.643	0.07
675.826	0.02
676.01	0.01
676.194	-0.02
676.377	0.03
676.561	-0.01
676.745	-0.02
676.928	-0.01
677.112	0.03
677.296	-0.04
677.479	-0.04
677.663	-0.02
677.846	0.01
678.03	-0.02
678.213	-0.02
678.397	-0
678.58	-0.01
678.764	-0.04
678.947	-0.08
679.131	-0.04
679.314	0.06
679.498	-0.06
679.681	0.01
679.865	0.03
680.048	-0.04
680.231	-0.01
680.415	-0.04
680.598	-0.02
680.781	-0.02
680.965	-0.03
681.148	0.01
681.331	0.02
681.514	0.04
681.698	-0.04
681.881	-0.02
682.064	-0.01
682.247	0.01
682.43	-0.1
682.614	0.03
682.797	0.04
682.98	-0
683.163	-0.06
683.346	-0
683.529	0.02
683.712	-0.06
683.895	0.03
684.078	-0.08
684.261	-0.02
684.444	-0.02
684.627	-0.01
684.81	-0.07
684.993	-0.01
685.176	0.07
685.359	-0.06
685.542	-0.07
685.725	0.01
685.908	-0.02
686.091	-0.04
686.274	0.02
686.457	0.05
686.639	-0.05
686.822	0.07
687.005	-0
687.188	0.02
687.371	0.11
687.553	0
687.736	0.05
687.919	0.04
688.102	0.06
688.284	-0.02
688.467	-0.03
688.65	-0.03
688.832	-0.02
689.015	0.03
689.197	-0.09
689.38	0.1
689.563	0.04
689.745	-0.01
689.928	-0.06
690.11	0.01
690.293	0.02
690.475	-0.05
690.658	0.03
690.84	0.01
691.023	0.04
691.205	-0.05
691.388	0.03
691.57	0.02
691.752	0.05
691.935	-0.04
692.117	-0.06
692.3	0.05
692.482	0.03
692.664	-0.01
692.847	0.06
693.029	0.04
693.211	-0.01
693.393	-0
693.576	-0.04
693.758	0.04
693.94	-0.02
694.122	-0.02
694.304	-0.03
694.487	-0.04
694.669	0.11
694.851	-0.04
695.033	0.01
695.215	-0.06
695.397	-0.01
695.579	-0.01
695.761	-0.04
695.943	-0.11
696.125	0.02
696.308	0.08
696.49	-0.13
696.671	0.12
696.853	-0.03
697.035	0.1
697.217	-0.02
697.399	0.04
697.581	-0.04
697.763	-0.04
697.945	-0.05
698.127	0.02
698.309	0.04
698.491	-0.03
698.672	-0.01
698.854	0.06
699.036	0.09
699.218	-0.04
699.399	0.02
699.581	0.03
699.763	0.01
699.945	-0.05
700.126	-0.07
700.308	-0.04
700.49	-0.03
700.671	-0.09
700.853	-0.04
701.035	-0.02
701.216	-0.03
701.398	-0.1
701.579	-0.03
701.761	0.01
701.943	-0.05
702.124	-0.04
702.306	-0.01
702.487	0.11
702.669	-0
702.85	-0.06
703.031	-0.04
703.213	0.07
703.394	0.01
703.576	-0.05
703.757	0.02
703.938	-0.03
704.12	0.12
704.301	-0.05
704.483	-0.05
704.664	0.01
704.845	0.05
705.026	0.04
705.208	-0.05
705.389	-0.06
705.57	0.02
705.751	-0.02
705.933	-0.03
706.114	0.09
706.295	0.01
706.476	-0.13
706.657	0.04
706.838	0.05
707.02	0.06
707.201	-0.08
707.382	-0
707.563	0.03
707.744	0.05
707.925	-0.02
708.106	-0.01
708.287	0.04
708.468	0.05
708.649	-0.02
708.83	-0.04
709.011	-0.02
709.192	0.05
709.373	-0.09
709.554	0.02
709.734	0.04
709.915	0.01
710.096	-0.04
710.277	-0.1
710.458	0.02
710.639	-0
710.819	-0.07
711	-0.04
711.181	0.04
711.362	0.03
711.542	-0.02
711.723	-0.03
711.904	0.06
712.085	-0.01
712.265	-0.03
712.446	-0.03
712.627	-0.04
712.807	-0.02
712.988	0.05
713.168	-0.1
713.349	0.02
713.53	-0.17
713.71	-0.1
713.891	-0.06
714.071	-0.03
714.252	-0.05
714.432	-0.08
714.613	-0.08
714.793	0
714.974	0.08
715.154	0.06
715.334	-0.01
715.515	0.08
715.695	-0.06
715.876	0.03
716.056	-0.03
716.236	-0.07
716.417	-0.09
716.597	-0.06
716.777	0.14
716.957	-0.05
717.138	-0.03
717.318	-0.05
717.498	-0.08
717.678	-0.04
717.859	0.01
718.039	-0.07
718.219	0.01
718.399	0.07
718.579	-0.1
718.759	-0.1
718.939	0.06
719.12	-0.01
719.3	0
719.48	-0.16
719.66	-0.18
719.84	0.09
720.02	0.03
720.2	-0.07
720.38	0.01
720.56	0.14
720.74	-0.04
720.92	0.02
721.1	0.08
721.279	0
721.459	-0.04
721.639	-0.11
721.819	0.08
721.999	-0.09
722.179	0.06
722.359	-0.06
722.538	-0.02
722.718	0.01
722.898	-0.04
723.078	0.02
723.257	-0.04
723.437	0
723.617	-0
723.797	-0
723.976	0.03
724.156	0.07
724.336	0.08
724.515	0.09
724.695	-0.14
724.874	0.03
725.054	0.17
725.234	-0.07
725.413	-0.01
725.593	-0.1
725.772	-0.1
725.952	-0.01
726.131	-0.01
726.311	-0.02
726.49	0.02
726.67	-0.07
726.849	-0.08
727.028	0.08
727.208	-0.05
727.387	0.01
727.567	-0.13
727.746	-0.09
727.925	-0.05
728.105	-0.19
728.284	-0.03
728.463	-0.1
728.643	0.03
728.822	-0.14
729.001	-0.09
729.18	-0.02
729.359	0.08
729.539	-0
729.718	-0.04
729.897	0.07
730.076	-0.08
730.255	-0.16
730.434	-0.08
730.614	0.06
730.793	0.05
730.972	-0.07
731.151	0.02
731.33	0.07
731.509	0.1
731.688	-0.07
731.867	-0.04
732.046	-0.22
732.225	0.12
732.404	-0.11
732.583	-0.13
732.762	0.01
732.941	0.04
733.12	0.04
733.298	-0.03
733.477	0.05
733.656	-0.02
733.835	-0.11
734.014	0.07
734.193	-0.05
734.371	0.04
734.55	0.07
734.729	-0.22
734.908	-0.04
735.086	0.08
735.265	0.08
735.444	-0.19
735.623	-0.09
735.801	-0.05
735.98	-0.1
736.159	-0.03
736.337	0.01
736.516	-0.01
736.694	-0.04
736.873	-0.1
737.052	0.2
737.23	0.11
737.409	-0.03
737.587	0.18
737.766	-0.27
737.944	-0.01
738.123	0.01
738.301	0.1
738.479	-0.1
738.658	-0
738.836	-0.33
739.015	-0.15
739.193	0.08
739.371	-0.07
739.55	-0.1
739.728	-0.09
739.906	0.09
740.085	0.14
740.263	0.03
740.441	-0.14
740.62	0.1
740.798	0.19
740.976	-0.03
741.154	-0.16
741.332	0.16
741.511	-0.04
741.689	-0
741.867	0.11
742.045	0.02
742.223	-0.06
742.401	-0.13
742.579	-0.07
742.757	0.02
742.935	-0.18
743.114	-0.13
743.292	-0.13
743.47	-0.06
743.648	-0.05
743.826	-0.12
744.004	-0.01
744.181	0.05
744.359	-0.1
744.537	0.06
744.715	-0.08
744.893	-0.08
745.071	-0.06
745.249	-0.03
745.427	-0.01
745.605	0.05
745.782	-0.04
745.96	0.13
746.138	0.02
746.316	0.04
746.493	-0.03
746.671	0.03
746.849	-0.08
747.027	0.13
747.204	-0.1
747.382	0.09
747.56	-0.19
747.737	-0.06
747.915	-0.07
748.093	0.03
748.27	-0.07
748.448	0.06
748.625	-0.19
748.803	-0.11
748.98	-0.16
749.158	0.05
749.335	0.11
749.513	-0.03
749.69	-0.01
749.868	0.02
750.045	-0.03
750.223	-0.03
750.4	-0.17
750.578	0.2
750.755	-0.01
750.932	-0.15
751.11	-0.03
751.287	-0.09
751.464	0.13
751.642	-0.1
751.819	-0.06
751.996	0.03
752.173	-0.08
752.351	-0.21
752.528	-0
752.705	-0.09
752.882	-0.06
753.06	-0.03
753.237	-0.06
753.414	0.25
753.591	0.22
753.768	-0.08
753.945	-0.21
754.122	-0.13
754.299	0.08
754.476	-0.11
754.654	-0.09
754.831	0.04
755.008	0.02
755.185	-0.19
755.362	-0.12
755.539	0.03
755.716	-0.04
755.892	-0.11
756.069	-0.05
756.246	-0.01
756.423	-0.12
756.6	0.16
756.777	-0.09
756.954	0.03
757.131	-0.01
757.307	-0.1
757.484	-0.14
757.661	-0.08
757.838	0.04
758.015	-0.19
758.191	0.02
758.368	-0.11
758.545	0.19
758.721	0.04
758.898	-0.19
759.075	0
759.251	0.02
759.428	0.09
759.605	-0.18
759.781	-0.08
759.958	0.08
760.134	-0
760.311	-0.21
760.488	0.06
760.664	0.22
760.841	-0
761.017	-0.02
761.194	0
761.37	0.16
761.547	0.02
761.723	-0.11
761.899	0.12
762.076	-0.09
762.252	-0.12
762.429	-0.03
762.605	0.06
762.781	-0.09
762.958	0.05
763.134	-0.05
763.31	-0.1
763.486	0.09
763.663	-0.14
763.839	-0.02
764.015	-0.2
764.191	-0.16
764.368	-0.05
764.544	-0.02
764.72	0.02
764.896	0.09
765.072	0.13
765.248	-0.11
765.425	-0.05
765.601	-0.04
765.777	-0.12
765.953	-0.22
766.129	-0.08
766.305	-0.06
766.481	0.03
766.657	0.05
766.833	0.11
767.009	-0.1
767.185	-0.12
767.361	-0.09
767.537	-0.15
767.713	0.05
767.889	-0.09
768.065	-0.15
768.24	-0.01
768.416	0.02
768.592	-0.03
768.768	0.01
768.944	0.08
769.12	-0.07
769.295	-0.11
769.471	-0.07
769.647	-0.12
769.823	0.19
769.998	-0.13
770.174	-0.27
770.35	0.22
770.525	0.2
770.701	0.01
770.877	-0.06
771.052	-0.13
771.228	0.1
771.403	0.14
771.579	0.11
771.755	0.35
771.93	-0.04
772.106	-0.21
772.281	-0.17
772.457	0.06
772.632	0.12
772.808	-0.18
772.983	-0.01
773.159	-0.21
773.334	0.2
773.509	-0.04
773.685	-0.25
773.86	0.36
774.036	0.12
774.211	-0.18
774.386	-0.07
774.562	-0.03
774.737	0.23
774.912	-0.18
775.087	0.09
775.263	0
775.438	-0.02
775.613	-0.09
775.788	-0
775.964	0.22
776.139	0.35
776.314	-0.08
776.489	0.04
776.664	0.1
776.839	-0.17
777.014	0.22
777.19	0.07
777.365	0.17
777.54	0.26
777.715	-0.19
777.89	-0.1
778.065	-0.1
778.24	0.04
778.415	-0.04
778.59	-0.3
778.765	-0.03
778.94	0.14
779.115	-0.17
779.289	-0.19
779.464	-0.11
779.639	-0.18
779.814	-0.3
779.989	-0.24
780.164	0.13
780.339	0.15
780.513	-0.2
780.688	-0.19
780.863	-0.03
781.038	0.15
781.212	-0.07
781.387	0
781.562	0.22
781.737	0.02
781.911	0.16
782.086	-0.06
782.261	-0.02
782.435	0.12
782.61	-0.12
782.784	-0.16
782.959	0.17
783.134	-0.1
783.308	-0.23
783.483	-0.2
783.657	0.3
783.832	0.14
784.006	-0.28
784.181	0.03
784.355	0.01
784.53	-0.15
784.704	-0.47
784.878	0.26
785.053	0.07
785.227	0.14
785.402	0.28
785.576	-0.15
785.75	-0.02
785.925	-0.05
786.099	0.09
786.273	0.07
786.448	0.22
786.622	0.18
786.796	-0.08
786.97	-0.22
787.145	0.57
787.319	-0.02
787.493	-0.3
787.667	-0.55
787.841	-0.05
788.015	0.18
788.19	-0.31
788.364	-0.01
788.538	0.24
788.712	-0.02
788.886	-0.07
789.06	0.28
789.234	0.18
789.408	-0.43
789.582	-0.07
789.756	-0.08
789.93	-0.29
790.104	-0.19
790.278	-0.32
790.452	-0.2
790.626	0.26
790.8	-0.34
790.973	0.18
791.147	0.25
791.321	0.11
791.495	0.08
791.669	0.02
791.843	-0.1
792.016	-0.11
792.19	0.53
792.364	-0.05
792.538	0.59
792.711	0.28
792.885	-0.08
793.059	-0.25
793.233	-0.42
793.406	0.17
793.58	0.01
793.754	0.01
793.927	-0.12
794.101	0.08
794.274	0.15
794.448	0.13
794.622	-0.17
794.795	0.3
794.969	-0.01
795.142	0.29
795.316	-0.12
795.489	-0.21
795.663	0.58
795.836	-0.2
796.009	-0.18
796.183	0.3
796.356	0.03
796.53	-0.05
796.703	-0.26
796.876	0.4
797.05	-0.2
797.223	-0.3
797.396	0.14
797.57	0.09
797.743	0.29
797.916	-0.09
798.09	-0.14
798.263	0.42
798.436	0.19
798.609	0
798.782	-0.09
798.956	0.09
799.129	-0.08
799.302	-0.14
799.475	-0.2
799.648	-0.05
799.821	-0.4
799.994	-0.08
800.167	-0.41
800.34	-0.07
800.514	-0.1
800.687	-0.1
800.86	-0.34
801.033	0.09
801.206	0.08
801.379	-0.56
801.551	0.04
801.724	0.16
801.897	0.51
802.07	-0.09
802.243	-0.55
802.416	-0.2
802.589	-0.24
802.762	0.06
802.935	-0.04
803.107	0.04
803.28	0.46
803.453	0.12
803.626	-0.2
803.798	-0.46
803.971	-0.52
804.144	0.1
804.317	0.02
804.489	0.2
804.662	-0.2
804.835	0.15
805.007	-0.19
805.18	0.14
805.353	0.17
805.525	-0.18
805.698	-0.39
805.87	-0.09
806.043	-0.02
806.215	-0.36
806.388	-0.44
806.56	-0.18
806.733	0.16
806.905	0.04
807.078	-0.16
807.25	-0.42
807.423	0.28
807.595	-0.41
807.768	0.05
807.94	0.17
808.112	0.06
808.285	0.22
808.457	-0.22
808.629	-0.29
808.802	0.2
808.974	-0.03
809.146	-0.37
809.318	-0.43
809.491	0.07
809.663	0.08
809.835	-0
810.007	0.14
810.18	-0.19
810.352	-0.58
810.524	-0.22
810.696	0.22
810.868	0.2
811.04	-0.05
811.212	-0.23
811.384	0.16
811.556	0.13
811.728	0.08
811.901	0.83
812.073	0.01
812.245	0.51
812.417	0.03
812.589	-0.86
812.76	0.32
812.932	0.4
813.104	0.12
813.276	-0.18
813.448	0.32
813.62	0.17
813.792	-0.1
813.964	-0.18
814.136	0.17
814.307	0.09
814.479	-0.52
814.651	-0.29
814.823	0.47
814.995	-0.17
815.166	-0.14
815.338	-0.58
815.51	-0.38
815.681	0.81
815.853	0.07
816.025	-0.59
816.196	0.22
816.368	0.09
816.54	-0.58
816.711	-0.44
816.883	0.1
817.054	0.73
817.226	-0.66
817.398	-0.34
817.569	-0.28
817.741	0.29
817.912	-0.23
818.084	-0.65
818.255	0.51
818.426	-0.5
818.598	-0.21
818.769	-0.49
818.941	-0.41
819.112	0.5
819.283	0.43
819.455	-0.64
819.626	-0.19
819.798	0.11
819.969	-0.14
820.14	-0.12
820.311	-0.5
820.483	0.41
820.654	0.24
820.825	-0.33
820.996	-0.39
821.168	-0.55
821.339	-0.2
821.51	-0.48
821.681	-0.37
821.852	-0.06
822.023	-0.46
822.195	-0.52
822.366	0.02
822.537	-0.2
822.708	0.04
822.879	-0.19
823.05	0.14
823.221	0.15
823.392	0.11
823.563	-0.16
823.734	0.05
823.905	0.17
824.076	-0.55
824.247	-0.54
824.418	-0.88
824.589	0.46
824.759	0.11
824.93	-0.19
825.101	-0.82
825.272	0.23
825.443	-0.18
825.614	0.59
825.784	-1.37
825.955	0.8
826.126	0.4
826.297	0.68
826.467	0.81
826.638	0.35
826.809	-0.78
826.98	-0.11
827.15	-0.1
827.321	0.43
827.492	0.08
827.662	-0.13
827.833	1.2
828.003	0.92
828.174	-0.64
828.345	-0.94
828.515	0.98
828.686	0.1
828.856	-0.29
829.027	-0.08
829.197	0.07
829.368	0.21
829.538	-0.93
829.709	-0.42
829.879	-0.07
830.049	-0.58
830.22	-0.91
830.39	-0.24
830.56	0.08
830.731	0.1
830.901	-0.98
831.072	-0.33
831.242	-0.04
831.412	0.35
831.582	-0.16
831.753	-1.05
831.923	0.5
832.093	0.26
832.263	0.09
832.434	-0.14
832.604	-0.2
832.774	0.18
832.944	-0.38
833.114	-0.64
833.284	-0.28
833.454	-0.83
833.624	-0.23
833.795	-0.37
833.965	0.82
834.135	0.6
834.305	-1.27
834.475	-0.97
834.645	0.1
834.815	0.11
834.985	-0.73
835.155	-0.53
835.325	0.38
835.494	0.02
835.664	-0.7
835.834	-0.74
836.004	-0.17
836.174	0.13
836.344	-0.53
836.514	-0.95
836.684	-0.19
836.853	0.15
837.023	-0.36
837.193	-0.65
837.363	0.85
837.532	1.09
837.702	0.34
837.872	-1.07
838.041	0.44
838.211	1.29
838.381	-0.7
838.55	-0.35
838.72	1.29
838.89	1.29
839.059	-0.56
839.229	-1.09
839.398	0.91
839.568	-0
839.738	-0.4
839.907	0.74
840.077	0.05
840.246	-1.08
840.416	-0.7
840.585	-0.76
840.755	1.15
840.924	0.23
841.093	-1.02
841.263	-0.48
841.432	-0.39
841.602	-0.68
841.771	-1.04
841.94	-1.22
842.11	2.39
842.279	0.66
842.448	-0.85
842.617	-1.21
842.787	1.56
842.956	-0.61
843.125	0.01
843.294	-0.21
843.464	0.35
843.633	-0.29
843.802	-0.9
843.971	0.01
844.14	0.11
844.309	0.38
844.479	-1.07
844.648	-0.61
844.817	-0.4
844.986	-0.17
845.155	-0.22
845.324	-0.5
845.493	-0.43
845.662	-0.93
845.831	0.43
846	0.93
846.169	-0.46
846.338	1.84
846.507	-0.09
846.676	-0.29
846.844	-0.3
847.013	0.52
847.182	-0.69
847.351	-0.28
847.52	-0.55
847.689	0.17
847.858	-0.58
848.026	-0.96
848.195	-0.07
848.364	-0.74
848.533	-1.36
848.701	-0.9
848.87	-0.21
849.039	0.58
849.207	0.07
849.376	0.96
849.545	1.88
849.713	-1.1
849.882	-1.51
850.051	-0.52
850.219	0.4
850.388	0.36
850.556	-0.85
850.725	-1.33
850.893	-0.11
851.062	-0.62
851.23	-0.16
851.399	-1.86
851.567	-0.61
851.736	-1.21
851.904	-1.08
852.073	-0.05
852.241	-0.07
852.41	-0.32
852.578	-1.39
852.746	-0.67
852.915	0.76
853.083	-0.14
853.251	-2.53
853.42	-0.35
853.588	0.47
853.756	0.57
853.924	-0.85
854.093	-0.93
854.261	-1.03
854.429	-1.36
854.597	0.51
854.765	-1.72
854.934	-0.34
855.102	1.59
855.27	-0.58
855.438	1.44
855.606	1.41
855.774	1.37
855.942	-1.43
856.11	-2.84
856.278	-0.14
856.446	0.48
856.614	-0.75
856.782	-0.79
856.95	0.07
857.118	1.98
857.286	0.59
857.454	-1.1
857.622	0.86
857.79	1.25
857.958	-0.41
858.126	-0.27
858.294	-2.85
858.462	-0.83
858.629	-0.94
858.797	-1.47
858.965	0.53
859.133	0.29
859.301	-0.49
859.468	0.48
859.636	-1.07
859.804	0.96
859.971	0.61
860.139	-0.71
860.307	-0.53
860.474	-0.25
860.642	-1.06
860.81	-1.22
860.977	-1.01
861.145	1.11
861.313	-0.75
861.48	-0.08
861.648	-0.17
861.815	-0.99
861.983	-1.17
862.15	-1.08
862.318	0.71
862.485	1.15
862.653	-2.28
862.82	-1.93
862.988	1.95
863.155	-0.07
863.322	-0.89
863.49	-1.67
863.657	-0.41
863.824	2.15
863.992	0.34
864.159	0.09
864.326	0.24
864.494	-2.07
864.661	1.83
864.828	-2.03
864.996	0.74
865.163	1.76
865.33	-1.72
865.497	-3.01
865.664	-2.85
865.832	-2.86
865.999	-0.33
866.166	-2.86
866.333	-1.41
866.5	0.47
866.667	-0.49
866.834	-0.08
867.001	0.8
867.168	-1.7
867.335	1.17
867.502	-2.42
867.669	0.02
867.836	2.11
868.003	-1.68
868.17	0.16
868.337	-1.29
868.504	2.22
868.671	-1.93
868.838	-1.66
869.005	0.6
869.172	0.38
869.339	-0.87
869.505	-1.27
869.672	-0.61
869.839	2.18
870.006	-0.24
870.173	-2.78
870.339	0.36
870.506	0.89
870.673	-1.62
870.84	0.59
871.006	-1.18
871.173	-0.28
871.34	-1.35
871.506	-2.44
871.673	1.65
871.839	-2.34
872.006	0.11
872.173	-1.9
872.339	-1.16
872.506	1.68
872.672	0.41
872.839	-2.04
873.005	-0.62
873.172	3.48
873.338	0.41
873.505	-0.94
873.671	-0.73
873.838	0.33
874.004	-2.32
874.171	-2.16
874.337	0.75
874.503	-0.19
874.67	-0.64
874.836	-0.33
875.002	1.76
875.169	0.27
875.335	-0.62
875.501	-1.11
875.668	-0.09
875.834	0.37
876	-1.55
876.166	0.69
876.332	0.25
876.499	2.81
876.665	-1.95
876.831	-1.61
876.997	0.96
877.163	1.26
877.329	-0.77
877.495	-0.5
877.662	0.54
877.828	0.82
877.994	0.21
878.16	-4.05
878.326	-1.47
878.492	1.01
878.658	-1.58
878.824	1.42
878.99	0.63
879.156	-0.96
879.322	3.11
879.487	-0.6
879.653	1.19
879.819	1.15
879.985	-1.51
880.151	-0.92
880.317	0.63
880.483	-0.31
880.648	0.83
880.814	-2.77
880.98	1.27
881.146	-2.56
881.312	-2.84
881.477	-0.36
881.643	-1.08
881.809	1.56
881.974	3.45
882.14	-3.67
882.306	1.8
882.471	2.82
882.637	-0.93
882.803	-0.34
882.968	1.98
883.134	3.02
883.299	-2.72
883.465	-0.1
883.63	2.06
883.796	0.2
883.961	0.56
884.127	-0.06
884.292	-5.02
884.458	-2.92
884.623	-2.92
