Data from Apollo_Calib_20240827__AbsoluteIrradiance__669__10-18-00-035.txt Node

Date: Wed Aug 28 10:18:00 BST 2024
User: biology
Spectrometer: FLMT08252
Trigger mode: 0
Integration Time (sec): 5.000000E-1
Scans to average: 5
Electric dark correction enabled: true
Nonlinearity correction enabled: false
Boxcar width: 0
XAxis mode: Wavelengths
Number of Pixels in Spectrum: 3648
>>>>>Begin Spectral Data<<<<<
179.588	-0
179.809	-0
180.03	-0
180.251	-0
180.473	-0
180.694	0
180.915	0
181.136	-0
181.357	0
181.578	-0
181.799	0
182.02	-0
182.241	-0
182.462	0
182.683	0
182.904	-0
183.125	-0
183.346	0
183.567	0
183.788	0
184.009	-0
184.23	0
184.451	0
184.672	-0
184.892	-0
185.113	0
185.334	0
185.555	-0
185.776	0
185.996	0
186.217	0
186.438	0
186.659	0
186.879	0
187.1	0
187.321	-0
187.541	-0
187.762	0
187.983	0
188.203	0
188.424	0
188.644	0
188.865	0
189.086	0
189.306	0
189.527	0
189.747	0
189.968	0
190.188	0
190.409	0
190.629	0
190.849	0
191.07	0
191.29	0
191.511	0
191.731	0
191.951	0
192.172	0
192.392	0
192.612	0
192.833	0
193.053	0
193.273	0
193.493	-0
193.714	0
193.934	0
194.154	0
194.374	0
194.594	0
194.815	0
195.035	0
195.255	0
195.475	-0
195.695	0
195.915	0
196.135	0
196.355	0
196.575	0
196.795	0
197.015	-0
197.235	0
197.455	-0
197.675	0
197.895	0
198.115	0
198.335	0
198.555	0
198.775	0
198.995	0
199.214	0
199.434	0
199.654	0
199.874	0
200.094	1.49
200.313	0.51
200.533	0.11
200.753	-0.36
200.973	1.47
201.192	0.69
201.412	-0.15
201.632	0.21
201.851	1.34
202.071	-0.21
202.291	-0.7
202.51	-0.36
202.73	0.74
202.95	-0.17
203.169	-0.06
203.389	0.32
203.608	0.39
203.828	-0.1
204.047	0.24
204.267	0.43
204.486	0.17
204.706	0.41
204.925	0.33
205.145	0.04
205.364	0.57
205.583	0.96
205.803	-0.16
206.022	-0.13
206.242	0.42
206.461	-0.15
206.68	-0.18
206.9	0.43
207.119	0.73
207.338	0.71
207.557	0.08
207.777	-0.01
207.996	-0.12
208.215	0.65
208.434	-0.28
208.654	-0.41
208.873	0.35
209.092	0.52
209.311	-0.05
209.53	0.03
209.749	0.16
209.968	0.31
210.187	0.06
210.407	-0.25
210.626	-0.22
210.845	0.15
211.064	0.34
211.283	0.15
211.502	0.38
211.721	0.42
211.94	0.18
212.159	0.33
212.377	0.52
212.596	0.49
212.815	0.23
213.034	0.18
213.253	0.48
213.472	0.32
213.691	-0.04
213.91	-0.01
214.128	0.2
214.347	0.59
214.566	-0.29
214.785	-0.11
215.003	0.22
215.222	-0.04
215.441	0.11
215.66	0.08
215.878	0
216.097	0.31
216.316	0.02
216.534	0.12
216.753	0.13
216.972	0.15
217.19	0.03
217.409	-0.02
217.627	-0.15
217.846	0.1
218.064	0.15
218.283	-0.01
218.501	0.3
218.72	0.5
218.938	-0.15
219.157	0.07
219.375	0.35
219.594	0.17
219.812	-0
220.031	0.12
220.249	0.42
220.467	0.34
220.686	0.2
220.904	-0.05
221.122	-0.09
221.341	0.42
221.559	0.04
221.777	-0.05
221.995	0.21
222.214	0.25
222.432	-0.02
222.65	0.09
222.868	0.19
223.086	0.18
223.305	0.11
223.523	0
223.741	0.37
223.959	-0.09
224.177	-0.18
224.395	-0.02
224.613	0.14
224.831	0.25
225.049	-0.12
225.267	0.09
225.485	0.02
225.703	0.1
225.921	0.06
226.139	0.09
226.357	0.19
226.575	0.08
226.793	0.03
227.011	0.52
227.229	0.15
227.447	0.11
227.665	-0.05
227.883	-0.01
228.1	0.1
228.318	0.13
228.536	-0.13
228.754	0.04
228.972	0.23
229.189	0.23
229.407	0.05
229.625	0.08
229.843	0.23
230.06	0.23
230.278	0.05
230.496	0.15
230.713	0.08
230.931	0.21
231.149	0.06
231.366	-0.15
231.584	0.02
231.801	0.47
232.019	0.06
232.236	-0.06
232.454	0.1
232.671	0.09
232.889	0.11
233.106	-0.13
233.324	0.22
233.541	0.07
233.759	0.23
233.976	0.03
234.194	0.04
234.411	0.06
234.628	0.1
234.846	0.12
235.063	-0.01
235.28	0.01
235.498	0.08
235.715	-0.06
235.932	0.14
236.149	0.08
236.367	-0.02
236.584	0.14
236.801	-0.04
237.018	0.09
237.236	0.01
237.453	-0.08
237.67	0.26
237.887	0.1
238.104	0.06
238.321	-0.01
238.538	0.03
238.755	0.23
238.973	0.03
239.19	0.09
239.407	0.1
239.624	0.12
239.841	-0.02
240.058	0.01
240.275	0.06
240.492	0.05
240.709	-0
240.925	0.14
241.142	0.13
241.359	-0.06
241.576	0.02
241.793	-0
242.01	0.05
242.227	0.08
242.444	0.08
242.66	0.2
242.877	0.06
243.094	-0.04
243.311	0.12
243.527	-0.01
243.744	0.13
243.961	0
244.178	-0
244.394	0.02
244.611	0.23
244.828	0.25
245.044	-0.02
245.261	0.08
245.477	0.12
245.694	0.12
245.911	-0.03
246.127	0.11
246.344	0.2
246.56	0.17
246.777	0.03
246.993	0.08
247.21	0.16
247.426	0.17
247.643	0.09
247.859	-0.1
248.076	-0.08
248.292	0.3
248.508	0.05
248.725	0.05
248.941	0.09
249.157	0.2
249.374	0.01
249.59	0.04
249.806	0.03
250.023	0.14
250.239	0.02
250.455	0.06
250.671	0.05
250.888	0.13
251.104	0.08
251.32	0.11
251.536	0.06
251.752	0.08
251.969	0.04
252.185	0.11
252.401	0.32
252.617	0.06
252.833	0.02
253.049	0.05
253.265	0.11
253.481	0.16
253.697	0.04
253.913	-0.04
254.129	0.12
254.345	0.12
254.561	0.06
254.777	0.01
254.993	0.13
255.209	0.07
255.425	0.06
255.641	0.02
255.857	0.11
256.073	-0.01
256.288	-0.04
256.504	0.09
256.72	-0
256.936	0.18
257.152	0.02
257.367	-0.01
257.583	0.07
257.799	0.1
258.015	-0.02
258.23	0.09
258.446	0.18
258.662	0.08
258.877	-0.01
259.093	0.04
259.309	0.04
259.524	0.14
259.74	0.01
259.955	-0.05
260.171	0.05
260.387	0.03
260.602	0.08
260.818	0.06
261.033	-0.02
261.249	0.04
261.464	-0
261.68	-0.09
261.895	0.03
262.11	0.12
262.326	-0
262.541	-0.09
262.757	0.12
262.972	0.07
263.187	0.09
263.403	0.06
263.618	0.06
263.833	0.03
264.049	-0.03
264.264	-0.01
264.479	0.09
264.694	0.16
264.91	-0.07
265.125	0.07
265.34	0.06
265.555	0.22
265.77	0.08
265.986	0
266.201	0.11
266.416	0.13
266.631	0
266.846	0.03
267.061	0.08
267.276	0.11
267.491	-0.04
267.706	0.1
267.921	0.13
268.136	0.03
268.351	0.09
268.566	-0.03
268.781	0.14
268.996	0.13
269.211	0.06
269.426	-0.05
269.641	0
269.856	0.08
270.071	0.01
270.285	-0.04
270.5	0.12
270.715	0.11
270.93	0.04
271.145	0.09
271.359	0.1
271.574	0.02
271.789	0.05
272.004	-0.01
272.218	-0.02
272.433	0.11
272.648	-0.01
272.862	0.13
273.077	0.03
273.292	0.1
273.506	0.03
273.721	0.01
273.936	0.09
274.15	0.08
274.365	0
274.579	0.07
274.794	0.11
275.008	0.13
275.223	0.01
275.437	0.01
275.652	0.14
275.866	0.09
276.081	0.02
276.295	0.11
276.509	0.07
276.724	0.07
276.938	0.04
277.153	0.1
277.367	0.09
277.581	-0.02
277.796	0.01
278.01	-0.03
278.224	0.06
278.438	0.21
278.653	-0.05
278.867	-0
279.081	-0.2
279.295	0.05
279.51	0.05
279.724	0.02
279.938	0.06
280.152	0.03
280.366	0.03
280.58	0.05
280.794	0.13
281.008	0.06
281.222	0.08
281.437	0.11
281.651	0.07
281.865	0.12
282.079	0.03
282.293	-0.04
282.507	-0.02
282.721	0.04
282.935	0.04
283.148	-0.06
283.362	0.02
283.576	-0.01
283.79	0.05
284.004	0.02
284.218	0.11
284.432	-0.01
284.646	0.04
284.859	0.03
285.073	0.05
285.287	0.08
285.501	0.03
285.714	0
285.928	0.01
286.142	0.1
286.356	-0.04
286.569	-0.02
286.783	0.08
286.997	0.08
287.21	0.06
287.424	0.02
287.637	0.02
287.851	0.04
288.065	0.05
288.278	0.03
288.492	0.06
288.705	0.03
288.919	0.09
289.132	-0.04
289.346	0.12
289.559	0
289.773	-0.03
289.986	0
290.2	0.01
290.413	0.07
290.626	-0
290.84	0.03
291.053	0.03
291.267	0.14
291.48	-0
291.693	0.01
291.906	-0
292.12	0.03
292.333	0.01
292.546	0.04
292.76	0.12
292.973	0.01
293.186	0.1
293.399	0.04
293.612	0.08
293.826	0.02
294.039	0.02
294.252	0.01
294.465	0.04
294.678	0.02
294.891	0.05
295.104	-0.01
295.317	0.05
295.53	0.06
295.743	0.02
295.956	0.04
296.169	0.09
296.382	0.08
296.595	0.05
296.808	-0.02
297.021	0.09
297.234	0.06
297.447	0.01
297.66	0.06
297.873	0.05
298.086	0.04
298.299	0.04
298.511	0.01
298.724	0
298.937	-0.02
299.15	0.01
299.363	0.06
299.575	0.1
299.788	0.09
300.001	0.07
300.213	-0.05
300.426	0.03
300.639	0.04
300.852	0.03
301.064	0.05
301.277	0.08
301.489	0.07
301.702	0.03
301.915	0.06
302.127	0.03
302.34	0.04
302.552	0.09
302.765	-0
302.977	0.05
303.19	0.01
303.402	0.01
303.615	0.03
303.827	0.01
304.04	0.03
304.252	0.09
304.464	-0
304.677	0.13
304.889	0.08
305.102	0.01
305.314	0.03
305.526	0.07
305.739	0.06
305.951	0.01
306.163	-0.01
306.375	0.09
306.588	0.04
306.8	0.01
307.012	-0
307.224	0.04
307.436	0.09
307.649	-0
307.861	0.02
308.073	0.03
308.285	0.04
308.497	-0.01
308.709	0.01
308.921	0.06
309.133	0.11
309.346	0
309.558	0.04
309.77	0.07
309.982	0.06
310.194	0.05
310.406	-0.01
310.617	0.1
310.829	0.01
311.041	0.08
311.253	0.01
311.465	0.06
311.677	0.05
311.889	0.04
312.101	-0.01
312.313	0.05
312.524	0.1
312.736	-0
312.948	0.06
313.16	0.07
313.372	0.06
313.583	0.04
313.795	0
314.007	-0.02
314.218	0.07
314.43	0.06
314.642	0.03
314.853	0.02
315.065	0.03
315.277	0.02
315.488	0.03
315.7	0.04
315.912	0.05
316.123	0.05
316.335	0.02
316.546	0.18
316.758	0.01
316.969	-0.01
317.181	0.07
317.392	0.02
317.604	0.11
317.815	-0.01
318.026	0.02
318.238	0.05
318.449	0.06
318.661	-0.03
318.872	-0.01
319.083	-0.03
319.295	0.08
319.506	0.01
319.717	0.08
319.929	0.09
320.14	0.04
320.351	0.05
320.562	0
320.774	0.04
320.985	0.05
321.196	0.01
321.407	-0.04
321.618	0.05
321.829	0.06
322.041	0.06
322.252	0.04
322.463	0.04
322.674	0.06
322.885	-0.01
323.096	-0.01
323.307	0.02
323.518	0.07
323.729	-0.01
323.94	-0.06
324.151	-0
324.362	0.09
324.573	0.06
324.784	0
324.995	0.07
325.206	0.03
325.417	0.01
325.628	0.03
325.838	0.01
326.049	0.07
326.26	0.02
326.471	-0.02
326.682	0.04
326.892	0.01
327.103	-0.06
327.314	-0.01
327.525	0.08
327.735	0.04
327.946	0.03
328.157	0.03
328.368	0.04
328.578	-0.02
328.789	0.05
328.999	0.01
329.21	0.02
329.421	0.04
329.631	-0.02
329.842	0.03
330.052	0.07
330.263	0.09
330.473	0.06
330.684	0.04
330.894	0.04
331.105	0.02
331.315	0.03
331.526	-0.02
331.736	0.11
331.947	0.06
332.157	0.06
332.367	-0.02
332.578	0.07
332.788	0.07
332.999	0.09
333.209	0.05
333.419	-0
333.629	0.05
333.84	0.06
334.05	0.05
334.26	0.06
334.47	-0.01
334.681	0.11
334.891	0.02
335.101	0.07
335.311	0.14
335.521	0.05
335.732	-0.02
335.942	0.05
336.152	0.03
336.362	0.06
336.572	0.05
336.782	0.07
336.992	-0.02
337.202	-0.01
337.412	0.01
337.622	0.03
337.832	0
338.042	0.01
338.252	-0.01
338.462	0.01
338.672	0.05
338.882	0.01
339.092	0
339.302	0.1
339.511	0.06
339.721	-0.04
339.931	0
340.141	0.1
340.351	0.08
340.561	0.08
340.77	0.05
340.98	-0
341.19	0.04
341.4	0.02
341.609	-0
341.819	0.02
342.029	0.01
342.238	0.05
342.448	0.02
342.658	0.04
342.867	0.05
343.077	0.06
343.286	0.01
343.496	0.05
343.706	0.11
343.915	0.01
344.125	0.08
344.334	0.07
344.544	-0
344.753	0.02
344.963	0.02
345.172	0.01
345.381	-0.01
345.591	0.02
345.8	-0
346.01	0.07
346.219	0.07
346.428	-0.12
346.638	0.01
346.847	0.02
347.056	0.06
347.266	-0.05
347.475	0.02
347.684	0.03
347.893	0.04
348.103	0.05
348.312	0.02
348.521	-0.02
348.73	0.05
348.94	0.03
349.149	0.04
349.358	0
349.567	0.06
349.776	-0.05
349.985	0.06
350.194	0.09
350.403	0.05
350.612	-0.02
350.821	-0.02
351.03	-0.03
351.239	-0.01
351.448	0.03
351.657	0
351.866	0.08
352.075	0.04
352.284	0.05
352.493	-0.04
352.702	0.09
352.911	0.03
353.12	0
353.329	0.03
353.538	0.02
353.746	0.02
353.955	-0
354.164	0.01
354.373	0.06
354.582	0.04
354.79	0.04
354.999	0.03
355.208	0.01
355.416	0.09
355.625	-0.02
355.834	-0.01
356.042	0.04
356.251	-0.01
356.46	-0.07
356.668	0.04
356.877	0.05
357.085	0.07
357.294	-0.06
357.503	0.02
357.711	0.05
357.92	0.15
358.128	0.06
358.337	0.02
358.545	0.04
358.754	-0.02
358.962	0.09
359.17	0.02
359.379	0.01
359.587	0.07
359.796	-0.01
360.004	0.1
360.212	0.04
360.421	0.06
360.629	0.02
360.837	0.01
361.046	-0.01
361.254	0.12
361.462	0.05
361.67	0.02
361.879	0.05
362.087	0.07
362.295	0.07
362.503	0.01
362.711	-0.05
362.92	0.03
363.128	-0.01
363.336	-0.01
363.544	-0.01
363.752	0
363.96	-0.03
364.168	0.01
364.376	0.04
364.584	0.05
364.792	0.09
365	0.06
365.208	0.02
365.416	0.01
365.624	0.08
365.832	0.01
366.04	0.08
366.248	0
366.456	0.04
366.664	0.05
366.872	-0.02
367.079	0.01
367.287	-0.02
367.495	0.06
367.703	0
367.911	0
368.118	0.01
368.326	0.03
368.534	-0.03
368.742	0.11
368.949	-0.02
369.157	-0.02
369.365	0.04
369.572	0.02
369.78	0
369.988	0.09
370.195	0.05
370.403	0.04
370.61	0.01
370.818	0.06
371.026	0.12
371.233	0.02
371.441	0.06
371.648	0
371.856	0.05
372.063	0.03
372.271	0.02
372.478	0
372.685	0.01
372.893	0.06
373.1	0.04
373.308	0.02
373.515	0.07
373.722	0.06
373.93	0.05
374.137	0.07
374.344	0.09
374.552	0.08
374.759	0.07
374.966	0.02
375.173	-0.01
375.381	0.04
375.588	0.03
375.795	-0.04
376.002	0.02
376.209	-0.02
376.417	0.05
376.624	0.01
376.831	0.03
377.038	0.01
377.245	-0.02
377.452	0
377.659	0.03
377.866	0
378.073	0.01
378.28	0.02
378.487	0.04
378.694	0.03
378.901	0.05
379.108	-0.01
379.315	0.08
379.522	0.11
379.729	0.01
379.936	0.04
380.143	0.04
380.35	0.03
380.557	0.03
380.763	-0.02
380.97	0.01
381.177	0.02
381.384	0.04
381.591	-0.01
381.797	0.07
382.004	-0
382.211	0.02
382.418	0.01
382.624	0.02
382.831	0.04
383.038	0.01
383.244	0.02
383.451	0.02
383.658	0.06
383.864	0.02
384.071	0.01
384.277	0.06
384.484	0.03
384.69	0.04
384.897	0.01
385.103	0.05
385.31	0.04
385.516	0.05
385.723	-0
385.929	0.05
386.136	-0.02
386.342	0.07
386.549	-0.01
386.755	0.07
386.961	0.1
387.168	-0.03
387.374	0.02
387.58	0.07
387.787	0.04
387.993	0.04
388.199	0.02
388.406	-0.01
388.612	0.01
388.818	0.03
389.024	-0.02
389.231	0.02
389.437	0.07
389.643	0.06
389.849	0.04
390.055	0.05
390.261	0.03
390.467	0.09
390.674	-0.06
390.88	0.02
391.086	0.07
391.292	-0
391.498	0.05
391.704	0.03
391.91	0.03
392.116	-0.01
392.322	-0.04
392.528	0.07
392.734	0.01
392.94	0.03
393.146	-0.01
393.352	0.04
393.557	0
393.763	0.03
393.969	0.07
394.175	0.05
394.381	0.06
394.587	-0.04
394.792	-0.02
394.998	0.08
395.204	0.04
395.41	-0
395.615	0.05
395.821	0.05
396.027	0.06
396.233	-0.01
396.438	0.04
396.644	0.11
396.85	0.05
397.055	0.04
397.261	0.04
397.466	0.02
397.672	-0
397.878	0.05
398.083	0.07
398.289	0.03
398.494	0.08
398.7	0.08
398.905	-0.03
399.111	0.08
399.316	-0.02
399.522	0.01
399.727	0.05
399.932	0.02
400.138	0.01
400.343	0.04
400.549	0.05
400.754	0.02
400.959	0.03
401.165	0.02
401.37	0.01
401.575	0.1
401.78	0.04
401.986	-0.01
402.191	0.07
402.396	0
402.601	0.05
402.807	0.01
403.012	0.04
403.217	0.04
403.422	0
403.627	0.03
403.832	-0.01
404.037	0.06
404.243	0.04
404.448	0.01
404.653	0.07
404.858	0.04
405.063	0.05
405.268	-0.01
405.473	0.01
405.678	-0.02
405.883	0.13
406.088	0.07
406.293	-0.02
406.498	0.01
406.703	0.1
406.907	0.02
407.112	-0.03
407.317	0.05
407.522	0.07
407.727	0.01
407.932	0.01
408.136	0.11
408.341	-0
408.546	0.01
408.751	0.05
408.956	0.03
409.16	0.03
409.365	0
409.57	0.06
409.774	0.04
409.979	0.03
410.184	0.03
410.388	0.01
410.593	0.07
410.798	-0
411.002	0.02
411.207	0.03
411.411	0.04
411.616	-0.03
411.82	0
412.025	0.07
412.229	0.02
412.434	0.1
412.638	-0.01
412.843	0.01
413.047	0.04
413.252	0.02
413.456	0.01
413.66	0.02
413.865	0.01
414.069	0.07
414.273	0.01
414.478	-0.01
414.682	0.01
414.886	-0.01
415.091	0.01
415.295	-0.02
415.499	0.04
415.703	0
415.908	0.04
416.112	-0.02
416.316	0.05
416.52	0.05
416.724	-0.02
416.929	0.04
417.133	0.1
417.337	0.05
417.541	0
417.745	0
417.949	0.05
418.153	0.06
418.357	-0.05
418.561	0.1
418.765	0.02
418.969	0.12
419.173	0.07
419.377	0.01
419.581	0.12
419.785	-0.03
419.989	-0.02
420.193	-0.03
420.397	0.01
420.601	0.03
420.804	0.07
421.008	0.04
421.212	0.05
421.416	0.08
421.62	0.04
421.823	0.05
422.027	0.11
422.231	0.09
422.435	0
422.638	0.04
422.842	-0
423.046	0
423.249	0.06
423.453	0.04
423.657	0.04
423.86	-0
424.064	0.04
424.268	0.08
424.471	-0.01
424.675	0.11
424.878	0.08
425.082	0.03
425.285	0.05
425.489	0.02
425.692	0.03
425.896	0
426.099	0.04
426.303	-0.05
426.506	-0.01
426.71	0.03
426.913	0.05
427.116	0.05
427.32	0.06
427.523	0.01
427.726	0.05
427.93	-0
428.133	0.03
428.336	0.01
428.54	-0.02
428.743	0.05
428.946	0.08
429.149	0
429.353	0.07
429.556	0.02
429.759	0.02
429.962	-0.01
430.165	0.02
430.368	0
430.571	0.01
430.775	0.04
430.978	-0.02
431.181	0.06
431.384	0.06
431.587	0.02
431.79	-0.01
431.993	-0.04
432.196	0.04
432.399	0.02
432.602	0.1
432.805	-0
433.008	-0.03
433.211	-0.01
433.414	0.03
433.616	0.01
433.819	0.03
434.022	-0.01
434.225	0.08
434.428	0
434.631	0.1
434.833	0.03
435.036	-0.04
435.239	0.08
435.442	0.01
435.645	-0.03
435.847	0.01
436.05	0.05
436.253	0.06
436.455	-0.02
436.658	0.06
436.861	0.08
437.063	-0.01
437.266	-0.01
437.468	-0
437.671	0.18
437.874	0.01
438.076	-0.03
438.279	-0.05
438.481	-0.01
438.684	-0.03
438.886	0.04
439.089	-0.03
439.291	-0.02
439.494	0.01
439.696	-0.05
439.899	-0.03
440.101	0.01
440.303	-0.02
440.506	0.08
440.708	-0.01
440.91	0.06
441.113	-0.07
441.315	0.07
441.517	-0.03
441.72	0.07
441.922	-0.03
442.124	-0.03
442.326	0.04
442.529	0.09
442.731	-0.02
442.933	0.08
443.135	-0.02
443.337	-0.04
443.539	-0.01
443.742	0.04
443.944	0.07
444.146	-0.01
444.348	0.01
444.55	0.01
444.752	0.02
444.954	-0.07
445.156	-0.01
445.358	-0.01
445.56	0.04
445.762	0.01
445.964	0.06
446.166	0.01
446.368	-0.01
446.57	0.04
446.772	0.02
446.974	-0.01
447.175	0.01
447.377	-0.01
447.579	-0.05
447.781	-0.06
447.983	0.05
448.184	0.01
448.386	0.07
448.588	-0.07
448.79	0.01
448.991	-0.02
449.193	-0.03
449.395	0.01
449.597	0.1
449.798	0.06
450	0.1
450.202	0.01
450.403	0.01
450.605	0.04
450.806	0.04
451.008	-0.05
451.21	-0
451.411	0.01
451.613	0.01
451.814	0.03
452.016	0.06
452.217	0.05
452.419	0.06
452.62	0.03
452.821	0.04
453.023	0.08
453.224	0.06
453.426	0
453.627	0.06
453.828	0.06
454.03	-0.01
454.231	0.1
454.432	-0.05
454.634	0.11
454.835	-0.01
455.036	-0.04
455.238	0.06
455.439	0.08
455.64	-0.02
455.841	-0.04
456.042	0.14
456.244	0.07
456.445	-0.02
456.646	-0.02
456.847	-0.01
457.048	0.05
457.249	0.1
457.45	0.23
457.651	-0.03
457.852	0.03
458.054	0.03
458.255	0.03
458.456	0.05
458.657	0.03
458.858	-0.02
459.058	0.03
459.259	0.06
459.46	-0.03
459.661	0.01
459.862	0.11
460.063	-0.02
460.264	0.08
460.465	-0.02
460.666	0.11
460.866	-0.02
461.067	0.02
461.268	0.01
461.469	-0
461.67	0.02
461.87	-0
462.071	0.06
462.272	-0.04
462.473	0.01
462.673	0.04
462.874	-0.01
463.075	0.04
463.275	-0.01
463.476	0.02
463.676	0.01
463.877	0.03
464.078	0.05
464.278	0.1
464.479	0.02
464.679	0.04
464.88	0.01
465.08	0.07
465.281	-0.01
465.481	-0.02
465.682	0.04
465.882	0.05
466.083	0.02
466.283	0.03
466.483	0.02
466.684	-0.04
466.884	0.02
467.085	-0.03
467.285	0.05
467.485	-0.05
467.686	-0
467.886	-0.01
468.086	0.03
468.286	0.03
468.487	0.07
468.687	0.01
468.887	0.05
469.087	0.05
469.287	-0
469.488	-0.04
469.688	0.05
469.888	0.06
470.088	0.06
470.288	0.09
470.488	0.06
470.688	-0.04
470.888	0
471.088	-0.01
471.288	0.08
471.488	0.03
471.688	0.04
471.888	-0.01
472.088	0.06
472.288	0.05
472.488	-0.03
472.688	-0.01
472.888	0.03
473.088	0.02
473.288	0.02
473.488	0.06
473.688	0.08
473.887	-0.01
474.087	-0
474.287	0.09
474.487	-0.01
474.687	0.03
474.886	0.01
475.086	-0.02
475.286	0.05
475.486	0
475.685	0.01
475.885	-0.02
476.085	0.01
476.284	0.04
476.484	0.05
476.684	0.03
476.883	0.07
477.083	0.01
477.282	0.01
477.482	0.06
477.681	0.02
477.881	0.01
478.08	-0.01
478.28	-0.02
478.479	0.06
478.679	0.06
478.878	-0.02
479.078	-0.02
479.277	0
479.477	-0
479.676	0.06
479.875	-0.02
480.075	-0.04
480.274	0.04
480.473	0.03
480.673	-0.03
480.872	0.06
481.071	0.04
481.271	0.03
481.47	-0.01
481.669	-0.01
481.868	-0
482.067	-0.02
482.267	0.01
482.466	0
482.665	-0.02
482.864	-0.04
483.063	-0.03
483.262	0.02
483.461	0.08
483.661	0.05
483.86	0.01
484.059	0.03
484.258	0.02
484.457	-0
484.656	0.02
484.855	0.05
485.054	-0.02
485.253	-0.03
485.452	-0.01
485.651	0.02
485.849	0.01
486.048	-0.02
486.247	-0.02
486.446	0.03
486.645	-0.02
486.844	-0
487.043	0.03
487.241	0.04
487.44	-0.03
487.639	-0
487.838	0.02
488.037	0.03
488.235	0.06
488.434	0.02
488.633	0.01
488.831	0.01
489.03	0.02
489.229	0.02
489.427	0.01
489.626	0.04
489.825	0.09
490.023	0.01
490.222	0
490.42	0.03
490.619	0.04
490.817	0.02
491.016	-0.01
491.214	0.02
491.413	-0
491.611	-0.02
491.81	0.01
492.008	0.04
492.207	0.02
492.405	0.02
492.604	-0.05
492.802	0.01
493	0
493.199	-0.01
493.397	0.03
493.595	-0.01
493.794	0
493.992	0.05
494.19	0.02
494.388	0.02
494.587	0.01
494.785	0.01
494.983	-0.02
495.181	0.01
495.379	0
495.578	-0.01
495.776	0.04
495.974	0
496.172	-0
496.37	-0.01
496.568	-0.01
496.766	0.01
496.964	0.05
497.162	0.02
497.36	-0.02
497.558	0.01
497.756	0.03
497.954	-0
498.152	-0.01
498.35	0.01
498.548	0
498.746	0.04
498.944	-0.02
499.142	0.01
499.34	-0.02
499.538	0.02
499.736	-0
499.933	0.04
500.131	0.05
500.329	0.01
500.527	0.05
500.725	0.04
500.922	0.03
501.12	0.03
501.318	0
501.516	-0.01
501.713	0.02
501.911	0.01
502.109	-0.01
502.306	0.02
502.504	0
502.701	-0.01
502.899	-0.01
503.097	0.06
503.294	0.02
503.492	-0
503.689	0.03
503.887	0.03
504.084	0.06
504.282	0.01
504.479	-0.02
504.677	0.03
504.874	-0.01
505.072	0.01
505.269	-0.01
505.466	0.03
505.664	0.01
505.861	-0.03
506.059	-0.03
506.256	0.04
506.453	-0.01
506.651	0.04
506.848	0.04
507.045	0.01
507.242	0.03
507.44	-0.01
507.637	0
507.834	0.01
508.031	0.03
508.229	-0.02
508.426	0.01
508.623	0.04
508.82	-0.01
509.017	-0.02
509.214	-0.01
509.411	0.02
509.608	-0.02
509.805	0
510.003	0.02
510.2	-0.01
510.397	0.04
510.594	-0.01
510.791	-0
510.988	0.01
511.184	0.02
511.381	0.01
511.578	0
511.775	0.04
511.972	-0.01
512.169	0.01
512.366	0
512.563	0.05
512.76	0
512.956	0.04
513.153	0
513.35	0.01
513.547	0.01
513.744	-0.01
513.94	-0.03
514.137	0.04
514.334	0.02
514.53	0.01
514.727	0
514.924	0.04
515.12	0
515.317	-0.02
515.514	-0
515.71	-0.03
515.907	-0
516.103	0.02
516.3	0.02
516.497	0.01
516.693	0.04
516.89	0
517.086	-0.02
517.283	0.07
517.479	0.01
517.676	0
517.872	-0.01
518.068	-0.01
518.265	-0.02
518.461	-0
518.658	-0.01
518.854	0.01
519.05	0.02
519.247	-0.01
519.443	0.02
519.639	-0
519.836	0.01
520.032	0.02
520.228	-0
520.424	0.06
520.621	0.03
520.817	0
521.013	0.03
521.209	0.02
521.405	0.05
521.601	0.01
521.798	0.04
521.994	0.05
522.19	0
522.386	-0.01
522.582	-0
522.778	0.02
522.974	0.01
523.17	0.02
523.366	-0.02
523.562	0.04
523.758	-0
523.954	-0.01
524.15	-0.01
524.346	0.04
524.542	-0
524.738	0.01
524.934	0.02
525.129	-0.06
525.325	0.01
525.521	0.01
525.717	0.03
525.913	0.01
526.109	0.02
526.304	-0.01
526.5	0.04
526.696	0.02
526.892	0.01
527.087	0
527.283	-0.01
527.479	0.02
527.674	0.01
527.87	0
528.066	0.02
528.261	0.04
528.457	0.01
528.653	0.02
528.848	-0
529.044	0.02
529.239	0.02
529.435	0.04
529.63	0.03
529.826	0.07
530.021	0.02
530.217	0.04
530.412	0.01
530.608	-0
530.803	0
530.999	0.01
531.194	-0.04
531.389	0.01
531.585	-0.03
531.78	0
531.975	0.01
532.171	0.03
532.366	0
532.561	0.01
532.757	-0.02
532.952	-0
533.147	0.03
533.342	0.01
533.538	0.01
533.733	0.04
533.928	-0
534.123	0.01
534.318	-0.02
534.513	-0
534.709	0.01
534.904	0.01
535.099	-0.01
535.294	0.01
535.489	0.01
535.684	0
535.879	-0.01
536.074	0.03
536.269	-0.01
536.464	0.02
536.659	-0
536.854	0
537.049	0.01
537.244	-0
537.439	0.01
537.634	0.04
537.828	0.01
538.023	0.01
538.218	-0.01
538.413	0.01
538.608	-0.01
538.803	0.01
538.997	-0.02
539.192	0.02
539.387	0.02
539.582	0
539.776	0.02
539.971	0
540.166	0.02
540.36	-0.04
540.555	0
540.75	-0.02
540.944	0.02
541.139	-0.04
541.334	0.01
541.528	0.01
541.723	0.04
541.917	0.01
542.112	-0.03
542.306	-0.02
542.501	0.01
542.695	-0.01
542.89	-0.01
543.084	0.01
543.279	-0.01
543.473	0
543.668	0.02
543.862	0
544.056	0
544.251	0
544.445	0.02
544.64	0.02
544.834	0
545.028	0.02
545.222	0.03
545.417	0.04
545.611	0.01
545.805	0.01
546	-0.02
546.194	-0
546.388	-0.02
546.582	0.02
546.776	0
546.97	0.02
547.165	-0
547.359	0.01
547.553	-0.02
547.747	0.01
547.941	0.01
548.135	-0.01
548.329	0.03
548.523	0.03
548.717	0.01
548.911	-0
549.105	0.02
549.299	-0
549.493	0.02
549.687	0.02
549.881	0.02
550.075	0.01
550.269	-0.02
550.463	0.02
550.657	-0.01
550.85	-0.02
551.044	-0.01
551.238	0
551.432	-0.01
551.626	-0.01
551.82	0.02
552.013	-0.04
552.207	0.02
552.401	0.03
552.594	0.01
552.788	-0
552.982	-0
553.176	-0
553.369	0.02
553.563	0.01
553.756	-0.03
553.95	-0.03
554.144	0
554.337	0.05
554.531	0.03
554.724	0.01
554.918	-0.01
555.111	0.04
555.305	0.01
555.498	0.06
555.692	0.01
555.885	-0.01
556.079	-0
556.272	-0
556.466	0.03
556.659	-0
556.852	-0.01
557.046	-0.01
557.239	0.03
557.432	-0.01
557.626	-0
557.819	0.03
558.012	0.01
558.206	0.02
558.399	0.02
558.592	0.02
558.785	0
558.979	0.04
559.172	0.02
559.365	0.03
559.558	0.02
559.751	0.02
559.944	-0.02
560.138	0.01
560.331	-0
560.524	0.01
560.717	0
560.91	0.02
561.103	0.01
561.296	-0
561.489	0.01
561.682	0
561.875	0.03
562.068	0.01
562.261	0.01
562.454	0.05
562.647	0.01
562.84	0.03
563.032	0
563.225	0.02
563.418	-0
563.611	-0.01
563.804	-0.01
563.997	-0
564.19	-0.02
564.382	-0.06
564.575	0
564.768	0
564.961	0
565.153	0.01
565.346	0.03
565.539	0.01
565.731	0.02
565.924	0.03
566.117	0.01
566.309	0.01
566.502	-0.01
566.695	0
566.887	0.01
567.08	0
567.272	-0
567.465	0.01
567.657	0.01
567.85	0.03
568.042	0.02
568.235	0.03
568.427	0.01
568.62	0.01
568.812	0
569.005	0.02
569.197	-0.02
569.389	0.01
569.582	0.02
569.774	0.01
569.966	-0.01
570.159	-0.02
570.351	0.01
570.543	-0.03
570.736	0.01
570.928	-0.03
571.12	0.01
571.312	0
571.505	-0.02
571.697	0.02
571.889	-0.01
572.081	0.01
572.273	-0.01
572.465	0.02
572.658	0.01
572.85	0.01
573.042	0.01
573.234	0
573.426	0.05
573.618	-0.02
573.81	0.02
574.002	0.03
574.194	0.03
574.386	-0.04
574.578	-0.08
574.77	-0
574.962	0.02
575.154	-0.05
575.346	-0.02
575.538	0.04
575.729	0
575.921	-0.01
576.113	0.01
576.305	0.03
576.497	0
576.689	0.02
576.88	-0.01
577.072	0.01
577.264	0.03
577.456	0.01
577.647	-0.05
577.839	0.03
578.031	0.04
578.223	-0.02
578.414	-0.03
578.606	0.01
578.798	0.01
578.989	-0.02
579.181	-0
579.372	0
579.564	0.02
579.755	0.02
579.947	0.03
580.139	0.01
580.33	-0.03
580.522	0
580.713	-0.04
580.905	0
581.096	0.02
581.287	-0.01
581.479	0.01
581.67	0.02
581.862	0.02
582.053	-0.02
582.244	-0.02
582.436	0
582.627	0.03
582.818	-0.01
583.01	-0.02
583.201	0.03
583.392	0.02
583.583	0
583.775	0
583.966	-0.01
584.157	-0.01
584.348	-0.01
584.54	-0.03
584.731	0.02
584.922	0.02
585.113	-0.03
585.304	0.02
585.495	0.03
585.686	0.02
585.877	0.03
586.068	0.01
586.259	0.02
586.45	0.04
586.641	-0.01
586.832	-0.04
587.023	0.02
587.214	-0
587.405	-0.03
587.596	-0.02
587.787	0.05
587.978	-0.01
588.169	-0.02
588.36	0.01
588.551	0.02
588.742	0.02
588.932	0.02
589.123	-0
589.314	0.05
589.505	0.02
589.696	0.01
589.886	0
590.077	-0.02
590.268	0.01
590.458	-0.05
590.649	-0.02
590.84	0.03
591.03	-0.01
591.221	-0.07
591.412	-0
591.602	0.01
591.793	0.05
591.984	-0.04
592.174	0.01
592.365	0.06
592.555	0.01
592.746	0.03
592.936	0.02
593.127	0.02
593.317	0.02
593.508	-0.01
593.698	-0.02
593.889	0.03
594.079	0.04
594.269	-0.01
594.46	0.04
594.65	0
594.84	0.02
595.031	-0.02
595.221	-0.01
595.411	-0.02
595.602	0.02
595.792	0.01
595.982	0.02
596.172	0.06
596.363	0.02
596.553	0.01
596.743	-0.01
596.933	-0
597.123	0.06
597.314	-0.02
597.504	-0.02
597.694	0.01
597.884	0.03
598.074	-0.01
598.264	-0
598.454	-0.01
598.644	0.01
598.834	0.01
599.024	-0.05
599.214	-0.01
599.404	0.04
599.594	0
599.784	-0.02
599.974	0.07
600.164	0.03
600.354	-0.03
600.544	-0.04
600.734	-0
600.924	0.06
601.114	-0
601.303	0.01
601.493	-0
601.683	-0.02
601.873	0.02
602.063	-0.03
602.252	0.02
602.442	-0.07
602.632	0.01
602.821	-0.02
603.011	0.03
603.201	-0.01
603.39	-0.03
603.58	-0.03
603.77	-0
603.959	0.04
604.149	0.04
604.339	-0.01
604.528	0.04
604.718	0.04
604.907	0.01
605.097	-0.02
605.286	-0.04
605.476	0.01
605.665	0.02
605.855	0.01
606.044	0.04
606.234	0.01
606.423	0
606.612	-0.04
606.802	0.02
606.991	0.04
607.181	0.01
607.37	-0.04
607.559	0.02
607.749	-0.04
607.938	-0
608.127	0.01
608.316	-0.01
608.506	0.01
608.695	-0.02
608.884	-0.01
609.073	0.01
609.263	0.02
609.452	0.03
609.641	0.04
609.83	-0.02
610.019	0.01
610.208	-0.01
610.397	-0.01
610.586	0.01
610.775	-0.02
610.965	-0.01
611.154	-0.02
611.343	0.02
611.532	-0.01
611.721	-0.03
611.91	-0.02
612.099	0.04
612.287	-0
612.476	-0.01
612.665	0.03
612.854	-0.01
613.043	0.04
613.232	0
613.421	-0.05
613.61	-0
613.798	0.01
613.987	0.03
614.176	-0
614.365	0.01
614.554	0.01
614.742	0.04
614.931	0.01
615.12	0.04
615.309	-0.02
615.497	0.01
615.686	0.02
615.875	0
616.063	0.02
616.252	-0
616.44	-0.02
616.629	0.01
616.818	0.04
617.006	-0.01
617.195	0.02
617.383	0.03
617.572	0.04
617.76	0.01
617.949	0
618.137	0.01
618.326	0
618.514	-0.03
618.703	-0
618.891	0.07
619.079	-0.03
619.268	0.02
619.456	-0.02
619.644	0.06
619.833	-0.03
620.021	0.01
620.209	-0.03
620.398	0.02
620.586	0.05
620.774	0.01
620.962	0.02
621.151	0.05
621.339	0.02
621.527	-0.01
621.715	-0.01
621.903	-0.02
622.092	-0.03
622.28	0.02
622.468	0.01
622.656	-0.01
622.844	0.03
623.032	0
623.22	-0.05
623.408	0.04
623.596	0.02
623.784	0.01
623.972	-0.01
624.16	0.01
624.348	0.04
624.536	-0.02
624.724	0.03
624.912	0.06
625.1	0.04
625.288	-0.04
625.476	-0.02
625.664	0.03
625.851	0
626.039	-0
626.227	0.02
626.415	-0.01
626.603	-0.05
626.79	0
626.978	0.01
627.166	0.02
627.354	-0
627.541	-0.02
627.729	-0.03
627.917	0.05
628.104	0.07
628.292	0.04
628.48	0.01
628.667	0.02
628.855	0
629.042	0.02
629.23	-0.01
629.418	0.03
629.605	-0
629.793	0
629.98	0.01
630.168	0.03
630.355	0.01
630.543	0.02
630.73	-0.03
630.917	0.02
631.105	0.09
631.292	0.01
631.48	0
631.667	0.06
631.854	0.01
632.042	0
632.229	-0.02
632.416	0.01
632.604	0.03
632.791	-0.04
632.978	0.03
633.165	0.04
633.353	0.08
633.54	0.03
633.727	-0.04
633.914	-0.02
634.101	-0.06
634.289	0.07
634.476	-0.01
634.663	-0.02
634.85	0.02
635.037	-0.03
635.224	-0.03
635.411	0.05
635.598	0.04
635.785	-0.01
635.972	0.02
636.159	0.05
636.346	-0
636.533	-0.01
636.72	0.02
636.907	-0.02
637.094	0.04
637.281	-0.04
637.468	0.04
637.655	0.02
637.842	0
638.029	-0.03
638.215	0.06
638.402	0
638.589	0.02
638.776	-0.02
638.963	-0.02
639.149	0.06
639.336	0.07
639.523	0.03
639.709	-0.02
639.896	-0.01
640.083	0.06
640.27	0.02
640.456	0.01
640.643	0.05
640.829	-0.04
641.016	0
641.203	-0.01
641.389	0.03
641.576	0.04
641.762	0.02
641.949	-0.04
642.135	0.05
642.322	0.01
642.508	-0.05
642.695	-0.01
642.881	0.01
643.068	0.02
643.254	0.04
643.441	0.04
643.627	0.01
643.813	-0.02
644	0.05
644.186	0
644.372	-0.02
644.559	0.03
644.745	0
644.931	0.01
645.118	-0.01
645.304	0.03
645.49	-0.03
645.676	-0
645.862	0.03
646.049	0.06
646.235	-0.02
646.421	0.06
646.607	0.05
646.793	0
646.979	-0.04
647.165	0.04
647.352	0.04
647.538	0.06
647.724	0.03
647.91	0.01
648.096	0.05
648.282	0.05
648.468	-0.01
648.654	0.03
648.84	0.04
649.026	0.03
649.212	0.02
649.397	-0.02
649.583	-0.01
649.769	0.03
649.955	0.05
650.141	0.03
650.327	0.05
650.513	-0.02
650.698	0.02
650.884	-0.05
651.07	0.02
651.256	0.05
651.442	0.03
651.627	0.03
651.813	0.05
651.999	0.03
652.184	0.05
652.37	0.02
652.556	0.03
652.741	0.07
652.927	-0.05
653.113	0
653.298	0.03
653.484	0.01
653.669	-0
653.855	0.01
654.04	0.04
654.226	-0.01
654.412	0.02
654.597	0.01
654.782	0.03
654.968	0.05
655.153	0.03
655.339	-0.01
655.524	0.01
655.71	0.07
655.895	0.01
656.08	0.05
656.266	0.06
656.451	0.06
656.636	-0
656.822	0.04
657.007	0.01
657.192	-0.03
657.378	-0.05
657.563	0.04
657.748	0.06
657.933	0.06
658.118	0.02
658.304	-0
658.489	0.03
658.674	0.03
658.859	-0.01
659.044	0.03
659.229	0.04
659.414	0.01
659.599	-0.01
659.785	-0
659.97	0.02
660.155	0.04
660.34	0.04
660.525	0.04
660.71	0.04
660.895	0.05
661.08	0.03
661.264	-0.01
661.449	0.1
661.634	0.07
661.819	0.05
662.004	0.04
662.189	-0.03
662.374	-0.01
662.559	-0.02
662.743	0.01
662.928	0.02
663.113	0.02
663.298	0.02
663.483	0.02
663.667	0.08
663.852	-0.01
664.037	0.08
664.221	0.03
664.406	0.06
664.591	0.08
664.775	0.04
664.96	0.05
665.145	0.04
665.329	0.1
665.514	0.01
665.698	0.06
665.883	-0.01
666.068	0.11
666.252	0.08
666.437	0.05
666.621	0.09
666.806	0.1
666.99	0.03
667.174	0.03
667.359	0.13
667.543	0.05
667.728	0.02
667.912	-0.01
668.096	0.08
668.281	0.04
668.465	0.07
668.649	0.06
668.834	0.06
669.018	0.05
669.202	0.04
669.387	0.03
669.571	0.12
669.755	0.04
669.939	0.05
670.124	0.1
670.308	0.09
670.492	0.08
670.676	0.07
670.86	0.05
671.044	0.03
671.228	0.11
671.413	0.04
671.597	0.05
671.781	0.06
671.965	0.1
672.149	0.05
672.333	0.08
672.517	0.05
672.701	0.11
672.885	0.06
673.069	0.01
673.253	0.17
673.437	0.1
673.621	0.04
673.804	0.06
673.988	0.12
674.172	0.08
674.356	0
674.54	0.08
674.724	0.18
674.908	0.07
675.091	0.15
675.275	0.1
675.459	0.12
675.643	0.11
675.826	0.13
676.01	0.13
676.194	0.07
676.377	0.15
676.561	0.13
676.745	0.12
676.928	0.12
677.112	0.16
677.296	0.09
677.479	0.12
677.663	0.07
677.846	0.12
678.03	0.1
678.213	0.09
678.397	0.14
678.58	0.09
678.764	0.1
678.947	0.09
679.131	0.12
679.314	0.17
679.498	0.14
679.681	0.09
679.865	0.16
680.048	0.14
680.231	0.14
680.415	0.12
680.598	0.12
680.781	0.12
680.965	0.13
681.148	0.16
681.331	0.13
681.514	0.17
681.698	0.18
681.881	0.15
682.064	0.17
682.247	0.17
682.43	0.12
682.614	0.2
682.797	0.14
682.98	0.21
683.163	0.14
683.346	0.23
683.529	0.17
683.712	0.14
683.895	0.2
684.078	0.13
684.261	0.17
684.444	0.2
684.627	0.21
684.81	0.16
684.993	0.17
685.176	0.28
685.359	0.18
685.542	0.2
685.725	0.29
685.908	0.21
686.091	0.19
686.274	0.21
686.457	0.28
686.639	0.22
686.822	0.32
687.005	0.26
687.188	0.29
687.371	0.34
687.553	0.28
687.736	0.34
687.919	0.33
688.102	0.31
688.284	0.27
688.467	0.31
688.65	0.22
688.832	0.25
689.015	0.3
689.197	0.23
689.38	0.35
689.563	0.38
689.745	0.29
689.928	0.32
690.11	0.29
690.293	0.33
690.475	0.28
690.658	0.33
690.84	0.31
691.023	0.35
691.205	0.34
691.388	0.36
691.57	0.39
691.752	0.38
691.935	0.3
692.117	0.37
692.3	0.38
692.482	0.41
692.664	0.41
692.847	0.44
693.029	0.47
693.211	0.45
693.393	0.44
693.576	0.4
693.758	0.41
693.94	0.41
694.122	0.41
694.304	0.42
694.487	0.47
694.669	0.55
694.851	0.45
695.033	0.45
695.215	0.44
695.397	0.44
695.579	0.52
695.761	0.46
695.943	0.46
696.125	0.6
696.308	0.55
696.49	0.49
696.671	0.65
696.853	0.56
697.035	0.77
697.217	0.59
697.399	0.65
697.581	0.56
697.763	0.59
697.945	0.55
698.127	0.65
698.309	0.69
698.491	0.66
698.672	0.75
698.854	0.7
699.036	0.76
699.218	0.68
699.399	0.71
699.581	0.76
699.763	0.67
699.945	0.67
700.126	0.66
700.308	0.77
700.49	0.75
700.671	0.72
700.853	0.77
701.035	0.84
701.216	0.8
701.398	0.78
701.579	0.84
701.761	1.01
701.943	0.81
702.124	0.84
702.306	0.89
702.487	1.08
702.669	0.92
702.85	0.94
703.031	0.95
703.213	1.12
703.394	1.05
703.576	0.98
703.757	1.15
703.938	1.12
704.12	1.21
704.301	1.09
704.483	1.11
704.664	1.14
704.845	1.27
705.026	1.26
705.208	1.22
705.389	1.19
705.57	1.26
705.751	1.26
705.933	1.31
706.114	1.36
706.295	1.31
706.476	1.31
706.657	1.42
706.838	1.43
707.02	1.42
707.201	1.36
707.382	1.47
707.563	1.47
707.744	1.48
707.925	1.45
708.106	1.53
708.287	1.57
708.468	1.68
708.649	1.62
708.83	1.65
709.011	1.67
709.192	1.7
709.373	1.74
709.554	1.73
709.734	1.83
709.915	1.92
710.096	1.82
710.277	1.74
710.458	1.86
710.639	1.91
710.819	1.89
711	1.96
711.181	2.06
711.362	2.07
711.542	2.1
711.723	2.1
711.904	2.19
712.085	2.16
712.265	2.22
712.446	2.2
712.627	2.23
712.807	2.35
712.988	2.43
713.168	2.35
713.349	2.44
713.53	2.26
713.71	2.5
713.891	2.43
714.071	2.58
714.252	2.6
714.432	2.72
714.613	2.6
714.793	2.79
714.974	2.84
715.154	2.91
715.334	2.99
715.515	2.97
715.695	2.93
715.876	3.06
716.056	2.93
716.236	3.03
716.417	3.17
716.597	3.17
716.777	3.49
716.957	3.33
717.138	3.37
717.318	3.34
717.498	3.5
717.678	3.51
717.859	3.56
718.039	3.61
718.219	3.7
718.399	3.75
718.579	3.7
718.759	3.77
718.939	4.01
719.12	3.96
719.3	4.01
719.48	3.99
719.66	4.02
719.84	4.36
720.02	4.3
720.2	4.28
720.38	4.42
720.56	4.53
720.74	4.53
720.92	4.62
721.1	4.78
721.279	4.92
721.459	4.83
721.639	4.79
721.819	4.95
721.999	5.08
722.179	5.21
722.359	5.06
722.538	5.25
722.718	5.37
722.898	5.54
723.078	5.59
723.257	5.73
723.437	5.73
723.617	5.85
723.797	5.88
723.976	5.88
724.156	6.22
724.336	6.12
724.515	6.35
724.695	6.28
724.874	6.27
725.054	6.58
725.234	6.49
725.413	6.59
725.593	6.69
725.772	6.85
725.952	6.87
726.131	6.99
726.311	7.11
726.49	7.17
726.67	7.14
726.849	7.27
727.028	7.26
727.208	7.42
727.387	7.65
727.567	7.56
727.746	7.61
727.925	7.88
728.105	7.8
728.284	7.85
728.463	7.69
728.643	8.08
728.822	8.08
729.001	8.22
729.18	8.5
729.359	8.56
729.539	8.77
729.718	8.69
729.897	8.93
730.076	8.94
730.255	8.88
730.434	9.11
730.614	9.31
730.793	9.48
730.972	9.36
731.151	9.53
731.33	9.77
731.509	9.71
731.688	9.93
731.867	9.97
732.046	9.85
732.225	10.38
732.404	10.14
732.583	10.33
732.762	10.5
732.941	10.72
733.12	10.83
733.298	10.83
733.477	10.97
733.656	10.98
733.835	11.2
734.014	11.31
734.193	11.06
734.371	11.47
734.55	11.47
734.729	11.33
734.908	11.62
735.086	11.49
735.265	11.91
735.444	11.45
735.623	11.91
735.801	12.12
735.98	12.05
736.159	11.99
736.337	12.06
736.516	12.16
736.694	12.11
736.873	12.08
737.052	12.49
737.23	12.27
737.409	11.97
737.587	12.54
737.766	11.95
737.944	12.26
738.123	12.38
738.301	12.3
738.479	11.99
738.658	11.9
738.836	11.97
739.015	11.91
739.193	11.73
739.371	11.39
739.55	11.22
739.728	11.06
739.906	11.43
740.085	11.42
740.263	11.12
740.441	10.67
740.62	10.69
740.798	10.65
740.976	10.19
741.154	10.1
741.332	10.21
741.511	9.63
741.689	9.51
741.867	9.54
742.045	9.09
742.223	8.69
742.401	8.58
742.579	8.25
742.757	8.51
742.935	7.9
743.114	7.83
743.292	7.55
743.47	7.3
743.648	7.28
743.826	7.27
744.004	7.11
744.181	6.63
744.359	6.35
744.537	6.26
744.715	5.92
744.893	5.93
745.071	5.72
745.249	5.5
745.427	5.46
745.605	5.23
745.782	5.21
745.96	4.99
746.138	4.86
746.316	4.57
746.493	4.42
746.671	4.34
746.849	4.16
747.027	4.31
747.204	3.8
747.382	3.82
747.56	3.49
747.737	3.63
747.915	3.39
748.093	3.4
748.27	3.1
748.448	3.19
748.625	2.9
748.803	2.83
748.98	2.85
749.158	2.72
749.335	2.61
749.513	2.55
749.69	2.49
749.868	2.4
750.045	2.4
750.223	2.35
750.4	1.94
750.578	2.37
750.755	2.13
750.932	1.98
751.11	2.16
751.287	1.83
751.464	2.05
751.642	1.88
751.819	1.81
751.996	1.67
752.173	1.61
752.351	1.48
752.528	1.7
752.705	1.51
752.882	1.4
753.06	1.45
753.237	1.47
753.414	1.58
753.591	1.56
753.768	1.24
753.945	1.13
754.122	1.21
754.299	1.33
754.476	1.06
754.654	1.08
754.831	1.23
755.008	1.03
755.185	0.91
755.362	0.95
755.539	1
755.716	0.86
755.892	1.03
756.069	0.96
756.246	0.81
756.423	0.86
756.6	0.97
756.777	0.77
756.954	0.83
757.131	0.83
757.307	0.57
757.484	0.52
757.661	0.68
757.838	0.65
758.015	0.58
758.191	0.64
758.368	0.72
758.545	0.74
758.721	0.71
758.898	0.44
759.075	0.56
759.251	0.55
759.428	0.55
759.605	0.48
759.781	0.55
759.958	0.54
760.134	0.61
760.311	0.52
760.488	0.6
760.664	0.59
760.841	0.47
761.017	0.37
761.194	0.51
761.37	0.53
761.547	0.5
761.723	0.28
761.899	0.49
762.076	0.28
762.252	0.27
762.429	0.39
762.605	0.44
762.781	0.26
762.958	0.42
763.134	0.32
763.31	0.35
763.486	0.51
763.663	0.13
763.839	0.3
764.015	0.18
764.191	0.25
764.368	0.24
764.544	0.27
764.72	0.34
764.896	0.32
765.072	0.31
765.248	0.27
765.425	0.15
765.601	0.2
765.777	0.18
765.953	0.13
766.129	0.12
766.305	0.2
766.481	0.35
766.657	0.19
766.833	0.36
767.009	0.09
767.185	0.23
767.361	0.09
767.537	0.11
767.713	0.26
767.889	0.17
768.065	0.22
768.24	-0.06
768.416	0.26
768.592	0.15
768.768	0.08
768.944	0.27
769.12	0.11
769.295	0.17
769.471	0.28
769.647	0.04
769.823	0.29
769.998	0.04
770.174	-0.04
770.35	0.57
770.525	0.35
770.701	0.1
770.877	0.29
771.052	-0.02
771.228	0.34
771.403	0.06
771.579	0.21
771.755	0.47
771.93	0.15
772.106	0
772.281	-0.11
772.457	0.2
772.632	0.24
772.808	-0
772.983	0.15
773.159	-0.06
773.334	0.31
773.509	0.11
773.685	-0.1
773.86	0.36
774.036	0.37
774.211	0.12
774.386	0.13
774.562	0.24
774.737	0.09
774.912	0.06
775.087	0.11
775.263	0.21
775.438	0.12
775.613	0.11
775.788	0.03
775.964	0.45
776.139	0.47
776.314	0.01
776.489	0.24
776.664	0.15
776.839	-0.03
777.014	0.22
777.19	0.3
777.365	0.37
777.54	0.27
777.715	0.08
777.89	0.01
778.065	0.08
778.24	0.22
778.415	0.2
778.59	-0.02
778.765	-0
778.94	0.22
779.115	0.02
779.289	0.14
779.464	0.29
779.639	0.05
779.814	0.03
779.989	0.06
780.164	0.28
780.339	0.27
780.513	0.13
780.688	0.05
780.863	0.02
781.038	0.22
781.212	-0.1
781.387	0.14
781.562	0.45
781.737	-0.01
781.911	0.24
782.086	-0.07
782.261	0.19
782.435	0.32
782.61	0.11
782.784	0.05
782.959	0.39
783.134	-0.14
783.308	0.1
783.483	0.16
783.657	0.49
783.832	0.24
784.006	-0.22
784.181	0.01
784.355	0.43
784.53	-0.14
784.704	0.08
784.878	0.34
785.053	0.2
785.227	0.44
785.402	0.41
785.576	-0.04
785.75	0.22
785.925	-0.01
786.099	0.19
786.273	0.19
786.448	0.41
786.622	0.26
786.796	0.12
786.97	0.09
787.145	0.45
787.319	-0.31
787.493	-0.01
787.667	-0.15
787.841	0.06
788.015	0.37
788.19	0.08
788.364	-0.02
788.538	0.3
788.712	0.18
788.886	0.19
789.06	0.42
789.234	0.16
789.408	-0.15
789.582	0.12
789.756	0.29
789.93	-0.03
790.104	0.08
790.278	0.07
790.452	0.02
790.626	0.25
790.8	0.05
790.973	0.27
791.147	0.35
791.321	0.21
791.495	0.48
791.669	0.29
791.843	0.1
792.016	0.29
792.19	0.42
792.364	-0.18
792.538	0.42
792.711	0.35
792.885	0.14
793.059	-0.12
793.233	-0.32
793.406	0.31
793.58	0.17
793.754	-0.01
793.927	0.16
794.101	0.45
794.274	0.19
794.448	0.29
794.622	-0.05
794.795	0.2
794.969	0.01
795.142	0.38
795.316	0.17
795.489	0.15
795.663	0.5
795.836	0.26
796.009	-0.07
796.183	0.52
796.356	0.19
796.53	0
796.703	0.11
796.876	0.62
797.05	-0.05
797.223	-0.04
797.396	0.29
797.57	-0.06
797.743	0.43
797.916	0.25
798.09	0.05
798.263	0.6
798.436	0.19
798.609	0.12
798.782	-0
798.956	0.13
799.129	0.15
799.302	-0.09
799.475	-0.02
799.648	-0.1
799.821	0.06
799.994	0.08
800.167	-0.1
800.34	0.4
800.514	0.32
800.687	0
800.86	0.1
801.033	0.14
801.206	0.24
801.379	-0
801.551	0.21
801.724	0.51
801.897	0.56
802.07	-0.17
802.243	-0.34
802.416	0.45
802.589	0.16
802.762	0.52
802.935	0.22
803.107	0.23
803.28	0.39
803.453	0.21
803.626	0.1
803.798	0.35
803.971	-0.05
804.144	0.42
804.317	0.53
804.489	0.22
804.662	0.06
804.835	0.07
805.007	-0.14
805.18	0.66
805.353	0.38
805.525	-0.22
805.698	-0.05
805.87	0.4
806.043	0.4
806.215	0.1
806.388	-0.15
806.56	0.05
806.733	0.45
806.905	0.05
807.078	0.12
807.25	-0.22
807.423	0.29
807.595	0.35
807.768	0.12
807.94	0.31
808.112	0.23
808.285	-0.02
808.457	-0
808.629	0.23
808.802	0.37
808.974	0.06
809.146	0.08
809.318	-0.33
809.491	0.14
809.663	0.42
809.835	0
810.007	0.3
810.18	0.41
810.352	0.01
810.524	-0.06
810.696	0.6
810.868	0.26
811.04	-0.02
811.212	0.03
811.384	0.46
811.556	0.04
811.728	0.14
811.901	0.64
812.073	-0.02
812.245	-0.17
812.417	-0.03
812.589	-0.27
812.76	0.2
812.932	0.15
813.104	0.78
813.276	0.1
813.448	0.41
813.62	0.19
813.792	0.47
813.964	-0.07
814.136	0.36
814.307	0.38
814.479	-0.01
814.651	0.09
814.823	0.56
814.995	0.18
815.166	0.45
815.338	-0
815.51	-0.29
815.681	1.11
815.853	0.19
816.025	-0.27
816.196	0.58
816.368	0.47
816.54	-0.26
816.711	-0.36
816.883	0.59
817.054	0.95
817.226	-0.29
817.398	-0.08
817.569	0.17
817.741	0.29
817.912	0.01
818.084	0.16
818.255	0.58
818.426	0.29
818.598	0.03
818.769	0.07
818.941	0.53
819.112	0.89
819.283	0.14
819.455	0.32
819.626	0.26
819.798	0.37
819.969	0.47
820.14	0.42
820.311	0.15
820.483	0.56
820.654	0.55
820.825	0.07
820.996	-0.43
821.168	-0.14
821.339	0.16
821.51	-0.24
821.681	1.21
821.852	0.09
822.023	-0.23
822.195	-0.23
822.366	0.77
822.537	0.41
822.708	0.1
822.879	-0.13
823.05	0.55
823.221	0.06
823.392	0.67
823.563	0.4
823.734	0.76
823.905	0.19
824.076	0.54
824.247	0.11
824.418	-0.38
824.589	0.89
824.759	0.11
824.93	0.06
825.101	-0.12
825.272	0.62
825.443	0.12
825.614	0.95
825.784	-1.15
825.955	0.86
826.126	1.44
826.297	0.34
826.467	0.69
826.638	0.88
826.809	-0.85
826.98	0.3
827.15	0.59
827.321	0.3
827.492	0.78
827.662	0.47
827.833	1
828.003	0.23
828.174	-0.69
828.345	0.27
828.515	0.44
828.686	0.59
828.856	-0.22
829.027	0.18
829.197	0.4
829.368	0.67
829.538	-0.34
829.709	0.24
829.879	0.61
830.049	0.58
830.22	0.49
830.39	0.41
830.56	0.39
830.731	0.42
830.901	-0.18
831.072	0.6
831.242	0.82
831.412	-0.29
831.582	0.64
831.753	-0.71
831.923	0.58
832.093	0.23
832.263	0.51
832.434	-0.05
832.604	-0.5
832.774	0.8
832.944	-0.11
833.114	0.24
833.284	0.3
833.454	0.21
833.624	-0.08
833.795	0.22
833.965	0.87
834.135	0.83
834.305	-1.02
834.475	-0.15
834.645	0.21
834.815	-0.37
834.985	0.03
835.155	-0.02
835.325	0.73
835.494	0.69
835.664	-0
835.834	-0.4
836.004	0.78
836.174	0.23
836.344	0.45
836.514	-0.79
836.684	0.15
836.853	0.87
837.023	0.42
837.193	-0.6
837.363	1.07
837.532	0.96
837.702	0.36
837.872	-0.62
838.041	0.79
838.211	1.5
838.381	-0.09
838.55	0.02
838.72	2.29
838.89	0.71
839.059	0.26
839.229	-0.74
839.398	1.91
839.568	0.43
839.738	0.79
839.907	1.06
840.077	-0.01
840.246	-0.3
840.416	-0.58
840.585	-0.69
840.755	0.93
840.924	0.9
841.093	-0.29
841.263	0.41
841.432	-0.08
841.602	0.43
841.771	-0.35
841.94	0.36
842.11	1.94
842.279	1.69
842.448	-0.54
842.617	-0.6
842.787	1
842.956	0.02
843.125	-0.07
843.294	1.11
843.464	1.03
843.633	0.62
843.802	-1.24
843.971	0.52
844.14	0.75
844.309	0.64
844.479	-0.5
844.648	0.05
844.817	-0.23
844.986	0.54
845.155	-0.01
845.324	0.44
845.493	-0.01
845.662	-0.38
845.831	0.83
846	1.21
846.169	-0.16
846.338	1.11
846.507	0.23
846.676	0.69
846.844	0.19
847.013	0.63
847.182	0.98
847.351	-0.46
847.52	-0.34
847.689	1.2
847.858	0.71
848.026	-0.04
848.195	0.62
848.364	-0.14
848.533	-0.24
848.701	-0.56
848.87	1.01
849.039	0.62
849.207	1.45
849.376	1.91
849.545	1.44
849.713	0.4
849.882	-0.82
850.051	-0.11
850.219	0.55
850.388	1.25
850.556	-0.22
850.725	-0.69
850.893	0.75
851.062	0.15
851.23	1.37
851.399	-0.4
851.567	0.36
851.736	0.64
851.904	-0.14
852.073	0.53
852.241	1.6
852.41	0.41
852.578	0.06
852.746	1.05
852.915	1.12
853.083	-0.85
853.251	-0.75
853.42	0.21
853.588	1.58
853.756	1.1
853.924	0.47
854.093	0.31
854.261	0.1
854.429	-0.75
854.597	1.82
854.765	-0.54
854.934	0.71
855.102	0.44
855.27	1.28
855.438	0.96
855.606	0.85
855.774	1.75
855.942	-0.26
856.11	-1.42
856.278	1.98
856.446	1.84
856.614	0.02
856.782	-0.19
856.95	2.14
857.118	1.16
857.286	1.1
857.454	0.6
857.622	1.72
857.79	1.33
857.958	0.55
858.126	1.04
858.294	-1.29
858.462	-0.32
858.629	0
858.797	-0.84
858.965	0.9
859.133	0.14
859.301	-0.13
859.468	1.02
859.636	0.09
859.804	1.76
859.971	1.57
860.139	-0.85
860.307	1.73
860.474	0.74
860.642	-0.23
860.81	-0.33
860.977	0.8
861.145	1.55
861.313	-0.15
861.48	0.55
861.648	1.51
861.815	0.41
861.983	-1.2
862.15	1.19
862.318	1.21
862.485	0.82
862.653	-0.55
862.82	0.91
862.988	2.17
863.155	0.07
863.322	-0.51
863.49	0.4
863.657	-0.85
863.824	1.54
863.992	0.65
864.159	1.17
864.326	1.66
864.494	0.85
864.661	3.53
864.828	-0.13
864.996	2.86
865.163	2.19
865.33	0.39
865.497	-1.95
865.664	-0.17
865.832	-1.62
865.999	0.25
866.166	0.14
866.333	-1.46
866.5	-1.43
866.667	1.13
866.834	1.02
867.001	0.93
867.168	-0.52
867.335	1.21
867.502	-1.05
867.669	1.89
867.836	2.5
868.003	0.94
868.17	2.58
868.337	0
868.504	2.46
868.671	-0.87
868.838	-0.04
869.005	0.07
869.172	1.69
869.339	1.51
869.505	0.41
869.672	-0.99
869.839	1.01
870.006	0.52
870.173	-1.19
870.339	1.82
870.506	4.25
870.673	-0.74
870.84	2.1
871.006	1.81
871.173	-0.41
871.34	0.53
871.506	0.62
871.673	1.48
871.839	-1.64
872.006	1.56
872.173	1.67
872.339	0.96
872.506	2.82
872.672	0.4
872.839	-0.71
873.005	-0.43
873.172	4.72
873.338	3.68
873.505	1.63
873.671	2.03
873.838	3.36
874.004	-0.03
874.171	0.88
874.337	1.24
874.503	2.05
874.67	0.14
874.836	1.45
875.002	2.58
875.169	2.42
875.335	2.03
875.501	0.51
875.668	-0.52
875.834	2.04
876	0.97
876.166	3.4
876.332	1.73
876.499	3.9
876.665	-0.08
876.831	1.61
876.997	3.08
877.163	1.18
877.329	-0.76
877.495	2.29
877.662	2.31
877.828	2.97
877.994	0.39
878.16	-0.62
878.326	-0.25
878.492	2.28
878.658	0.4
878.824	0.75
878.99	2.96
879.156	2.52
879.322	2.36
879.487	2.14
879.653	1.02
879.819	1.7
879.985	0.97
880.151	0.55
880.317	0.79
880.483	2.23
880.648	5.14
880.814	-1
880.98	3.06
881.146	-0.63
881.312	0.4
881.477	-0.69
881.643	0.96
881.809	2.66
881.974	3.67
882.14	-0.61
882.306	3.24
882.471	4.55
882.637	-0.16
882.803	2.57
882.968	4.06
883.134	6.29
883.299	1.73
883.465	2.66
883.63	2.34
883.796	1.46
883.961	4.86
884.127	1.83
884.292	-2.87
884.458	-0.38
884.623	-0.38
