Data from Apollo_Calib_20240827__AbsoluteIrradiance__697__10-46-03-173.txt Node

Date: Wed Aug 28 10:46:03 BST 2024
User: biology
Spectrometer: FLMT08252
Trigger mode: 0
Integration Time (sec): 5.000000E-1
Scans to average: 5
Electric dark correction enabled: true
Nonlinearity correction enabled: false
Boxcar width: 0
XAxis mode: Wavelengths
Number of Pixels in Spectrum: 3648
>>>>>Begin Spectral Data<<<<<
179.588	-0
179.809	-0
180.03	-0
180.251	-0
180.473	-0
180.694	0
180.915	0
181.136	-0
181.357	0
181.578	0
181.799	-0
182.02	-0
182.241	-0
182.462	-0
182.683	0
182.904	-0
183.125	0
183.346	0
183.567	0
183.788	-0
184.009	-0
184.23	-0
184.451	0
184.672	-0
184.892	-0
185.113	-0
185.334	0
185.555	-0
185.776	-0
185.996	-0
186.217	0
186.438	-0
186.659	-0
186.879	0
187.1	-0
187.321	-0
187.541	-0
187.762	0
187.983	-0
188.203	-0
188.424	-0
188.644	-0
188.865	-0
189.086	-0
189.306	-0
189.527	-0
189.747	0
189.968	-0
190.188	-0
190.409	-0
190.629	0
190.849	-0
191.07	-0
191.29	0
191.511	-0
191.731	-0
191.951	-0
192.172	-0
192.392	-0
192.612	-0
192.833	-0
193.053	0
193.273	0
193.493	-0
193.714	-0
193.934	0
194.154	0
194.374	-0
194.594	0
194.815	0
195.035	-0
195.255	-0
195.475	-0
195.695	0
195.915	0
196.135	-0
196.355	0
196.575	0
196.795	-0
197.015	-0
197.235	-0
197.455	-0
197.675	0
197.895	-0
198.115	-0
198.335	0
198.555	0
198.775	-0
198.995	-0
199.214	0
199.434	-0
199.654	-0
199.874	-0
200.094	0.35
200.313	-0.82
200.533	-0.92
200.753	-1.07
200.973	0.68
201.192	0.36
201.412	-1.11
201.632	-0.73
201.851	0.41
202.071	-0.65
202.291	-0.78
202.51	-0.98
202.73	-0.21
202.95	-0.65
203.169	-0.63
203.389	-0.21
203.608	-0.35
203.828	-0.66
204.047	-0.69
204.267	0.1
204.486	-0.16
204.706	0.16
204.925	-0.4
205.145	-0.46
205.364	0.28
205.583	0.3
205.803	-0.4
206.022	-0.7
206.242	-0.05
206.461	0.03
206.68	-0.35
206.9	-0.25
207.119	-0.08
207.338	0.46
207.557	-0.66
207.777	-0.26
207.996	-0.21
208.215	0.23
208.434	-0.65
208.654	-0.71
208.873	-0.15
209.092	0.16
209.311	-0.23
209.53	-0.43
209.749	-0.36
209.968	-0.49
210.187	-0.23
210.407	-0.62
210.626	-0.12
210.845	0.02
211.064	-0.05
211.283	-0.23
211.502	0.04
211.721	-0.45
211.94	-0.09
212.159	0.04
212.377	0.27
212.596	0.2
212.815	0.06
213.034	-0.02
213.253	0.28
213.472	0.06
213.691	-0.37
213.91	-0.37
214.128	-0.14
214.347	0.25
214.566	-0.42
214.785	-0.57
215.003	0.07
215.222	-0.24
215.441	-0.08
215.66	-0.33
215.878	-0.23
216.097	0.3
216.316	-0.21
216.534	-0.13
216.753	0.07
216.972	-0.07
217.19	-0.07
217.409	-0.42
217.627	-0.38
217.846	-0.18
218.064	-0.13
218.283	-0.26
218.501	0.27
218.72	0.17
218.938	-0.21
219.157	-0.17
219.375	-0.11
219.594	0.05
219.812	-0.38
220.031	-0.27
220.249	0.25
220.467	0
220.686	-0.03
220.904	-0.29
221.122	-0.36
221.341	0.18
221.559	0.1
221.777	-0.29
221.995	-0.17
222.214	0.05
222.432	-0.15
222.65	0.05
222.868	-0.18
223.086	-0.08
223.305	-0.03
223.523	-0.17
223.741	0.25
223.959	-0.29
224.177	-0.39
224.395	-0.15
224.613	0.01
224.831	0.1
225.049	-0.19
225.267	-0.26
225.485	-0.05
225.703	-0.13
225.921	-0.11
226.139	-0.21
226.357	-0.07
226.575	-0.22
226.793	-0.16
227.011	0.42
227.229	-0.08
227.447	0.07
227.665	-0.26
227.883	-0.31
228.1	-0.07
228.318	0.05
228.536	-0.32
228.754	-0.22
228.972	0.01
229.189	-0.08
229.407	-0.09
229.625	-0.06
229.843	-0.02
230.06	-0.06
230.278	-0.15
230.496	-0.09
230.713	0.07
230.931	0.03
231.149	-0.07
231.366	-0.3
231.584	-0.04
231.801	0.22
232.019	-0.08
232.236	-0.31
232.454	-0.21
232.671	-0.01
232.889	-0.02
233.106	-0.18
233.324	-0.02
233.541	-0.05
233.759	-0.05
233.976	-0.16
234.194	-0.1
234.411	-0.05
234.628	-0.2
234.846	-0.14
235.063	-0.05
235.28	-0.07
235.498	-0.1
235.715	-0.19
235.932	0.01
236.149	-0.11
236.367	-0.17
236.584	-0.08
236.801	-0.06
237.018	0.03
237.236	-0.07
237.453	-0.12
237.67	0.06
237.887	-0.08
238.104	-0.14
238.321	-0.21
238.538	-0.08
238.755	0.01
238.973	-0.24
239.19	0.04
239.407	0.01
239.624	-0.05
239.841	-0.21
240.058	-0.2
240.275	-0.06
240.492	-0.07
240.709	-0.11
240.925	-0.1
241.142	-0.06
241.359	-0.14
241.576	-0.19
241.793	-0.07
242.01	-0.05
242.227	-0.01
242.444	-0.05
242.66	0.03
242.877	-0
243.094	-0.15
243.311	-0.01
243.527	-0.05
243.744	-0.06
243.961	0.02
244.178	-0.09
244.394	-0.05
244.611	0.05
244.828	0.12
245.044	-0.21
245.261	-0.02
245.477	-0.07
245.694	0.02
245.911	-0.15
246.127	-0.03
246.344	0.1
246.56	0.04
246.777	-0.02
246.993	-0.06
247.21	-0.01
247.426	0.07
247.643	-0.08
247.859	-0.14
248.076	-0.11
248.292	0.07
248.508	-0.11
248.725	-0.04
248.941	0.03
249.157	0.12
249.374	-0.06
249.59	-0.09
249.806	0.02
250.023	0.02
250.239	-0.19
250.455	-0.14
250.671	-0.12
250.888	-0.04
251.104	-0.08
251.32	-0.03
251.536	-0.06
251.752	-0.13
251.969	0.01
252.185	-0.02
252.401	0.14
252.617	-0
252.833	-0.05
253.049	-0.05
253.265	-0.03
253.481	-0
253.697	-0.13
253.913	-0.14
254.129	0.05
254.345	-0.03
254.561	-0.13
254.777	-0.07
254.993	-0.04
255.209	0
255.425	-0
255.641	-0.11
255.857	0.03
256.073	0.06
256.288	-0.16
256.504	-0.18
256.72	-0.04
256.936	0.12
257.152	-0.05
257.367	-0.05
257.583	0.04
257.799	0.05
258.015	-0.1
258.23	-0.12
258.446	0.06
258.662	-0.09
258.877	-0.08
259.093	-0.06
259.309	-0.09
259.524	-0.02
259.74	-0.08
259.955	-0.17
260.171	0.05
260.387	-0.08
260.602	0.02
260.818	0.04
261.033	-0.1
261.249	-0.02
261.464	-0.02
261.68	-0.11
261.895	0.02
262.11	-0.05
262.326	-0.05
262.541	-0.15
262.757	0.02
262.972	-0.01
263.187	-0.05
263.403	-0.05
263.618	0.06
263.833	-0.02
264.049	-0.11
264.264	-0.04
264.479	0.06
264.694	0.05
264.91	-0.09
265.125	-0.03
265.34	0
265.555	0.17
265.77	-0.01
265.986	-0.05
266.201	-0.01
266.416	0.08
266.631	-0.08
266.846	-0.04
267.061	-0.01
267.276	0.07
267.491	-0.1
267.706	-0.03
267.921	-0.04
268.136	-0.01
268.351	-0.07
268.566	-0.07
268.781	0.02
268.996	-0.03
269.211	0
269.426	-0.11
269.641	-0.06
269.856	0.01
270.071	-0.09
270.285	-0.14
270.5	0.02
270.715	-0.01
270.93	-0.07
271.145	-0.07
271.359	0.08
271.574	-0.05
271.789	-0.05
272.004	-0.06
272.218	-0.02
272.433	-0.01
272.648	-0.11
272.862	0.06
273.077	-0.08
273.292	0
273.506	-0.02
273.721	-0
273.936	0.04
274.15	0.09
274.365	-0.05
274.579	0.03
274.794	0.02
275.008	0.01
275.223	-0.11
275.437	-0.1
275.652	0.03
275.866	-0.01
276.081	-0.06
276.295	0.04
276.509	-0.03
276.724	-0.06
276.938	-0.07
277.153	-0.01
277.367	0.05
277.581	-0.02
277.796	-0.08
278.01	-0.09
278.224	0.05
278.438	0.06
278.653	-0.12
278.867	-0.1
279.081	-0.17
279.295	-0.06
279.51	-0.03
279.724	-0.11
279.938	0.04
280.152	-0.02
280.366	-0.06
280.58	0
280.794	0.07
281.008	0.01
281.222	0
281.437	0.05
281.651	-0.03
281.865	0.05
282.079	-0.05
282.293	-0.14
282.507	-0.05
282.721	-0.05
282.935	-0.01
283.148	-0.13
283.362	-0.09
283.576	-0.09
283.79	-0.04
284.004	-0.05
284.218	0.04
284.432	-0.06
284.646	-0.02
284.859	-0.03
285.073	-0.06
285.287	0.03
285.501	-0.05
285.714	-0.06
285.928	0.02
286.142	0
286.356	-0.08
286.569	-0.04
286.783	0.07
286.997	-0.02
287.21	0.02
287.424	0.01
287.637	-0.07
287.851	-0.03
288.065	0.01
288.278	-0.03
288.492	0.04
288.705	-0.07
288.919	0.02
289.132	-0.08
289.346	0.06
289.559	-0.1
289.773	-0.08
289.986	-0.06
290.2	-0
290.413	0.07
290.626	-0.1
290.84	-0.08
291.053	0.01
291.267	0.03
291.48	-0.01
291.693	-0.01
291.906	-0.06
292.12	-0.02
292.333	-0.1
292.546	-0.04
292.76	0.08
292.973	0.02
293.186	0.02
293.399	-0.03
293.612	0.02
293.826	0.01
294.039	-0.08
294.252	-0.06
294.465	0.02
294.678	0.01
294.891	-0.01
295.104	-0.02
295.317	-0.04
295.53	-0.02
295.743	-0.07
295.956	-0.01
296.169	0.02
296.382	0.02
296.595	-0.02
296.808	-0.04
297.021	0.04
297.234	0.04
297.447	-0
297.66	0.01
297.873	0.04
298.086	0.02
298.299	-0.04
298.511	-0.12
298.724	-0.06
298.937	-0.03
299.15	-0.06
299.363	-0.01
299.575	-0.02
299.788	0.01
300.001	-0.07
300.213	-0.07
300.426	-0.01
300.639	-0.01
300.852	-0.06
301.064	0.02
301.277	0.05
301.489	0.05
301.702	0.06
301.915	-0.04
302.127	-0.02
302.34	0.01
302.552	-0.02
302.765	-0.05
302.977	0.02
303.19	-0.02
303.402	-0.04
303.615	-0.02
303.827	-0.03
304.04	-0.03
304.252	-0.02
304.464	-0.03
304.677	0.11
304.889	0.07
305.102	-0.06
305.314	-0.04
305.526	0.05
305.739	0.05
305.951	-0.05
306.163	-0.02
306.375	0.07
306.588	-0.03
306.8	-0.02
307.012	-0.12
307.224	0.03
307.436	0.04
307.649	-0.1
307.861	-0.01
308.073	0.03
308.285	-0.02
308.497	-0.05
308.709	-0.04
308.921	-0.01
309.133	0.02
309.346	-0.01
309.558	-0.03
309.77	0.01
309.982	0.04
310.194	0.04
310.406	-0.06
310.617	0.03
310.829	0.04
311.041	-0
311.253	-0.04
311.465	-0.03
311.677	-0
311.889	-0.02
312.101	-0.03
312.313	0.04
312.524	0.03
312.736	-0.07
312.948	-0.04
313.16	0.04
313.372	0.01
313.583	-0.01
313.795	-0.03
314.007	-0
314.218	0.01
314.43	-0.01
314.642	-0.08
314.853	-0.05
315.065	-0
315.277	-0.01
315.488	-0.01
315.7	0.01
315.912	0.01
316.123	-0.05
316.335	-0.02
316.546	0.04
316.758	-0.06
316.969	-0
317.181	0
317.392	-0
317.604	0.04
317.815	-0.08
318.026	-0.06
318.238	-0.04
318.449	0
318.661	-0.13
318.872	-0.06
319.083	-0.05
319.295	0.02
319.506	-0.03
319.717	-0
319.929	-0.01
320.14	-0.03
320.351	-0.02
320.562	-0.07
320.774	-0.02
320.985	-0.02
321.196	-0.07
321.407	-0.1
321.618	0.01
321.829	-0.02
322.041	0.01
322.252	-0.03
322.463	-0.01
322.674	-0.03
322.885	-0.06
323.096	-0.05
323.307	0.01
323.518	0.03
323.729	-0.04
323.94	-0.06
324.151	-0.06
324.362	0.01
324.573	-0.04
324.784	-0.07
324.995	0.03
325.206	-0.01
325.417	-0.03
325.628	-0.03
325.838	0.02
326.049	0.02
326.26	0.02
326.471	0.01
326.682	-0.01
326.892	-0.02
327.103	-0.09
327.314	-0.07
327.525	0.02
327.735	-0.08
327.946	-0.04
328.157	-0.06
328.368	0.01
328.578	-0.02
328.789	-0.01
328.999	-0.01
329.21	-0.04
329.421	-0.02
329.631	-0.05
329.842	-0.06
330.052	-0.02
330.263	0.02
330.473	0.04
330.684	-0.04
330.894	-0
331.105	0.01
331.315	-0.03
331.526	-0.1
331.736	0.06
331.947	0.02
332.157	-0.04
332.367	-0.06
332.578	-0.02
332.788	0.01
332.999	0.03
333.209	-0
333.419	-0.06
333.629	0.02
333.84	-0
334.05	-0.03
334.26	0.05
334.47	-0.03
334.681	0.06
334.891	-0.03
335.101	0.01
335.311	0.06
335.521	-0.04
335.732	-0.07
335.942	0.04
336.152	0.04
336.362	-0.03
336.572	0.01
336.782	-0
336.992	-0.05
337.202	-0.02
337.412	-0.01
337.622	0
337.832	-0.04
338.042	-0.02
338.252	-0.07
338.462	0
338.672	-0.02
338.882	-0.09
339.092	-0.02
339.302	0.05
339.511	0
339.721	-0.04
339.931	-0.06
340.141	0.01
340.351	0.05
340.561	0.01
340.77	-0.02
340.98	-0
341.19	-0.05
341.4	-0.05
341.609	-0.05
341.819	-0.05
342.029	-0.03
342.238	-0.02
342.448	-0.06
342.658	0.01
342.867	-0.02
343.077	-0.03
343.286	0
343.496	-0.01
343.706	0.05
343.915	-0.07
344.125	-0.04
344.334	0.01
344.544	-0.07
344.753	-0.06
344.963	0.01
345.172	-0.06
345.381	-0.03
345.591	-0.05
345.8	-0.01
346.01	0.03
346.219	0.02
346.428	-0.14
346.638	-0.04
346.847	-0.06
347.056	0.05
347.266	-0.05
347.475	-0.01
347.684	0.02
347.893	-0
348.103	0.02
348.312	-0.05
348.521	-0.04
348.73	-0.01
348.94	0.02
349.149	-0.04
349.358	-0.04
349.567	-0.07
349.776	-0.09
349.985	-0.05
350.194	0.02
350.403	0.06
350.612	-0.08
350.821	-0.04
351.03	0
351.239	-0.06
351.448	-0.02
351.657	-0.02
351.866	0.06
352.075	-0.05
352.284	0.02
352.493	-0.09
352.702	0.04
352.911	0.01
353.12	-0.03
353.329	-0.05
353.538	-0
353.746	-0.01
353.955	-0.05
354.164	0.02
354.373	-0.02
354.582	0.04
354.79	0.02
354.999	0.04
355.208	-0.01
355.416	0.04
355.625	-0.07
355.834	-0.07
356.042	0.01
356.251	-0.03
356.46	-0.02
356.668	-0.03
356.877	0.04
357.085	0.02
357.294	-0.05
357.503	-0.01
357.711	-0.02
357.92	0.08
358.128	-0.01
358.337	-0.05
358.545	-0.01
358.754	-0.05
358.962	0.04
359.17	-0.03
359.379	-0.03
359.587	0.02
359.796	-0.04
360.004	0.02
360.212	-0.03
360.421	0.07
360.629	-0.02
360.837	-0.05
361.046	-0
361.254	0.06
361.462	-0.01
361.67	-0.04
361.879	-0.01
362.087	0.05
362.295	0.01
362.503	-0.02
362.711	-0.05
362.92	-0.02
363.128	-0.01
363.336	-0.05
363.544	-0.03
363.752	-0.05
363.96	-0.05
364.168	-0.04
364.376	0.01
364.584	-0.03
364.792	0.02
365	-0.01
365.208	-0.01
365.416	-0.01
365.624	0.04
365.832	-0.03
366.04	0.03
366.248	0.02
366.456	-0.01
366.664	-0.01
366.872	-0.04
367.079	-0
367.287	-0.02
367.495	-0.02
367.703	-0.02
367.911	-0.02
368.118	-0.04
368.326	-0
368.534	-0.02
368.742	0
368.949	-0.09
369.157	-0.06
369.365	0.01
369.572	-0.05
369.78	-0.07
369.988	0.04
370.195	0.01
370.403	0.05
370.61	-0.04
370.818	-0.04
371.026	0.03
371.233	-0.02
371.441	0.05
371.648	-0.04
371.856	0.03
372.063	0.02
372.271	-0.08
372.478	-0.02
372.685	-0.03
372.893	0.03
373.1	-0.04
373.308	-0.06
373.515	0.05
373.722	-0.06
373.93	-0.02
374.137	0.05
374.344	0.03
374.552	-0.01
374.759	-0.04
374.966	-0.02
375.173	-0
375.381	-0.01
375.588	-0.01
375.795	-0.1
376.002	-0.05
376.209	-0.05
376.417	-0.04
376.624	0
376.831	0
377.038	-0.01
377.245	-0.08
377.452	-0.01
377.659	-0.02
377.866	-0.06
378.073	-0.03
378.28	0
378.487	0.04
378.694	-0.02
378.901	-0.02
379.108	-0.02
379.315	0.03
379.522	0.07
379.729	-0.01
379.936	-0.02
380.143	0.02
380.35	-0.01
380.557	-0
380.763	-0.02
380.97	-0.01
381.177	0.01
381.384	0.01
381.591	-0.03
381.797	-0.02
382.004	-0
382.211	-0.03
382.418	-0.08
382.624	0.01
382.831	-0
383.038	-0.02
383.244	0.01
383.451	-0.01
383.658	0.01
383.864	-0.05
384.071	-0.04
384.277	0.04
384.484	-0.03
384.69	0.05
384.897	-0
385.103	-0.02
385.31	-0.05
385.516	-0.04
385.723	-0.07
385.929	-0.03
386.136	-0.01
386.342	0
386.549	-0.03
386.755	0.04
386.961	0
387.168	-0.05
387.374	-0.01
387.58	0.03
387.787	-0.04
387.993	-0
388.199	-0
388.406	-0.06
388.612	-0.03
388.818	-0.02
389.024	-0.08
389.231	-0.01
389.437	0.01
389.643	0
389.849	-0.04
390.055	-0.02
390.261	0.02
390.467	-0.04
390.674	-0.05
390.88	-0.03
391.086	0
391.292	-0.11
391.498	-0.01
391.704	-0.04
391.91	-0.02
392.116	-0.05
392.322	-0.12
392.528	-0.03
392.734	-0.03
392.94	-0.03
393.146	-0.02
393.352	0.01
393.557	-0.02
393.763	-0.01
393.969	0.01
394.175	-0.07
394.381	-0.01
394.587	-0.06
394.792	-0.03
394.998	0.01
395.204	0.06
395.41	-0.07
395.615	-0.02
395.821	-0.03
396.027	-0.01
396.233	-0.06
396.438	0.02
396.644	0
396.85	0.01
397.055	-0.03
397.261	0
397.466	-0.04
397.672	-0.05
397.878	-0.03
398.083	0
398.289	-0.03
398.494	0.01
398.7	0.01
398.905	-0.1
399.111	0.01
399.316	-0.06
399.522	-0.03
399.727	-0.01
399.932	-0.07
400.138	-0.06
400.343	0.04
400.549	0.03
400.754	-0.05
400.959	0.02
401.165	-0.03
401.37	-0.03
401.575	0.03
401.78	-0.02
401.986	-0.04
402.191	-0.05
402.396	-0.01
402.601	0.02
402.807	-0.01
403.012	-0
403.217	0.01
403.422	-0.02
403.627	-0.01
403.832	-0.03
404.037	-0
404.243	-0.02
404.448	-0.05
404.653	-0.07
404.858	-0.01
405.063	0.01
405.268	-0.05
405.473	-0.04
405.678	-0.04
405.883	0.11
406.088	-0
406.293	-0.05
406.498	-0.06
406.703	0.05
406.907	-0.02
407.112	-0.09
407.317	-0.05
407.522	-0.02
407.727	-0.09
407.932	0.01
408.136	0.03
408.341	-0.02
408.546	-0.06
408.751	-0.03
408.956	-0.01
409.16	0.02
409.365	-0.04
409.57	-0.02
409.774	-0.03
409.979	0.03
410.184	-0.03
410.388	-0.08
410.593	0.02
410.798	-0.02
411.002	-0.06
411.207	0.01
411.411	-0.02
411.616	-0.1
411.82	-0.09
412.025	-0.03
412.229	-0.07
412.434	0.06
412.638	-0.02
412.843	-0.02
413.047	-0.02
413.252	-0.04
413.456	-0.03
413.66	0.03
413.865	-0.06
414.069	0.05
414.273	-0.02
414.478	-0.06
414.682	-0
414.886	-0.08
415.091	-0.11
415.295	-0.09
415.499	0
415.703	-0.02
415.908	-0.01
416.112	-0.11
416.316	0.03
416.52	-0.02
416.724	-0.11
416.929	-0.04
417.133	0.08
417.337	-0.07
417.541	-0.03
417.745	-0.05
417.949	-0.03
418.153	-0.02
418.357	-0.1
418.561	0.01
418.765	-0.05
418.969	0.08
419.173	-0.01
419.377	-0.05
419.581	0.06
419.785	-0.07
419.989	-0.08
420.193	-0.05
420.397	-0.09
420.601	-0
420.804	0.02
421.008	-0.03
421.212	-0.03
421.416	0.05
421.62	-0.07
421.823	-0.03
422.027	0.05
422.231	-0.03
422.435	-0.04
422.638	0.05
422.842	-0.01
423.046	-0.07
423.249	0.03
423.453	0.04
423.657	-0.04
423.86	-0.07
424.064	-0.04
424.268	0.02
424.471	-0.02
424.675	0.06
424.878	0.04
425.082	-0.02
425.285	0.05
425.489	-0
425.692	-0.04
425.896	-0.05
426.099	-0.01
426.303	-0.07
426.506	-0.14
426.71	0
426.913	0.02
427.116	0.07
427.32	-0.03
427.523	-0.03
427.726	0.04
427.93	-0.06
428.133	-0.04
428.336	-0.06
428.54	-0.07
428.743	0.02
428.946	0.01
429.149	-0.03
429.353	0.01
429.556	-0.02
429.759	-0.04
429.962	-0.09
430.165	-0.01
430.368	0
430.571	-0.03
430.775	-0
430.978	-0.02
431.181	-0.05
431.384	-0.01
431.587	-0.01
431.79	-0.02
431.993	0.03
432.196	-0.03
432.399	-0.02
432.602	0.03
432.805	-0.04
433.008	-0
433.211	-0.07
433.414	-0.02
433.616	-0.04
433.819	-0.04
434.022	-0.11
434.225	-0
434.428	0.02
434.631	0.09
434.833	-0.01
435.036	-0.02
435.239	0
435.442	-0.02
435.645	0.01
435.847	0
436.05	0.02
436.253	-0
436.455	-0.07
436.658	0.01
436.861	0.03
437.063	-0.05
437.266	-0.03
437.468	-0.03
437.671	0.08
437.874	-0.02
438.076	-0.04
438.279	-0.06
438.481	-0.04
438.684	-0.07
438.886	0.01
439.089	-0.11
439.291	-0.03
439.494	-0.01
439.696	-0.06
439.899	-0.08
440.101	-0.03
440.303	-0.09
440.506	0.03
440.708	-0.03
440.91	0.03
441.113	-0.08
441.315	0.03
441.517	-0.05
441.72	0.02
441.922	-0.05
442.124	-0.06
442.326	-0.01
442.529	0.09
442.731	-0.06
442.933	0.04
443.135	-0.02
443.337	-0.06
443.539	-0.02
443.742	-0.04
443.944	0.03
444.146	-0.03
444.348	-0.05
444.55	-0.02
444.752	-0
444.954	-0.06
445.156	0.01
445.358	-0.02
445.56	0.03
445.762	-0.04
445.964	0.01
446.166	-0.04
446.368	-0.05
446.57	0.06
446.772	0.01
446.974	-0
447.175	-0.03
447.377	-0.04
447.579	-0.04
447.781	-0.08
447.983	0.08
448.184	-0.01
448.386	0.03
448.588	-0.05
448.79	-0
448.991	-0.05
449.193	-0.05
449.395	-0.01
449.597	0.05
449.798	0.01
450	0
450.202	-0.04
450.403	-0.05
450.605	0.01
450.806	-0.03
451.008	-0.07
451.21	-0.01
451.411	0.02
451.613	0.01
451.814	-0.02
452.016	-0.01
452.217	0
452.419	0.06
452.62	-0.04
452.821	0
453.023	0.05
453.224	0.04
453.426	-0.02
453.627	0.01
453.828	-0.01
454.03	-0.02
454.231	-0
454.432	-0.06
454.634	0.08
454.835	-0.03
455.036	-0.07
455.238	0
455.439	0.03
455.64	-0.06
455.841	-0.07
456.042	0.08
456.244	0.02
456.445	-0.08
456.646	-0.07
456.847	-0.05
457.048	0.03
457.249	0.04
457.45	0.16
457.651	-0.13
457.852	0.03
458.054	-0.04
458.255	-0.08
458.456	-0
458.657	-0.01
458.858	-0.05
459.058	-0
459.259	0
459.46	-0
459.661	-0.04
459.862	0.04
460.063	-0.06
460.264	-0.01
460.465	-0.1
460.666	0.07
460.866	-0.01
461.067	0.01
461.268	-0.07
461.469	-0.07
461.67	-0.01
461.87	-0.05
462.071	-0.08
462.272	-0.09
462.473	-0.03
462.673	0
462.874	-0.07
463.075	-0.05
463.275	-0.1
463.476	0.05
463.676	-0.06
463.877	-0.02
464.078	-0.01
464.278	-0.02
464.479	-0.04
464.679	0.03
464.88	-0.04
465.08	0.02
465.281	-0.05
465.481	-0.04
465.682	-0.06
465.882	-0.02
466.083	-0.03
466.283	-0
466.483	-0.02
466.684	-0.09
466.884	-0.06
467.085	-0.02
467.285	0.01
467.485	-0.03
467.686	-0.03
467.886	-0.07
468.086	-0.02
468.286	-0.03
468.487	0.02
468.687	-0.05
468.887	-0.04
469.087	-0.01
469.287	-0.02
469.488	-0.08
469.688	0.03
469.888	0.07
470.088	0.02
470.288	0.05
470.488	-0
470.688	-0.06
470.888	-0.05
471.088	-0.02
471.288	0.01
471.488	0.02
471.688	0.01
471.888	-0.03
472.088	0.01
472.288	0.02
472.488	-0.03
472.688	-0.03
472.888	-0.04
473.088	-0.02
473.288	-0.01
473.488	-0.03
473.688	0.04
473.887	-0.02
474.087	-0.05
474.287	0
474.487	-0.07
474.687	0
474.886	-0.03
475.086	-0.04
475.286	0
475.486	-0
475.685	-0.01
475.885	-0.05
476.085	0
476.284	-0
476.484	-0.05
476.684	-0.01
476.883	0.01
477.083	0.01
477.282	-0.01
477.482	0.03
477.681	0.04
477.881	-0.02
478.08	-0.02
478.28	-0.05
478.479	-0.02
478.679	0.05
478.878	-0.03
479.078	-0.05
479.277	-0.03
479.477	-0.04
479.676	0
479.875	-0
480.075	-0.07
480.274	0.01
480.473	0.01
480.673	-0.06
480.872	-0.01
481.071	0
481.271	0.02
481.47	-0.01
481.669	-0.02
481.868	-0.06
482.067	-0.02
482.267	-0.04
482.466	-0.05
482.665	-0.05
482.864	-0.03
483.063	-0.04
483.262	-0.01
483.461	0.01
483.661	0.01
483.86	-0.03
484.059	-0.03
484.258	-0.01
484.457	-0.02
484.656	-0
484.855	0.03
485.054	-0.09
485.253	-0.04
485.452	-0.04
485.651	-0
485.849	-0.02
486.048	-0.05
486.247	-0.04
486.446	-0
486.645	-0.05
486.844	-0.02
487.043	-0.03
487.241	0.01
487.44	-0.04
487.639	-0.04
487.838	0.02
488.037	-0
488.235	0.05
488.434	0
488.633	-0.03
488.831	-0.02
489.03	0.03
489.229	0.01
489.427	-0.03
489.626	0.03
489.825	0.04
490.023	-0.01
490.222	-0.01
490.42	-0
490.619	0.02
490.817	0.01
491.016	-0.02
491.214	-0
491.413	-0.04
491.611	0.01
491.81	0
492.008	0.01
492.207	0.02
492.405	-0.02
492.604	-0.04
492.802	-0.04
493	-0.02
493.199	-0.03
493.397	0
493.595	-0.03
493.794	-0.02
493.992	0.02
494.19	-0.02
494.388	-0
494.587	-0.03
494.785	-0.01
494.983	-0.03
495.181	0.01
495.379	-0.01
495.578	-0.03
495.776	0.01
495.974	-0
496.172	-0.02
496.37	-0.03
496.568	-0.03
496.766	-0.03
496.964	0.01
497.162	-0.01
497.36	-0.04
497.558	0.01
497.756	0.02
497.954	-0.02
498.152	-0.04
498.35	-0.01
498.548	-0.01
498.746	-0.01
498.944	-0.04
499.142	-0.01
499.34	-0.06
499.538	-0
499.736	-0.04
499.933	0.02
500.131	0.03
500.329	0.03
500.527	0
500.725	0.02
500.922	0.02
501.12	-0.02
501.318	-0.01
501.516	-0.03
501.713	-0.02
501.911	-0.02
502.109	-0.03
502.306	0.01
502.504	-0
502.701	-0.02
502.899	-0.02
503.097	0.04
503.294	-0.01
503.492	-0.02
503.689	0.01
503.887	0.01
504.084	0.05
504.282	-0.02
504.479	-0.03
504.677	0.02
504.874	-0.05
505.072	-0
505.269	0
505.466	0.01
505.664	-0
505.861	-0.02
506.059	-0.04
506.256	0.01
506.453	-0.03
506.651	0.03
506.848	0.04
507.045	-0.02
507.242	0.01
507.44	-0.01
507.637	-0
507.834	-0.01
508.031	0.02
508.229	-0.01
508.426	-0.01
508.623	0
508.82	-0.03
509.017	-0.05
509.214	-0.02
509.411	-0
509.608	-0.04
509.805	-0
510.003	-0.01
510.2	-0.01
510.397	0.02
510.594	-0.04
510.791	-0.03
510.988	-0.02
511.184	0.03
511.381	0.01
511.578	-0.03
511.775	0.02
511.972	-0.01
512.169	-0.02
512.366	-0.01
512.563	0.02
512.76	-0.02
512.956	0
513.153	-0.02
513.35	-0.01
513.547	-0.02
513.744	-0.03
513.94	-0.04
514.137	0.02
514.334	0.02
514.53	-0.02
514.727	-0.01
514.924	0.05
515.12	-0.02
515.317	-0.04
515.514	-0.02
515.71	-0.02
515.907	-0.02
516.103	-0.01
516.3	-0.01
516.497	0.02
516.693	0.01
516.89	-0.02
517.086	-0.03
517.283	0.02
517.479	0.01
517.676	-0
517.872	0
518.068	-0.02
518.265	-0.02
518.461	-0.03
518.658	-0.04
518.854	0.01
519.05	-0.02
519.247	-0.03
519.443	0.02
519.639	0.02
519.836	0.02
520.032	-0.01
520.228	-0.02
520.424	0.05
520.621	0.01
520.817	-0.02
521.013	-0
521.209	0
521.405	0.04
521.601	-0
521.798	-0.01
521.994	0.02
522.19	-0.02
522.386	-0.01
522.582	-0.01
522.778	-0.02
522.974	0
523.17	-0.02
523.366	-0.03
523.562	0.02
523.758	0.01
523.954	-0.03
524.15	-0.01
524.346	-0
524.542	-0.03
524.738	-0.02
524.934	-0.01
525.129	0
525.325	-0.01
525.521	-0.01
525.717	0.03
525.913	-0.01
526.109	-0
526.304	-0
526.5	0
526.696	0.01
526.892	-0
527.087	0.01
527.283	-0.01
527.479	-0
527.674	-0.03
527.87	-0.01
528.066	-0.01
528.261	0.01
528.457	0.02
528.653	-0.01
528.848	-0.01
529.044	0
529.239	0
529.435	0.01
529.63	-0.02
529.826	0.05
530.021	-0
530.217	0.01
530.412	-0.01
530.608	-0.03
530.803	-0.01
530.999	-0.01
531.194	-0.05
531.389	-0.01
531.585	-0.05
531.78	-0.01
531.975	-0.01
532.171	0.03
532.366	-0.02
532.561	0
532.757	-0.01
532.952	-0.02
533.147	0.01
533.342	0.01
533.538	-0.03
533.733	0.02
533.928	-0
534.123	-0.03
534.318	-0.04
534.513	-0.02
534.709	0.01
534.904	-0.02
535.099	-0.01
535.294	-0
535.489	-0.01
535.684	-0.03
535.879	-0.03
536.074	0.02
536.269	-0.04
536.464	-0.01
536.659	-0.03
536.854	-0
537.049	-0.01
537.244	-0.01
537.439	-0.02
537.634	0.02
537.828	-0
538.023	-0.01
538.218	-0.04
538.413	-0.01
538.608	-0.04
538.803	0.01
538.997	-0.03
539.192	0.03
539.387	-0.01
539.582	0.02
539.776	0.02
539.971	-0.01
540.166	-0.01
540.36	-0.03
540.555	-0.01
540.75	-0.01
540.944	-0.01
541.139	-0.04
541.334	-0.03
541.528	0
541.723	0.01
541.917	-0.02
542.112	-0.06
542.306	-0.02
542.501	0.01
542.695	0.02
542.89	-0.02
543.084	0.02
543.279	0.01
543.473	-0
543.668	0
543.862	-0.01
544.056	0.01
544.251	-0.01
544.445	0.02
544.64	-0.01
544.834	-0.01
545.028	0
545.222	0.01
545.417	0.01
545.611	-0
545.805	0
546	0
546.194	0.02
546.388	-0.03
546.582	0.01
546.776	-0.02
546.97	-0
547.165	0.01
547.359	0.03
547.553	-0.02
547.747	-0
547.941	0.01
548.135	-0
548.329	0.02
548.523	-0.01
548.717	-0.02
548.911	-0.01
549.105	-0
549.299	-0.02
549.493	0.02
549.687	-0
549.881	0.02
550.075	-0.03
550.269	-0.02
550.463	0.01
550.657	-0.03
550.85	-0.02
551.044	-0.02
551.238	0.01
551.432	-0.02
551.626	-0.03
551.82	-0.03
552.013	-0.04
552.207	-0.01
552.401	0
552.594	-0
552.788	-0.02
552.982	0
553.176	-0.01
553.369	-0
553.563	-0.01
553.756	-0.04
553.95	-0.02
554.144	-0
554.337	0.02
554.531	0
554.724	-0.01
554.918	-0.02
555.111	0.01
555.305	0.01
555.498	0.03
555.692	0.03
555.885	0
556.079	0
556.272	-0.03
556.466	0.01
556.659	0
556.852	-0.01
557.046	-0.02
557.239	0.02
557.432	-0.03
557.626	-0.03
557.819	0.01
558.012	0.02
558.206	0.01
558.399	-0.03
558.592	-0
558.785	-0.02
558.979	0.03
559.172	0
559.365	0
559.558	0.02
559.751	0
559.944	0.02
560.138	-0.01
560.331	-0.01
560.524	-0.03
560.717	0.01
560.91	0
561.103	0.03
561.296	-0.01
561.489	0.01
561.682	-0.02
561.875	0.02
562.068	0.01
562.261	-0.01
562.454	0.05
562.647	0.03
562.84	0.02
563.032	0.02
563.225	0
563.418	-0.03
563.611	-0.02
563.804	-0.01
563.997	-0.04
564.19	-0.04
564.382	-0.06
564.575	-0.01
564.768	0.01
564.961	0
565.153	-0.02
565.346	0.03
565.539	0.01
565.731	0.01
565.924	-0
566.117	0.02
566.309	-0.02
566.502	-0.03
566.695	0.01
566.887	-0
567.08	-0.02
567.272	-0
567.465	-0.04
567.657	0.01
567.85	0.03
568.042	0.01
568.235	0.02
568.427	-0.03
568.62	0.01
568.812	0
569.005	-0
569.197	-0.05
569.389	-0
569.582	0
569.774	-0.01
569.966	-0.04
570.159	-0.03
570.351	-0
570.543	-0.05
570.736	-0
570.928	-0.02
571.12	0.01
571.312	-0
571.505	-0.06
571.697	0.04
571.889	-0.01
572.081	-0.02
572.273	-0.03
572.465	-0.01
572.658	-0.01
572.85	0.01
573.042	-0.03
573.234	-0.01
573.426	0.01
573.618	-0.05
573.81	-0.01
574.002	0.01
574.194	0.01
574.386	-0.04
574.578	-0.07
574.77	-0.02
574.962	-0.03
575.154	-0.03
575.346	-0.03
575.538	-0.02
575.729	-0.04
575.921	0.02
576.113	-0.02
576.305	0.01
576.497	-0.01
576.689	-0.01
576.88	-0.02
577.072	0.02
577.264	-0.04
577.456	-0.02
577.647	-0.06
577.839	-0.01
578.031	0.03
578.223	-0.03
578.414	-0.05
578.606	0.02
578.798	-0.01
578.989	-0.04
579.181	-0.01
579.372	-0.02
579.564	-0.03
579.755	-0.01
579.947	-0.02
580.139	0.01
580.33	-0.03
580.522	-0.02
580.713	-0.07
580.905	-0.04
581.096	-0.01
581.287	-0
581.479	-0.03
581.67	0.01
581.862	0.01
582.053	-0.02
582.244	-0.06
582.436	-0.02
582.627	-0
582.818	-0.02
583.01	-0.03
583.201	0.01
583.392	0.03
583.583	0
583.775	0.01
583.966	-0.01
584.157	0
584.348	-0.03
584.54	-0.04
584.731	0.01
584.922	-0
585.113	-0.05
585.304	0.01
585.495	0.01
585.686	-0.03
585.877	0.01
586.068	-0
586.259	0.01
586.45	0
586.641	-0.03
586.832	-0.08
587.023	0
587.214	-0.03
587.405	0
587.596	-0.03
587.787	0.02
587.978	0.01
588.169	-0.04
588.36	-0.04
588.551	-0.02
588.742	-0.02
588.932	0
589.123	0
589.314	-0
589.505	0
589.696	-0
589.886	-0.03
590.077	-0.06
590.268	-0.03
590.458	-0.04
590.649	-0.04
590.84	0.03
591.03	-0.03
591.221	-0.03
591.412	-0.03
591.602	-0.01
591.793	0.03
591.984	-0.05
592.174	-0.01
592.365	0.04
592.555	-0.03
592.746	0.01
592.936	0.01
593.127	0
593.317	0.05
593.508	-0.03
593.698	-0
593.889	-0.01
594.079	0.01
594.269	-0.02
594.46	0
594.65	-0.01
594.84	-0.02
595.031	-0.03
595.221	-0.01
595.411	-0.06
595.602	0.02
595.792	-0.01
595.982	-0.01
596.172	0.05
596.363	-0.02
596.553	-0.02
596.743	-0.01
596.933	-0.01
597.123	0.04
597.314	-0.03
597.504	-0.02
597.694	0.01
597.884	-0.02
598.074	-0.01
598.264	-0.04
598.454	0.01
598.644	-0
598.834	-0
599.024	-0.06
599.214	-0.05
599.404	0.02
599.594	-0.05
599.784	-0.07
599.974	0.06
600.164	0.03
600.354	-0.05
600.544	-0.05
600.734	0
600.924	0.03
601.114	-0.05
601.303	-0.02
601.493	-0.03
601.683	-0.04
601.873	0
602.063	-0.08
602.252	0.01
602.442	-0.08
602.632	-0.05
602.821	-0.06
603.011	-0
603.201	-0.03
603.39	-0.02
603.58	-0.04
603.77	-0.02
603.959	-0
604.149	-0.04
604.339	-0.03
604.528	0.03
604.718	0.01
604.907	-0.03
605.097	-0.05
605.286	-0.04
605.476	-0
605.665	0.02
605.855	-0.03
606.044	0.03
606.234	0.02
606.423	-0.03
606.612	-0.03
606.802	-0.01
606.991	-0
607.181	0.01
607.37	-0.04
607.559	-0.02
607.749	-0.04
607.938	-0
608.127	-0.04
608.316	-0.04
608.506	-0.01
608.695	-0.01
608.884	-0.04
609.073	-0.01
609.263	-0.01
609.452	0.01
609.641	0.01
609.83	-0.07
610.019	-0.02
610.208	-0.01
610.397	-0.01
610.586	0.03
610.775	-0.03
610.965	-0.02
611.154	-0.04
611.343	-0.01
611.532	-0
611.721	-0.05
611.91	-0.05
612.099	-0.01
612.287	-0.01
612.476	-0.05
612.665	0
612.854	-0.04
613.043	0.03
613.232	-0.03
613.421	-0.06
613.61	-0.02
613.798	-0.02
613.987	0.01
614.176	-0.01
614.365	0.02
614.554	-0.01
614.742	0.02
614.931	-0.02
615.12	0.01
615.309	-0.04
615.497	-0.01
615.686	-0.03
615.875	-0.03
616.063	-0.02
616.252	-0.05
616.44	-0.02
616.629	0.02
616.818	0
617.006	-0.05
617.195	-0.03
617.383	-0
617.572	-0.01
617.76	-0.02
617.949	-0.04
618.137	0
618.326	0.04
618.514	-0.01
618.703	-0.02
618.891	0.03
619.079	-0.06
619.268	0.01
619.456	-0.04
619.644	0.03
619.833	-0.06
620.021	-0.04
620.209	-0.03
620.398	0
620.586	-0
620.774	-0
620.962	-0.01
621.151	0.02
621.339	0.02
621.527	-0.03
621.715	-0.03
621.903	-0.06
622.092	-0.07
622.28	0.01
622.468	-0.02
622.656	-0.02
622.844	0.01
623.032	-0.01
623.22	-0.05
623.408	0
623.596	0.02
623.784	0.01
623.972	-0.04
624.16	-0.03
624.348	0.03
624.536	-0.03
624.724	-0.02
624.912	0.02
625.1	0.05
625.288	-0.07
625.476	-0.03
625.664	0.01
625.851	-0.05
626.039	-0.02
626.227	-0.01
626.415	-0.03
626.603	-0.07
626.79	-0.02
626.978	0
627.166	0.01
627.354	-0.03
627.541	-0.03
627.729	-0.07
627.917	-0
628.104	0.01
628.292	-0.03
628.48	-0.02
628.667	0.01
628.855	0.02
629.042	0
629.23	-0.04
629.418	0.01
629.605	0.01
629.793	-0.03
629.98	-0.02
630.168	-0.03
630.355	-0.02
630.543	-0.01
630.73	-0.06
630.917	0.02
631.105	0.05
631.292	-0.03
631.48	-0.02
631.667	0.03
631.854	-0.02
632.042	-0.03
632.229	-0.07
632.416	-0.03
632.604	-0.03
632.791	-0.03
632.978	0
633.165	0
633.353	0.04
633.54	0.01
633.727	-0.1
633.914	-0.06
634.101	-0.1
634.289	0.01
634.476	-0.06
634.663	-0.04
634.85	0.05
635.037	-0.07
635.224	-0.1
635.411	0.01
635.598	-0.01
635.785	-0.02
635.972	-0.02
636.159	-0
636.346	-0.05
636.533	-0.01
636.72	-0.03
636.907	-0.03
637.094	-0
637.281	-0.01
637.468	-0.02
637.655	-0.05
637.842	-0.05
638.029	-0.02
638.215	-0.01
638.402	-0.01
638.589	-0.02
638.776	-0.04
638.963	-0.05
639.149	0.02
639.336	0.06
639.523	-0.05
639.709	-0.03
639.896	0
640.083	0.05
640.27	0.01
640.456	-0.04
640.643	-0.01
640.829	-0.02
641.016	-0.02
641.203	-0.06
641.389	0.01
641.576	-0.02
641.762	-0.01
641.949	-0.06
642.135	0.01
642.322	-0.05
642.508	-0.05
642.695	-0.01
642.881	-0.05
643.068	-0.03
643.254	-0.05
643.441	-0
643.627	-0.04
643.813	-0.03
644	0.02
644.186	-0.05
644.372	-0.05
644.559	-0.03
644.745	-0.04
644.931	-0.05
645.118	-0.02
645.304	-0.01
645.49	-0.03
645.676	-0.02
645.862	-0.03
646.049	0.07
646.235	-0.02
646.421	0.05
646.607	0.05
646.793	-0.03
646.979	-0.05
647.165	0.01
647.352	-0.03
647.538	-0
647.724	0.01
647.91	0.01
648.096	0.01
648.282	-0.02
648.468	0.02
648.654	-0.01
648.84	0.03
649.026	-0.01
649.212	-0.02
649.397	-0.05
649.583	-0.06
649.769	-0.01
649.955	-0.04
650.141	0
650.327	0.05
650.513	-0.03
650.698	0.01
650.884	-0.07
651.07	-0.02
651.256	0
651.442	0
651.627	-0.03
651.813	-0
651.999	-0
652.184	0.02
652.37	-0.03
652.556	-0.05
652.741	0.02
652.927	-0.1
653.113	-0.05
653.298	-0.03
653.484	-0.02
653.669	-0.1
653.855	-0.06
654.04	-0.03
654.226	-0.01
654.412	-0.05
654.597	-0.07
654.782	-0.03
654.968	0.01
655.153	-0.02
655.339	-0.04
655.524	-0.07
655.71	-0.03
655.895	-0
656.08	-0.03
656.266	-0.03
656.451	0
656.636	-0.06
656.822	-0.05
657.007	-0.01
657.192	-0.05
657.378	-0.06
657.563	-0.01
657.748	-0.02
657.933	-0.02
658.118	-0.06
658.304	-0.02
658.489	0.04
658.674	0.02
658.859	-0.04
659.044	-0.01
659.229	0.02
659.414	-0.08
659.599	-0.04
659.785	-0.08
659.97	-0.03
660.155	-0.01
660.34	-0.03
660.525	-0.04
660.71	-0.05
660.895	0.01
661.08	0.01
661.264	-0.04
661.449	0.01
661.634	0.02
661.819	0.02
662.004	-0.01
662.189	-0.1
662.374	-0.06
662.559	-0.04
662.743	-0.09
662.928	-0.03
663.113	-0.04
663.298	-0.09
663.483	-0.06
663.667	-0.04
663.852	-0.06
664.037	0.03
664.221	-0.06
664.406	0
664.591	0.01
664.775	-0.01
664.96	-0.07
665.145	-0.01
665.329	-0.01
665.514	-0.06
665.698	-0.07
665.883	-0.09
666.068	0.01
666.252	-0.06
666.437	-0.06
666.621	-0.01
666.806	0.05
666.99	-0.02
667.174	-0.03
667.359	0.03
667.543	-0.03
667.728	-0.03
667.912	-0.08
668.096	0.02
668.281	-0.04
668.465	-0.03
668.649	0.01
668.834	-0.05
669.018	-0.05
669.202	-0.02
669.387	-0.04
669.571	0.05
669.755	-0.03
669.939	-0
670.124	-0.06
670.308	0.04
670.492	-0.01
670.676	-0.02
670.86	0.01
671.044	-0.07
671.228	-0.03
671.413	-0.03
671.597	-0.06
671.781	-0.08
671.965	0.01
672.149	-0.02
672.333	-0.03
672.517	-0.05
672.701	-0.05
672.885	-0
673.069	-0.08
673.253	0.01
673.437	0.02
673.621	-0.09
673.804	-0.03
673.988	-0.03
674.172	-0.05
674.356	-0.07
674.54	-0.04
674.724	0.07
674.908	-0.01
675.091	0.01
675.275	-0.01
675.459	-0
675.643	-0.05
675.826	0.01
676.01	-0.03
676.194	-0.07
676.377	-0.02
676.561	0
676.745	-0.05
676.928	-0.04
677.112	0.07
677.296	-0.11
677.479	-0.03
677.663	-0.06
677.846	0.02
678.03	0
678.213	-0.05
678.397	-0.02
678.58	-0.03
678.764	-0.02
678.947	-0.03
679.131	-0.04
679.314	0.04
679.498	-0.01
679.681	-0.01
679.865	0.03
680.048	-0.02
680.231	-0.04
680.415	-0.04
680.598	-0.01
680.781	-0.04
680.965	-0.03
681.148	0.01
681.331	-0.06
681.514	-0
681.698	-0.03
681.881	-0
682.064	-0.04
682.247	-0.05
682.43	-0.1
682.614	-0.03
682.797	-0.01
682.98	-0.05
683.163	-0.07
683.346	-0.02
683.529	-0.04
683.712	-0.08
683.895	0.03
684.078	-0.1
684.261	-0.05
684.444	0
684.627	-0.05
684.81	-0.11
684.993	-0.06
685.176	0.01
685.359	-0.06
685.542	-0.06
685.725	0.03
685.908	0
686.091	-0.03
686.274	0.03
686.457	0.05
686.639	-0.07
686.822	-0
687.005	0.02
687.188	-0.03
687.371	0.1
687.553	-0.01
687.736	-0.02
687.919	0.04
688.102	0.02
688.284	-0.05
688.467	-0
688.65	-0.01
688.832	-0.03
689.015	-0.04
689.197	-0.09
689.38	0.1
689.563	0.06
689.745	-0.06
689.928	-0.08
690.11	-0.02
690.293	0
690.475	-0.11
690.658	-0.03
690.84	-0.02
691.023	-0.04
691.205	-0.02
691.388	-0.03
691.57	-0.01
691.752	0.03
691.935	-0.1
692.117	-0.05
692.3	-0.04
692.482	-0.02
692.664	-0.03
692.847	-0.04
693.029	0.02
693.211	-0.03
693.393	-0.05
693.576	-0.01
693.758	-0.01
693.94	-0.08
694.122	-0.05
694.304	-0.06
694.487	-0.07
694.669	0.08
694.851	-0.11
695.033	-0.03
695.215	-0.09
695.397	-0.07
695.579	-0
695.761	-0.09
695.943	-0.11
696.125	-0.01
696.308	0.02
696.49	-0.18
696.671	0.06
696.853	-0.1
697.035	0.09
697.217	-0
697.399	0.02
697.581	-0.05
697.763	-0.03
697.945	-0.1
698.127	-0
698.309	0.03
698.491	-0.02
698.672	-0.01
698.854	-0.01
699.036	0.04
699.218	-0.05
699.399	-0.02
699.581	-0.02
699.763	-0.02
699.945	-0.01
700.126	-0.09
700.308	-0.01
700.49	-0.04
700.671	-0.13
700.853	-0.05
701.035	-0.05
701.216	-0.02
701.398	-0.09
701.579	-0.04
701.761	0.01
701.943	-0.04
702.124	-0.05
702.306	-0.07
702.487	0.13
702.669	0.02
702.85	-0.1
703.031	-0.09
703.213	0.07
703.394	-0.02
703.576	-0.06
703.757	0.02
703.938	0.04
704.12	0.14
704.301	-0.05
704.483	-0.04
704.664	-0.05
704.845	0.05
705.026	0.01
705.208	-0.11
705.389	-0.08
705.57	-0.06
705.751	-0.05
705.933	-0.01
706.114	0.03
706.295	-0.05
706.476	-0.06
706.657	0.1
706.838	-0.01
707.02	0.02
707.201	0
707.382	-0.06
707.563	-0
707.744	-0.09
707.925	-0.1
708.106	-0.14
708.287	-0.04
708.468	0.03
708.649	-0.07
708.83	-0.04
709.011	-0.03
709.192	-0
709.373	-0.12
709.554	-0.03
709.734	0.03
709.915	0.03
710.096	-0.06
710.277	-0.1
710.458	0.01
710.639	-0.01
710.819	-0.11
711	-0.04
711.181	0.01
711.362	0.06
711.542	-0.01
711.723	-0.08
711.904	-0.1
712.085	0.05
712.265	-0.03
712.446	-0.06
712.627	-0.07
712.807	-0.02
712.988	-0.04
713.168	-0.1
713.349	0
713.53	-0.14
713.71	-0.08
713.891	-0.07
714.071	-0.06
714.252	-0.09
714.432	-0.11
714.613	-0.06
714.793	-0.01
714.974	0
715.154	0.02
715.334	0.05
715.515	-0.03
715.695	-0.15
715.876	0.02
716.056	-0.04
716.236	-0.14
716.417	-0.06
716.597	-0.1
716.777	0.04
716.957	-0.04
717.138	-0.04
717.318	-0.01
717.498	-0.09
717.678	-0.04
717.859	0.02
718.039	-0.11
718.219	0.03
718.399	0.03
718.579	-0.1
718.759	-0.07
718.939	0.03
719.12	-0.05
719.3	-0.02
719.48	-0.13
719.66	-0.11
719.84	-0.02
720.02	-0.08
720.2	-0.15
720.38	-0.06
720.56	0.04
720.74	-0.06
720.92	-0.02
721.1	0.09
721.279	-0.01
721.459	-0.05
721.639	-0.13
721.819	0.06
721.999	-0.09
722.179	0.06
722.359	-0.1
722.538	-0.06
722.718	-0.07
722.898	-0.07
723.078	-0.06
723.257	-0.08
723.437	-0
723.617	-0.01
723.797	-0.01
723.976	-0.02
724.156	-0.04
724.336	0.01
724.515	0.13
724.695	-0.08
724.874	0.03
725.054	-0.08
725.234	-0.05
725.413	-0.02
725.593	-0.05
725.772	-0.01
725.952	-0.11
726.131	0.01
726.311	-0.01
726.49	-0.06
726.67	-0.1
726.849	-0.05
727.028	0
727.208	-0.13
727.387	-0.02
727.567	-0.16
727.746	-0.15
727.925	-0.17
728.105	-0.19
728.284	0.03
728.463	-0.27
728.643	-0.04
728.822	-0.15
729.001	-0.1
729.18	-0.1
729.359	-0.08
729.539	0.04
729.718	0.01
729.897	-0
730.076	-0.08
730.255	-0.16
730.434	-0.06
730.614	-0.02
730.793	-0.04
730.972	-0.12
731.151	-0.02
731.33	0.07
731.509	-0.02
731.688	-0.03
731.867	0.02
732.046	-0.08
732.225	0.14
732.404	-0.09
732.583	-0.15
732.762	-0.19
732.941	0.09
733.12	-0.08
733.298	-0.03
733.477	0.09
733.656	-0
733.835	-0.05
734.014	0.08
734.193	-0.09
734.371	-0
734.55	-0.03
734.729	-0.18
734.908	0.03
735.086	-0.02
735.265	-0.03
735.444	-0.2
735.623	-0.19
735.801	-0.15
735.98	-0.03
736.159	-0.06
736.337	0.02
736.516	-0.01
736.694	-0.02
736.873	-0.13
737.052	0.11
737.23	0.07
737.409	-0.1
737.587	0.14
737.766	-0.24
737.944	-0.16
738.123	0.02
738.301	0
738.479	-0.09
738.658	-0.08
738.836	-0.35
739.015	0.01
739.193	0.06
739.371	-0.11
739.55	-0.08
739.728	-0.18
739.906	0.06
740.085	0.13
740.263	0.03
740.441	-0.22
740.62	0.18
740.798	-0.05
740.976	-0.12
741.154	-0.14
741.332	0.05
741.511	-0.05
741.689	-0.04
741.867	0.1
742.045	-0.02
742.223	-0.05
742.401	-0.05
742.579	-0.15
742.757	0.02
742.935	-0.16
743.114	-0.09
743.292	-0.14
743.47	-0.05
743.648	0.01
743.826	-0.05
744.004	0.05
744.181	-0.07
744.359	-0.16
744.537	-0.13
744.715	-0.01
744.893	-0.14
745.071	-0.05
745.249	-0.06
745.427	-0.06
745.605	-0.06
745.782	-0.12
745.96	0.03
746.138	-0.05
746.316	-0.01
746.493	-0.11
746.671	0.06
746.849	0.04
747.027	0.07
747.204	-0.1
747.382	0.04
747.56	-0.1
747.737	-0.16
747.915	-0.09
748.093	-0.09
748.27	-0.22
748.448	-0.1
748.625	-0.14
748.803	-0.02
748.98	-0.07
749.158	0.01
749.335	0.01
749.513	-0.06
749.69	-0.07
749.868	-0.11
750.045	-0.05
750.223	-0.07
750.4	-0.23
750.578	0.11
750.755	-0.1
750.932	-0.16
751.11	0.12
751.287	-0.22
751.464	0.04
751.642	-0.13
751.819	-0.05
751.996	-0.06
752.173	-0.1
752.351	-0.24
752.528	-0.11
752.705	-0.07
752.882	-0.15
753.06	-0.04
753.237	0.02
753.414	0.15
753.591	0.03
753.768	0.02
753.945	-0.12
754.122	-0.14
754.299	-0.03
754.476	-0.07
754.654	-0.02
754.831	-0.01
755.008	0.08
755.185	-0.13
755.362	-0.14
755.539	-0
755.716	-0.15
755.892	-0.1
756.069	-0.12
756.246	-0.02
756.423	-0.07
756.6	0.07
756.777	-0.01
756.954	-0.05
757.131	-0.05
757.307	-0.23
757.484	-0.17
757.661	-0.05
757.838	-0.05
758.015	-0.11
758.191	0.06
758.368	-0.05
758.545	0.05
758.721	0.03
758.898	-0.23
759.075	-0.01
759.251	-0.04
759.428	0.05
759.605	-0.13
759.781	-0.13
759.958	0.01
760.134	-0.07
760.311	-0.06
760.488	-0.03
760.664	0.08
760.841	0.01
761.017	-0.17
761.194	0.02
761.37	0.07
761.547	-0.1
761.723	-0.18
761.899	0.03
762.076	-0.21
762.252	-0.26
762.429	-0.09
762.605	0.09
762.781	-0.07
762.958	0.05
763.134	-0.09
763.31	-0.01
763.486	0.07
763.663	-0.23
763.839	0.04
764.015	-0.33
764.191	-0.19
764.368	-0.05
764.544	-0.15
764.72	-0.03
764.896	0.09
765.072	-0.08
765.248	-0.11
765.425	-0.1
765.601	-0.11
765.777	-0.04
765.953	-0.27
766.129	-0.08
766.305	-0.19
766.481	0.04
766.657	-0.04
766.833	0.12
767.009	-0.28
767.185	-0.1
767.361	-0.21
767.537	-0.17
767.713	0.15
767.889	-0.12
768.065	-0.1
768.24	-0.06
768.416	0.04
768.592	-0.07
768.768	-0.21
768.944	-0.08
769.12	-0.14
769.295	-0.08
769.471	-0.02
769.647	-0.2
769.823	0.1
769.998	-0.18
770.174	-0.16
770.35	0.15
770.525	0.17
770.701	-0.04
770.877	-0.03
771.052	-0.13
771.228	0.08
771.403	-0.06
771.579	0.1
771.755	0.23
771.93	-0.13
772.106	-0.16
772.281	-0.28
772.457	0.01
772.632	-0.02
772.808	-0.21
772.983	-0.05
773.159	-0.19
773.334	0.1
773.509	-0.01
773.685	-0.14
773.86	0.3
774.036	0.08
774.211	-0.08
774.386	-0.09
774.562	-0.12
774.737	0.02
774.912	-0.12
775.087	-0.09
775.263	-0.02
775.438	-0.04
775.613	-0.24
775.788	-0.03
775.964	0.15
776.139	0.22
776.314	-0.09
776.489	0.03
776.664	-0.09
776.839	-0.29
777.014	-0.08
777.19	0.1
777.365	0
777.54	0.08
777.715	-0.34
777.89	-0.04
778.065	-0.19
778.24	-0.03
778.415	0.02
778.59	-0.26
778.765	-0.23
778.94	-0.08
779.115	-0.2
779.289	-0.13
779.464	-0.06
779.639	0.04
779.814	-0.32
779.989	-0.16
780.164	0.18
780.339	-0.09
780.513	-0.11
780.688	-0.32
780.863	-0.07
781.038	0.08
781.212	-0.26
781.387	-0.01
781.562	0.37
781.737	-0.24
781.911	0.16
782.086	-0.07
782.261	-0.17
782.435	0.19
782.61	-0.14
782.784	-0.23
782.959	0.16
783.134	-0.23
783.308	-0.36
783.483	-0.11
783.657	0.17
783.832	0.11
784.006	-0.51
784.181	-0.04
784.355	0.05
784.53	-0.35
784.704	-0.2
784.878	0.27
785.053	0.07
785.227	0.09
785.402	0.03
785.576	-0.33
785.75	-0.17
785.925	-0.28
786.099	-0.09
786.273	-0.02
786.448	-0.01
786.622	-0.12
786.796	-0.2
786.97	-0.13
787.145	0.24
787.319	-0.41
787.493	-0.11
787.667	-0.36
787.841	-0.16
788.015	0.08
788.19	-0.31
788.364	0.1
788.538	0.07
788.712	0.18
788.886	-0.22
789.06	0.06
789.234	0.15
789.408	-0.52
789.582	-0.29
789.756	-0.04
789.93	-0.34
790.104	0.06
790.278	-0.17
790.452	-0.37
790.626	-0.01
790.8	-0.22
790.973	0.11
791.147	0.17
791.321	0.28
791.495	0.14
791.669	-0.13
791.843	0.01
792.016	0.1
792.19	0.45
792.364	-0.42
792.538	0.21
792.711	0.27
792.885	-0.14
793.059	-0.24
793.233	-0.53
793.406	0.17
793.58	0.05
793.754	0.04
793.927	-0.13
794.101	-0.07
794.274	0.08
794.448	0.22
794.622	-0.13
794.795	0.24
794.969	-0.15
795.142	0.1
795.316	-0.31
795.489	-0.42
795.663	0.37
795.836	-0.16
796.009	-0.29
796.183	0.36
796.356	-0
796.53	-0.02
796.703	-0.27
796.876	0.32
797.05	-0.19
797.223	-0.2
797.396	0.03
797.57	-0.22
797.743	0.29
797.916	-0.01
798.09	-0.1
798.263	0.06
798.436	-0.04
798.609	-0.45
798.782	-0.11
798.956	-0.13
799.129	0.08
799.302	-0.19
799.475	-0.43
799.648	-0.28
799.821	-0.01
799.994	-0.06
800.167	-0.34
800.34	-0.22
800.514	-0.17
800.687	-0.04
800.86	-0.01
801.033	0.23
801.206	-0.17
801.379	-0.48
801.551	-0.12
801.724	0.13
801.897	0.34
802.07	-0.22
802.243	-0.31
802.416	-0.51
802.589	-0.24
802.762	-0.01
802.935	0.1
803.107	0.11
803.28	0.1
803.453	0.36
803.626	-0.29
803.798	-0.02
803.971	-0.2
804.144	-0.14
804.317	-0.03
804.489	0.15
804.662	-0.11
804.835	-0.15
805.007	-0.44
805.18	0.42
805.353	-0.02
805.525	-0.1
805.698	-0.16
805.87	0.17
806.043	0.15
806.215	-0.21
806.388	-0.37
806.56	0.09
806.733	0.01
806.905	0.09
807.078	-0.33
807.25	-0.33
807.423	0.24
807.595	-0.26
807.768	-0.18
807.94	0.21
808.112	-0.01
808.285	0.1
808.457	-0.22
808.629	-0.05
808.802	0.04
808.974	-0.13
809.146	-0.3
809.318	-0.44
809.491	-0.03
809.663	0.08
809.835	-0.31
810.007	0.05
810.18	-0.3
810.352	-0.56
810.524	-0.29
810.696	0.12
810.868	0.02
811.04	-0.05
811.212	-0.17
811.384	0.16
811.556	-0.35
811.728	-0.53
811.901	0.42
812.073	-0.02
812.245	0.7
812.417	0.08
812.589	-0.81
812.76	0.31
812.932	0.18
813.104	-0.02
813.276	-0.41
813.448	-0.34
813.62	-0.13
813.792	-0.12
813.964	-0.14
814.136	0.39
814.307	-0.41
814.479	-0.46
814.651	-0.37
814.823	0.5
814.995	-0.59
815.166	-0.38
815.338	-0.41
815.51	-0.9
815.681	0.77
815.853	-0.25
816.025	-0.15
816.196	0.06
816.368	0.38
816.54	-0.45
816.711	-0.38
816.883	0.6
817.054	0.77
817.226	-0.62
817.398	-0.4
817.569	-0.23
817.741	-0.37
817.912	-0.06
818.084	-0.22
818.255	0.23
818.426	-0.32
818.598	-0.3
818.769	-0.21
818.941	-0.26
819.112	0.41
819.283	0.06
819.455	-0.5
819.626	0.23
819.798	0.12
819.969	0.1
820.14	-0.5
820.311	-0.5
820.483	0.37
820.654	0.16
820.825	-0.3
820.996	-0.27
821.168	-0.51
821.339	-0.16
821.51	-0.73
821.681	0.92
821.852	-0.12
822.023	-0.41
822.195	-0.61
822.366	0.01
822.537	0.07
822.708	-0.36
822.879	-0.76
823.05	0.1
823.221	-0.29
823.392	0.39
823.563	-0.72
823.734	-0.43
823.905	-0.1
824.076	-0.43
824.247	-0.76
824.418	-0.15
824.589	0.42
824.759	-0.26
824.93	-0.34
825.101	-0.5
825.272	0.4
825.443	0.75
825.614	0.09
825.784	-1.78
825.955	0.75
826.126	0.42
826.297	-0.45
826.467	0.15
826.638	0.66
826.809	-0.54
826.98	-0.21
827.15	-0.14
827.321	0.26
827.492	0.51
827.662	-0.61
827.833	0.97
828.003	-0.31
828.174	-0.69
828.345	-0.7
828.515	0.09
828.686	0.19
828.856	-0.21
829.027	-0.19
829.197	-0.2
829.368	-0.32
829.538	-0.45
829.709	-0.33
829.879	-0.32
830.049	-0.2
830.22	-0.77
830.39	0.02
830.56	0.25
830.731	-0.59
830.901	-0.87
831.072	0.53
831.242	-0.61
831.412	-0.32
831.582	-0.73
831.753	-0.66
831.923	-0.09
832.093	-0.42
832.263	-0.3
832.434	-0.8
832.604	-0.08
832.774	-0.09
832.944	-0.34
833.114	-0.77
833.284	0.19
833.454	-0.61
833.624	-0.62
833.795	-0.06
833.965	0.1
834.135	0.45
834.305	-1.03
834.475	-0.96
834.645	0.29
834.815	-0.51
834.985	-0.27
835.155	-0.43
835.325	1.14
835.494	-0.02
835.664	-0.71
835.834	-0.68
836.004	-0.12
836.174	-0.08
836.344	-0.45
836.514	-0.87
836.684	-0.82
836.853	0.05
837.023	0.26
837.193	-0.54
837.363	0.22
837.532	-0.07
837.702	-1.09
837.872	-0.3
838.041	0.52
838.211	1.33
838.381	-0.91
838.55	-0.45
838.72	1.17
838.89	0.71
839.059	-1.01
839.229	-0.86
839.398	0.26
839.568	-0.56
839.738	0.2
839.907	0.89
840.077	-0.03
840.246	-0.08
840.416	-0.39
840.585	-0.45
840.755	0.76
840.924	1.24
841.093	-0.31
841.263	0.12
841.432	0.43
841.602	-1.33
841.771	-1.35
841.94	-0.13
842.11	1.62
842.279	0.73
842.448	-1.13
842.617	-0.77
842.787	0.76
842.956	-0.86
843.125	-0.77
843.294	0.03
843.464	0.92
843.633	-0.8
843.802	-1.21
843.971	-0.46
844.14	-0.33
844.309	-0.23
844.479	-1.49
844.648	-1.05
844.817	-1.17
844.986	-0.05
845.155	-0.82
845.324	-0.73
845.493	-0.49
845.662	-0.99
845.831	-0.61
846	-0.65
846.169	-1.18
846.338	0.8
846.507	0.02
846.676	0.34
846.844	-1.38
847.013	0.06
847.182	-0.35
847.351	-0.69
847.52	-0.19
847.689	-0.15
847.858	-0.48
848.026	-0.86
848.195	-0.22
848.364	-0.48
848.533	-0.84
848.701	-0.57
848.87	0.04
849.039	-0.17
849.207	0.75
849.376	-0.02
849.545	1.23
849.713	-0.66
849.882	-0.71
850.051	-0.7
850.219	-0.19
850.388	0.63
850.556	-0.8
850.725	-0.54
850.893	-0.18
851.062	-1.53
851.23	-0.05
851.399	-1.13
851.567	-1.17
851.736	-0.81
851.904	-1.14
852.073	-0.54
852.241	0.17
852.41	-0.1
852.578	-0.42
852.746	-0.82
852.915	0.84
853.083	-0.68
853.251	-1.18
853.42	-0.2
853.588	0.47
853.756	2.31
853.924	-0.21
854.093	-0.85
854.261	-1.27
854.429	-2.08
854.597	-0.31
854.765	-2.33
854.934	0.54
855.102	1.32
855.27	-1.55
855.438	-0.57
855.606	0.13
855.774	1.83
855.942	-2.23
856.11	-1.16
856.278	-0.87
856.446	-0.19
856.614	-0.17
856.782	-0.31
856.95	0.39
857.118	0.04
857.286	-0.57
857.454	-0.83
857.622	0.61
857.79	-0.18
857.958	-0.23
858.126	-0.81
858.294	-2.87
858.462	-0.67
858.629	-0.6
858.797	-2.26
858.965	-0.38
859.133	0.44
859.301	-0.72
859.468	0.68
859.636	-0.81
859.804	1.12
859.971	0.14
860.139	-0.39
860.307	1.35
860.474	-1.22
860.642	-1.3
860.81	-1.29
860.977	-0.07
861.145	1.53
861.313	-0.54
861.48	-0.2
861.648	-0.42
861.815	-0.76
861.983	-0.87
862.15	0.22
862.318	0.35
862.485	0.63
862.653	-0.64
862.82	-1.21
862.988	3.23
863.155	-0.54
863.322	-2.09
863.49	-0.65
863.657	-0.39
863.824	1.15
863.992	0.1
864.159	-1.82
864.326	-0.09
864.494	-0.46
864.661	1.7
864.828	-0.75
864.996	1.57
865.163	0.92
865.33	-0.76
865.497	-3.11
865.664	-2.35
865.832	-1.85
865.999	-0.36
866.166	-0.62
866.333	-1.14
866.5	-0.74
866.667	-0.78
866.834	-0.25
867.001	2.32
867.168	-1.16
867.335	-0.66
867.502	-1.59
867.669	0.3
867.836	2.41
868.003	-1.16
868.17	0.21
868.337	-0.92
868.504	1.57
868.671	-1.62
868.838	-1.87
869.005	-0.47
869.172	-0.13
869.339	-0.75
869.505	0.37
869.672	-1.92
869.839	-0.64
870.006	0.26
870.173	-2.61
870.339	0.75
870.506	1.25
870.673	-1.26
870.84	1.13
871.006	0.05
871.173	-0.15
871.34	0.15
871.506	-1.09
871.673	0.36
871.839	-1.84
872.006	-1.61
872.173	-1.47
872.339	0.34
872.506	1.99
872.672	-0.69
872.839	-3.14
873.005	-1.06
873.172	2.79
873.338	0.11
873.505	-0.2
873.671	-0.87
873.838	1.51
874.004	-2.63
874.171	-0.71
874.337	-0.53
874.503	0.02
874.67	-0.46
874.836	-0.7
875.002	1.51
875.169	1.57
875.335	-0.01
875.501	-2.19
875.668	-0.56
875.834	-0.97
876	-0.81
876.166	-1.25
876.332	-0.48
876.499	3.69
876.665	-1.9
876.831	0.08
876.997	2.9
877.163	0.87
877.329	-0.8
877.495	-0.4
877.662	0.37
877.828	0.68
877.994	-0.71
878.16	-3.08
878.326	-0.84
878.492	-1.72
878.658	0.14
878.824	-0.33
878.99	0.51
879.156	-2.17
879.322	2.83
879.487	-0.46
879.653	0.04
879.819	-0.83
879.985	-1.98
880.151	0.25
880.317	-0.97
880.483	-0.59
880.648	0.21
880.814	-2.18
880.98	1.9
881.146	-3.32
881.312	-1.87
881.477	-0.78
881.643	-0.71
881.809	1.02
881.974	0.38
882.14	-2.83
882.306	-1.63
882.471	2.62
882.637	-1.48
882.803	0.74
882.968	2.44
883.134	2.34
883.299	0.57
883.465	0.96
883.63	-0.2
883.796	0.49
883.961	0.16
884.127	-0.89
884.292	-3.76
884.458	-2.21
884.623	-2.21
