Data from Apollo_Calib_20240827__AbsoluteIrradiance__627__09-36-01-733.txt Node

Date: Wed Aug 28 09:36:01 BST 2024
User: biology
Spectrometer: FLMT08252
Trigger mode: 0
Integration Time (sec): 5.000000E-1
Scans to average: 5
Electric dark correction enabled: true
Nonlinearity correction enabled: false
Boxcar width: 0
XAxis mode: Wavelengths
Number of Pixels in Spectrum: 3648
>>>>>Begin Spectral Data<<<<<
179.588	-0
179.809	-0
180.03	-0
180.251	-0
180.473	-0
180.694	0
180.915	0
181.136	-0
181.357	0
181.578	-0
181.799	-0
182.02	-0
182.241	0
182.462	-0
182.683	0
182.904	0
183.125	-0
183.346	0
183.567	0
183.788	0
184.009	-0
184.23	0
184.451	0
184.672	-0
184.892	-0
185.113	0
185.334	-0
185.555	-0
185.776	-0
185.996	0
186.217	0
186.438	-0
186.659	-0
186.879	0
187.1	-0
187.321	-0
187.541	-0
187.762	-0
187.983	-0
188.203	-0
188.424	0
188.644	-0
188.865	0
189.086	-0
189.306	-0
189.527	-0
189.747	-0
189.968	-0
190.188	0
190.409	-0
190.629	0
190.849	0
191.07	-0
191.29	0
191.511	0
191.731	-0
191.951	-0
192.172	-0
192.392	-0
192.612	0
192.833	-0
193.053	0
193.273	0
193.493	-0
193.714	-0
193.934	0
194.154	0
194.374	0
194.594	-0
194.815	-0
195.035	-0
195.255	-0
195.475	-0
195.695	0
195.915	0
196.135	-0
196.355	0
196.575	0
196.795	-0
197.015	-0
197.235	-0
197.455	-0
197.675	0
197.895	-0
198.115	-0
198.335	0
198.555	-0
198.775	0
198.995	0
199.214	0
199.434	0
199.654	-0
199.874	-0
200.094	0.38
200.313	-0.19
200.533	-0.41
200.753	-0.85
200.973	0.77
201.192	0.7
201.412	-0.27
201.632	0.13
201.851	0.59
202.071	-0.52
202.291	-0.69
202.51	-0.62
202.73	0.72
202.95	-0.12
203.169	-0.69
203.389	-0.28
203.608	-0.2
203.828	-0.41
204.047	-0.32
204.267	-0.02
204.486	0.13
204.706	-0.23
204.925	0.04
205.145	-0.4
205.364	0.47
205.583	0.41
205.803	-0.19
206.022	-0.26
206.242	-0.06
206.461	-0.03
206.68	-0.14
206.9	0.15
207.119	0.61
207.338	0.35
207.557	-0.07
207.777	-0.14
207.996	0.14
208.215	0.43
208.434	-0.17
208.654	-0.38
208.873	-0.08
209.092	0.6
209.311	-0.11
209.53	-0.1
209.749	0.02
209.968	-0.2
210.187	-0.01
210.407	-0.23
210.626	-0.29
210.845	0.28
211.064	0.15
211.283	-0.35
211.502	0.33
211.721	0.24
211.94	0.06
212.159	0.25
212.377	0.04
212.596	0.37
212.815	-0.12
213.034	-0.11
213.253	0.42
213.472	0.2
213.691	-0.19
213.91	-0.27
214.128	-0.19
214.347	0.32
214.566	-0.34
214.785	-0.18
215.003	0.19
215.222	0.06
215.441	-0.2
215.66	-0.38
215.878	-0.09
216.097	0.21
216.316	-0.31
216.534	-0.04
216.753	-0.09
216.972	0.12
217.19	-0.11
217.409	-0.21
217.627	-0.22
217.846	-0.12
218.064	-0.14
218.283	-0.17
218.501	0.36
218.72	0.14
218.938	-0.24
219.157	-0.14
219.375	0.1
219.594	0.13
219.812	-0.22
220.031	-0.14
220.249	0.35
220.467	0.25
220.686	-0.17
220.904	-0.29
221.122	-0.27
221.341	0.29
221.559	-0
221.777	-0.16
221.995	0.06
222.214	0.12
222.432	-0.01
222.65	0.04
222.868	0.03
223.086	-0.02
223.305	0.03
223.523	0.03
223.741	0.26
223.959	-0.26
224.177	-0.23
224.395	-0.01
224.613	0.01
224.831	0.11
225.049	-0.2
225.267	-0.1
225.485	-0.05
225.703	-0.14
225.921	-0.11
226.139	-0.07
226.357	0.13
226.575	0.04
226.793	-0.11
227.011	0.2
227.229	0.03
227.447	0.03
227.665	-0.14
227.883	-0.18
228.1	-0.04
228.318	0.02
228.536	-0.3
228.754	-0.25
228.972	-0.04
229.189	0.01
229.407	-0.2
229.625	-0.1
229.843	0.14
230.06	0.07
230.278	-0.11
230.496	-0.02
230.713	-0.13
230.931	0.08
231.149	-0.16
231.366	-0.24
231.584	0.1
231.801	0.32
232.019	-0.15
232.236	-0.15
232.454	-0.1
232.671	0
232.889	-0.06
233.106	-0.18
233.324	-0.02
233.541	-0.01
233.759	-0.01
233.976	-0.12
234.194	0.02
234.411	-0.04
234.628	-0.11
234.846	0.03
235.063	-0.04
235.28	-0.05
235.498	0.06
235.715	-0.12
235.932	0.05
236.149	-0.03
236.367	-0.07
236.584	-0.07
236.801	-0.06
237.018	0.14
237.236	-0.01
237.453	-0.1
237.67	0.07
237.887	-0.06
238.104	-0.08
238.321	-0.13
238.538	-0.09
238.755	0.1
238.973	-0.16
239.19	0.03
239.407	-0.02
239.624	0.05
239.841	-0.09
240.058	-0.05
240.275	0.03
240.492	-0.02
240.709	0.01
240.925	0.03
241.142	-0.06
241.359	-0.09
241.576	-0.16
241.793	-0.08
242.01	-0.03
242.227	0.03
242.444	0
242.66	0.06
242.877	-0.05
243.094	-0.11
243.311	0.05
243.527	-0.04
243.744	-0.03
243.961	0.05
244.178	-0.08
244.394	0
244.611	0.03
244.828	0.15
245.044	-0.09
245.261	-0.11
245.477	-0
245.694	0.01
245.911	-0.03
246.127	-0.02
246.344	0.1
246.56	0.09
246.777	-0.01
246.993	0.06
247.21	0.02
247.426	0.11
247.643	-0.12
247.859	-0.12
248.076	-0.09
248.292	0.22
248.508	-0.04
248.725	0
248.941	-0.04
249.157	0.12
249.374	-0.05
249.59	-0.05
249.806	0.07
250.023	-0.02
250.239	-0.06
250.455	-0.1
250.671	-0.04
250.888	-0.01
251.104	-0
251.32	-0.1
251.536	-0.03
251.752	-0.04
251.969	-0.03
252.185	-0.07
252.401	0.14
252.617	-0.07
252.833	-0.04
253.049	0.07
253.265	0.01
253.481	0.06
253.697	-0.06
253.913	-0.11
254.129	0.04
254.345	0.03
254.561	-0.06
254.777	-0
254.993	0.08
255.209	-0.03
255.425	-0.04
255.641	-0.04
255.857	0.1
256.073	0.02
256.288	-0.12
256.504	0.02
256.72	-0.03
256.936	0.03
257.152	-0.01
257.367	-0.07
257.583	-0.1
257.799	0.11
258.015	-0.08
258.23	-0.03
258.446	0.08
258.662	-0.09
258.877	-0.07
259.093	-0.12
259.309	-0.02
259.524	0.04
259.74	-0.04
259.955	-0.07
260.171	-0.03
260.387	-0.02
260.602	0.04
260.818	0.07
261.033	-0.06
261.249	-0.07
261.464	-0.05
261.68	-0.11
261.895	-0.02
262.11	0.03
262.326	-0.01
262.541	-0.13
262.757	0.09
262.972	-0.01
263.187	-0
263.403	-0.05
263.618	0.04
263.833	-0.03
264.049	-0
264.264	0.03
264.479	0.05
264.694	0.11
264.91	-0.07
265.125	-0.06
265.34	0.03
265.555	0.07
265.77	0.03
265.986	-0.03
266.201	0.06
266.416	0.1
266.631	0.05
266.846	-0.03
267.061	0
267.276	0.05
267.491	-0.1
267.706	0.07
267.921	0.05
268.136	0.01
268.351	-0.05
268.566	-0.11
268.781	0.05
268.996	0.02
269.211	-0.04
269.426	-0.02
269.641	-0.03
269.856	0.03
270.071	-0.08
270.285	-0.1
270.5	0.01
270.715	0.05
270.93	0.04
271.145	0.02
271.359	0.02
271.574	-0.15
271.789	-0.04
272.004	-0.06
272.218	-0.03
272.433	0.04
272.648	-0.05
272.862	0.08
273.077	0.02
273.292	-0.01
273.506	-0.03
273.721	-0.03
273.936	0.11
274.15	0.01
274.365	0
274.579	-0.03
274.794	0.04
275.008	0.05
275.223	-0.07
275.437	0.02
275.652	0.1
275.866	0.06
276.081	0.01
276.295	0.04
276.509	0.02
276.724	-0.01
276.938	0
277.153	0.03
277.367	0.04
277.581	-0.07
277.796	-0.02
278.01	-0.04
278.224	0.07
278.438	0.12
278.653	-0.06
278.867	-0.07
279.081	-0.18
279.295	-0.01
279.51	0
279.724	-0.07
279.938	0.02
280.152	0.02
280.366	-0.06
280.58	0.02
280.794	0.03
281.008	0.04
281.222	0.03
281.437	0.11
281.651	0.04
281.865	0.1
282.079	-0.01
282.293	-0.09
282.507	-0.07
282.721	-0.03
282.935	0.03
283.148	-0.09
283.362	-0.04
283.576	-0.06
283.79	-0.01
284.004	-0.05
284.218	0.03
284.432	-0.05
284.646	-0.02
284.859	-0.08
285.073	-0.02
285.287	0.03
285.501	-0.03
285.714	-0.01
285.928	0.01
286.142	-0.04
286.356	-0.04
286.569	-0.04
286.783	0.09
286.997	0.01
287.21	-0
287.424	-0.02
287.637	-0.01
287.851	0
288.065	0.06
288.278	-0.02
288.492	0.03
288.705	-0.04
288.919	0.05
289.132	-0.08
289.346	0.04
289.559	-0.05
289.773	-0.06
289.986	0
290.2	-0.02
290.413	0.05
290.626	-0.05
290.84	-0.01
291.053	-0.02
291.267	0.02
291.48	-0.04
291.693	0.01
291.906	-0.01
292.12	0
292.333	-0.03
292.546	-0
292.76	0.06
292.973	0.03
293.186	0.03
293.399	-0.02
293.612	0.04
293.826	-0.01
294.039	-0.03
294.252	0.03
294.465	0.03
294.678	0.07
294.891	0.03
295.104	-0.03
295.317	-0.05
295.53	0.02
295.743	-0.03
295.956	0.02
296.169	0.02
296.382	0.04
296.595	-0.01
296.808	-0.03
297.021	0.09
297.234	-0
297.447	-0
297.66	0.02
297.873	0.05
298.086	0
298.299	-0.05
298.511	-0.02
298.724	-0.02
298.937	-0.07
299.15	-0.06
299.363	-0.01
299.575	0.07
299.788	0.02
300.001	-0.02
300.213	-0.05
300.426	-0.06
300.639	-0
300.852	-0.03
301.064	0.03
301.277	0.08
301.489	0.04
301.702	0.05
301.915	-0.02
302.127	0.03
302.34	0.03
302.552	0.07
302.765	0.01
302.977	0.05
303.19	-0.01
303.402	0.01
303.615	-0.03
303.827	-0.04
304.04	0.03
304.252	0.02
304.464	-0.02
304.677	0.08
304.889	0.05
305.102	-0.04
305.314	0.04
305.526	0.04
305.739	0.02
305.951	-0.07
306.163	-0.05
306.375	0.1
306.588	-0.02
306.8	-0.06
307.012	-0.05
307.224	0.03
307.436	0.09
307.649	-0.04
307.861	-0
308.073	-0.01
308.285	-0
308.497	-0.02
308.709	-0.03
308.921	0.03
309.133	-0.01
309.346	0.02
309.558	-0.02
309.77	0.05
309.982	0.03
310.194	0.07
310.406	-0.02
310.617	0.09
310.829	0.02
311.041	0.04
311.253	-0.03
311.465	0.01
311.677	-0.03
311.889	-0.01
312.101	-0.03
312.313	0.06
312.524	0.08
312.736	-0.06
312.948	-0.03
313.16	0.05
313.372	0.01
313.583	0.03
313.795	-0.02
314.007	-0.01
314.218	0.05
314.43	0.01
314.642	-0.03
314.853	-0.04
315.065	0.01
315.277	-0.04
315.488	0.02
315.7	0
315.912	0.04
316.123	-0.04
316.335	-0.02
316.546	0.14
316.758	0.01
316.969	-0.01
317.181	-0.01
317.392	0
317.604	0.03
317.815	-0.06
318.026	-0.05
318.238	-0.01
318.449	0.06
318.661	-0.09
318.872	-0.03
319.083	-0.03
319.295	0.02
319.506	-0.04
319.717	-0.01
319.929	0.02
320.14	-0.02
320.351	-0.02
320.562	-0.03
320.774	0.05
320.985	-0.01
321.196	-0.05
321.407	-0.08
321.618	-0
321.829	0.04
322.041	0.04
322.252	0
322.463	0
322.674	-0
322.885	-0.05
323.096	0.02
323.307	-0.05
323.518	-0.01
323.729	-0.03
323.94	0.01
324.151	-0.02
324.362	0.03
324.573	-0.02
324.784	-0.03
324.995	0.05
325.206	-0.02
325.417	-0.04
325.628	-0.03
325.838	0.02
326.049	0.02
326.26	0
326.471	-0.01
326.682	0.06
326.892	-0.01
327.103	-0.06
327.314	-0.06
327.525	0.05
327.735	-0.02
327.946	-0
328.157	-0.03
328.368	0.03
328.578	-0.01
328.789	0.04
328.999	0.03
329.21	-0.02
329.421	0.03
329.631	-0.05
329.842	-0.04
330.052	0.03
330.263	0.01
330.473	0.02
330.684	0
330.894	-0.02
331.105	0.03
331.315	-0.01
331.526	-0.05
331.736	0.05
331.947	-0.01
332.157	0.04
332.367	-0.06
332.578	0.01
332.788	0.07
332.999	0.02
333.209	0.02
333.419	-0.09
333.629	0.01
333.84	0.02
334.05	-0.02
334.26	0.1
334.47	0
334.681	0.07
334.891	0.01
335.101	0.02
335.311	0.03
335.521	-0.02
335.732	-0.02
335.942	0.05
336.152	0.01
336.362	-0.01
336.572	-0.01
336.782	0.01
336.992	-0.03
337.202	-0.03
337.412	-0.03
337.622	0
337.832	-0.01
338.042	0.03
338.252	-0.07
338.462	-0
338.672	0.03
338.882	-0
339.092	0.02
339.302	0.04
339.511	0.03
339.721	-0.05
339.931	-0.05
340.141	0.05
340.351	0.08
340.561	0.01
340.77	0.04
340.98	-0.01
341.19	0.01
341.4	-0.02
341.609	-0.06
341.819	-0.01
342.029	-0.06
342.238	0.03
342.448	-0.04
342.658	0.03
342.867	-0.02
343.077	-0.01
343.286	-0.01
343.496	0.01
343.706	0.07
343.915	-0.03
344.125	0.01
344.334	-0.01
344.544	-0.03
344.753	-0.03
344.963	-0.01
345.172	-0.04
345.381	-0.03
345.591	-0.05
345.8	-0.02
346.01	0.06
346.219	0.02
346.428	-0.14
346.638	0.02
346.847	-0.04
347.056	0.06
347.266	-0
347.475	-0.02
347.684	-0
347.893	0.02
348.103	-0.01
348.312	0.01
348.521	0.02
348.73	-0.03
348.94	0.04
349.149	-0.01
349.358	-0.01
349.567	-0.04
349.776	-0.02
349.985	-0.01
350.194	0.01
350.403	0.07
350.612	-0.03
350.821	0.03
351.03	-0.01
351.239	-0.01
351.448	-0.02
351.657	-0.03
351.866	0.06
352.075	0.02
352.284	0.05
352.493	-0.06
352.702	0.03
352.911	0.04
353.12	-0.01
353.329	0
353.538	0.02
353.746	0.01
353.955	-0.01
354.164	0.01
354.373	-0.03
354.582	0.05
354.79	-0.02
354.999	0.02
355.208	-0.02
355.416	0.03
355.625	-0.04
355.834	-0
356.042	-0.03
356.251	0.01
356.46	-0.03
356.668	0.02
356.877	0.03
357.085	0.05
357.294	-0.05
357.503	0.01
357.711	-0.01
357.92	0.12
358.128	-0.02
358.337	-0.03
358.545	-0
358.754	-0.04
358.962	0.04
359.17	-0.05
359.379	0.03
359.587	-0.01
359.796	-0.01
360.004	0.06
360.212	0.02
360.421	0.01
360.629	-0.05
360.837	-0.02
361.046	0.01
361.254	0.07
361.462	-0
361.67	-0.04
361.879	0.01
362.087	0.07
362.295	-0
362.503	-0.03
362.711	-0.03
362.92	-0.04
363.128	-0.06
363.336	-0.06
363.544	-0.06
363.752	-0.03
363.96	-0.02
364.168	-0.04
364.376	-0.02
364.584	0.01
364.792	0
365	0.03
365.208	-0.01
365.416	-0
365.624	0.04
365.832	-0.01
366.04	0.08
366.248	0.01
366.456	0
366.664	-0.01
366.872	-0
367.079	-0.02
367.287	0.01
367.495	0.03
367.703	-0.04
367.911	-0.01
368.118	-0.02
368.326	-0
368.534	-0.06
368.742	0.09
368.949	-0.06
369.157	-0.01
369.365	0.03
369.572	0.01
369.78	-0.02
369.988	0.02
370.195	-0
370.403	0.01
370.61	0.01
370.818	0.03
371.026	0.08
371.233	-0.02
371.441	-0.01
371.648	0.02
371.856	0.01
372.063	0.02
372.271	-0.03
372.478	-0
372.685	-0.05
372.893	-0.01
373.1	0.02
373.308	-0.01
373.515	0.04
373.722	-0.01
373.93	-0.05
374.137	0.03
374.344	0.08
374.552	-0
374.759	0.04
374.966	0.01
375.173	0.01
375.381	0.07
375.588	-0.02
375.795	-0.04
376.002	-0.02
376.209	-0.04
376.417	0
376.624	0.01
376.831	0
377.038	-0.02
377.245	-0.07
377.452	-0.03
377.659	-0.01
377.866	-0.03
378.073	-0.05
378.28	0.01
378.487	0.04
378.694	0.03
378.901	0
379.108	0.01
379.315	-0.01
379.522	0.05
379.729	0.01
379.936	-0.01
380.143	0.02
380.35	0.01
380.557	-0.06
380.763	0.02
380.97	-0.01
381.177	0.02
381.384	0.01
381.591	-0.02
381.797	-0
382.004	0.04
382.211	0.02
382.418	-0.03
382.624	0.02
382.831	0.02
383.038	-0.05
383.244	0.01
383.451	0
383.658	0.02
383.864	-0.02
384.071	-0.03
384.277	0.05
384.484	-0.04
384.69	0.05
384.897	-0.05
385.103	-0.01
385.31	-0.04
385.516	-0.02
385.723	-0.01
385.929	-0
386.136	-0.04
386.342	0.01
386.549	-0.01
386.755	0.03
386.961	0.03
387.168	-0.04
387.374	-0.02
387.58	0.02
387.787	0
387.993	0.01
388.199	-0.04
388.406	-0.03
388.612	-0.03
388.818	-0.06
389.024	-0.01
389.231	0
389.437	0.06
389.643	0.03
389.849	0.02
390.055	0.01
390.261	0.02
390.467	0.03
390.674	-0.06
390.88	-0.02
391.086	0.03
391.292	-0.06
391.498	0.05
391.704	-0.01
391.91	0.01
392.116	-0.02
392.322	-0.11
392.528	-0.02
392.734	-0.03
392.94	0
393.146	0
393.352	0.03
393.557	0.01
393.763	-0.01
393.969	-0
394.175	0.01
394.381	0.03
394.587	-0.04
394.792	-0.03
394.998	0.08
395.204	0.07
395.41	-0.01
395.615	0.02
395.821	-0.02
396.027	0.05
396.233	0.01
396.438	0.03
396.644	0.05
396.85	0.03
397.055	-0
397.261	0
397.466	0.09
397.672	0.02
397.878	0.06
398.083	0.02
398.289	-0.04
398.494	0.11
398.7	-0.01
398.905	-0.06
399.111	0.01
399.316	-0.05
399.522	-0.01
399.727	0.02
399.932	-0
400.138	-0.03
400.343	0.06
400.549	0.03
400.754	-0
400.959	0.02
401.165	-0.04
401.37	0.04
401.575	0.03
401.78	0.04
401.986	-0.02
402.191	0.01
402.396	-0.06
402.601	0.01
402.807	0.01
403.012	-0.01
403.217	0.01
403.422	0.04
403.627	0.01
403.832	-0
404.037	-0.01
404.243	-0.01
404.448	-0.06
404.653	-0.05
404.858	0.04
405.063	0.02
405.268	-0.05
405.473	-0.07
405.678	-0.01
405.883	0.1
406.088	0.01
406.293	-0.04
406.498	-0.02
406.703	0.05
406.907	0
407.112	-0.04
407.317	0
407.522	0.01
407.727	-0.06
407.932	-0.02
408.136	0.09
408.341	0
408.546	-0.03
408.751	-0.01
408.956	-0.05
409.16	0.04
409.365	-0.03
409.57	-0.02
409.774	0.01
409.979	0.01
410.184	0.05
410.388	-0.04
410.593	0.03
410.798	-0.03
411.002	-0.04
411.207	-0.02
411.411	0.07
411.616	-0.03
411.82	-0.06
412.025	0.06
412.229	-0.06
412.434	0.06
412.638	-0.04
412.843	-0.01
413.047	-0.03
413.252	-0.04
413.456	-0.04
413.66	0.05
413.865	0
414.069	0.03
414.273	-0.01
414.478	-0.03
414.682	-0.01
414.886	-0.05
415.091	-0.05
415.295	-0.09
415.499	0.03
415.703	-0.04
415.908	0.01
416.112	-0.1
416.316	0.04
416.52	-0.03
416.724	-0.04
416.929	-0.05
417.133	0.07
417.337	-0.05
417.541	-0.04
417.745	-0.04
417.949	0.06
418.153	-0.04
418.357	-0.03
418.561	0.07
418.765	-0.04
418.969	0.16
419.173	0.07
419.377	-0.05
419.581	0.09
419.785	-0.02
419.989	-0.07
420.193	-0.05
420.397	-0.02
420.601	0.04
420.804	0.01
421.008	-0.05
421.212	-0.02
421.416	0.04
421.62	-0.04
421.823	-0.03
422.027	0.06
422.231	0.02
422.435	-0.02
422.638	-0
422.842	-0.01
423.046	-0.02
423.249	0.03
423.453	0.04
423.657	0.01
423.86	-0.01
424.064	0
424.268	0.08
424.471	-0.01
424.675	0.04
424.878	0.07
425.082	0.01
425.285	-0
425.489	0
425.692	-0.03
425.896	-0.08
426.099	0.03
426.303	-0.03
426.506	-0.08
426.71	0.01
426.913	0.03
427.116	0.02
427.32	0.02
427.523	-0.01
427.726	0.03
427.93	-0.03
428.133	0.01
428.336	-0.03
428.54	-0.06
428.743	0
428.946	0.03
429.149	-0.07
429.353	0.05
429.556	-0.05
429.759	-0.04
429.962	-0.07
430.165	-0.04
430.368	-0.04
430.571	-0.05
430.775	-0
430.978	0
431.181	-0
431.384	0.01
431.587	-0.02
431.79	-0.01
431.993	-0.05
432.196	-0
432.399	-0.02
432.602	0.05
432.805	-0.02
433.008	-0.02
433.211	-0.08
433.414	0.02
433.616	-0.01
433.819	-0
434.022	-0.08
434.225	0.05
434.428	-0.03
434.631	0.05
434.833	-0.04
435.036	-0.04
435.239	0.05
435.442	-0.05
435.645	-0.06
435.847	-0.01
436.05	0.08
436.253	0
436.455	-0.04
436.658	-0.01
436.861	0.05
437.063	-0.03
437.266	-0.02
437.468	0.01
437.671	0.11
437.874	-0.01
438.076	-0.05
438.279	-0.07
438.481	-0
438.684	-0.05
438.886	0.02
439.089	-0.09
439.291	-0.05
439.494	0
439.696	-0.06
439.899	-0.03
440.101	-0.03
440.303	-0.09
440.506	0
440.708	-0.04
440.91	0
441.113	-0.06
441.315	0.04
441.517	-0.03
441.72	0.01
441.922	-0.06
442.124	-0.09
442.326	0.02
442.529	0.13
442.731	-0.07
442.933	0.05
443.135	-0.02
443.337	-0.02
443.539	-0.08
443.742	0.01
443.944	0.01
444.146	-0.06
444.348	-0.07
444.55	-0.05
444.752	-0
444.954	-0.08
445.156	0.03
445.358	-0.04
445.56	0.05
445.762	0
445.964	0.05
446.166	-0.08
446.368	-0.07
446.57	0.03
446.772	-0.02
446.974	-0.02
447.175	-0.02
447.377	-0.05
447.579	-0.05
447.781	-0.09
447.983	0.06
448.184	0.01
448.386	0.03
448.588	-0.08
448.79	0.01
448.991	-0.03
449.193	0
449.395	0.04
449.597	0.01
449.798	0.01
450	0.02
450.202	-0.03
450.403	-0.01
450.605	0.08
450.806	0
451.008	-0.08
451.21	-0.02
451.411	-0
451.613	-0
451.814	-0.01
452.016	0.07
452.217	-0.01
452.419	0.03
452.62	-0
452.821	0.06
453.023	0.06
453.224	0.05
453.426	-0.08
453.627	0
453.828	0.08
454.03	-0.01
454.231	-0.01
454.432	-0.08
454.634	0.08
454.835	-0.07
455.036	-0.05
455.238	0.03
455.439	0.11
455.64	-0.05
455.841	-0.05
456.042	0.04
456.244	0.01
456.445	-0.03
456.646	-0.08
456.847	-0.01
457.048	0.01
457.249	0.03
457.45	0.16
457.651	-0.05
457.852	0.01
458.054	0.01
458.255	0.01
458.456	-0.01
458.657	0.02
458.858	-0.06
459.058	0.01
459.259	0.01
459.46	-0.04
459.661	-0.01
459.862	0.05
460.063	-0.01
460.264	0.07
460.465	-0.05
460.666	0.08
460.866	-0.04
461.067	-0.03
461.268	-0.05
461.469	0.02
461.67	-0.02
461.87	-0.05
462.071	-0.04
462.272	0
462.473	0.02
462.673	0.03
462.874	-0.08
463.075	0.01
463.275	-0.07
463.476	-0
463.676	0.01
463.877	-0.02
464.078	-0.02
464.278	0.02
464.479	-0.06
464.679	-0.01
464.88	-0.01
465.08	0.08
465.281	-0.04
465.481	-0.01
465.682	-0.01
465.882	0.01
466.083	0.01
466.283	-0
466.483	0.01
466.684	-0.05
466.884	-0.05
467.085	0.01
467.285	0.06
467.485	-0.06
467.686	-0
467.886	-0.04
468.086	-0.02
468.286	0.02
468.487	0.01
468.687	-0.07
468.887	-0.03
469.087	0.03
469.287	0.02
469.488	-0.05
469.688	0.01
469.888	0.03
470.088	0.03
470.288	0.04
470.488	0.02
470.688	-0.05
470.888	-0.03
471.088	-0.09
471.288	0.06
471.488	0.03
471.688	0.03
471.888	-0.05
472.088	0.04
472.288	0.03
472.488	-0.02
472.688	-0.05
472.888	-0.01
473.088	-0.02
473.288	0.01
473.488	-0.05
473.688	0.03
473.887	0
474.087	-0.02
474.287	0.01
474.487	-0.03
474.687	0.02
474.886	-0.01
475.086	-0
475.286	0.01
475.486	-0.01
475.685	0
475.885	-0.02
476.085	-0.03
476.284	0.03
476.484	-0.05
476.684	0.02
476.883	0.04
477.083	0.01
477.282	-0
477.482	0.02
477.681	0.04
477.881	0.01
478.08	-0.02
478.28	-0.03
478.479	-0.01
478.679	0.09
478.878	-0.04
479.078	-0.05
479.277	-0.03
479.477	0.02
479.676	0.04
479.875	-0.01
480.075	-0.05
480.274	0.01
480.473	-0
480.673	-0.01
480.872	0.05
481.071	0.01
481.271	0.03
481.47	-0.05
481.669	-0.03
481.868	-0.04
482.067	-0.02
482.267	-0.02
482.466	-0.05
482.665	-0.02
482.864	-0.04
483.063	-0.02
483.262	-0
483.461	0.05
483.661	0.04
483.86	-0
484.059	0.06
484.258	-0.01
484.457	-0.01
484.656	-0.01
484.855	0.06
485.054	-0.06
485.253	-0.02
485.452	-0.05
485.651	-0.02
485.849	0
486.048	-0.03
486.247	-0.03
486.446	-0
486.645	-0.05
486.844	-0.04
487.043	-0.02
487.241	0.03
487.44	-0.03
487.639	-0.02
487.838	0.02
488.037	-0
488.235	0.04
488.434	-0.01
488.633	-0.03
488.831	-0.01
489.03	0
489.229	0.01
489.427	-0.01
489.626	0.03
489.825	0.03
490.023	0
490.222	-0.02
490.42	0.02
490.619	0.03
490.817	0.01
491.016	0.01
491.214	0.02
491.413	-0.02
491.611	-0.01
491.81	-0.01
492.008	0.02
492.207	0.02
492.405	0.03
492.604	-0.02
492.802	-0
493	-0.02
493.199	-0.02
493.397	0.01
493.595	-0.01
493.794	-0.03
493.992	0.05
494.19	-0.02
494.388	0.02
494.587	-0
494.785	0.01
494.983	-0.01
495.181	-0.02
495.379	0
495.578	-0.01
495.776	0.03
495.974	-0
496.172	-0.02
496.37	-0.01
496.568	-0.03
496.766	-0.01
496.964	0.04
497.162	0
497.36	-0.03
497.558	0.03
497.756	0.04
497.954	-0
498.152	-0.02
498.35	-0
498.548	-0.02
498.746	-0.02
498.944	-0.04
499.142	-0.02
499.34	-0.03
499.538	-0.04
499.736	-0.02
499.933	0.02
500.131	0.01
500.329	0
500.527	0.02
500.725	0
500.922	0
501.12	-0.01
501.318	0
501.516	-0.02
501.713	-0
501.911	-0
502.109	-0.02
502.306	-0
502.504	-0
502.701	-0.03
502.899	-0
503.097	0.01
503.294	0
503.492	-0.02
503.689	0.01
503.887	0.02
504.084	0.02
504.282	0.03
504.479	-0.05
504.677	-0
504.874	-0.03
505.072	-0.02
505.269	-0.02
505.466	0.03
505.664	0.01
505.861	-0.04
506.059	-0.02
506.256	0.03
506.453	-0.04
506.651	0.03
506.848	0.02
507.045	0.01
507.242	-0.01
507.44	-0.01
507.637	-0.02
507.834	0.01
508.031	0.02
508.229	-0.04
508.426	0.01
508.623	0.02
508.82	-0
509.017	-0.02
509.214	-0.03
509.411	-0
509.608	-0.03
509.805	-0
510.003	-0.03
510.2	-0.01
510.397	0.02
510.594	-0.04
510.791	-0.02
510.988	0
511.184	0.02
511.381	0.02
511.578	-0.05
511.775	0.02
511.972	-0.03
512.169	-0.02
512.366	0
512.563	-0
512.76	-0.02
512.956	0.02
513.153	-0.03
513.35	0
513.547	-0.01
513.744	-0.02
513.94	-0.04
514.137	0.01
514.334	-0
514.53	-0.01
514.727	0.01
514.924	0.03
515.12	-0.03
515.317	-0.02
515.514	-0.03
515.71	-0.04
515.907	-0.02
516.103	0.01
516.3	0.01
516.497	0.01
516.693	0.02
516.89	-0.01
517.086	-0.03
517.283	0.06
517.479	0.01
517.676	-0.02
517.872	-0.01
518.068	-0.02
518.265	-0.01
518.461	-0.02
518.658	-0.03
518.854	-0
519.05	-0.03
519.247	-0.01
519.443	-0.01
519.639	-0.01
519.836	-0
520.032	-0.01
520.228	0.01
520.424	0.03
520.621	0.01
520.817	0.01
521.013	0.01
521.209	-0.01
521.405	0.01
521.601	-0.02
521.798	0
521.994	0.03
522.19	-0.02
522.386	-0.03
522.582	0
522.778	0.01
522.974	0
523.17	-0.01
523.366	0.01
523.562	0.02
523.758	-0.02
523.954	-0.01
524.15	-0.03
524.346	0.02
524.542	-0.01
524.738	-0.01
524.934	0.01
525.129	-0.01
525.325	0
525.521	0.01
525.717	0.02
525.913	-0
526.109	-0
526.304	0.01
526.5	0.02
526.696	0.02
526.892	0.01
527.087	-0.01
527.283	-0.03
527.479	0
527.674	-0.04
527.87	-0.01
528.066	-0.01
528.261	0.05
528.457	-0.02
528.653	0
528.848	-0.03
529.044	-0
529.239	0
529.435	0.03
529.63	0.01
529.826	0.03
530.021	0.01
530.217	0.02
530.412	-0.01
530.608	-0.01
530.803	0.01
530.999	-0
531.194	-0.03
531.389	0.02
531.585	-0.05
531.78	-0.01
531.975	-0
532.171	0.03
532.366	-0
532.561	0.01
532.757	-0.02
532.952	-0.02
533.147	0
533.342	-0
533.538	-0.03
533.733	0.01
533.928	0
534.123	-0.01
534.318	-0.04
534.513	-0.01
534.709	-0
534.904	-0.01
535.099	-0.01
535.294	-0
535.489	-0.01
535.684	0
535.879	-0.04
536.074	-0
536.269	-0.03
536.464	0
536.659	-0.01
536.854	-0.03
537.049	0
537.244	-0.01
537.439	-0.01
537.634	0.01
537.828	-0.01
538.023	-0.02
538.218	-0.03
538.413	0.01
538.608	-0.05
538.803	0.01
538.997	-0.03
539.192	0.02
539.387	0.02
539.582	0.01
539.776	0.01
539.971	-0.01
540.166	-0.01
540.36	-0.03
540.555	-0.01
540.75	-0.01
540.944	-0
541.139	-0.05
541.334	-0.01
541.528	-0
541.723	0.03
541.917	-0.02
542.112	-0.03
542.306	-0.01
542.501	-0.01
542.695	-0.01
542.89	-0.01
543.084	0
543.279	-0.01
543.473	0
543.668	-0.03
543.862	-0.01
544.056	0.02
544.251	-0.01
544.445	-0
544.64	0
544.834	-0.02
545.028	0
545.222	0
545.417	0.03
545.611	0.03
545.805	0.01
546	-0.03
546.194	-0.01
546.388	-0.03
546.582	0.02
546.776	-0.01
546.97	-0
547.165	-0.01
547.359	0
547.553	-0.01
547.747	-0.01
547.941	-0.01
548.135	-0.02
548.329	0.01
548.523	0.01
548.717	-0.01
548.911	-0.03
549.105	-0.01
549.299	-0
549.493	0.02
549.687	0.01
549.881	-0.02
550.075	0.02
550.269	-0.03
550.463	0.01
550.657	-0.02
550.85	0
551.044	-0.02
551.238	0.01
551.432	-0.01
551.626	-0.04
551.82	-0.01
552.013	-0.01
552.207	-0.01
552.401	0.01
552.594	-0
552.788	-0.02
552.982	0.01
553.176	-0.02
553.369	0
553.563	0.01
553.756	-0.05
553.95	-0.04
554.144	0
554.337	0.02
554.531	0
554.724	0.01
554.918	-0.03
555.111	0.01
555.305	-0.01
555.498	0.05
555.692	0.02
555.885	-0.01
556.079	0.02
556.272	-0.04
556.466	0.01
556.659	0
556.852	-0.03
557.046	-0
557.239	0.01
557.432	-0.04
557.626	-0.03
557.819	-0.02
558.012	0.01
558.206	-0
558.399	0.01
558.592	-0.01
558.785	-0.02
558.979	0.04
559.172	-0
559.365	0.02
559.558	0.01
559.751	-0.01
559.944	-0.02
560.138	-0.01
560.331	-0.02
560.524	-0.01
560.717	-0
560.91	-0
561.103	-0.01
561.296	0.01
561.489	-0.01
561.682	0.01
561.875	0.03
562.068	-0.01
562.261	-0
562.454	0.02
562.647	0.02
562.84	0
563.032	-0.01
563.225	0.02
563.418	-0.03
563.611	-0.01
563.804	0
563.997	-0.04
564.19	-0.03
564.382	-0.05
564.575	0.01
564.768	0
564.961	-0.01
565.153	-0.01
565.346	0.03
565.539	0.03
565.731	0.03
565.924	0.03
566.117	0.01
566.309	-0.01
566.502	-0.02
566.695	0.01
566.887	-0.01
567.08	-0.03
567.272	-0.01
567.465	-0.01
567.657	0.01
567.85	-0
568.042	0.02
568.235	0.02
568.427	-0
568.62	0
568.812	0.02
569.005	0.01
569.197	-0.08
569.389	-0.01
569.582	-0
569.774	0.01
569.966	-0.02
570.159	-0.03
570.351	-0
570.543	-0.02
570.736	0.01
570.928	-0.03
571.12	-0.02
571.312	-0.02
571.505	-0.04
571.697	0.01
571.889	-0.02
572.081	-0
572.273	-0.04
572.465	0.03
572.658	0.01
572.85	0.01
573.042	0
573.234	-0.02
573.426	0.03
573.618	-0.03
573.81	-0
574.002	0.02
574.194	0.04
574.386	-0.03
574.578	-0.08
574.77	-0.03
574.962	-0.02
575.154	-0.02
575.346	-0.02
575.538	0
575.729	-0.02
575.921	0.01
576.113	-0.03
576.305	0.03
576.497	-0.02
576.689	-0.02
576.88	-0.03
577.072	-0
577.264	-0
577.456	-0.01
577.647	-0.09
577.839	0.01
578.031	0.03
578.223	-0.01
578.414	-0.03
578.606	0.01
578.798	-0.01
578.989	-0.01
579.181	0
579.372	-0
579.564	-0.01
579.755	-0.01
579.947	0.01
580.139	0.03
580.33	-0.06
580.522	-0.03
580.713	-0.06
580.905	-0.01
581.096	0.03
581.287	-0.02
581.479	-0.01
581.67	0.01
581.862	-0.01
582.053	-0.04
582.244	-0.05
582.436	-0.03
582.627	0.01
582.818	-0.01
583.01	-0.06
583.201	0.03
583.392	0.01
583.583	-0
583.775	-0.03
583.966	-0.04
584.157	-0.02
584.348	-0.02
584.54	-0.05
584.731	-0.01
584.922	-0.01
585.113	-0.04
585.304	0
585.495	0.03
585.686	0.01
585.877	0.01
586.068	0.03
586.259	0.01
586.45	-0
586.641	-0.03
586.832	-0.05
587.023	0
587.214	0.01
587.405	0
587.596	-0.02
587.787	0.03
587.978	-0.02
588.169	-0.03
588.36	-0.02
588.551	0
588.742	-0.02
588.932	-0
589.123	0.01
589.314	0.01
589.505	0
589.696	0.01
589.886	-0.04
590.077	-0.04
590.268	-0
590.458	-0.05
590.649	-0.03
590.84	0.04
591.03	-0.04
591.221	-0.01
591.412	-0.04
591.602	-0.01
591.793	0.04
591.984	-0.03
592.174	-0.02
592.365	0.07
592.555	-0.02
592.746	0.04
592.936	0.01
593.127	0.04
593.317	0.04
593.508	-0.03
593.698	-0.03
593.889	-0
594.079	0.01
594.269	-0.03
594.46	-0.01
594.65	-0.02
594.84	-0.01
595.031	-0.01
595.221	-0.03
595.411	-0.07
595.602	0.03
595.792	-0
595.982	-0
596.172	0.04
596.363	-0.01
596.553	0.01
596.743	-0.01
596.933	0.02
597.123	0.04
597.314	-0.03
597.504	-0
597.694	0.03
597.884	0.01
598.074	0.01
598.264	-0.03
598.454	0.02
598.644	-0.01
598.834	-0
599.024	-0.02
599.214	-0.01
599.404	0.03
599.594	-0
599.784	0
599.974	0.04
600.164	0.02
600.354	-0.03
600.544	-0.05
600.734	-0.01
600.924	0.05
601.114	-0
601.303	-0.01
601.493	-0.02
601.683	-0.01
601.873	0.01
602.063	-0.04
602.252	0.01
602.442	-0.08
602.632	-0.04
602.821	-0.05
603.011	-0
603.201	-0.04
603.39	-0.04
603.58	-0.03
603.77	0
603.959	0.01
604.149	-0.02
604.339	-0.04
604.528	0.02
604.718	0.03
604.907	-0.02
605.097	-0.01
605.286	-0.03
605.476	-0
605.665	0.01
605.855	-0.02
606.044	0.05
606.234	0.01
606.423	-0.01
606.612	-0.04
606.802	0.01
606.991	-0
607.181	0.02
607.37	-0.06
607.559	-0
607.749	-0.03
607.938	-0.02
608.127	-0.02
608.316	-0.02
608.506	-0.01
608.695	-0.01
608.884	-0.03
609.073	-0.01
609.263	0
609.452	-0
609.641	0.01
609.83	-0.06
610.019	0.01
610.208	-0.02
610.397	0
610.586	0.01
610.775	-0.02
610.965	-0.03
611.154	-0.03
611.343	-0.01
611.532	-0.04
611.721	-0.03
611.91	-0.02
612.099	0.01
612.287	-0.01
612.476	-0.05
612.665	0
612.854	-0.01
613.043	0.02
613.232	-0.02
613.421	-0.07
613.61	0
613.798	-0
613.987	0.01
614.176	0.01
614.365	0.01
614.554	-0.03
614.742	0
614.931	-0.04
615.12	0.01
615.309	-0.01
615.497	0
615.686	-0.04
615.875	-0.01
616.063	-0.02
616.252	-0.03
616.44	-0.04
616.629	-0.01
616.818	0.03
617.006	-0.01
617.195	-0.03
617.383	0.03
617.572	-0.01
617.76	-0.01
617.949	-0.03
618.137	0.02
618.326	0.02
618.514	-0.04
618.703	-0.03
618.891	0.04
619.079	-0.06
619.268	0.01
619.456	-0.01
619.644	0.04
619.833	-0.01
620.021	-0.03
620.209	-0.04
620.398	0.02
620.586	-0
620.774	-0.01
620.962	0.01
621.151	0.06
621.339	-0.02
621.527	-0.03
621.715	-0.09
621.903	-0.04
622.092	-0.04
622.28	0.03
622.468	-0
622.656	0.01
622.844	0.01
623.032	-0.04
623.22	-0.07
623.408	-0.01
623.596	-0.02
623.784	-0
623.972	-0.05
624.16	-0.04
624.348	0.01
624.536	-0.03
624.724	-0.04
624.912	0.05
625.1	0.03
625.288	-0.04
625.476	-0.04
625.664	0.02
625.851	-0.03
626.039	0
626.227	0.02
626.415	-0.02
626.603	-0.08
626.79	-0.03
626.978	-0.02
627.166	0.03
627.354	-0.01
627.541	-0.06
627.729	-0.08
627.917	0.01
628.104	0.04
628.292	0
628.48	-0.01
628.667	-0.01
628.855	0.01
629.042	0.01
629.23	-0.02
629.418	-0.02
629.605	-0
629.793	-0.04
629.98	-0.03
630.168	-0.03
630.355	-0.03
630.543	0.03
630.73	-0.05
630.917	0.04
631.105	0.06
631.292	-0.04
631.48	0
631.667	0.04
631.854	0.01
632.042	-0.01
632.229	-0.04
632.416	-0.02
632.604	-0.02
632.791	-0.05
632.978	0.02
633.165	0
633.353	0.04
633.54	0.06
633.727	-0.09
633.914	-0.02
634.101	-0.07
634.289	0.02
634.476	-0.05
634.663	-0.05
634.85	0.03
635.037	-0.04
635.224	-0.08
635.411	0.03
635.598	0.01
635.785	-0.02
635.972	-0.02
636.159	0.03
636.346	-0.05
636.533	-0.01
636.72	-0.02
636.907	0.01
637.094	0.03
637.281	0.01
637.468	-0.03
637.655	-0.01
637.842	-0.01
638.029	-0.03
638.215	0.01
638.402	-0.02
638.589	-0.02
638.776	-0.01
638.963	-0.05
639.149	0.05
639.336	0.08
639.523	0.01
639.709	-0.01
639.896	-0.03
640.083	0.03
640.27	-0.01
640.456	-0
640.643	0
640.829	-0.06
641.016	-0.01
641.203	-0.04
641.389	0.01
641.576	0.03
641.762	-0.01
641.949	-0.01
642.135	0.02
642.322	0.01
642.508	-0.05
642.695	-0.05
642.881	-0.01
643.068	-0.02
643.254	-0.01
643.441	0.02
643.627	-0
643.813	-0
644	0.03
644.186	-0.02
644.372	-0.02
644.559	0.02
644.745	0
644.931	-0.03
645.118	0.01
645.304	-0.03
645.49	-0.03
645.676	0.01
645.862	0.01
646.049	0.03
646.235	-0.02
646.421	0.03
646.607	0.04
646.793	-0.04
646.979	-0.05
647.165	-0.02
647.352	-0.03
647.538	0.08
647.724	-0.01
647.91	-0
648.096	0.03
648.282	0.03
648.468	0.03
648.654	0.02
648.84	-0.05
649.026	0.02
649.212	-0.04
649.397	-0.03
649.583	-0.05
649.769	0.02
649.955	0.01
650.141	0.03
650.327	0.04
650.513	-0.04
650.698	0.01
650.884	-0.07
651.07	0.02
651.256	0.03
651.442	-0.01
651.627	-0.03
651.813	0.02
651.999	0.02
652.184	0.01
652.37	-0.05
652.556	-0.03
652.741	0.04
652.927	-0.09
653.113	-0.03
653.298	-0.02
653.484	-0.01
653.669	-0.08
653.855	-0.05
654.04	0.01
654.226	0.02
654.412	0.01
654.597	-0.02
654.782	0
654.968	0.04
655.153	0.01
655.339	-0.02
655.524	-0.03
655.71	0
655.895	0.01
656.08	0
656.266	0.05
656.451	0.02
656.636	-0.06
656.822	-0.02
657.007	-0.01
657.192	-0.02
657.378	-0.08
657.563	-0.01
657.748	0.02
657.933	-0.01
658.118	-0.05
658.304	-0.01
658.489	0.01
658.674	-0.01
658.859	-0.02
659.044	-0.03
659.229	0.01
659.414	-0
659.599	-0.01
659.785	-0.07
659.97	0.01
660.155	0.01
660.34	-0.01
660.525	-0.02
660.71	-0.03
660.895	0.01
661.08	-0.02
661.264	-0.04
661.449	0.01
661.634	0.05
661.819	-0
662.004	0.01
662.189	-0.05
662.374	-0.05
662.559	-0.03
662.743	-0.02
662.928	-0.03
663.113	-0.03
663.298	-0.05
663.483	-0.05
663.667	0.04
663.852	-0.02
664.037	0.04
664.221	-0.04
664.406	0.03
664.591	0.01
664.775	-0.01
664.96	-0.04
665.145	-0.03
665.329	0.01
665.514	-0.03
665.698	-0
665.883	-0.08
666.068	0.06
666.252	0
666.437	-0.03
666.621	-0.01
666.806	0
666.99	-0.03
667.174	-0.05
667.359	0.06
667.543	-0.04
667.728	-0.02
667.912	-0.06
668.096	-0.02
668.281	-0.02
668.465	-0.05
668.649	-0.01
668.834	-0.04
669.018	-0.01
669.202	-0.02
669.387	-0
669.571	0.06
669.755	-0.05
669.939	-0
670.124	0
670.308	0.09
670.492	0.02
670.676	-0
670.86	0
671.044	-0.07
671.228	0.03
671.413	-0.04
671.597	-0.05
671.781	-0.05
671.965	0.01
672.149	-0
672.333	-0.01
672.517	-0.03
672.701	-0.03
672.885	-0.04
673.069	-0.07
673.253	0.04
673.437	-0
673.621	-0.06
673.804	-0.04
673.988	-0.01
674.172	0
674.356	-0.08
674.54	-0.01
674.724	0.07
674.908	0.01
675.091	0.05
675.275	-0.02
675.459	0.02
675.643	-0.02
675.826	0.01
676.01	-0.03
676.194	0
676.377	0.01
676.561	0.01
676.745	0.03
676.928	0
677.112	0.02
677.296	-0.02
677.479	-0.04
677.663	-0.03
677.846	0.01
678.03	-0.02
678.213	-0.02
678.397	-0.01
678.58	-0.05
678.764	-0.05
678.947	-0.04
679.131	-0.02
679.314	0.01
679.498	-0.04
679.681	-0.02
679.865	0.07
680.048	-0.01
680.231	-0.01
680.415	0.01
680.598	-0.06
680.781	-0.04
680.965	-0.05
681.148	0.03
681.331	-0.02
681.514	0.04
681.698	-0.03
681.881	0.01
682.064	-0.02
682.247	-0
682.43	-0.07
682.614	0.03
682.797	0.01
682.98	0.03
683.163	-0.06
683.346	0.03
683.529	-0.01
683.712	-0.06
683.895	0.07
684.078	-0.05
684.261	-0.01
684.444	0.04
684.627	-0
684.81	0.01
684.993	-0.01
685.176	0.02
685.359	-0
685.542	-0.03
685.725	0.03
685.908	-0.01
686.091	-0.01
686.274	0.01
686.457	-0
686.639	0.02
686.822	0.07
687.005	-0.02
687.188	0.01
687.371	0.07
687.553	-0.01
687.736	0.05
687.919	0.09
688.102	0.05
688.284	-0.05
688.467	-0.01
688.65	-0.07
688.832	-0.02
689.015	-0.02
689.197	-0.04
689.38	0.13
689.563	0.07
689.745	-0.02
689.928	-0.03
690.11	-0.02
690.293	0.06
690.475	-0.06
690.658	0.01
690.84	-0.01
691.023	0
691.205	0
691.388	0.01
691.57	0.05
691.752	0
691.935	-0.05
692.117	-0.03
692.3	0.05
692.482	0.07
692.664	0.04
692.847	0.02
693.029	0.11
693.211	0.02
693.393	0.03
693.576	-0.01
693.758	-0.02
693.94	-0.03
694.122	-0.01
694.304	-0.03
694.487	-0.04
694.669	0.07
694.851	-0.06
695.033	0.01
695.215	-0.01
695.397	-0.08
695.579	0.03
695.761	-0.05
695.943	-0.05
696.125	0.04
696.308	0.03
696.49	-0.09
696.671	0.11
696.853	0.05
697.035	0.1
697.217	0.01
697.399	0.04
697.581	-0.08
697.763	0
697.945	-0.03
698.127	0.07
698.309	0.05
698.491	0
698.672	0.09
698.854	0.05
699.036	0.12
699.218	0
699.399	0.13
699.581	0.05
699.763	-0
699.945	0.01
700.126	-0.05
700.308	0.05
700.49	0.04
700.671	-0.09
700.853	-0.02
701.035	-0.02
701.216	0.04
701.398	-0.04
701.579	0.02
701.761	0.03
701.943	-0
702.124	0.04
702.306	0.01
702.487	0.17
702.669	0.01
702.85	-0
703.031	-0.04
703.213	0.16
703.394	0.07
703.576	0.01
703.757	0.06
703.938	0.12
704.12	0.14
704.301	0.03
704.483	0
704.664	0.05
704.845	0.17
705.026	0.05
705.208	0.05
705.389	0.07
705.57	0.07
705.751	0
705.933	0.05
706.114	0.1
706.295	0.03
706.476	0.04
706.657	0.11
706.838	0.05
707.02	0.1
707.201	0.03
707.382	0.01
707.563	0.07
707.744	-0.02
707.925	-0.05
708.106	0.02
708.287	0.06
708.468	0.15
708.649	0.01
708.83	0.11
709.011	0.05
709.192	0.15
709.373	0.03
709.554	0.05
709.734	0.11
709.915	0.09
710.096	0.03
710.277	0.01
710.458	0.09
710.639	0.11
710.819	0
711	0.08
711.181	0.12
711.362	0.12
711.542	0.09
711.723	0.06
711.904	0.07
712.085	0.13
712.265	0.09
712.446	0.02
712.627	0.1
712.807	0.05
712.988	0.1
713.168	0.02
713.349	0.13
713.53	0
713.71	-0.02
713.891	0.02
714.071	0.05
714.252	0.04
714.432	0.11
714.613	-0.01
714.793	0.08
714.974	0.16
715.154	0.13
715.334	0.13
715.515	0.27
715.695	0.02
715.876	0.08
716.056	0.1
716.236	0.1
716.417	0.06
716.597	0.06
716.777	0.26
716.957	0.1
717.138	0.1
717.318	0.12
717.498	0.07
717.678	0.09
717.859	0.13
718.039	0.01
718.219	0.13
718.399	0.24
718.579	0.11
718.759	0.02
718.939	0.19
719.12	0.16
719.3	0.16
719.48	0.03
719.66	0.01
719.84	0.23
720.02	0.17
720.2	0.09
720.38	0.15
720.56	0.21
720.74	0.11
720.92	0.14
721.1	0.27
721.279	0.23
721.459	0.17
721.639	0.01
721.819	0.19
721.999	0.13
722.179	0.27
722.359	0.1
722.538	0.22
722.718	0.19
722.898	0.14
723.078	0.15
723.257	0.19
723.437	0.13
723.617	0.21
723.797	0.21
723.976	0.15
724.156	0.23
724.336	0.27
724.515	0.41
724.695	0.08
724.874	0.22
725.054	0.22
725.234	0.15
725.413	0.25
725.593	0.21
725.772	0.23
725.952	0.31
726.131	0.24
726.311	0.22
726.49	0.24
726.67	0.17
726.849	0.21
727.028	0.26
727.208	0.24
727.387	0.27
727.567	0.14
727.746	0.28
727.925	0.29
728.105	0.15
728.284	0.25
728.463	0.3
728.643	0.32
728.822	0.21
729.001	0.27
729.18	0.3
729.359	0.44
729.539	0.28
729.718	0.32
729.897	0.36
730.076	0.35
730.255	0.22
730.434	0.35
730.614	0.34
730.793	0.5
730.972	0.32
731.151	0.36
731.33	0.44
731.509	0.4
731.688	0.4
731.867	0.37
732.046	0.26
732.225	0.53
732.404	0.31
732.583	0.2
732.762	0.5
732.941	0.41
733.12	0.38
733.298	0.4
733.477	0.47
733.656	0.37
733.835	0.28
734.014	0.45
734.193	0.37
734.371	0.39
734.55	0.5
734.729	0.37
734.908	0.46
735.086	0.53
735.265	0.45
735.444	0.26
735.623	0.34
735.801	0.38
735.98	0.42
736.159	0.38
736.337	0.43
736.516	0.38
736.694	0.49
736.873	0.25
737.052	0.52
737.23	0.45
737.409	0.35
737.587	0.59
737.766	0.23
737.944	0.38
738.123	0.48
738.301	0.43
738.479	0.45
738.658	0.39
738.836	0.25
739.015	0.5
739.193	0.38
739.371	0.23
739.55	0.25
739.728	0.32
739.906	0.48
740.085	0.44
740.263	0.41
740.441	0.12
740.62	0.52
740.798	0.43
740.976	0.17
741.154	0.09
741.332	0.41
741.511	0.23
741.689	0.36
741.867	0.36
742.045	0.2
742.223	0.2
742.401	0.18
742.579	0.15
742.757	0.2
742.935	0.13
743.114	0.11
743.292	0.04
743.47	0.22
743.648	0.09
743.826	0.05
744.004	0.24
744.181	0.22
744.359	0.13
744.537	0.19
744.715	0.12
744.893	0.11
745.071	0.03
745.249	0.16
745.427	0.12
745.605	0.23
745.782	0.11
745.96	0.18
746.138	0.13
746.316	0.15
746.493	0.15
746.671	0.05
746.849	0.14
747.027	0.23
747.204	0.04
747.382	0.13
747.56	-0.13
747.737	0.16
747.915	0.02
748.093	0.16
748.27	-0.06
748.448	0.06
748.625	-0.05
748.803	-0.09
748.98	-0.02
749.158	0.04
749.335	0.16
749.513	0.03
749.69	0.04
749.868	0.05
750.045	0.13
750.223	-0.02
750.4	-0.22
750.578	0.27
750.755	0.09
750.932	-0.06
751.11	0.18
751.287	-0.02
751.464	0.16
751.642	-0.12
751.819	0.05
751.996	0.03
752.173	-0.03
752.351	-0.04
752.528	0.06
752.705	-0.01
752.882	0.04
753.06	0.13
753.237	0.15
753.414	0.22
753.591	0.15
753.768	0.03
753.945	-0.13
754.122	0.01
754.299	0.11
754.476	-0.04
754.654	-0
754.831	0.08
755.008	0.16
755.185	-0.01
755.362	-0.03
755.539	0.08
755.716	-0.07
755.892	0.03
756.069	0.08
756.246	-0.04
756.423	0.12
756.6	0.11
756.777	0.04
756.954	0.13
757.131	-0
757.307	0.01
757.484	-0.15
757.661	-0.06
757.838	0.04
758.015	-0.06
758.191	0.11
758.368	0.15
758.545	0.14
758.721	0.01
758.898	-0.12
759.075	0.1
759.251	0.11
759.428	0.05
759.605	-0.08
759.781	0.1
759.958	0.04
760.134	0.07
760.311	-0.07
760.488	0.06
760.664	0.19
760.841	-0.06
761.017	-0.02
761.194	0.04
761.37	0.08
761.547	0.07
761.723	-0.24
761.899	-0
762.076	-0.02
762.252	-0.11
762.429	-0.1
762.605	0.13
762.781	-0.02
762.958	0.14
763.134	0
763.31	0.01
763.486	0.15
763.663	-0.21
763.839	0.13
764.015	-0.03
764.191	-0.08
764.368	-0.11
764.544	-0.1
764.72	0.15
764.896	0.1
765.072	0.06
765.248	-0.12
765.425	-0.01
765.601	-0.1
765.777	-0.01
765.953	-0.19
766.129	-0.07
766.305	-0.06
766.481	0.01
766.657	0.01
766.833	0.26
767.009	-0.04
767.185	-0.1
767.361	-0.06
767.537	-0.24
767.713	0.23
767.889	-0.08
768.065	0
768.24	0.01
768.416	0.06
768.592	-0.11
768.768	-0.04
768.944	0.08
769.12	-0.12
769.295	-0.08
769.471	-0.09
769.647	0.06
769.823	0.11
769.998	-0.21
770.174	0.01
770.35	0.27
770.525	0.18
770.701	0.02
770.877	-0.12
771.052	-0.14
771.228	0.07
771.403	-0.02
771.579	0.17
771.755	0.25
771.93	-0.02
772.106	-0.06
772.281	-0.21
772.457	0.03
772.632	0.09
772.808	-0.06
772.983	-0.02
773.159	-0.11
773.334	0.07
773.509	-0.05
773.685	0.05
773.86	0.41
774.036	0.22
774.211	0.02
774.386	-0.13
774.562	0.03
774.737	0.06
774.912	-0.15
775.087	0.17
775.263	-0.11
775.438	0.08
775.613	-0.13
775.788	-0.14
775.964	0.24
776.139	0.3
776.314	-0.2
776.489	-0.01
776.664	0.25
776.839	-0.21
777.014	-0.08
777.19	0.09
777.365	0.26
777.54	0.15
777.715	-0.06
777.89	0.05
778.065	-0.11
778.24	-0.04
778.415	0.12
778.59	-0.24
778.765	-0.03
778.94	0.11
779.115	-0.13
779.289	-0.08
779.464	-0
779.639	0.06
779.814	-0.21
779.989	-0.19
780.164	0.08
780.339	-0.02
780.513	-0.14
780.688	0
780.863	0.13
781.038	0.07
781.212	-0.22
781.387	0.06
781.562	0.33
781.737	-0.2
781.911	0.18
782.086	-0.18
782.261	-0.03
782.435	0.18
782.61	-0.25
782.784	0.09
782.959	0.14
783.134	-0.09
783.308	-0.28
783.483	-0.22
783.657	0.15
783.832	0.17
784.006	-0.4
784.181	-0.05
784.355	0.08
784.53	-0.34
784.704	-0.07
784.878	0.32
785.053	0.08
785.227	-0.03
785.402	0.23
785.576	-0.19
785.75	0.11
785.925	0
786.099	-0.02
786.273	0.09
786.448	0.18
786.622	0.12
786.796	0.08
786.97	-0.19
787.145	0.23
787.319	-0.38
787.493	0.01
787.667	-0.33
787.841	0.01
788.015	0.12
788.19	-0.01
788.364	0.16
788.538	0.16
788.712	0.2
788.886	0.06
789.06	-0.09
789.234	0.13
789.408	-0.33
789.582	0.1
789.756	-0.06
789.93	-0.2
790.104	0.13
790.278	-0.08
790.452	-0.27
790.626	0.19
790.8	-0.12
790.973	0.05
791.147	0.18
791.321	0.06
791.495	0.35
791.669	0.14
791.843	0.12
792.016	0.11
792.19	0.26
792.364	-0.22
792.538	0.29
792.711	0.28
792.885	-0.12
793.059	-0.24
793.233	-0.52
793.406	0.26
793.58	0.04
793.754	0.21
793.927	-0.12
794.101	0.23
794.274	-0.05
794.448	0.27
794.622	-0.47
794.795	0.54
794.969	-0.04
795.142	0.45
795.316	-0.03
795.489	-0.21
795.663	0.29
795.836	0.1
796.009	-0.22
796.183	0.28
796.356	-0.11
796.53	-0.06
796.703	0.27
796.876	0.56
797.05	-0.28
797.223	-0.11
797.396	0.08
797.57	-0.05
797.743	0.43
797.916	-0.04
798.09	0.06
798.263	0.16
798.436	-0.05
798.609	-0.33
798.782	-0.04
798.956	0.21
799.129	-0.04
799.302	-0.12
799.475	-0.31
799.648	-0.13
799.821	-0.02
799.994	0.08
800.167	-0.36
800.34	0.14
800.514	0.16
800.687	-0.24
800.86	-0.23
801.033	-0.18
801.206	-0.07
801.379	-0.3
801.551	0.14
801.724	0
801.897	0.3
802.07	0.07
802.243	-0.58
802.416	-0.01
802.589	-0.03
802.762	-0.13
802.935	-0
803.107	-0.09
803.28	0.19
803.453	0.13
803.626	-0.35
803.798	-0.06
803.971	-0.01
804.144	0.16
804.317	0.15
804.489	0.38
804.662	0.15
804.835	-0.06
805.007	-0.04
805.18	0.29
805.353	0.02
805.525	-0.28
805.698	-0.35
805.87	0.42
806.043	0.02
806.215	-0.29
806.388	-0.12
806.56	0.23
806.733	0.25
806.905	-0.14
807.078	-0.28
807.25	-0.36
807.423	0.12
807.595	-0.22
807.768	-0.19
807.94	0.24
808.112	0.33
808.285	0.09
808.457	-0.37
808.629	-0.15
808.802	0.48
808.974	0.04
809.146	0.08
809.318	-0.32
809.491	-0.14
809.663	0.13
809.835	-0.02
810.007	0.11
810.18	0.14
810.352	-0.46
810.524	-0.24
810.696	0.46
810.868	0.42
811.04	0.08
811.212	-0.3
811.384	0.22
811.556	0.07
811.728	0.21
811.901	0.53
812.073	-0.08
812.245	0.26
812.417	-0.07
812.589	-0.39
812.76	-0.23
812.932	-0.01
813.104	0.14
813.276	-0.26
813.448	0.26
813.62	0.13
813.792	0.18
813.964	0.07
814.136	0.05
814.307	-0.06
814.479	-0.49
814.651	-0.14
814.823	0.78
814.995	-0.14
815.166	0
815.338	-0.31
815.51	-0.51
815.681	0.71
815.853	0.04
816.025	-0.24
816.196	0.48
816.368	0.39
816.54	-0.34
816.711	-0.03
816.883	0.26
817.054	0.71
817.226	-0.4
817.398	0.27
817.569	0.04
817.741	-0
817.912	0.02
818.084	0.11
818.255	0.19
818.426	-0.12
818.598	0.24
818.769	-0.26
818.941	-0.38
819.112	0.63
819.283	0.37
819.455	-0.31
819.626	0.06
819.798	0.17
819.969	-0.19
820.14	0.03
820.311	-0.29
820.483	0.15
820.654	0.55
820.825	-0.11
820.996	-0.25
821.168	-0.48
821.339	-0.27
821.51	-0.4
821.681	-0.3
821.852	0.07
822.023	-0.37
822.195	-0.41
822.366	0.06
822.537	0.2
822.708	0.21
822.879	-0.3
823.05	0.58
823.221	-0.12
823.392	0.31
823.563	0.16
823.734	0.27
823.905	-0.26
824.076	-0.28
824.247	-0.51
824.418	-0.47
824.589	0.19
824.759	-0.53
824.93	0.24
825.101	-0.82
825.272	0.28
825.443	0.71
825.614	0.77
825.784	-0.18
825.955	0.98
826.126	0.89
826.297	-0.37
826.467	0.86
826.638	1.07
826.809	-0.88
826.98	-0.02
827.15	-0.2
827.321	0.18
827.492	0.67
827.662	0.25
827.833	0.67
828.003	0.33
828.174	-0.63
828.345	-0.4
828.515	0.59
828.686	0.43
828.856	-0.26
829.027	-0.16
829.197	0.09
829.368	0.07
829.538	0.17
829.709	-0.38
829.879	0.01
830.049	0.2
830.22	0.01
830.39	-0.15
830.56	0.74
830.731	0.11
830.901	-0.62
831.072	0.18
831.242	0.21
831.412	0.31
831.582	-0.03
831.753	-0.6
831.923	0.55
832.093	0.26
832.263	-0.02
832.434	-0.43
832.604	-0.46
832.774	0.41
832.944	-0.09
833.114	-0.13
833.284	0.08
833.454	-0.7
833.624	-0.37
833.795	-0.23
833.965	0.93
834.135	0.67
834.305	-1.12
834.475	-0.5
834.645	-0.35
834.815	-0.93
834.985	-0.52
835.155	-0.33
835.325	0.13
835.494	0.51
835.664	-0.09
835.834	-0.65
836.004	0.13
836.174	0.43
836.344	0.3
836.514	-0.84
836.684	-0.55
836.853	0.03
837.023	-0.26
837.193	-0.5
837.363	-0.53
837.532	0.4
837.702	0.06
837.872	-0.77
838.041	0.83
838.211	0.95
838.381	-0.29
838.55	0.33
838.72	1.6
838.89	1.2
839.059	0.01
839.229	-0.88
839.398	1.16
839.568	-0.14
839.738	-0.22
839.907	0.92
840.077	0.25
840.246	-0.45
840.416	-1.07
840.585	-0.9
840.755	1.03
840.924	0.7
841.093	-0.35
841.263	-0.03
841.432	0.27
841.602	-0.79
841.771	-0.46
841.94	-0.22
842.11	1.73
842.279	0.94
842.448	-0.09
842.617	-1.83
842.787	0.99
842.956	-0.96
843.125	0.23
843.294	0.33
843.464	1.19
843.633	0.36
843.802	-1.06
843.971	0.01
844.14	0.29
844.309	0.68
844.479	-1.38
844.648	-0.56
844.817	-0.65
844.986	0.63
845.155	0.51
845.324	-0.56
845.493	-0.35
845.662	-0.6
845.831	1.38
846	0.78
846.169	-0.06
846.338	1.4
846.507	0.63
846.676	0.05
846.844	-0.54
847.013	0.22
847.182	-0.27
847.351	-0.03
847.52	-0.13
847.689	0.7
847.858	0.24
848.026	-0.24
848.195	-0.16
848.364	-0.36
848.533	-0.14
848.701	-0.65
848.87	-0.74
849.039	1.28
849.207	0.42
849.376	0.39
849.545	0.9
849.713	0.04
849.882	-0.36
850.051	0.36
850.219	0.51
850.388	0.91
850.556	-0.71
850.725	-0.24
850.893	0.52
851.062	-0.08
851.23	0.83
851.399	-0.59
851.567	-1.01
851.736	0.32
851.904	-2.11
852.073	1.4
852.241	0.49
852.41	-0.16
852.578	0.27
852.746	-0.95
852.915	0.62
853.083	0.33
853.251	-1.04
853.42	-0.57
853.588	-0.3
853.756	1.17
853.924	-0.32
854.093	0.12
854.261	-0.51
854.429	-1.75
854.597	0.89
854.765	-1.55
854.934	0.84
855.102	1.21
855.27	0.16
855.438	0.84
855.606	0.42
855.774	1.38
855.942	-1.57
856.11	-2.61
856.278	0.59
856.446	1.36
856.614	-0.3
856.782	-0.31
856.95	-0.2
857.118	0.19
857.286	0.4
857.454	-1.43
857.622	0.89
857.79	0.41
857.958	-1.36
858.126	-0.07
858.294	-2.6
858.462	-0.85
858.629	-0.1
858.797	-1.16
858.965	0.69
859.133	0.66
859.301	-0.59
859.468	0.97
859.636	-0.5
859.804	1.18
859.971	1.57
860.139	0.17
860.307	0.48
860.474	-0.14
860.642	-0.14
860.81	-0.34
860.977	0.73
861.145	0.19
861.313	-1.24
861.48	-0.36
861.648	1.12
861.815	-0.36
861.983	-1.54
862.15	-0.28
862.318	1.45
862.485	2.24
862.653	-1.03
862.82	-0.3
862.988	1.81
863.155	0.49
863.322	-1.61
863.49	-1.58
863.657	-0.05
863.824	1.3
863.992	0.72
864.159	0.4
864.326	0.34
864.494	-0.12
864.661	1.48
864.828	-2.45
864.996	0.42
865.163	1.7
865.33	-0.45
865.497	-2.41
865.664	-0.21
865.832	-2.27
865.999	-1.84
866.166	-0.74
866.333	-1.26
866.5	0.39
866.667	0.36
866.834	-1.18
867.001	0.59
867.168	-0.1
867.335	-0.47
867.502	-2.54
867.669	0.29
867.836	1.89
868.003	-0.06
868.17	1.6
868.337	-1.76
868.504	1.61
868.671	-1.71
868.838	-1.36
869.005	-0.2
869.172	0.39
869.339	0.21
869.505	0.05
869.672	0.78
869.839	1.78
870.006	-0.41
870.173	-3.05
870.339	-0.15
870.506	1.68
870.673	-1.88
870.84	1.95
871.006	0.11
871.173	-0.36
871.34	0.32
871.506	-1.58
871.673	-0.03
871.839	-2.15
872.006	-0.14
872.173	-0.21
872.339	0.07
872.506	0.95
872.672	-0.93
872.839	-1.73
873.005	-0.33
873.172	1.9
873.338	1.47
873.505	-0.43
873.671	-0.32
873.838	0.09
874.004	-1.37
874.171	-0.65
874.337	-0.73
874.503	1.19
874.67	-0.49
874.836	-0.72
875.002	1.2
875.169	2.44
875.335	0.23
875.501	-0.35
875.668	-0.31
875.834	-0.19
876	-0.24
876.166	1.61
876.332	0.02
876.499	1.63
876.665	0.24
876.831	0.37
876.997	2.75
877.163	0.92
877.329	1.78
877.495	2.22
877.662	1.23
877.828	0.46
877.994	0
878.16	-2.51
878.326	-1.16
878.492	-0.87
878.658	0.12
878.824	0.8
878.99	0.21
879.156	-1.99
879.322	3.66
879.487	-1.42
879.653	1.01
879.819	-0.26
879.985	-1.93
880.151	0.83
880.317	0.47
880.483	-0.69
880.648	1.39
880.814	-2.07
880.98	1.07
881.146	-1.7
881.312	-1.74
881.477	-0.45
881.643	0.74
881.809	2.66
881.974	1.13
882.14	-3.21
882.306	0.95
882.471	2.83
882.637	-0.22
882.803	1.3
882.968	2.94
883.134	2.9
883.299	-0.35
883.465	-0.93
883.63	0.97
883.796	0.9
883.961	1.04
884.127	0.21
884.292	-4.45
884.458	-0.59
884.623	-0.59
