Data from Apollo_Calib_20240827__AbsoluteIrradiance__148__01-37-03-128.txt Node

Date: Wed Aug 28 01:37:03 BST 2024
User: biology
Spectrometer: FLMT08252
Trigger mode: 0
Integration Time (sec): 5.000000E-1
Scans to average: 5
Electric dark correction enabled: true
Nonlinearity correction enabled: false
Boxcar width: 0
XAxis mode: Wavelengths
Number of Pixels in Spectrum: 3648
>>>>>Begin Spectral Data<<<<<
179.588	-0
179.809	-0
180.03	-0
180.251	-0
180.473	-0
180.694	0
180.915	0
181.136	-0
181.357	0
181.578	-0
181.799	-0
182.02	-0
182.241	-0
182.462	-0
182.683	0
182.904	-0
183.125	0
183.346	0
183.567	0
183.788	-0
184.009	-0
184.23	-0
184.451	0
184.672	-0
184.892	-0
185.113	0
185.334	0
185.555	-0
185.776	-0
185.996	0
186.217	-0
186.438	-0
186.659	-0
186.879	0
187.1	0
187.321	0
187.541	-0
187.762	0
187.983	-0
188.203	-0
188.424	-0
188.644	-0
188.865	0
189.086	-0
189.306	-0
189.527	-0
189.747	0
189.968	-0
190.188	0
190.409	-0
190.629	0
190.849	-0
191.07	-0
191.29	0
191.511	0
191.731	-0
191.951	-0
192.172	-0
192.392	0
192.612	-0
192.833	-0
193.053	0
193.273	0
193.493	-0
193.714	-0
193.934	0
194.154	0
194.374	-0
194.594	-0
194.815	-0
195.035	0
195.255	-0
195.475	-0
195.695	0
195.915	0
196.135	-0
196.355	0
196.575	0
196.795	-0
197.015	-0
197.235	-0
197.455	-0
197.675	0
197.895	-0
198.115	-0
198.335	0
198.555	-0
198.775	-0
198.995	0
199.214	0
199.434	-0
199.654	-0
199.874	-0
200.094	0.14
200.313	-0.72
200.533	-0.13
200.753	-0.69
200.973	0.72
201.192	0.43
201.412	-0.95
201.632	-0.48
201.851	0.61
202.071	-0.8
202.291	-0.61
202.51	-0.55
202.73	0.56
202.95	-0.26
203.169	-0.23
203.389	-0.39
203.608	-0.04
203.828	-0.47
204.047	-0.15
204.267	0.35
204.486	0.4
204.706	0.43
204.925	0
205.145	-0.28
205.364	0.64
205.583	0.54
205.803	-0.28
206.022	-0.38
206.242	-0.04
206.461	0.45
206.68	-0.53
206.9	0.19
207.119	0.68
207.338	0.39
207.557	-0.31
207.777	-0.19
207.996	-0.15
208.215	0.22
208.434	-0.56
208.654	-0.3
208.873	0.27
209.092	0.43
209.311	-0.27
209.53	0.07
209.749	-0.2
209.968	-0.27
210.187	-0.16
210.407	-0.59
210.626	-0.39
210.845	0.03
211.064	-0.08
211.283	-0.3
211.502	0.07
211.721	-0
211.94	-0.24
212.159	-0.06
212.377	-0.18
212.596	0.37
212.815	-0.11
213.034	0.12
213.253	0.12
213.472	-0.11
213.691	-0.22
213.91	-0.31
214.128	-0.15
214.347	0.36
214.566	-0.34
214.785	-0.34
215.003	0
215.222	0.03
215.441	-0.17
215.66	-0.34
215.878	-0.12
216.097	0.15
216.316	-0.31
216.534	-0.16
216.753	-0.07
216.972	-0.25
217.19	-0.31
217.409	-0.1
217.627	-0.2
217.846	-0.12
218.064	0
218.283	-0.25
218.501	0.5
218.72	0.09
218.938	-0.26
219.157	0.01
219.375	0.13
219.594	0.1
219.812	-0.26
220.031	-0.24
220.249	0.26
220.467	0.04
220.686	-0.25
220.904	-0.23
221.122	-0.17
221.341	0.47
221.559	-0.02
221.777	-0.24
221.995	0.11
222.214	0.1
222.432	-0.01
222.65	0.08
222.868	0.1
223.086	-0.02
223.305	0.06
223.523	-0.06
223.741	0.26
223.959	-0.21
224.177	-0.22
224.395	-0.07
224.613	-0.02
224.831	0.03
225.049	-0.22
225.267	-0.06
225.485	0.05
225.703	-0.07
225.921	-0.1
226.139	0.04
226.357	0.07
226.575	0.03
226.793	-0.09
227.011	0.52
227.229	-0.12
227.447	0.11
227.665	-0.19
227.883	-0.18
228.1	-0
228.318	0.02
228.536	-0.31
228.754	-0.14
228.972	0.02
229.189	-0.01
229.407	-0.1
229.625	-0.1
229.843	0.11
230.06	-0.01
230.278	-0.11
230.496	-0.15
230.713	-0.06
230.931	0.06
231.149	-0.14
231.366	-0.27
231.584	-0
231.801	0.28
232.019	-0.04
232.236	-0.25
232.454	-0.12
232.671	0.04
232.889	0.01
233.106	-0.12
233.324	0.01
233.541	0
233.759	0.1
233.976	-0.16
234.194	-0.09
234.411	-0.08
234.628	-0.11
234.846	-0.09
235.063	-0.03
235.28	-0.01
235.498	0
235.715	-0.12
235.932	0.16
236.149	0.02
236.367	-0.07
236.584	-0.06
236.801	-0.1
237.018	0.07
237.236	0.03
237.453	-0.11
237.67	0.09
237.887	-0.09
238.104	-0.07
238.321	-0.19
238.538	-0.05
238.755	0.15
238.973	-0.21
239.19	-0.04
239.407	0.02
239.624	-0.04
239.841	-0.12
240.058	-0.08
240.275	0.04
240.492	-0.11
240.709	-0.05
240.925	-0.01
241.142	0.05
241.359	-0.12
241.576	-0.18
241.793	-0.23
242.01	-0.06
242.227	0.06
242.444	0.01
242.66	-0.01
242.877	-0.11
243.094	-0.14
243.311	0
243.527	-0.06
243.744	0.05
243.961	0.04
244.178	-0.1
244.394	-0.05
244.611	0.13
244.828	0.12
245.044	-0.16
245.261	-0
245.477	-0.04
245.694	-0
245.911	-0.09
246.127	-0.02
246.344	0.06
246.56	0.03
246.777	-0.03
246.993	0.02
247.21	-0.03
247.426	0.04
247.643	-0.08
247.859	-0.16
248.076	-0.03
248.292	0.19
248.508	-0.01
248.725	0.03
248.941	0.02
249.157	0.04
249.374	-0.05
249.59	-0.03
249.806	-0.05
250.023	0.02
250.239	-0.13
250.455	-0.09
250.671	-0.09
250.888	0.02
251.104	0.01
251.32	-0.09
251.536	-0.08
251.752	-0.08
251.969	-0.06
252.185	0.04
252.401	0.13
252.617	-0
252.833	-0.04
253.049	-0.02
253.265	-0.01
253.481	-0.03
253.697	-0.1
253.913	-0.18
254.129	-0.03
254.345	-0.02
254.561	-0.01
254.777	-0.09
254.993	-0.01
255.209	-0.01
255.425	-0.04
255.641	-0.11
255.857	0.07
256.073	-0.03
256.288	-0.09
256.504	-0.04
256.72	-0.01
256.936	0.06
257.152	-0.05
257.367	-0.07
257.583	0
257.799	0.05
258.015	-0.08
258.23	-0.06
258.446	0.12
258.662	-0.03
258.877	-0.1
259.093	-0.08
259.309	0.03
259.524	0.03
259.74	-0.04
259.955	-0.14
260.171	-0.01
260.387	-0.04
260.602	0.03
260.818	-0.01
261.033	-0.07
261.249	-0.06
261.464	-0.08
261.68	-0.12
261.895	0.05
262.11	0.01
262.326	-0.09
262.541	-0.1
262.757	0.13
262.972	0.02
263.187	0.01
263.403	-0.03
263.618	0.09
263.833	-0.03
264.049	-0.09
264.264	0.04
264.479	0.09
264.694	0.18
264.91	-0.1
265.125	-0.04
265.34	0.04
265.555	0.11
265.77	0.03
265.986	-0.09
266.201	0.02
266.416	0.11
266.631	-0.06
266.846	-0.03
267.061	0.01
267.276	0.03
267.491	-0.13
267.706	0.01
267.921	-0.01
268.136	0
268.351	0.04
268.566	-0.07
268.781	0.13
268.996	0.02
269.211	-0.05
269.426	-0.06
269.641	-0.08
269.856	0.06
270.071	-0.06
270.285	-0.09
270.5	0.04
270.715	0.02
270.93	-0.02
271.145	-0.01
271.359	0.06
271.574	-0.1
271.789	-0.03
272.004	-0.08
272.218	-0.08
272.433	0.09
272.648	-0.07
272.862	0.01
273.077	0
273.292	-0.02
273.506	-0.04
273.721	-0.05
273.936	0.01
274.15	0.08
274.365	-0.01
274.579	-0.02
274.794	-0.01
275.008	0.01
275.223	-0.09
275.437	-0.05
275.652	0.06
275.866	0.03
276.081	-0.04
276.295	0.11
276.509	-0.01
276.724	-0.03
276.938	0.04
277.153	-0.02
277.367	0.1
277.581	-0.04
277.796	-0.03
278.01	-0.08
278.224	0.11
278.438	0.14
278.653	-0.04
278.867	-0.04
279.081	0.04
279.295	-0.06
279.51	0.01
279.724	-0.1
279.938	0.03
280.152	0.03
280.366	-0.08
280.58	-0.02
280.794	0.04
281.008	0.01
281.222	0.04
281.437	0.03
281.651	0
281.865	0.06
282.079	-0.06
282.293	-0.09
282.507	-0.06
282.721	0
282.935	-0.03
283.148	-0.04
283.362	-0.02
283.576	-0.09
283.79	0.01
284.004	-0.05
284.218	0.06
284.432	0
284.646	-0.02
284.859	-0.03
285.073	-0.07
285.287	-0.04
285.501	-0.07
285.714	-0.02
285.928	0.02
286.142	-0.05
286.356	-0.04
286.569	-0.03
286.783	0.12
286.997	0.02
287.21	-0
287.424	0.02
287.637	-0.05
287.851	-0.03
288.065	0.03
288.278	-0.01
288.492	-0
288.705	-0
288.919	-0.02
289.132	-0.08
289.346	0.01
289.559	-0.05
289.773	-0.08
289.986	-0.01
290.2	-0.04
290.413	0.02
290.626	-0.05
290.84	-0.08
291.053	-0.03
291.267	0.04
291.48	0.05
291.693	0.05
291.906	-0.04
292.12	-0.02
292.333	0
292.546	0.01
292.76	0.05
292.973	-0.01
293.186	0.06
293.399	-0.01
293.612	0.07
293.826	0.01
294.039	-0.02
294.252	0
294.465	0.02
294.678	0.06
294.891	0.04
295.104	-0.02
295.317	-0.01
295.53	0.02
295.743	-0.01
295.956	-0.01
296.169	0.06
296.382	-0.01
296.595	0
296.808	0.01
297.021	0.05
297.234	0.01
297.447	-0.01
297.66	0.02
297.873	0.06
298.086	0.02
298.299	-0.04
298.511	-0.07
298.724	0.03
298.937	-0.04
299.15	-0.02
299.363	0.01
299.575	0.02
299.788	0.02
300.001	-0.04
300.213	-0.04
300.426	-0.05
300.639	-0.03
300.852	-0.01
301.064	0.05
301.277	0.08
301.489	0
301.702	0.06
301.915	-0.01
302.127	-0.01
302.34	0.01
302.552	-0.01
302.765	-0.04
302.977	0.02
303.19	-0.01
303.402	0.03
303.615	0.01
303.827	-0.03
304.04	-0.01
304.252	0.01
304.464	-0.02
304.677	0.14
304.889	0.05
305.102	-0.05
305.314	-0.04
305.526	0.06
305.739	0
305.951	-0.07
306.163	-0.04
306.375	0.05
306.588	0.01
306.8	-0.04
307.012	-0.06
307.224	-0
307.436	0.05
307.649	-0.03
307.861	0.03
308.073	0.03
308.285	-0.01
308.497	-0.05
308.709	-0.03
308.921	-0.01
309.133	0.01
309.346	-0.01
309.558	-0.04
309.77	0.04
309.982	0.06
310.194	0.06
310.406	-0.05
310.617	0.05
310.829	-0.02
311.041	-0.02
311.253	-0.06
311.465	-0.04
311.677	-0
311.889	0.02
312.101	-0.05
312.313	0.03
312.524	0.06
312.736	-0.01
312.948	-0
313.16	0.07
313.372	0.01
313.583	-0.02
313.795	-0.01
314.007	-0.01
314.218	0.02
314.43	0
314.642	-0.04
314.853	-0.04
315.065	0.06
315.277	-0.02
315.488	0
315.7	0.06
315.912	-0.02
316.123	-0.03
316.335	0.03
316.546	0.07
316.758	0.01
316.969	-0
317.181	-0.01
317.392	0.04
317.604	0.05
317.815	-0.04
318.026	-0.05
318.238	-0.03
318.449	0.03
318.661	-0.09
318.872	-0.07
319.083	-0.08
319.295	0.02
319.506	-0.04
319.717	0.01
319.929	0.03
320.14	-0.01
320.351	-0.02
320.562	-0.01
320.774	-0.01
320.985	0.01
321.196	-0.06
321.407	-0.09
321.618	0.02
321.829	0
322.041	0.02
322.252	0.01
322.463	0.03
322.674	0.02
322.885	-0
323.096	-0
323.307	0.01
323.518	-0.01
323.729	-0.03
323.94	-0.01
324.151	-0.04
324.362	0.01
324.573	0.01
324.784	-0.03
324.995	0.06
325.206	-0
325.417	-0.03
325.628	0.01
325.838	-0.01
326.049	0.03
326.26	0.06
326.471	0.01
326.682	0.01
326.892	-0.02
327.103	-0.07
327.314	-0.08
327.525	0.11
327.735	-0.01
327.946	-0.01
328.157	-0.02
328.368	0
328.578	-0.03
328.789	-0.04
328.999	-0.01
329.21	0.01
329.421	0.04
329.631	-0.02
329.842	-0.07
330.052	0.03
330.263	0.04
330.473	0.01
330.684	-0.03
330.894	-0.04
331.105	0.06
331.315	-0.03
331.526	-0.1
331.736	0.03
331.947	0.04
332.157	0.03
332.367	-0.05
332.578	-0
332.788	0.03
332.999	-0.01
333.209	0.03
333.419	0
333.629	0.02
333.84	0.04
334.05	-0.01
334.26	0
334.47	0.02
334.681	0.04
334.891	-0.02
335.101	0.01
335.311	0.09
335.521	0
335.732	-0.03
335.942	0.08
336.152	0.01
336.362	0.01
336.572	-0
336.782	-0.03
336.992	-0.03
337.202	-0.05
337.412	-0.07
337.622	-0.01
337.832	0.02
338.042	0
338.252	-0.05
338.462	-0.03
338.672	0.02
338.882	-0.07
339.092	0.01
339.302	0.06
339.511	0.01
339.721	-0.07
339.931	-0.03
340.141	0.03
340.351	0.04
340.561	-0.03
340.77	0.01
340.98	-0.02
341.19	0.03
341.4	-0.06
341.609	-0.06
341.819	-0.03
342.029	-0.05
342.238	0.04
342.448	-0.04
342.658	0
342.867	-0.01
343.077	-0.01
343.286	-0
343.496	-0.01
343.706	0.03
343.915	-0.07
344.125	0.01
344.334	0.02
344.544	-0.07
344.753	-0.05
344.963	-0.02
345.172	-0.03
345.381	0.02
345.591	-0.04
345.8	0.02
346.01	0.08
346.219	0.03
346.428	-0.14
346.638	-0.03
346.847	-0.01
347.056	0.06
347.266	-0.02
347.475	0.01
347.684	0.04
347.893	0.04
348.103	0.04
348.312	-0.01
348.521	-0.03
348.73	0.01
348.94	0.01
349.149	-0.02
349.358	-0.05
349.567	-0.03
349.776	-0.07
349.985	-0.04
350.194	0.07
350.403	0.04
350.612	-0.07
350.821	-0.01
351.03	-0.03
351.239	-0.06
351.448	-0.02
351.657	-0.02
351.866	0.05
352.075	-0.01
352.284	0.03
352.493	-0.05
352.702	0.03
352.911	0.03
353.12	-0.01
353.329	-0.03
353.538	0.05
353.746	0
353.955	-0.01
354.164	0.04
354.373	-0.02
354.582	-0
354.79	-0.02
354.999	-0.01
355.208	0.02
355.416	0.04
355.625	-0.02
355.834	-0.02
356.042	0.05
356.251	-0.01
356.46	-0.06
356.668	0.04
356.877	0.09
357.085	0.04
357.294	-0.13
357.503	-0.02
357.711	0.01
357.92	0.09
358.128	-0.02
358.337	-0
358.545	0.01
358.754	-0.01
358.962	0.03
359.17	-0.04
359.379	-0
359.587	0.01
359.796	0
360.004	0.02
360.212	-0.01
360.421	0.01
360.629	-0
360.837	-0.04
361.046	0.02
361.254	0.08
361.462	0.03
361.67	-0.04
361.879	-0
362.087	0.04
362.295	-0.03
362.503	-0.04
362.711	-0.01
362.92	-0.03
363.128	0.01
363.336	-0.04
363.544	-0.05
363.752	-0.03
363.96	-0
364.168	-0.02
364.376	-0.02
364.584	0.01
364.792	0.02
365	-0.01
365.208	-0.02
365.416	0.03
365.624	0
365.832	-0.03
366.04	0.06
366.248	0.02
366.456	0.02
366.664	0.01
366.872	0.02
367.079	-0
367.287	0.01
367.495	-0.03
367.703	-0.02
367.911	0
368.118	0.01
368.326	-0.04
368.534	-0.02
368.742	0.05
368.949	-0.03
369.157	-0.04
369.365	-0
369.572	-0.01
369.78	-0.03
369.988	0.04
370.195	0.03
370.403	0
370.61	-0.01
370.818	0.01
371.026	0.03
371.233	-0.01
371.441	-0.02
371.648	-0.03
371.856	0.04
372.063	0.01
372.271	-0.04
372.478	-0.03
372.685	-0.04
372.893	0.03
373.1	-0.05
373.308	-0.07
373.515	0.08
373.722	-0
373.93	-0.01
374.137	0.05
374.344	0.06
374.552	0.02
374.759	0.03
374.966	-0.04
375.173	-0.04
375.381	0.02
375.588	-0.01
375.795	-0.07
376.002	0.02
376.209	-0.05
376.417	0.02
376.624	-0.03
376.831	-0
377.038	-0.04
377.245	-0.08
377.452	-0.04
377.659	-0.02
377.866	-0.04
378.073	-0.03
378.28	-0.02
378.487	0.01
378.694	-0.01
378.901	-0.01
379.108	-0.03
379.315	-0.03
379.522	0.08
379.729	0.03
379.936	0.05
380.143	-0.03
380.35	0.03
380.557	-0.04
380.763	0.01
380.97	0.01
381.177	0.01
381.384	0.02
381.591	-0.04
381.797	0.02
382.004	-0.01
382.211	0.03
382.418	0
382.624	0.06
382.831	0.03
383.038	-0.02
383.244	0.01
383.451	-0.01
383.658	0.03
383.864	-0
384.071	0.02
384.277	0.03
384.484	-0.06
384.69	0.06
384.897	0
385.103	-0.02
385.31	-0.04
385.516	-0.01
385.723	-0.05
385.929	0
386.136	-0.03
386.342	0.01
386.549	-0.02
386.755	0.07
386.961	-0
387.168	-0.01
387.374	-0.03
387.58	0.02
387.787	0.03
387.993	0.01
388.199	0.02
388.406	-0.05
388.612	-0.01
388.818	0
389.024	0.01
389.231	0.01
389.437	0.04
389.643	0.02
389.849	-0.01
390.055	-0
390.261	0.03
390.467	0
390.674	-0.02
390.88	0.05
391.086	0.05
391.292	-0.04
391.498	0.04
391.704	0.04
391.91	-0.02
392.116	-0
392.322	-0.06
392.528	-0.01
392.734	-0.01
392.94	0.04
393.146	0.02
393.352	0.08
393.557	0.02
393.763	0.06
393.969	0.06
394.175	0.02
394.381	0.03
394.587	0.02
394.792	0.08
394.998	0.1
395.204	0.13
395.41	-0.01
395.615	0.04
395.821	0.07
396.027	0.1
396.233	0.06
396.438	0.07
396.644	0.16
396.85	0.1
397.055	0.05
397.261	0.11
397.466	0.11
397.672	0.11
397.878	0.12
398.083	0.11
398.289	0.09
398.494	0.13
398.7	0.18
398.905	0.04
399.111	0.2
399.316	0.1
399.522	0.13
399.727	0.14
399.932	0.14
400.138	0.15
400.343	0.2
400.549	0.2
400.754	0.21
400.959	0.18
401.165	0.19
401.37	0.25
401.575	0.16
401.78	0.29
401.986	0.23
402.191	0.23
402.396	0.26
402.601	0.3
402.807	0.31
403.012	0.27
403.217	0.32
403.422	0.33
403.627	0.31
403.832	0.38
404.037	0.42
404.243	0.39
404.448	0.35
404.653	0.35
404.858	0.43
405.063	0.41
405.268	0.42
405.473	0.38
405.678	0.41
405.883	0.62
406.088	0.53
406.293	0.42
406.498	0.42
406.703	0.54
406.907	0.5
407.112	0.42
407.317	0.52
407.522	0.56
407.727	0.41
407.932	0.53
408.136	0.61
408.341	0.53
408.546	0.57
408.751	0.51
408.956	0.53
409.16	0.52
409.365	0.49
409.57	0.52
409.774	0.49
409.979	0.5
410.184	0.47
410.388	0.45
410.593	0.46
410.798	0.44
411.002	0.39
411.207	0.47
411.411	0.46
411.616	0.37
411.82	0.37
412.025	0.41
412.229	0.32
412.434	0.4
412.638	0.39
412.843	0.33
413.047	0.36
413.252	0.28
413.456	0.29
413.66	0.29
413.865	0.3
414.069	0.33
414.273	0.23
414.478	0.26
414.682	0.21
414.886	0.2
415.091	0.17
415.295	0.16
415.499	0.29
415.703	0.2
415.908	0.24
416.112	0.14
416.316	0.27
416.52	0.17
416.724	0.15
416.929	0.11
417.133	0.25
417.337	0.19
417.541	0.16
417.745	0.17
417.949	0.17
418.153	0.22
418.357	0.13
418.561	0.25
418.765	0.15
418.969	0.26
419.173	0.18
419.377	0.1
419.581	0.24
419.785	0.11
419.989	0.05
420.193	0.11
420.397	0.15
420.601	0.22
420.804	0.17
421.008	0.08
421.212	0.11
421.416	0.13
421.62	0.08
421.823	0.1
422.027	0.19
422.231	0.15
422.435	0.1
422.638	0.11
422.842	0.05
423.046	0.08
423.249	0.12
423.453	0.08
423.657	0.12
423.86	0.09
424.064	0.06
424.268	0.1
424.471	0.03
424.675	0.16
424.878	0.11
425.082	0.06
425.285	0.11
425.489	0.08
425.692	0.07
425.896	0.01
426.099	0.08
426.303	0.01
426.506	-0.01
426.71	0.08
426.913	0.12
427.116	0.13
427.32	0.05
427.523	0.06
427.726	0.1
427.93	0.04
428.133	0.04
428.336	-0.02
428.54	-0.04
428.743	0.05
428.946	0.06
429.149	0.06
429.353	0.09
429.556	0.05
429.759	0.02
429.962	-0.04
430.165	0.05
430.368	0.04
430.571	-0.05
430.775	0.07
430.978	0.03
431.181	0.05
431.384	0.05
431.587	0.01
431.79	0.02
431.993	0.08
432.196	0.03
432.399	0.02
432.602	0.09
432.805	0.04
433.008	-0.03
433.211	-0.06
433.414	0.04
433.616	0.06
433.819	0.02
434.022	-0.04
434.225	0.08
434.428	0.09
434.631	0.12
434.833	0.01
435.036	0.03
435.239	0.07
435.442	0.05
435.645	-0.02
435.847	0.04
436.05	0.07
436.253	0.06
436.455	-0.02
436.658	0.06
436.861	0.13
437.063	0.04
437.266	0.02
437.468	0.07
437.671	0.17
437.874	0.06
438.076	-0.03
438.279	-0.04
438.481	0.01
438.684	0.04
438.886	0.04
439.089	-0.02
439.291	0.01
439.494	0.05
439.696	0.04
439.899	0.02
440.101	0.03
440.303	0.01
440.506	0.09
440.708	0.03
440.91	0.05
441.113	0.01
441.315	0.07
441.517	0.01
441.72	0.12
441.922	0.01
442.124	-0
442.326	0.09
442.529	0.13
442.731	0.03
442.933	0.12
443.135	0.05
443.337	0.06
443.539	0.03
443.742	0.04
443.944	0.08
444.146	-0
444.348	0.05
444.55	-0
444.752	0.07
444.954	-0.01
445.156	0.05
445.358	0.07
445.56	0.08
445.762	0.05
445.964	0.03
446.166	0.01
446.368	0.01
446.57	0.1
446.772	0.06
446.974	0.03
447.175	0.05
447.377	0.02
447.579	0.04
447.781	0.02
447.983	0.15
448.184	0.06
448.386	0.05
448.588	-0.01
448.79	0.08
448.991	0.07
449.193	0.01
449.395	0.1
449.597	0.05
449.798	0.07
450	0.1
450.202	0.06
450.403	0.07
450.605	0.1
450.806	0.03
451.008	0.03
451.21	0.03
451.411	0.05
451.613	0.04
451.814	0.09
452.016	0.13
452.217	0.08
452.419	0.13
452.62	0.05
452.821	0.12
453.023	0.12
453.224	0.11
453.426	0.09
453.627	0.06
453.828	0.09
454.03	0.06
454.231	0.11
454.432	0
454.634	0.13
454.835	0
455.036	0.02
455.238	0.05
455.439	0.13
455.64	0.03
455.841	-0.01
456.042	0.07
456.244	0.1
456.445	0.01
456.646	-0.05
456.847	0
457.048	0.08
457.249	0.07
457.45	0.17
457.651	-0.02
457.852	0.08
458.054	0.01
458.255	0.05
458.456	0.04
458.657	0.02
458.858	-0
459.058	0.08
459.259	0.05
459.46	0.01
459.661	0.02
459.862	0.12
460.063	0.01
460.264	0.11
460.465	-0.03
460.666	0.12
460.866	0.02
461.067	0.01
461.268	0.04
461.469	0.02
461.67	0.04
461.87	0.01
462.071	-0.02
462.272	-0.02
462.473	0.02
462.673	0.1
462.874	-0.03
463.075	0.02
463.275	-0.02
463.476	0.03
463.676	0.05
463.877	0.01
464.078	-0.02
464.278	0.06
464.479	-0.01
464.679	0.01
464.88	-0
465.08	0.07
465.281	0.01
465.481	-0.01
465.682	-0.02
465.882	0.08
466.083	0.02
466.283	-0
466.483	-0
466.684	-0
466.884	0
467.085	-0.02
467.285	0.06
467.485	-0.02
467.686	-0.01
467.886	-0.04
468.086	0.04
468.286	0.02
468.487	0.04
468.687	-0.08
468.887	0.02
469.087	0.07
469.287	0.01
469.488	-0.05
469.688	0.09
469.888	0.05
470.088	0.02
470.288	0.02
470.488	0.05
470.688	-0.03
470.888	-0.03
471.088	-0.04
471.288	0.06
471.488	0.03
471.688	0.02
471.888	-0.03
472.088	0.06
472.288	0.01
472.488	-0.02
472.688	-0.04
472.888	-0.02
473.088	-0.01
473.288	0.01
473.488	0.01
473.688	0.07
473.887	0.04
474.087	-0.06
474.287	-0.01
474.487	-0.02
474.687	0
474.886	-0.02
475.086	0.02
475.286	0.05
475.486	-0.01
475.685	0.01
475.885	-0.01
476.085	-0.01
476.284	0.04
476.484	-0.02
476.684	0
476.883	0.04
477.083	0.04
477.282	0
477.482	0.04
477.681	0.04
477.881	-0.03
478.08	-0.01
478.28	-0.03
478.479	0.04
478.679	0.06
478.878	-0.05
479.078	0.01
479.277	0
479.477	-0.02
479.676	0.03
479.875	0.01
480.075	-0.06
480.274	0.02
480.473	0.01
480.673	-0.02
480.872	0.04
481.071	0.02
481.271	0.03
481.47	-0.02
481.669	-0
481.868	-0.04
482.067	-0.02
482.267	-0.03
482.466	-0.03
482.665	-0.04
482.864	-0.04
483.063	-0.03
483.262	0.02
483.461	0.05
483.661	0.04
483.86	0.02
484.059	-0
484.258	0.01
484.457	-0.03
484.656	0.02
484.855	0.04
485.054	0
485.253	-0.04
485.452	-0.04
485.651	0.01
485.849	-0.02
486.048	-0.03
486.247	-0.03
486.446	0.01
486.645	-0.03
486.844	-0.05
487.043	0.02
487.241	0.05
487.44	-0.03
487.639	-0.01
487.838	0.05
488.037	0.02
488.235	0.05
488.434	0.01
488.633	-0.02
488.831	0.01
489.03	0.03
489.229	-0.01
489.427	-0.02
489.626	0
489.825	0.04
490.023	-0
490.222	-0.02
490.42	0
490.619	0.03
490.817	0.02
491.016	-0.02
491.214	0.03
491.413	0
491.611	0
491.81	0.02
492.008	0.02
492.207	0.02
492.405	0
492.604	-0.03
492.802	-0.03
493	0.01
493.199	-0.02
493.397	-0
493.595	0
493.794	-0.02
493.992	0.05
494.19	-0
494.388	-0
494.587	-0.01
494.785	-0
494.983	-0.04
495.181	-0.01
495.379	-0
495.578	-0.01
495.776	0.01
495.974	0.01
496.172	-0.02
496.37	-0.01
496.568	-0.03
496.766	-0.02
496.964	0.01
497.162	-0.01
497.36	-0.03
497.558	0
497.756	0.03
497.954	-0.02
498.152	-0.03
498.35	-0
498.548	-0
498.746	-0.02
498.944	-0.04
499.142	0
499.34	-0.02
499.538	0.01
499.736	-0.03
499.933	0.03
500.131	0.05
500.329	0.02
500.527	-0
500.725	0.02
500.922	0
501.12	0.01
501.318	-0
501.516	-0.03
501.713	0.02
501.911	0
502.109	-0.04
502.306	0.01
502.504	0
502.701	-0.02
502.899	-0.01
503.097	0.04
503.294	0.02
503.492	0.01
503.689	0.02
503.887	0.04
504.084	0.05
504.282	-0.01
504.479	-0.03
504.677	0
504.874	-0.04
505.072	-0.01
505.269	-0.01
505.466	0.01
505.664	0.01
505.861	-0.03
506.059	-0.01
506.256	0.02
506.453	-0.01
506.651	0.04
506.848	0.04
507.045	-0
507.242	0.02
507.44	-0.02
507.637	-0.01
507.834	-0.01
508.031	0.04
508.229	-0.03
508.426	0.01
508.623	0.02
508.82	-0.03
509.017	-0.06
509.214	0
509.411	-0
509.608	-0.05
509.805	-0
510.003	-0.02
510.2	-0.01
510.397	-0
510.594	-0.01
510.791	-0.02
510.988	-0.02
511.184	0.01
511.381	-0
511.578	-0.03
511.775	0.02
511.972	-0.02
512.169	-0.02
512.366	-0.02
512.563	0.02
512.76	-0.02
512.956	0.01
513.153	-0.01
513.35	0
513.547	-0.01
513.744	-0.04
513.94	-0.04
514.137	0.01
514.334	-0.01
514.53	0
514.727	0
514.924	0.01
515.12	-0.02
515.317	-0.04
515.514	-0.05
515.71	-0.04
515.907	-0.03
516.103	0.01
516.3	-0.01
516.497	0.01
516.693	0.01
516.89	-0
517.086	-0.03
517.283	0.05
517.479	0
517.676	-0.01
517.872	0
518.068	0
518.265	-0.01
518.461	-0.04
518.658	-0.03
518.854	-0
519.05	-0.01
519.247	-0.02
519.443	0.01
519.639	0.02
519.836	-0.02
520.032	-0.02
520.228	-0
520.424	0.05
520.621	-0
520.817	-0.04
521.013	-0
521.209	0.01
521.405	0.03
521.601	0.01
521.798	0
521.994	0.03
522.19	0.01
522.386	-0.04
522.582	-0.01
522.778	-0.01
522.974	-0.02
523.17	-0.01
523.366	-0
523.562	0.01
523.758	-0
523.954	-0.03
524.15	-0.02
524.346	0
524.542	-0.03
524.738	0
524.934	-0.02
525.129	-0.09
525.325	-0.02
525.521	-0.03
525.717	0.02
525.913	-0
526.109	0.01
526.304	-0.01
526.5	0.01
526.696	0.02
526.892	-0.01
527.087	-0
527.283	-0.03
527.479	-0
527.674	-0
527.87	0
528.066	-0.01
528.261	0.02
528.457	-0.01
528.653	-0.01
528.848	-0.03
529.044	0
529.239	-0
529.435	0.01
529.63	0.02
529.826	0.04
530.021	0.01
530.217	0.02
530.412	-0.01
530.608	-0.01
530.803	-0.01
530.999	-0.02
531.194	-0.04
531.389	-0.02
531.585	-0.05
531.78	-0.01
531.975	-0.02
532.171	0.02
532.366	0.01
532.561	0
532.757	-0.01
532.952	-0
533.147	0.03
533.342	0
533.538	-0.02
533.733	0.01
533.928	-0.02
534.123	-0.01
534.318	-0.03
534.513	0
534.709	0
534.904	-0.01
535.099	-0.02
535.294	-0.02
535.489	-0.01
535.684	-0.01
535.879	-0.05
536.074	-0.02
536.269	-0.02
536.464	-0.01
536.659	-0
536.854	-0
537.049	-0.02
537.244	-0.01
537.439	-0.02
537.634	0.02
537.828	0
538.023	-0.02
538.218	-0.05
538.413	0.01
538.608	-0.07
538.803	0.02
538.997	-0.03
539.192	0.02
539.387	0.01
539.582	0
539.776	0.02
539.971	-0.01
540.166	-0
540.36	-0.02
540.555	0
540.75	-0.01
540.944	-0.02
541.139	-0.05
541.334	-0
541.528	0
541.723	0.01
541.917	-0
542.112	-0.02
542.306	-0
542.501	-0.01
542.695	0.01
542.89	-0.04
543.084	0
543.279	-0.01
543.473	-0.01
543.668	-0.02
543.862	-0.01
544.056	0.01
544.251	-0.02
544.445	0.01
544.64	-0.01
544.834	-0.02
545.028	0.01
545.222	-0
545.417	0.01
545.611	0.03
545.805	0.02
546	0
546.194	-0.02
546.388	-0.02
546.582	0.01
546.776	0
546.97	-0.01
547.165	-0.02
547.359	0.02
547.553	-0.01
547.747	-0.01
547.941	0
548.135	0.01
548.329	0.04
548.523	0.02
548.717	-0.03
548.911	-0.03
549.105	-0
549.299	0
549.493	0.01
549.687	0.01
549.881	0.02
550.075	-0.02
550.269	-0.04
550.463	0.02
550.657	-0.02
550.85	-0.01
551.044	-0.02
551.238	-0
551.432	-0.03
551.626	-0.02
551.82	0
552.013	-0
552.207	-0.01
552.401	0.02
552.594	-0.01
552.788	-0.01
552.982	-0.03
553.176	-0
553.369	-0.01
553.563	-0
553.756	-0.03
553.95	-0.03
554.144	-0.03
554.337	0
554.531	-0.01
554.724	-0.02
554.918	-0.01
555.111	0.01
555.305	-0.01
555.498	0.05
555.692	0.02
555.885	-0.02
556.079	0.01
556.272	-0.02
556.466	0.01
556.659	0.01
556.852	-0.01
557.046	-0.01
557.239	0.01
557.432	-0.03
557.626	-0.04
557.819	-0
558.012	0.01
558.206	-0
558.399	-0.02
558.592	-0
558.785	0.01
558.979	0.01
559.172	0.01
559.365	0.01
559.558	-0.02
559.751	-0.01
559.944	-0.01
560.138	-0.01
560.331	-0.02
560.524	-0.01
560.717	0
560.91	-0.01
561.103	0.02
561.296	-0.02
561.489	0.01
561.682	-0.01
561.875	0.02
562.068	0.01
562.261	0.01
562.454	0.05
562.647	0.01
562.84	0.01
563.032	-0.02
563.225	0.01
563.418	-0.01
563.611	-0.03
563.804	-0.01
563.997	-0.05
564.19	-0.03
564.382	0.01
564.575	0
564.768	0.01
564.961	0
565.153	-0.02
565.346	0.02
565.539	0.01
565.731	0.02
565.924	0.02
566.117	0.03
566.309	0.01
566.502	-0.01
566.695	-0.01
566.887	-0.01
567.08	-0.04
567.272	-0
567.465	-0.03
567.657	0.01
567.85	-0
568.042	0.02
568.235	0
568.427	-0
568.62	0.01
568.812	0.01
569.005	-0.01
569.197	-0.04
569.389	0.02
569.582	0.02
569.774	-0.01
569.966	-0.02
570.159	-0.05
570.351	-0
570.543	-0.02
570.736	0
570.928	-0.02
571.12	-0.01
571.312	-0.01
571.505	-0.04
571.697	0.03
571.889	-0.03
572.081	-0.03
572.273	-0.01
572.465	0.02
572.658	-0.01
572.85	-0.01
573.042	-0.02
573.234	-0.01
573.426	0.01
573.618	-0.04
573.81	0.01
574.002	0.04
574.194	0.02
574.386	-0.04
574.578	-0.06
574.77	-0.03
574.962	-0
575.154	-0.04
575.346	-0.02
575.538	-0.01
575.729	-0.01
575.921	-0.02
576.113	-0.03
576.305	0
576.497	-0.04
576.689	-0.01
576.88	-0.04
577.072	0
577.264	-0.01
577.456	-0.03
577.647	-0.09
577.839	-0
578.031	0.03
578.223	-0.05
578.414	-0.02
578.606	0.02
578.798	-0.01
578.989	-0.03
579.181	-0.01
579.372	-0.01
579.564	-0
579.755	-0.01
579.947	0
580.139	0.01
580.33	-0.04
580.522	-0.04
580.713	-0.07
580.905	-0.01
581.096	0.04
581.287	0.01
581.479	-0.02
581.67	0.03
581.862	-0.01
582.053	-0.04
582.244	-0.06
582.436	-0.03
582.627	0.01
582.818	-0.03
583.01	-0.03
583.201	0.01
583.392	0.01
583.583	-0.01
583.775	-0.02
583.966	-0.05
584.157	-0.01
584.348	-0.06
584.54	-0.03
584.731	-0.01
584.922	-0.02
585.113	-0.02
585.304	0.01
585.495	0.02
585.686	0.01
585.877	-0.02
586.068	0
586.259	0.01
586.45	-0.02
586.641	-0.03
586.832	-0.08
587.023	0.01
587.214	-0.02
587.405	-0.01
587.596	-0.03
587.787	0.04
587.978	0.02
588.169	-0.01
588.36	-0.01
588.551	0.01
588.742	-0.05
588.932	0.01
589.123	-0.01
589.314	0.02
589.505	0.01
589.696	0.01
589.886	-0.02
590.077	-0.05
590.268	-0.01
590.458	-0.05
590.649	-0.05
590.84	0.03
591.03	-0.04
591.221	-0.05
591.412	-0.07
591.602	0.01
591.793	0.03
591.984	-0.05
592.174	-0.03
592.365	0.05
592.555	-0.04
592.746	0
592.936	0.04
593.127	-0
593.317	0.02
593.508	-0.01
593.698	-0.01
593.889	-0
594.079	0
594.269	-0.03
594.46	-0.02
594.65	0
594.84	-0
595.031	-0.06
595.221	-0.01
595.411	-0.05
595.602	-0.01
595.792	0
595.982	-0.04
596.172	0.03
596.363	-0.02
596.553	-0.01
596.743	0.02
596.933	0.02
597.123	0.01
597.314	-0.02
597.504	-0.04
597.694	0.03
597.884	-0.03
598.074	-0.03
598.264	-0.04
598.454	0.02
598.644	-0.01
598.834	0.01
599.024	-0.05
599.214	-0.01
599.404	-0
599.594	-0.01
599.784	-0.04
599.974	0.03
600.164	0.01
600.354	-0.03
600.544	-0.06
600.734	-0.01
600.924	-0.01
601.114	-0
601.303	0.01
601.493	0.02
601.683	-0.02
601.873	-0
602.063	-0.04
602.252	0.05
602.442	-0.07
602.632	-0.02
602.821	-0.05
603.011	0.04
603.201	-0.03
603.39	-0.04
603.58	-0.05
603.77	0.03
603.959	0.05
604.149	-0
604.339	-0.03
604.528	0.02
604.718	-0
604.907	-0.01
605.097	-0.02
605.286	-0.05
605.476	0.01
605.665	0.03
605.855	-0.04
606.044	0.03
606.234	0.02
606.423	-0.02
606.612	-0.05
606.802	0.02
606.991	0.03
607.181	-0
607.37	-0.06
607.559	-0.03
607.749	-0.02
607.938	-0.03
608.127	-0
608.316	-0.03
608.506	-0.01
608.695	-0.04
608.884	-0.01
609.073	0.01
609.263	0.03
609.452	0.01
609.641	-0.01
609.83	-0.03
610.019	0
610.208	-0.02
610.397	-0.02
610.586	-0.01
610.775	-0.03
610.965	-0.01
611.154	-0.03
611.343	0.01
611.532	0
611.721	-0.03
611.91	-0.05
612.099	0.01
612.287	-0.02
612.476	-0.04
612.665	0
612.854	-0.04
613.043	0.01
613.232	-0.04
613.421	-0.03
613.61	0.03
613.798	-0.01
613.987	-0
614.176	-0
614.365	0.02
614.554	-0
614.742	0
614.931	-0.04
615.12	0.03
615.309	-0.01
615.497	-0.01
615.686	-0.03
615.875	-0.03
616.063	-0.04
616.252	-0.03
616.44	-0.03
616.629	-0
616.818	0.03
617.006	-0.01
617.195	-0.01
617.383	0.02
617.572	-0.02
617.76	-0.03
617.949	0
618.137	0.02
618.326	0.01
618.514	-0.02
618.703	-0.01
618.891	0.04
619.079	-0.05
619.268	-0
619.456	-0.02
619.644	-0
619.833	0
620.021	-0.04
620.209	-0.05
620.398	0.01
620.586	-0
620.774	0.01
620.962	-0.02
621.151	0.05
621.339	-0.01
621.527	-0.05
621.715	-0.05
621.903	-0.02
622.092	-0.07
622.28	0
622.468	-0.02
622.656	-0.01
622.844	0.01
623.032	-0.01
623.22	-0.05
623.408	0.03
623.596	0.04
623.784	0.03
623.972	-0.03
624.16	-0.01
624.348	0.07
624.536	-0.02
624.724	-0.03
624.912	0.04
625.1	0.01
625.288	-0.06
625.476	-0.04
625.664	0
625.851	-0.05
626.039	-0.01
626.227	0
626.415	-0.02
626.603	-0.04
626.79	-0.01
626.978	-0.02
627.166	-0
627.354	0.01
627.541	-0.05
627.729	-0.05
627.917	0.03
628.104	0.02
628.292	0
628.48	-0
628.667	0.01
628.855	-0.01
629.042	0.01
629.23	0.01
629.418	-0.04
629.605	0.01
629.793	-0.02
629.98	-0.03
630.168	0.01
630.355	-0.02
630.543	0.02
630.73	-0.04
630.917	0.01
631.105	0.06
631.292	-0.01
631.48	-0.02
631.667	0.07
631.854	0.02
632.042	0
632.229	-0.02
632.416	0.01
632.604	0
632.791	-0.04
632.978	0.01
633.165	0.04
633.353	0.08
633.54	0.02
633.727	-0.08
633.914	-0.02
634.101	-0.08
634.289	0.07
634.476	0
634.663	-0.06
634.85	0.01
635.037	-0.01
635.224	-0.06
635.411	0.03
635.598	0.05
635.785	0
635.972	0
636.159	0.03
636.346	-0
636.533	-0.01
636.72	-0
636.907	-0.01
637.094	0.02
637.281	0.01
637.468	0.03
637.655	0.02
637.842	0.02
638.029	-0.04
638.215	0.05
638.402	0.03
638.589	-0
638.776	-0.01
638.963	-0.02
639.149	0.06
639.336	0.06
639.523	-0.01
639.709	0.01
639.896	0.01
640.083	0.07
640.27	0.04
640.456	-0.01
640.643	0.03
640.829	-0.04
641.016	-0.01
641.203	-0.02
641.389	0.05
641.576	0.02
641.762	0.04
641.949	-0.01
642.135	0.05
642.322	0.03
642.508	-0.04
642.695	0.01
642.881	0.01
643.068	0
643.254	0.01
643.441	0.05
643.627	0.02
643.813	-0.02
644	0.06
644.186	-0.01
644.372	-0.01
644.559	0.07
644.745	0.02
644.931	0
645.118	0.03
645.304	0.02
645.49	0.01
645.676	0.03
645.862	0.06
646.049	0.05
646.235	0.05
646.421	0.07
646.607	0.09
646.793	0.03
646.979	0.02
647.165	0.02
647.352	0.07
647.538	0.08
647.724	0.02
647.91	0.06
648.096	0.07
648.282	0.04
648.468	0.03
648.654	0.03
648.84	0.04
649.026	0.04
649.212	0.07
649.397	0.02
649.583	0.05
649.769	0.06
649.955	0.05
650.141	0.06
650.327	0.09
650.513	0.01
650.698	0.07
650.884	-0
651.07	0.05
651.256	0.03
651.442	0.05
651.627	0.06
651.813	0.06
651.999	0.06
652.184	0.1
652.37	0.06
652.556	0.03
652.741	0.14
652.927	-0.02
653.113	0.05
653.298	0.08
653.484	0.05
653.669	0.02
653.855	0.05
654.04	0.1
654.226	0.09
654.412	0.05
654.597	0.02
654.782	0.09
654.968	0.09
655.153	0.08
655.339	0.05
655.524	0.05
655.71	0.12
655.895	0.07
656.08	0.08
656.266	0.12
656.451	0.12
656.636	0.07
656.822	0.07
657.007	0.05
657.192	0.08
657.378	0.01
657.563	0.11
657.748	0.1
657.933	0.13
658.118	0.09
658.304	0.08
658.489	0.16
658.674	0.08
658.859	0.05
659.044	0.1
659.229	0.11
659.414	0.07
659.599	0.09
659.785	0.05
659.97	0.09
660.155	0.11
660.34	0.11
660.525	0.1
660.71	0.1
660.895	0.13
661.08	0.06
661.264	0.07
661.449	0.12
661.634	0.13
661.819	0.1
662.004	0.1
662.189	-0
662.374	0.06
662.559	0.02
662.743	0.05
662.928	0.06
663.113	0.04
663.298	0.01
663.483	0.03
663.667	0.13
663.852	0.03
664.037	0.11
664.221	0.03
664.406	0.08
664.591	0.07
664.775	0.07
664.96	0.05
665.145	0.05
665.329	0.06
665.514	0
665.698	0.04
665.883	-0.01
666.068	0.06
666.252	0.03
666.437	-0.01
666.621	0.04
666.806	0.03
666.99	0.01
667.174	-0.03
667.359	0.11
667.543	0.01
667.728	0
667.912	-0.05
668.096	0.07
668.281	0.02
668.465	-0.01
668.649	0.01
668.834	-0.05
669.018	0.01
669.202	-0
669.387	-0.06
669.571	0.04
669.755	-0.03
669.939	0.02
670.124	0.01
670.308	0.08
670.492	0.04
670.676	-0.02
670.86	-0.01
671.044	-0.02
671.228	0.05
671.413	-0.03
671.597	0.01
671.781	-0.01
671.965	0.03
672.149	0.01
672.333	-0.01
672.517	-0.03
672.701	0.04
672.885	0
673.069	-0.05
673.253	0.04
673.437	0.01
673.621	-0.04
673.804	0.03
673.988	-0.01
674.172	0.02
674.356	-0.05
674.54	-0
674.724	0.06
674.908	0.01
675.091	0.03
675.275	-0.01
675.459	0.04
675.643	0.08
675.826	0.01
676.01	-0.02
676.194	-0.03
676.377	0.03
676.561	0
676.745	-0.03
676.928	-0
677.112	0.05
677.296	-0.04
677.479	-0.06
677.663	-0.05
677.846	0.03
678.03	-0.05
678.213	-0.02
678.397	-0.02
678.58	-0.04
678.764	-0.01
678.947	-0.05
679.131	-0.05
679.314	0.04
679.498	0.01
679.681	0
679.865	0.06
680.048	-0.01
680.231	0.04
680.415	-0
680.598	-0.01
680.781	-0.02
680.965	-0.02
681.148	0.02
681.331	-0.02
681.514	0.01
681.698	-0.02
681.881	-0.02
682.064	-0.01
682.247	-0.05
682.43	-0.08
682.614	0
682.797	0.06
682.98	0.04
683.163	-0.07
683.346	0.01
683.529	-0.06
683.712	-0.04
683.895	0.08
684.078	-0.08
684.261	-0
684.444	0.04
684.627	-0
684.81	-0.01
684.993	-0.04
685.176	0
685.359	0
685.542	-0.02
685.725	0.05
685.908	-0.05
686.091	-0.03
686.274	0.05
686.457	0.04
686.639	-0.05
686.822	0.08
687.005	-0.05
687.188	0
687.371	0.08
687.553	-0.01
687.736	-0.04
687.919	0.08
688.102	0.04
688.284	-0.07
688.467	-0.03
688.65	-0.01
688.832	-0.02
689.015	-0.04
689.197	-0.09
689.38	0.09
689.563	0.14
689.745	-0.05
689.928	-0.04
690.11	-0.04
690.293	0.06
690.475	-0.05
690.658	-0
690.84	-0.02
691.023	-0.03
691.205	-0.02
691.388	-0.01
691.57	0.04
691.752	-0.04
691.935	-0.08
692.117	-0.07
692.3	0.01
692.482	-0.03
692.664	-0.01
692.847	0.06
693.029	0.06
693.211	0.03
693.393	-0.02
693.576	-0.03
693.758	-0.02
693.94	-0.09
694.122	-0.03
694.304	-0.05
694.487	0.02
694.669	0.03
694.851	-0.03
695.033	0.01
695.215	-0.07
695.397	-0.06
695.579	0.02
695.761	-0.02
695.943	-0.11
696.125	0.07
696.308	0
696.49	-0.05
696.671	0.11
696.853	-0.01
697.035	0.07
697.217	0.01
697.399	0.04
697.581	-0.04
697.763	0.05
697.945	-0.04
698.127	0.02
698.309	0.03
698.491	0
698.672	-0.01
698.854	0.01
699.036	0.09
699.218	-0.04
699.399	0.03
699.581	0.05
699.763	-0.04
699.945	-0.06
700.126	-0.03
700.308	-0.02
700.49	0.02
700.671	-0.1
700.853	-0.03
701.035	-0.07
701.216	0.02
701.398	-0.06
701.579	-0.04
701.761	0.05
701.943	-0.05
702.124	-0.05
702.306	0.02
702.487	0.09
702.669	0
702.85	0.03
703.031	-0.05
703.213	0.06
703.394	-0.02
703.576	-0.05
703.757	0.03
703.938	0.03
704.12	0.13
704.301	-0.03
704.483	-0.06
704.664	0
704.845	0.05
705.026	-0.01
705.208	-0.04
705.389	0.01
705.57	-0
705.751	-0.01
705.933	-0.02
706.114	0.03
706.295	-0.06
706.476	-0.1
706.657	0.02
706.838	0
707.02	-0.01
707.201	-0.01
707.382	-0.01
707.563	0.02
707.744	-0.03
707.925	-0.08
708.106	-0.05
708.287	0.01
708.468	0.07
708.649	0.02
708.83	0.03
709.011	0.01
709.192	0.08
709.373	-0.07
709.554	-0.03
709.734	0.06
709.915	0.02
710.096	-0.01
710.277	-0.05
710.458	0.06
710.639	0.03
710.819	-0.07
711	-0.04
711.181	0.09
711.362	0.07
711.542	0.04
711.723	-0.05
711.904	0.11
712.085	0.09
712.265	0.03
712.446	-0.1
712.627	0.02
712.807	-0
712.988	-0.01
713.168	-0.06
713.349	0.05
713.53	-0.06
713.71	-0.07
713.891	-0.07
714.071	-0
714.252	-0.01
714.432	-0.01
714.613	-0.06
714.793	0.03
714.974	0.13
715.154	0.06
715.334	0.05
715.515	0.07
715.695	-0.03
715.876	0.02
716.056	-0.03
716.236	0.08
716.417	-0.02
716.597	-0.02
716.777	0.11
716.957	-0
717.138	-0.02
717.318	-0.05
717.498	-0.03
717.678	-0.01
717.859	0.05
718.039	-0.03
718.219	0.04
718.399	0.05
718.579	-0.05
718.759	-0.07
718.939	-0.01
719.12	0.07
719.3	0.02
719.48	-0.09
719.66	-0.03
719.84	0.04
720.02	-0
720.2	-0.06
720.38	-0
720.56	0.11
720.74	-0.02
720.92	0.04
721.1	0.07
721.279	0.16
721.459	-0.05
721.639	-0.11
721.819	0.07
721.999	0.02
722.179	0.1
722.359	-0.01
722.538	0.12
722.718	-0.04
722.898	-0.05
723.078	0.06
723.257	-0.01
723.437	0.08
723.617	0.14
723.797	0.02
723.976	0.01
724.156	0.02
724.336	0.19
724.515	0.16
724.695	-0.13
724.874	0.02
725.054	0.15
725.234	0.02
725.413	0.07
725.593	0.08
725.772	0.08
725.952	0.11
726.131	0.05
726.311	-0.01
726.49	0.04
726.67	-0.04
726.849	0
727.028	0.06
727.208	-0.03
727.387	0.07
727.567	-0.01
727.746	0.03
727.925	-0.02
728.105	0.01
728.284	0.03
728.463	-0.02
728.643	0.04
728.822	-0.04
729.001	0.07
729.18	0.05
729.359	0.13
729.539	0.08
729.718	0.07
729.897	0.09
730.076	-0.04
730.255	-0.05
730.434	0.07
730.614	0.05
730.793	0.17
730.972	0.05
731.151	0.02
731.33	0.12
731.509	0.04
731.688	0.09
731.867	-0.01
732.046	-0.15
732.225	0.32
732.404	-0
732.583	-0.02
732.762	0.05
732.941	0.09
733.12	0.14
733.298	0.1
733.477	0.07
733.656	-0.02
733.835	-0
734.014	0.15
734.193	0.01
734.371	0.19
734.55	0.07
734.729	0.05
734.908	0.13
735.086	0.08
735.265	0.09
735.444	-0
735.623	0.08
735.801	0.01
735.98	0.01
736.159	0.07
736.337	0.15
736.516	0.1
736.694	0.09
736.873	0.08
737.052	0.26
737.23	0.2
737.409	-0.07
737.587	0.25
737.766	-0.03
737.944	-0.01
738.123	0.06
738.301	0.13
738.479	-0.05
738.658	0.03
738.836	-0.14
739.015	0.11
739.193	0.18
739.371	-0.04
739.55	0.03
739.728	0.05
739.906	0.14
740.085	0.18
740.263	0.17
740.441	-0.06
740.62	0.23
740.798	0.23
740.976	-0.02
741.154	-0.05
741.332	0.17
741.511	-0.01
741.689	0.13
741.867	0.04
742.045	0.04
742.223	0.09
742.401	-0.03
742.579	0.01
742.757	-0
742.935	-0.1
743.114	0.06
743.292	0.04
743.47	0.05
743.648	0.07
743.826	0.12
744.004	0.1
744.181	0.01
744.359	-0.02
744.537	0.11
744.715	-0.09
744.893	0.03
745.071	0.11
745.249	-0.12
745.427	0.03
745.605	0.05
745.782	0.06
745.96	0.1
746.138	0.11
746.316	0.03
746.493	0.01
746.671	-0.05
746.849	0.1
747.027	0.21
747.204	-0.12
747.382	0.11
747.56	-0.06
747.737	0.03
747.915	0.01
748.093	0.07
748.27	-0.08
748.448	-0.02
748.625	-0.13
748.803	-0.06
748.98	-0.02
749.158	0.2
749.335	0.07
749.513	-0.05
749.69	0
749.868	-0.05
750.045	0.01
750.223	-0.09
750.4	-0.15
750.578	0.29
750.755	-0.04
750.932	-0.13
751.11	0.23
751.287	-0.2
751.464	0.14
751.642	-0.04
751.819	-0.03
751.996	-0.03
752.173	-0.08
752.351	-0.07
752.528	0.01
752.705	-0.04
752.882	-0.04
753.06	0.02
753.237	0.11
753.414	0.09
753.591	0.18
753.768	-0
753.945	-0.14
754.122	0.05
754.299	0.07
754.476	-0.1
754.654	0.06
754.831	0.08
755.008	-0.05
755.185	-0.06
755.362	-0.03
755.539	-0.04
755.716	-0.09
755.892	-0.02
756.069	-0.08
756.246	-0.09
756.423	-0.15
756.6	0.2
756.777	0.01
756.954	0.13
757.131	-0.05
757.307	-0.17
757.484	-0.08
757.661	0.01
757.838	-0
758.015	-0.16
758.191	0.04
758.368	-0.05
758.545	0.15
758.721	0.03
758.898	-0.1
759.075	0.08
759.251	0.01
759.428	0.09
759.605	-0.15
759.781	-0.16
759.958	0.01
760.134	-0.01
760.311	-0.11
760.488	0.08
760.664	0.07
760.841	0.02
761.017	-0.16
761.194	0.03
761.37	0.03
761.547	-0.03
761.723	-0.02
761.899	0.03
762.076	-0.19
762.252	-0.08
762.429	0.03
762.605	0.12
762.781	0.05
762.958	0.07
763.134	-0.01
763.31	-0.09
763.486	0.02
763.663	-0.24
763.839	0.04
764.015	-0.22
764.191	-0.04
764.368	0.01
764.544	-0.04
764.72	0.12
764.896	0.03
765.072	0.08
765.248	-0.04
765.425	0.06
765.601	-0.09
765.777	0.07
765.953	-0.2
766.129	-0.09
766.305	-0.12
766.481	-0.05
766.657	0.02
766.833	0.21
767.009	-0.09
767.185	-0.07
767.361	-0
767.537	-0.11
767.713	0.05
767.889	-0.11
768.065	0
768.24	-0.28
768.416	0.11
768.592	-0.09
768.768	-0.07
768.944	0.08
769.12	-0.02
769.295	-0.11
769.471	-0.05
769.647	-0.04
769.823	0.03
769.998	-0.17
770.174	-0.18
770.35	0.22
770.525	0.29
770.701	0.1
770.877	-0.09
771.052	-0.12
771.228	0.05
771.403	0.03
771.579	0.05
771.755	0.19
771.93	-0.12
772.106	-0.21
772.281	-0.24
772.457	0.09
772.632	-0.04
772.808	-0.19
772.983	-0.15
773.159	-0.24
773.334	0.2
773.509	0.01
773.685	-0.09
773.86	0.29
774.036	0.16
774.211	-0.09
774.386	-0.05
774.562	0.06
774.737	-0.09
774.912	-0.17
775.087	0.02
775.263	-0.07
775.438	-0.02
775.613	-0.2
775.788	-0.09
775.964	0.12
776.139	0.33
776.314	-0.36
776.489	-0.06
776.664	0.03
776.839	-0.13
777.014	0.14
777.19	0.13
777.365	0.13
777.54	0.27
777.715	-0.07
777.89	-0.08
778.065	-0.18
778.24	0.09
778.415	0.08
778.59	0.02
778.765	-0.06
778.94	0.05
779.115	-0.07
779.289	-0.02
779.464	-0.2
779.639	0.06
779.814	-0.12
779.989	-0.02
780.164	0.14
780.339	0.01
780.513	0.05
780.688	-0.05
780.863	-0.18
781.038	0.13
781.212	-0.05
781.387	-0.02
781.562	0.07
781.737	0.1
781.911	0.12
782.086	-0.1
782.261	-0.08
782.435	0.2
782.61	-0.14
782.784	-0.03
782.959	0.07
783.134	-0.09
783.308	-0.25
783.483	-0.1
783.657	0.46
783.832	0.01
784.006	-0.41
784.181	-0.13
784.355	0.16
784.53	0.02
784.704	-0.07
784.878	0.27
785.053	0.06
785.227	-0.02
785.402	0.18
785.576	-0.36
785.75	-0.02
785.925	-0.09
786.099	-0.04
786.273	0.14
786.448	0.19
786.622	0.13
786.796	-0.12
786.97	-0.07
787.145	0.28
787.319	-0.23
787.493	-0.33
787.667	-0.52
787.841	0.02
788.015	0.22
788.19	-0.09
788.364	-0.1
788.538	-0.02
788.712	0.19
788.886	0.07
789.06	0.08
789.234	0.23
789.408	-0.27
789.582	-0.11
789.756	-0.03
789.93	-0.23
790.104	-0.01
790.278	-0.1
790.452	-0.16
790.626	-0.01
790.8	-0.06
790.973	0.09
791.147	0.14
791.321	0.28
791.495	0.24
791.669	0.08
791.843	-0.02
792.016	0.15
792.19	0.25
792.364	-0.24
792.538	0.38
792.711	0.16
792.885	-0.11
793.059	-0.43
793.233	-0.71
793.406	0.14
793.58	-0.1
793.754	0.07
793.927	0.02
794.101	0.37
794.274	0.21
794.448	0.38
794.622	-0.13
794.795	0.02
794.969	-0.23
795.142	0.27
795.316	-0
795.489	0.08
795.663	0.55
795.836	-0.13
796.009	-0.2
796.183	0.26
796.356	0.07
796.53	-0
796.703	0.06
796.876	0.5
797.05	-0.26
797.223	-0.11
797.396	0.12
797.57	-0.13
797.743	0.4
797.916	-0.02
798.09	0.09
798.263	-0.08
798.436	0.18
798.609	-0.03
798.782	-0.2
798.956	0.06
799.129	-0.11
799.302	0.15
799.475	-0.39
799.648	-0.14
799.821	-0.06
799.994	0.03
800.167	-0.41
800.34	-0.16
800.514	0.01
800.687	-0.04
800.86	-0.17
801.033	-0.15
801.206	0.08
801.379	-0.22
801.551	0.05
801.724	0.25
801.897	0.43
802.07	-0.07
802.243	-0.37
802.416	-0.09
802.589	-0.16
802.762	0.02
802.935	0.15
803.107	0.08
803.28	0.04
803.453	0.16
803.626	-0.38
803.798	-0.15
803.971	0.01
804.144	0.14
804.317	0.13
804.489	0.18
804.662	-0.21
804.835	-0.01
805.007	-0.18
805.18	-0.01
805.353	0.16
805.525	-0.35
805.698	-0.08
805.87	-0.16
806.043	-0.02
806.215	-0.22
806.388	0
806.56	0.08
806.733	0.25
806.905	-0.09
807.078	-0.36
807.25	-0.24
807.423	0.04
807.595	-0.2
807.768	0.01
807.94	0.1
808.112	-0.19
808.285	-0.16
808.457	-0.05
808.629	-0.23
808.802	0.34
808.974	0.12
809.146	-0.12
809.318	-0.38
809.491	0.13
809.663	0.42
809.835	-0.34
810.007	0.09
810.18	0.2
810.352	-0.36
810.524	-0.33
810.696	0.07
810.868	0.38
811.04	-0.32
811.212	-0.29
811.384	0.39
811.556	-0.08
811.728	0.02
811.901	0.73
812.073	-0.19
812.245	-0.11
812.417	0.06
812.589	-0.55
812.76	-0.07
812.932	0.08
813.104	0.37
813.276	0.16
813.448	0.26
813.62	-0.01
813.792	0.2
813.964	0.22
814.136	0.1
814.307	-0.19
814.479	0
814.651	-0.09
814.823	0.28
814.995	-0.25
815.166	0.33
815.338	-0.18
815.51	-0.48
815.681	0.74
815.853	0.23
816.025	-0.2
816.196	0.47
816.368	-0.32
816.54	-0.79
816.711	-0.03
816.883	0.15
817.054	0.71
817.226	-0.35
817.398	0.04
817.569	-0.34
817.741	-0.08
817.912	-0.25
818.084	-0.07
818.255	0.46
818.426	-0.29
818.598	-0.03
818.769	-0.26
818.941	0.18
819.112	0.41
819.283	0.26
819.455	-0.05
819.626	-0.1
819.798	0.37
819.969	-0.15
820.14	-0.12
820.311	-0.44
820.483	0.16
820.654	0.27
820.825	-0.43
820.996	-0.1
821.168	-0.06
821.339	-0.02
821.51	-0.51
821.681	-0.27
821.852	-0.39
822.023	-0.76
822.195	-0.73
822.366	0.03
822.537	-0.05
822.708	-0.42
822.879	-0.01
823.05	0.42
823.221	-0.13
823.392	0.63
823.563	-0.18
823.734	-0.48
823.905	-0.1
824.076	-0.08
824.247	-0.31
824.418	0.02
824.589	0.55
824.759	-0.3
824.93	-0.07
825.101	-0.55
825.272	0.8
825.443	0.05
825.614	0.31
825.784	-1.06
825.955	0.84
826.126	0.5
826.297	0.57
826.467	0.38
826.638	0.47
826.809	-0.62
826.98	-0.07
827.15	0.29
827.321	-0.15
827.492	0.42
827.662	-0.01
827.833	0.79
828.003	0.16
828.174	-0.45
828.345	-0.74
828.515	0.52
828.686	0.35
828.856	0.09
829.027	-0.1
829.197	0.14
829.368	0.22
829.538	0.16
829.709	-0.45
829.879	0.28
830.049	0.42
830.22	-0.61
830.39	-0.02
830.56	0.08
830.731	-0.18
830.901	-0.52
831.072	0.23
831.242	-0.04
831.412	0.13
831.582	0.47
831.753	-0.86
831.923	0.21
832.093	-0.08
832.263	0.23
832.434	-0.44
832.604	-0.23
832.774	0.57
832.944	-0.13
833.114	-0.43
833.284	0.32
833.454	-0.78
833.624	-0.59
833.795	-0.71
833.965	1.58
834.135	0.47
834.305	-1.36
834.475	-0.84
834.645	0.05
834.815	-0.48
834.985	-0.73
835.155	-0.78
835.325	-0.44
835.494	-0.4
835.664	-0.3
835.834	-0.79
836.004	0.03
836.174	-0.04
836.344	-0.22
836.514	-0.7
836.684	-0.35
836.853	-0.44
837.023	0.23
837.193	-0.47
837.363	0.79
837.532	0.27
837.702	0.23
837.872	-0.16
838.041	1.05
838.211	1.71
838.381	-0.44
838.55	0.23
838.72	1.61
838.89	1.38
839.059	-0.42
839.229	-0.56
839.398	1.27
839.568	-0.12
839.738	-0.09
839.907	0.61
840.077	-0.11
840.246	0.16
840.416	-0.73
840.585	-0.22
840.755	1.32
840.924	0.67
841.093	-1.42
841.263	-0.13
841.432	-0.02
841.602	-0.77
841.771	-0.96
841.94	0.48
842.11	2.02
842.279	1.8
842.448	-0.63
842.617	-0.95
842.787	0.81
842.956	-0.7
843.125	0.02
843.294	-0.02
843.464	0.63
843.633	-0.1
843.802	-1.48
843.971	0.6
844.14	0.78
844.309	0.33
844.479	-0.95
844.648	-0.53
844.817	-0.59
844.986	-0.04
845.155	-0.23
845.324	-0.37
845.493	0.33
845.662	-0.8
845.831	0.3
846	0.58
846.169	-0.35
846.338	1
846.507	-0.26
846.676	0.28
846.844	-0.72
847.013	1.07
847.182	-0.75
847.351	-0.13
847.52	-0.35
847.689	0.15
847.858	0.3
848.026	-0.5
848.195	0.1
848.364	-0.04
848.533	-1.24
848.701	-0.58
848.87	-0.5
849.039	0.81
849.207	0.43
849.376	0.2
849.545	1.61
849.713	-0.32
849.882	-0.13
850.051	0.22
850.219	0.97
850.388	0.36
850.556	-0.66
850.725	-1.23
850.893	0.25
851.062	-0.34
851.23	1.06
851.399	-0.92
851.567	-0.69
851.736	-0.47
851.904	-0.53
852.073	0.11
852.241	1.12
852.41	0.66
852.578	0.16
852.746	-0.62
852.915	0.45
853.083	-0.46
853.251	-0.81
853.42	-0.19
853.588	-0.65
853.756	0.2
853.924	0.04
854.093	-0.06
854.261	-0.79
854.429	-1.22
854.597	0.24
854.765	-0.49
854.934	-0.1
855.102	0.35
855.27	-0.31
855.438	0.48
855.606	0.22
855.774	2.03
855.942	-1.61
856.11	-1.56
856.278	-0.48
856.446	0.62
856.614	-0.63
856.782	-1.13
856.95	0.03
857.118	0.91
857.286	0.39
857.454	-0.93
857.622	1.18
857.79	0.9
857.958	-0.8
858.126	-0.59
858.294	-2.68
858.462	-0.24
858.629	-0.33
858.797	-0.99
858.965	0.65
859.133	-0.51
859.301	0.17
859.468	-0.1
859.636	-1.18
859.804	1.25
859.971	-0.27
860.139	-0.36
860.307	0.05
860.474	-0.23
860.642	-0.77
860.81	-0.35
860.977	0.45
861.145	0.68
861.313	-0.19
861.48	0.4
861.648	0.26
861.815	0.18
861.983	-1.37
862.15	-0.27
862.318	1
862.485	0.51
862.653	-1.2
862.82	-0.78
862.988	1.25
863.155	1.41
863.322	-1.72
863.49	-1.38
863.657	-1.46
863.824	0.81
863.992	0.86
864.159	1.16
864.326	1.55
864.494	-1.2
864.661	3.76
864.828	-0.4
864.996	1.85
865.163	0.69
865.33	0.18
865.497	-2.35
865.664	-1.62
865.832	-1.11
865.999	-1.18
866.166	-1.24
866.333	-0.36
866.5	-0.45
866.667	0.3
866.834	0.54
867.001	2.24
867.168	-3.02
867.335	-0.13
867.502	-1.3
867.669	-0.01
867.836	1.27
868.003	-0.77
868.17	0.71
868.337	3.01
868.504	2.68
868.671	-1.15
868.838	0.15
869.005	-0.48
869.172	0.67
869.339	-0.17
869.505	-0.68
869.672	-0.09
869.839	1.64
870.006	0.06
870.173	-0.63
870.339	-1.03
870.506	2.38
870.673	-1.94
870.84	1.52
871.006	0
871.173	0.65
871.34	-0.27
871.506	-1.67
871.673	1.38
871.839	-0.33
872.006	0.75
872.173	-0.67
872.339	-1.44
872.506	1.29
872.672	0.5
872.839	-2.53
873.005	0.43
873.172	3.75
873.338	1
873.505	0.3
873.671	0.88
873.838	0.66
874.004	-2.07
874.171	-1.67
874.337	-0.17
874.503	0.14
874.67	-0.24
874.836	0.12
875.002	2.52
875.169	0.68
875.335	-0.16
875.501	-1.3
875.668	0.93
875.834	-0.16
876	0.14
876.166	0.09
876.332	0.32
876.499	2.89
876.665	-1.18
876.831	0.77
876.997	0.64
877.163	0.9
877.329	-2.71
877.495	3
877.662	0.31
877.828	1.01
877.994	0.52
878.16	-1.87
878.326	-0.57
878.492	2.15
878.658	0.61
878.824	0.74
878.99	0.46
879.156	-0.58
879.322	3.12
879.487	-0.88
879.653	-0.99
879.819	-0.76
879.985	-0.85
880.151	0.69
880.317	-1.44
880.483	0.62
880.648	0.9
880.814	-4.16
880.98	1.07
881.146	-1.39
881.312	0.17
881.477	-0.45
881.643	0.81
881.809	1.9
881.974	0.13
882.14	-1.45
882.306	0.96
882.471	1.92
882.637	-0.08
882.803	0.81
882.968	2.02
883.134	3.27
883.299	-0.99
883.465	-0.5
883.63	0.9
883.796	0.54
883.961	2.35
884.127	-0.07
884.292	-3.08
884.458	-2.12
884.623	-2.12
