Data from Apollo_Calib_20240827__AbsoluteIrradiance__461__06-50-00-513.txt Node

Date: Wed Aug 28 06:50:00 BST 2024
User: biology
Spectrometer: FLMT08252
Trigger mode: 0
Integration Time (sec): 5.000000E-1
Scans to average: 5
Electric dark correction enabled: true
Nonlinearity correction enabled: false
Boxcar width: 0
XAxis mode: Wavelengths
Number of Pixels in Spectrum: 3648
>>>>>Begin Spectral Data<<<<<
179.588	-0
179.809	-0
180.03	-0
180.251	-0
180.473	-0
180.694	0
180.915	0
181.136	-0
181.357	-0
181.578	-0
181.799	-0
182.02	-0
182.241	0
182.462	-0
182.683	0
182.904	-0
183.125	-0
183.346	0
183.567	0
183.788	-0
184.009	-0
184.23	0
184.451	0
184.672	-0
184.892	-0
185.113	0
185.334	0
185.555	-0
185.776	-0
185.996	0
186.217	-0
186.438	-0
186.659	-0
186.879	0
187.1	-0
187.321	-0
187.541	-0
187.762	-0
187.983	0
188.203	0
188.424	-0
188.644	-0
188.865	0
189.086	-0
189.306	-0
189.527	-0
189.747	-0
189.968	-0
190.188	0
190.409	-0
190.629	0
190.849	-0
191.07	-0
191.29	0
191.511	0
191.731	-0
191.951	-0
192.172	0
192.392	-0
192.612	-0
192.833	-0
193.053	0
193.273	0
193.493	-0
193.714	0
193.934	0
194.154	0
194.374	0
194.594	-0
194.815	0
195.035	0
195.255	-0
195.475	-0
195.695	0
195.915	0
196.135	-0
196.355	0
196.575	0
196.795	0
197.015	-0
197.235	-0
197.455	-0
197.675	0
197.895	-0
198.115	-0
198.335	0
198.555	-0
198.775	0
198.995	0
199.214	0
199.434	-0
199.654	-0
199.874	-0
200.094	-1.31
200.313	-0.53
200.533	-0.65
200.753	-0.77
200.973	0.78
201.192	0.2
201.412	-0.95
201.632	-0.4
201.851	0.89
202.071	-0.16
202.291	-0.02
202.51	-0.94
202.73	0.3
202.95	-0.39
203.169	-0.54
203.389	-0.21
203.608	-0.1
203.828	-0.15
204.047	-0.46
204.267	0.37
204.486	-0.05
204.706	-0.23
204.925	-0.29
205.145	-0.23
205.364	0.08
205.583	0.67
205.803	-0.3
206.022	-0.95
206.242	0.17
206.461	0.2
206.68	-0.7
206.9	0.21
207.119	0.58
207.338	0.36
207.557	-0.2
207.777	0.21
207.996	-0.07
208.215	0.47
208.434	-0.27
208.654	-0.59
208.873	-0.19
209.092	0.54
209.311	-0.13
209.53	-0.06
209.749	-0.15
209.968	-0.21
210.187	-0.24
210.407	-0.36
210.626	-0.3
210.845	0.15
211.064	-0.08
211.283	-0.28
211.502	0.03
211.721	-0.04
211.94	0.04
212.159	0.22
212.377	0.07
212.596	0.25
212.815	0.04
213.034	0.07
213.253	0.1
213.472	0.25
213.691	-0.13
213.91	-0.22
214.128	-0.2
214.347	0.51
214.566	-0.4
214.785	-0.38
215.003	-0.1
215.222	0.13
215.441	0.08
215.66	-0.34
215.878	-0.02
216.097	0.26
216.316	-0.34
216.534	-0.17
216.753	-0
216.972	-0.13
217.19	-0.26
217.409	-0.25
217.627	-0.24
217.846	-0.23
218.064	0.04
218.283	-0.34
218.501	0.27
218.72	0.1
218.938	-0.27
219.157	-0.09
219.375	0.31
219.594	0.14
219.812	-0.26
220.031	-0.19
220.249	0.3
220.467	0.34
220.686	-0.23
220.904	-0.27
221.122	-0.19
221.341	0.43
221.559	0.03
221.777	-0.21
221.995	0.09
222.214	0.05
222.432	-0.16
222.65	0.03
222.868	0.08
223.086	0.11
223.305	0.17
223.523	-0.09
223.741	0.22
223.959	-0.01
224.177	-0.23
224.395	-0.04
224.613	0.08
224.831	0.18
225.049	-0.25
225.267	-0.1
225.485	0.05
225.703	-0.16
225.921	-0.05
226.139	-0.17
226.357	0.01
226.575	0.1
226.793	-0.2
227.011	0.49
227.229	0.03
227.447	0.03
227.665	-0.04
227.883	-0.24
228.1	-0.02
228.318	-0.12
228.536	-0.25
228.754	-0.14
228.972	0.03
229.189	0.09
229.407	-0.15
229.625	-0
229.843	0.09
230.06	0.01
230.278	-0.08
230.496	0.06
230.713	0.03
230.931	0.14
231.149	-0.08
231.366	-0.24
231.584	-0.03
231.801	0.31
232.019	-0.03
232.236	-0.12
232.454	-0.27
232.671	-0.01
232.889	-0.05
233.106	-0.16
233.324	-0.02
233.541	-0.12
233.759	-0.02
233.976	-0.07
234.194	-0.01
234.411	-0.09
234.628	-0.1
234.846	-0.06
235.063	-0.05
235.28	-0.08
235.498	-0.05
235.715	-0.14
235.932	0.13
236.149	-0
236.367	-0.09
236.584	-0.05
236.801	-0.03
237.018	0.01
237.236	-0.04
237.453	-0.24
237.67	0.04
237.887	-0.08
238.104	-0.01
238.321	-0.03
238.538	-0.07
238.755	0.05
238.973	-0.14
239.19	-0.07
239.407	0.07
239.624	0.01
239.841	-0.16
240.058	-0.1
240.275	0.03
240.492	-0.08
240.709	-0.07
240.925	-0.05
241.142	-0
241.359	-0.1
241.576	-0.14
241.793	-0.09
242.01	0.04
242.227	0.08
242.444	0.09
242.66	0.1
242.877	0.02
243.094	0.02
243.311	-0.04
243.527	-0.02
243.744	0.02
243.961	-0.02
244.178	-0.08
244.394	-0.04
244.611	0.07
244.828	0.12
245.044	-0.04
245.261	-0.05
245.477	-0.01
245.694	0
245.911	-0.04
246.127	-0.01
246.344	0.07
246.56	0.08
246.777	-0.02
246.993	-0.02
247.21	-0
247.426	0.04
247.643	-0.08
247.859	-0.07
248.076	-0.03
248.292	0.21
248.508	-0.08
248.725	0.04
248.941	-0.02
249.157	0.1
249.374	-0.15
249.59	-0.13
249.806	0.04
250.023	0.09
250.239	-0.1
250.455	-0.04
250.671	-0.06
250.888	0.04
251.104	0.04
251.32	0.03
251.536	-0.04
251.752	-0.08
251.969	-0.06
252.185	-0.01
252.401	0.14
252.617	0.06
252.833	-0.05
253.049	0.02
253.265	-0.1
253.481	0.02
253.697	-0.04
253.913	-0.08
254.129	-0.05
254.345	-0.05
254.561	-0.01
254.777	0.01
254.993	0.06
255.209	-0.04
255.425	-0.02
255.641	-0.03
255.857	0.08
256.073	-0.06
256.288	-0.11
256.504	-0.08
256.72	0.05
256.936	0.1
257.152	-0.01
257.367	-0.1
257.583	0.07
257.799	0.05
258.015	-0.1
258.23	-0.08
258.446	0.13
258.662	-0.04
258.877	-0.07
259.093	-0.08
259.309	-0.06
259.524	-0
259.74	-0.08
259.955	-0.18
260.171	0.01
260.387	-0.01
260.602	0.02
260.818	0.03
261.033	-0.04
261.249	-0
261.464	-0.06
261.68	-0.15
261.895	0.02
262.11	0.02
262.326	-0.08
262.541	-0.13
262.757	0.07
262.972	0.07
263.187	0.05
263.403	-0.05
263.618	0.09
263.833	-0.01
264.049	-0.05
264.264	-0
264.479	0.03
264.694	0.03
264.91	-0.06
265.125	-0.05
265.34	0.09
265.555	0.13
265.77	0.08
265.986	-0.04
266.201	0.06
266.416	0.11
266.631	-0.04
266.846	-0.05
267.061	0
267.276	0
267.491	-0.12
267.706	0.01
267.921	0.04
268.136	-0.03
268.351	0.01
268.566	-0.11
268.781	0.03
268.996	0.01
269.211	0.03
269.426	-0.03
269.641	-0.08
269.856	-0.01
270.071	-0.08
270.285	-0.04
270.5	0.06
270.715	0.09
270.93	-0.03
271.145	0.01
271.359	0.04
271.574	-0.09
271.789	-0.05
272.004	-0.07
272.218	-0
272.433	0.07
272.648	-0.06
272.862	0.04
273.077	-0
273.292	-0.03
273.506	-0.01
273.721	-0.03
273.936	0.05
274.15	0.06
274.365	-0
274.579	-0.02
274.794	0.05
275.008	-0.01
275.223	-0.1
275.437	-0.05
275.652	0.03
275.866	0.05
276.081	0.05
276.295	0.05
276.509	-0.01
276.724	-0.03
276.938	-0.03
277.153	-0.02
277.367	0.05
277.581	-0.05
277.796	-0.06
278.01	-0.06
278.224	0.02
278.438	0.12
278.653	-0.09
278.867	-0.04
279.081	-0.15
279.295	-0.05
279.51	0.03
279.724	-0.1
279.938	0.02
280.152	-0
280.366	-0.03
280.58	-0.01
280.794	0.06
281.008	0.06
281.222	0.09
281.437	0.07
281.651	0.01
281.865	0.08
282.079	-0.02
282.293	-0.1
282.507	-0.04
282.721	0.03
282.935	-0.06
283.148	-0.09
283.362	-0.03
283.576	-0.07
283.79	0.01
284.004	-0.05
284.218	0.06
284.432	-0.04
284.646	-0.03
284.859	-0.02
285.073	-0.01
285.287	-0.04
285.501	-0.02
285.714	-0.04
285.928	0.04
286.142	0.01
286.356	-0.02
286.569	-0.02
286.783	0.02
286.997	0.06
287.21	0.07
287.424	-0.01
287.637	-0.03
287.851	-0.01
288.065	0.03
288.278	-0.01
288.492	0.01
288.705	-0.03
288.919	0.02
289.132	-0.03
289.346	0.04
289.559	-0.04
289.773	-0.08
289.986	-0.07
290.2	-0.02
290.413	0.03
290.626	-0.02
290.84	-0
291.053	0.03
291.267	0.09
291.48	-0.02
291.693	0.02
291.906	-0.03
292.12	-0.01
292.333	-0.01
292.546	0.03
292.76	0.11
292.973	0.01
293.186	0.01
293.399	-0.02
293.612	0.01
293.826	0.01
294.039	-0.06
294.252	-0.04
294.465	0.06
294.678	0
294.891	0.02
295.104	-0.07
295.317	-0.02
295.53	0.01
295.743	0.02
295.956	-0.03
296.169	0.05
296.382	0.05
296.595	-0.01
296.808	-0.03
297.021	0.03
297.234	0.05
297.447	-0.01
297.66	0.07
297.873	0.05
298.086	0
298.299	-0.02
298.511	-0.05
298.724	-0.01
298.937	-0.07
299.15	-0.04
299.363	0.01
299.575	0.05
299.788	0.01
300.001	-0.03
300.213	-0.07
300.426	-0.09
300.639	0.01
300.852	-0.06
301.064	0.01
301.277	0.05
301.489	0.02
301.702	0.02
301.915	-0.01
302.127	0.02
302.34	0
302.552	0.02
302.765	-0.04
302.977	0.01
303.19	-0.01
303.402	-0.03
303.615	-0.07
303.827	-0.01
304.04	0.04
304.252	0.03
304.464	0
304.677	0.1
304.889	0.06
305.102	-0.04
305.314	-0.02
305.526	0.06
305.739	-0
305.951	-0.06
306.163	0.01
306.375	0.06
306.588	-0.03
306.8	-0
307.012	-0.04
307.224	0.02
307.436	0.07
307.649	-0.05
307.861	0
308.073	0.04
308.285	-0.02
308.497	-0.04
308.709	-0.01
308.921	0.01
309.133	0.04
309.346	-0.03
309.558	-0
309.77	0.05
309.982	0.07
310.194	0.04
310.406	-0.06
310.617	0.04
310.829	-0
311.041	0.05
311.253	-0.02
311.465	-0.02
311.677	-0
311.889	-0
312.101	-0
312.313	0.01
312.524	0.06
312.736	-0.06
312.948	-0.02
313.16	0.1
313.372	0.03
313.583	0.02
313.795	-0
314.007	-0.02
314.218	-0.03
314.43	-0.01
314.642	-0.01
314.853	-0.04
315.065	0.04
315.277	-0.01
315.488	0.05
315.7	-0.02
315.912	0.01
316.123	0.01
316.335	-0.02
316.546	0.09
316.758	0.01
316.969	-0.03
317.181	-0.01
317.392	0.04
317.604	0.06
317.815	-0.07
318.026	-0.05
318.238	-0.02
318.449	0.02
318.661	-0.05
318.872	-0.06
319.083	-0.04
319.295	0.01
319.506	-0.03
319.717	-0.01
319.929	-0.01
320.14	0.02
320.351	0.03
320.562	-0.04
320.774	-0.02
320.985	-0.01
321.196	-0.03
321.407	-0.06
321.618	0.02
321.829	0.02
322.041	-0.01
322.252	0.01
322.463	0.01
322.674	0.01
322.885	-0.07
323.096	-0.03
323.307	-0.03
323.518	0.02
323.729	-0.02
323.94	0.01
324.151	-0.01
324.362	0.06
324.573	0.02
324.784	-0.08
324.995	0.07
325.206	0.01
325.417	-0.01
325.628	0.04
325.838	-0
326.049	0
326.26	0.05
326.471	-0.02
326.682	0.01
326.892	0
327.103	-0.07
327.314	-0.04
327.525	0.04
327.735	-0.03
327.946	-0.01
328.157	-0.01
328.368	-0.01
328.578	-0.02
328.789	0.06
328.999	-0.02
329.21	-0.02
329.421	0.03
329.631	-0.1
329.842	-0.04
330.052	0.01
330.263	-0.03
330.473	-0.01
330.684	-0.01
330.894	-0.04
331.105	-0.01
331.315	0.03
331.526	-0.03
331.736	0.06
331.947	0
332.157	0.02
332.367	-0.02
332.578	0.05
332.788	0.03
332.999	0.03
333.209	0
333.419	-0.03
333.629	0.01
333.84	0.03
334.05	-0.01
334.26	0.05
334.47	-0.01
334.681	0.05
334.891	0.02
335.101	0.04
335.311	0.04
335.521	0.03
335.732	-0.08
335.942	0.07
336.152	0.03
336.362	0.02
336.572	-0
336.782	-0.04
336.992	-0.04
337.202	0
337.412	-0.04
337.622	0.02
337.832	-0.03
338.042	-0.02
338.252	-0.05
338.462	-0.03
338.672	-0.04
338.882	-0.03
339.092	-0.03
339.302	0.07
339.511	0.04
339.721	-0.04
339.931	-0.04
340.141	0.04
340.351	0.08
340.561	-0.01
340.77	0.01
340.98	-0
341.19	0
341.4	0
341.609	-0.03
341.819	0
342.029	-0.06
342.238	0
342.448	-0
342.658	0.03
342.867	-0.01
343.077	-0.02
343.286	0.03
343.496	0
343.706	0.06
343.915	-0.02
344.125	0
344.334	0.02
344.544	-0.04
344.753	0.02
344.963	-0.01
345.172	-0.03
345.381	0.02
345.591	-0.02
345.8	-0
346.01	0.07
346.219	0.04
346.428	-0.14
346.638	-0.02
346.847	-0
347.056	0.04
347.266	0
347.475	0.01
347.684	0.02
347.893	0.03
348.103	0.03
348.312	-0.04
348.521	-0.04
348.73	0.01
348.94	-0
349.149	-0.01
349.358	-0.02
349.567	-0.05
349.776	-0.03
349.985	-0.02
350.194	0.06
350.403	0.02
350.612	-0.05
350.821	0.01
351.03	-0.01
351.239	-0.07
351.448	-0.01
351.657	-0.04
351.866	0.06
352.075	-0.01
352.284	0.04
352.493	-0.08
352.702	0.06
352.911	0
353.12	0.01
353.329	-0.02
353.538	-0.01
353.746	-0.02
353.955	-0.02
354.164	0.01
354.373	-0.02
354.582	-0
354.79	0.02
354.999	0.02
355.208	0
355.416	0.08
355.625	-0.05
355.834	-0.04
356.042	0
356.251	-0.02
356.46	-0.03
356.668	0.05
356.877	0.04
357.085	0.06
357.294	-0.09
357.503	0.02
357.711	0
357.92	0.1
358.128	-0
358.337	-0.03
358.545	0.03
358.754	-0.04
358.962	0.03
359.17	-0.03
359.379	0.02
359.587	-0.01
359.796	-0.02
360.004	0.04
360.212	0
360.421	-0.01
360.629	-0.02
360.837	-0.01
361.046	0.02
361.254	0.09
361.462	0
361.67	-0.04
361.879	0.01
362.087	0.06
362.295	0.03
362.503	0.03
362.711	-0.06
362.92	-0.03
363.128	-0.01
363.336	-0.03
363.544	-0.06
363.752	-0.02
363.96	-0.04
364.168	-0.06
364.376	0
364.584	0.01
364.792	0.01
365	0.04
365.208	-0
365.416	0.05
365.624	0.03
365.832	0.03
366.04	0.05
366.248	0.06
366.456	0.04
366.664	0.02
366.872	-0.01
367.079	0.01
367.287	0.02
367.495	0
367.703	0.01
367.911	-0.02
368.118	-0.02
368.326	-0.01
368.534	-0.03
368.742	0.07
368.949	-0.06
369.157	-0.02
369.365	0.06
369.572	0.06
369.78	-0.05
369.988	0.04
370.195	-0.01
370.403	0.04
370.61	-0.02
370.818	-0.02
371.026	0.08
371.233	-0.03
371.441	0.03
371.648	-0.02
371.856	0.01
372.063	0.03
372.271	-0.01
372.478	-0.04
372.685	-0.05
372.893	0.04
373.1	-0
373.308	-0.04
373.515	0.03
373.722	0.03
373.93	-0.03
374.137	0.01
374.344	0.05
374.552	0.05
374.759	0.02
374.966	0.01
375.173	-0.04
375.381	0.09
375.588	-0.02
375.795	-0.06
376.002	-0.03
376.209	-0.01
376.417	0.01
376.624	-0.01
376.831	0.03
377.038	0.02
377.245	-0.09
377.452	-0.05
377.659	0.01
377.866	-0.03
378.073	0.02
378.28	-0.01
378.487	0.02
378.694	0.04
378.901	-0.02
379.108	-0.02
379.315	0.03
379.522	0.08
379.729	-0.03
379.936	-0
380.143	0.03
380.35	-0.02
380.557	-0.03
380.763	0.05
380.97	0
381.177	-0
381.384	0.04
381.591	0
381.797	-0.01
382.004	0.01
382.211	0.07
382.418	0.01
382.624	0.04
382.831	0.01
383.038	-0.05
383.244	0.03
383.451	-0.03
383.658	0.02
383.864	-0.04
384.071	-0.03
384.277	-0
384.484	-0.02
384.69	0.01
384.897	0.01
385.103	-0.05
385.31	-0.07
385.516	-0.06
385.723	-0.04
385.929	-0.03
386.136	0.02
386.342	-0.03
386.549	-0.01
386.755	0.02
386.961	0.02
387.168	-0.02
387.374	-0.01
387.58	0.03
387.787	-0.01
387.993	0.02
388.199	0.01
388.406	-0.01
388.612	0.03
388.818	-0
389.024	-0.03
389.231	0.04
389.437	0.07
389.643	0
389.849	-0.04
390.055	-0.05
390.261	0.01
390.467	-0.01
390.674	-0.01
390.88	0
391.086	-0.01
391.292	-0.07
391.498	0.02
391.704	0.01
391.91	0.01
392.116	-0.01
392.322	-0.05
392.528	-0.03
392.734	-0.04
392.94	-0
393.146	-0.01
393.352	-0.02
393.557	0
393.763	-0.01
393.969	0
394.175	-0.02
394.381	-0.01
394.587	-0.05
394.792	-0.01
394.998	0.04
395.204	0.03
395.41	0
395.615	0.02
395.821	0
396.027	0.04
396.233	-0.08
396.438	0.02
396.644	0.07
396.85	0.02
397.055	-0.02
397.261	0.06
397.466	0.08
397.672	0.02
397.878	0.05
398.083	0.02
398.289	-0.04
398.494	0.04
398.7	-0
398.905	-0.08
399.111	0.03
399.316	-0.08
399.522	0.01
399.727	-0.01
399.932	-0.02
400.138	-0.02
400.343	0.03
400.549	-0
400.754	-0.03
400.959	0.01
401.165	0
401.37	0.02
401.575	0.08
401.78	0.01
401.986	-0.02
402.191	0.02
402.396	-0.02
402.601	0.04
402.807	0.03
403.012	-0.01
403.217	0.03
403.422	-0.01
403.627	-0.01
403.832	0.01
404.037	0.03
404.243	0
404.448	-0.02
404.653	-0.06
404.858	0.01
405.063	0.09
405.268	-0.04
405.473	-0
405.678	-0.02
405.883	0.11
406.088	0.03
406.293	-0.07
406.498	-0.03
406.703	0.04
406.907	-0.04
407.112	-0.03
407.317	0
407.522	0.01
407.727	-0.05
407.932	0.01
408.136	0.06
408.341	0.02
408.546	-0.01
408.751	-0.02
408.956	-0.04
409.16	0.01
409.365	-0
409.57	0
409.774	-0.04
409.979	0.02
410.184	-0.01
410.388	-0.02
410.593	0.07
410.798	0.02
411.002	-0.01
411.207	0.05
411.411	0.01
411.616	-0.05
411.82	-0.06
412.025	0.03
412.229	-0
412.434	0.08
412.638	0.04
412.843	-0.01
413.047	0.01
413.252	-0.03
413.456	-0.04
413.66	0.04
413.865	-0.05
414.069	0.1
414.273	-0.04
414.478	-0.04
414.682	0
414.886	-0.01
415.091	-0.04
415.295	-0.09
415.499	0
415.703	-0.03
415.908	0.03
416.112	-0.06
416.316	-0
416.52	0.01
416.724	-0.02
416.929	-0.02
417.133	0.08
417.337	0
417.541	-0.02
417.745	-0.05
417.949	-0.01
418.153	0.03
418.357	-0.04
418.561	0.03
418.765	-0
418.969	0.08
419.173	0.03
419.377	-0.02
419.581	0.06
419.785	-0.03
419.989	-0.12
420.193	-0.04
420.397	-0.02
420.601	0.02
420.804	0.05
421.008	-0.01
421.212	0.01
421.416	0.03
421.62	-0.07
421.823	-0.01
422.027	0.09
422.231	0.03
422.435	-0.06
422.638	-0.03
422.842	-0
423.046	-0.01
423.249	0.03
423.453	0.01
423.657	0.02
423.86	-0
424.064	-0.02
424.268	0.03
424.471	-0
424.675	0.08
424.878	0.09
425.082	-0
425.285	0.04
425.489	0.01
425.692	0.01
425.896	-0.01
426.099	0.01
426.303	-0.08
426.506	-0.09
426.71	0.04
426.913	0.03
427.116	0.05
427.32	-0.02
427.523	-0.03
427.726	0.1
427.93	-0.07
428.133	-0.03
428.336	-0.06
428.54	-0.03
428.743	0.06
428.946	0.03
429.149	-0.07
429.353	0
429.556	-0.01
429.759	-0.03
429.962	-0.03
430.165	-0.04
430.368	0.02
430.571	-0.07
430.775	0.03
430.978	-0.01
431.181	-0.02
431.384	0.01
431.587	-0.02
431.79	-0.01
431.993	-0.01
432.196	-0.01
432.399	-0.02
432.602	0.04
432.805	-0.07
433.008	-0.03
433.211	-0.08
433.414	0.01
433.616	0.02
433.819	-0.01
434.022	-0.11
434.225	0.03
434.428	0.03
434.631	0.06
434.833	0.01
435.036	-0.03
435.239	0.01
435.442	0.05
435.645	-0.05
435.847	0
436.05	0.05
436.253	0.04
436.455	-0.07
436.658	0.01
436.861	0.05
437.063	-0.06
437.266	-0.02
437.468	0.01
437.671	0.08
437.874	0.05
438.076	-0.06
438.279	-0.1
438.481	0.01
438.684	-0.08
438.886	0.02
439.089	-0.15
439.291	0.03
439.494	0.05
439.696	-0.07
439.899	-0.01
440.101	-0.01
440.303	-0.07
440.506	0.02
440.708	0.03
440.91	-0.02
441.113	-0.07
441.315	0.02
441.517	-0.08
441.72	0.05
441.922	-0.06
442.124	-0.02
442.326	0.01
442.529	0.06
442.731	-0.04
442.933	0.1
443.135	-0.01
443.337	-0.05
443.539	-0.01
443.742	-0.02
443.944	0.01
444.146	-0.08
444.348	-0.03
444.55	-0.03
444.752	-0.03
444.954	-0.09
445.156	-0.01
445.358	-0.05
445.56	0.01
445.762	-0.04
445.964	-0.05
446.166	-0.07
446.368	-0.01
446.57	0.03
446.772	-0.02
446.974	-0.04
447.175	0
447.377	-0.04
447.579	-0.06
447.781	-0.1
447.983	0.08
448.184	0.02
448.386	-0.03
448.588	-0.05
448.79	-0.02
448.991	-0.05
449.193	-0.01
449.395	-0.02
449.597	0.01
449.798	-0.04
450	-0
450.202	-0.05
450.403	-0.03
450.605	0.01
450.806	-0.02
451.008	-0.08
451.21	-0.02
451.411	-0.01
451.613	-0.05
451.814	-0.02
452.016	0.05
452.217	-0.04
452.419	0.06
452.62	-0.02
452.821	0.02
453.023	0.03
453.224	0.07
453.426	0
453.627	0.02
453.828	0.01
454.03	-0.01
454.231	-0.01
454.432	-0.02
454.634	0.06
454.835	-0.04
455.036	-0.05
455.238	0.04
455.439	0.08
455.64	-0.06
455.841	-0.05
456.042	0.06
456.244	0.03
456.445	-0.05
456.646	-0.11
456.847	-0.02
457.048	0.06
457.249	0.03
457.45	0.16
457.651	-0.06
457.852	0.05
458.054	0.01
458.255	0
458.456	0.01
458.657	0.03
458.858	-0.06
459.058	-0.02
459.259	0.02
459.46	0.02
459.661	-0.05
459.862	0.07
460.063	-0.05
460.264	0.01
460.465	-0.1
460.666	0.1
460.866	-0.01
461.067	-0.04
461.268	-0.01
461.469	-0.04
461.67	-0.02
461.87	-0.03
462.071	-0.02
462.272	-0.03
462.473	-0
462.673	0
462.874	-0.02
463.075	-0
463.275	-0.02
463.476	0.03
463.676	0.02
463.877	-0.04
464.078	-0.02
464.278	0.06
464.479	0.02
464.679	0.01
464.88	-0.02
465.08	0.05
465.281	-0.05
465.481	-0.03
465.682	0
465.882	0.02
466.083	0.01
466.283	-0.03
466.483	-0.05
466.684	-0.04
466.884	-0.01
467.085	-0
467.285	0.05
467.485	-0.03
467.686	0.02
467.886	-0.03
468.086	-0.04
468.286	0.02
468.487	0.01
468.687	-0.07
468.887	-0.01
469.087	0.01
469.287	-0.02
469.488	-0.06
469.688	-0.01
469.888	0.06
470.088	0.06
470.288	0.06
470.488	0.03
470.688	-0.04
470.888	-0.04
471.088	-0.04
471.288	0.08
471.488	0
471.688	0
471.888	-0.01
472.088	0.05
472.288	0.03
472.488	-0.04
472.688	-0.03
472.888	-0.04
473.088	-0.02
473.288	-0.01
473.488	-0.02
473.688	0.07
473.887	-0.01
474.087	-0.03
474.287	0
474.487	-0.02
474.687	0.03
474.886	-0.03
475.086	0.01
475.286	0.01
475.486	0.06
475.685	-0.01
475.885	-0.03
476.085	-0.03
476.284	0.04
476.484	-0.01
476.684	0.04
476.883	0.03
477.083	0
477.282	-0.02
477.482	0.04
477.681	0.03
477.881	0.01
478.08	-0.04
478.28	-0.02
478.479	0.06
478.679	0.08
478.878	-0.03
479.078	-0.04
479.277	-0.01
479.477	-0.01
479.676	0.04
479.875	-0.01
480.075	-0.07
480.274	0.01
480.473	-0.02
480.673	-0.05
480.872	0.02
481.071	-0
481.271	0.01
481.47	-0.03
481.669	-0.02
481.868	-0.02
482.067	-0.03
482.267	-0.03
482.466	-0.03
482.665	-0.05
482.864	-0.03
483.063	-0.02
483.262	0.02
483.461	0.07
483.661	0.03
483.86	0.02
484.059	0.02
484.258	0.02
484.457	-0.01
484.656	-0
484.855	0.02
485.054	-0.04
485.253	-0.03
485.452	-0.02
485.651	0.01
485.849	0.02
486.048	0.01
486.247	-0.02
486.446	-0
486.645	-0.03
486.844	-0.04
487.043	0.01
487.241	0
487.44	-0.02
487.639	0.02
487.838	-0.07
488.037	-0.01
488.235	0.05
488.434	0
488.633	-0.01
488.831	-0.01
489.03	0.03
489.229	0.02
489.427	0
489.626	0.05
489.825	0.02
490.023	0.03
490.222	-0
490.42	0.02
490.619	0.01
490.817	0.02
491.016	-0.01
491.214	0.05
491.413	0.01
491.611	-0.01
491.81	0.01
492.008	-0
492.207	-0.01
492.405	0.01
492.604	-0.07
492.802	-0
493	-0
493.199	-0.01
493.397	0
493.595	-0.01
493.794	-0.01
493.992	0.03
494.19	-0.01
494.388	0.01
494.587	-0.01
494.785	0
494.983	-0.03
495.181	-0.01
495.379	0.03
495.578	-0.02
495.776	-0
495.974	0.01
496.172	-0.02
496.37	-0.01
496.568	-0.02
496.766	-0.03
496.964	0.02
497.162	0
497.36	-0.02
497.558	0.03
497.756	0.02
497.954	-0.01
498.152	-0.01
498.35	0.03
498.548	0
498.746	-0
498.944	-0.03
499.142	-0.01
499.34	-0.02
499.538	0.02
499.736	-0.01
499.933	0.03
500.131	0.02
500.329	0.01
500.527	0.04
500.725	0.03
500.922	0.01
501.12	0.01
501.318	-0
501.516	-0.02
501.713	-0
501.911	-0.01
502.109	-0
502.306	0.01
502.504	0.01
502.701	-0.02
502.899	-0
503.097	0.02
503.294	0
503.492	-0
503.689	0.01
503.887	0.03
504.084	0.06
504.282	-0.03
504.479	-0.03
504.677	-0.01
504.874	-0.03
505.072	-0
505.269	-0
505.466	0.02
505.664	0.01
505.861	-0.05
506.059	-0.04
506.256	0.01
506.453	-0.02
506.651	0.05
506.848	0.01
507.045	0.01
507.242	-0.01
507.44	-0.01
507.637	-0
507.834	-0.01
508.031	0
508.229	-0.01
508.426	0.01
508.623	0
508.82	0.01
509.017	-0.04
509.214	-0.01
509.411	0
509.608	-0.03
509.805	0
510.003	-0.02
510.2	-0.01
510.397	0.01
510.594	-0.02
510.791	-0.02
510.988	-0.03
511.184	-0.01
511.381	0.01
511.578	-0.02
511.775	0.03
511.972	-0
512.169	-0.01
512.366	-0.02
512.563	-0.02
512.76	-0.01
512.956	0.03
513.153	-0.01
513.35	0.01
513.547	-0
513.744	-0.05
513.94	-0.01
514.137	0.01
514.334	-0.01
514.53	-0.01
514.727	-0.02
514.924	0.06
515.12	-0.04
515.317	-0.03
515.514	-0.03
515.71	-0.01
515.907	-0.01
516.103	-0.02
516.3	0
516.497	0.02
516.693	0.02
516.89	0
517.086	-0.03
517.283	0.02
517.479	0.03
517.676	-0.02
517.872	-0.02
518.068	-0.02
518.265	-0
518.461	-0.01
518.658	-0.04
518.854	0
519.05	-0.04
519.247	-0
519.443	0.02
519.639	-0
519.836	0
520.032	-0.01
520.228	0.02
520.424	0.05
520.621	0
520.817	-0
521.013	-0
521.209	0.01
521.405	0.02
521.601	0
521.798	-0.01
521.994	0.01
522.19	-0.03
522.386	-0.03
522.582	0.01
522.778	0
522.974	-0.02
523.17	0.01
523.366	-0.01
523.562	0.01
523.758	0.01
523.954	-0.02
524.15	-0.01
524.346	0.03
524.542	-0.02
524.738	-0.02
524.934	-0.01
525.129	-0.02
525.325	-0.01
525.521	0
525.717	0.02
525.913	0.01
526.109	-0.02
526.304	0.01
526.5	0.01
526.696	0.01
526.892	0
527.087	-0.01
527.283	-0
527.479	0
527.674	0
527.87	0.02
528.066	-0.01
528.261	0.02
528.457	0
528.653	0.01
528.848	-0.03
529.044	0.02
529.239	-0
529.435	0.03
529.63	-0
529.826	0.03
530.021	-0.01
530.217	0.01
530.412	-0
530.608	-0.03
530.803	-0
530.999	-0.01
531.194	-0.03
531.389	-0
531.585	-0.05
531.78	-0.01
531.975	0.01
532.171	0.03
532.366	-0
532.561	-0.01
532.757	-0.01
532.952	-0.01
533.147	0.02
533.342	-0.01
533.538	-0.04
533.733	0.02
533.928	0
534.123	-0.03
534.318	-0.06
534.513	-0.02
534.709	0.01
534.904	-0
535.099	-0.01
535.294	0
535.489	-0.01
535.684	-0.03
535.879	-0.04
536.074	-0
536.269	-0.01
536.464	0.02
536.659	0
536.854	-0.02
537.049	0.02
537.244	0
537.439	-0
537.634	0.02
537.828	-0.01
538.023	-0.01
538.218	-0.03
538.413	-0.01
538.608	-0.01
538.803	0.03
538.997	-0.04
539.192	0.01
539.387	-0.01
539.582	0.02
539.776	0
539.971	-0.01
540.166	-0
540.36	-0.04
540.555	-0
540.75	-0.02
540.944	-0.03
541.139	-0.05
541.334	-0.02
541.528	0
541.723	0.01
541.917	-0.01
542.112	-0.04
542.306	-0.01
542.501	-0
542.695	0.01
542.89	-0.01
543.084	0.02
543.279	-0.01
543.473	0
543.668	-0.01
543.862	-0
544.056	-0.01
544.251	-0.02
544.445	-0.01
544.64	0
544.834	-0.03
545.028	0
545.222	-0.01
545.417	0.02
545.611	0
545.805	0
546	-0.02
546.194	-0.01
546.388	-0.01
546.582	0
546.776	-0.02
546.97	-0.01
547.165	0.01
547.359	-0.02
547.553	-0.03
547.747	-0.01
547.941	0.01
548.135	0
548.329	0.02
548.523	-0
548.717	-0.01
548.911	-0.03
549.105	-0.01
549.299	0
549.493	0.02
549.687	0.01
549.881	0.02
550.075	-0.01
550.269	-0.03
550.463	-0
550.657	-0.03
550.85	0
551.044	-0.01
551.238	-0
551.432	-0.03
551.626	-0.03
551.82	-0.01
552.013	-0.03
552.207	0
552.401	0
552.594	-0
552.788	-0
552.982	0
553.176	-0.03
553.369	0.02
553.563	0.01
553.756	-0.06
553.95	-0.03
554.144	0.01
554.337	0.03
554.531	-0.01
554.724	-0
554.918	-0.01
555.111	0.01
555.305	-0.02
555.498	0.03
555.692	0
555.885	-0.03
556.079	0.01
556.272	-0.01
556.466	0.02
556.659	0.02
556.852	-0.01
557.046	-0.01
557.239	0.02
557.432	-0.04
557.626	-0.02
557.819	0
558.012	0.03
558.206	0.01
558.399	0.01
558.592	-0.01
558.785	-0.02
558.979	0.02
559.172	0.01
559.365	0.01
559.558	-0
559.751	0
559.944	0.02
560.138	-0.01
560.331	-0.01
560.524	-0.03
560.717	0
560.91	-0
561.103	0
561.296	0.01
561.489	0.01
561.682	0.02
561.875	0.03
562.068	0.02
562.261	0.02
562.454	0.03
562.647	0.01
562.84	-0
563.032	-0
563.225	0.01
563.418	-0.03
563.611	-0.01
563.804	-0
563.997	-0.03
564.19	-0.04
564.382	0
564.575	0
564.768	-0
564.961	-0.03
565.153	-0.04
565.346	0.01
565.539	0.02
565.731	0.02
565.924	0.01
566.117	-0.01
566.309	0
566.502	-0.02
566.695	0
566.887	0.01
567.08	-0.03
567.272	-0.02
567.465	-0.02
567.657	-0.01
567.85	0.02
568.042	-0.01
568.235	0
568.427	0
568.62	0.01
568.812	0.01
569.005	-0
569.197	-0.03
569.389	-0
569.582	0.02
569.774	0
569.966	-0.02
570.159	-0.01
570.351	0.03
570.543	-0
570.736	-0.01
570.928	-0.04
571.12	0
571.312	-0.04
571.505	-0.03
571.697	0.02
571.889	-0.02
572.081	-0.02
572.273	-0.02
572.465	0.03
572.658	-0.01
572.85	0.01
573.042	-0.03
573.234	0.02
573.426	0.02
573.618	-0.02
573.81	0.01
574.002	0.03
574.194	0.03
574.386	-0.02
574.578	-0.08
574.77	-0.01
574.962	0
575.154	-0.05
575.346	-0.02
575.538	-0
575.729	-0.03
575.921	-0.03
576.113	-0.02
576.305	0.04
576.497	-0.03
576.689	-0.01
576.88	-0.03
577.072	0.02
577.264	-0.02
577.456	-0.02
577.647	-0.05
577.839	0.01
578.031	0.05
578.223	-0.03
578.414	-0.03
578.606	0.04
578.798	-0.01
578.989	-0.03
579.181	-0.01
579.372	-0.02
579.564	-0.01
579.755	0.02
579.947	0
580.139	0.02
580.33	-0.08
580.522	-0.04
580.713	-0.06
580.905	0.01
581.096	0.02
581.287	-0.01
581.479	-0.01
581.67	0.04
581.862	0
582.053	-0.03
582.244	-0.04
582.436	0
582.627	-0.02
582.818	-0.02
583.01	-0.03
583.201	0.02
583.392	0.01
583.583	0.01
583.775	-0.01
583.966	-0.03
584.157	-0.03
584.348	-0.02
584.54	-0.02
584.731	0.02
584.922	-0.01
585.113	-0.03
585.304	0.01
585.495	0.02
585.686	0.02
585.877	0.01
586.068	-0
586.259	0.02
586.45	-0.03
586.641	-0.01
586.832	-0.06
587.023	-0.01
587.214	-0
587.405	-0.01
587.596	-0.04
587.787	0.01
587.978	0
588.169	-0.02
588.36	-0.04
588.551	0
588.742	-0.02
588.932	0
589.123	-0.01
589.314	0.02
589.505	-0
589.696	-0
589.886	-0.04
590.077	-0.06
590.268	0.03
590.458	-0.02
590.649	-0.05
590.84	0.01
591.03	-0.03
591.221	-0.03
591.412	-0.01
591.602	0.02
591.793	0.02
591.984	-0.03
592.174	-0.02
592.365	0.03
592.555	-0.01
592.746	-0
592.936	0.01
593.127	0.01
593.317	0.04
593.508	-0.03
593.698	-0.03
593.889	-0.01
594.079	0.01
594.269	-0.01
594.46	-0.02
594.65	-0
594.84	0.01
595.031	-0.05
595.221	-0.03
595.411	-0.04
595.602	-0.02
595.792	-0.02
595.982	-0.02
596.172	0.02
596.363	0.03
596.553	-0
596.743	-0.01
596.933	0
597.123	0.01
597.314	-0.05
597.504	-0.01
597.694	0.03
597.884	0.01
598.074	-0.01
598.264	-0.03
598.454	0.01
598.644	-0.03
598.834	0
599.024	-0.07
599.214	0
599.404	0.02
599.594	-0.02
599.784	-0.04
599.974	0.05
600.164	0.02
600.354	-0.07
600.544	-0.05
600.734	-0.02
600.924	0.04
601.114	-0.02
601.303	-0.02
601.493	-0.02
601.683	-0.01
601.873	0
602.063	-0.03
602.252	0.01
602.442	-0.05
602.632	-0.03
602.821	-0.01
603.011	-0
603.201	-0.01
603.39	-0.02
603.58	-0.03
603.77	0.02
603.959	0.03
604.149	0
604.339	-0.04
604.528	0.03
604.718	0.03
604.907	-0.02
605.097	-0.03
605.286	-0.05
605.476	0.01
605.665	0.03
605.855	-0.02
606.044	0.02
606.234	0
606.423	0.02
606.612	-0.04
606.802	0
606.991	0
607.181	-0
607.37	-0.04
607.559	0.02
607.749	-0.04
607.938	-0
608.127	-0
608.316	-0.02
608.506	0.02
608.695	-0.01
608.884	-0.04
609.073	0.02
609.263	0.04
609.452	0.03
609.641	-0.01
609.83	-0.04
610.019	0.02
610.208	-0.02
610.397	-0.01
610.586	0.01
610.775	-0.02
610.965	-0.03
611.154	-0.02
611.343	0
611.532	0.01
611.721	-0.03
611.91	-0.01
612.099	0.03
612.287	-0
612.476	-0.02
612.665	0.03
612.854	-0.02
613.043	0.02
613.232	0.01
613.421	-0.04
613.61	0.02
613.798	-0.04
613.987	0.05
614.176	0.02
614.365	0.05
614.554	0.02
614.742	0.04
614.931	-0
615.12	0.04
615.309	0.01
615.497	0.02
615.686	-0.04
615.875	-0.02
616.063	0.02
616.252	-0.04
616.44	-0
616.629	0.02
616.818	0.01
617.006	-0
617.195	0.02
617.383	0.04
617.572	-0
617.76	-0.01
617.949	-0.01
618.137	0.03
618.326	0.09
618.514	-0.05
618.703	-0.01
618.891	0.07
619.079	-0.01
619.268	0.02
619.456	-0.02
619.644	0.04
619.833	-0.03
620.021	-0.01
620.209	-0.01
620.398	0.04
620.586	0.02
620.774	0.04
620.962	-0.01
621.151	0.04
621.339	0.02
621.527	-0.02
621.715	-0.04
621.903	-0.01
622.092	-0.01
622.28	0.03
622.468	0.03
622.656	-0
622.844	0.01
623.032	-0.01
623.22	-0.04
623.408	0
623.596	0.02
623.784	0.03
623.972	-0.02
624.16	0.02
624.348	0.05
624.536	-0.02
624.724	-0
624.912	0.02
625.1	0.05
625.288	-0
625.476	-0.04
625.664	0.03
625.851	-0.03
626.039	0.02
626.227	0.01
626.415	-0.05
626.603	-0.03
626.79	-0
626.978	0.01
627.166	0.05
627.354	0.01
627.541	-0.03
627.729	-0.05
627.917	0.01
628.104	0.02
628.292	0.01
628.48	-0.01
628.667	0
628.855	0.01
629.042	0.03
629.23	0
629.418	-0.02
629.605	-0.02
629.793	-0.02
629.98	-0.01
630.168	0.02
630.355	0.01
630.543	-0.01
630.73	-0.04
630.917	0.01
631.105	0.08
631.292	-0.01
631.48	0.02
631.667	0.07
631.854	0.01
632.042	-0.01
632.229	-0.05
632.416	0.02
632.604	-0.01
632.791	-0.05
632.978	0.02
633.165	-0.02
633.353	0.03
633.54	0.04
633.727	-0.07
633.914	-0.01
634.101	-0.08
634.289	0.04
634.476	-0.01
634.663	-0.03
634.85	0.01
635.037	-0.05
635.224	-0.07
635.411	0.04
635.598	0.03
635.785	-0.02
635.972	-0.02
636.159	0.02
636.346	-0.05
636.533	0.01
636.72	-0.03
636.907	-0.02
637.094	0.01
637.281	0
637.468	0.01
637.655	-0.02
637.842	-0.01
638.029	-0.03
638.215	0.01
638.402	-0.02
638.589	-0.04
638.776	-0.01
638.963	-0.03
639.149	0
639.336	0.04
639.523	-0.03
639.709	-0.01
639.896	-0.02
640.083	0.05
640.27	0.01
640.456	-0.03
640.643	-0
640.829	-0.05
641.016	-0.02
641.203	-0.05
641.389	0.03
641.576	0.01
641.762	-0.01
641.949	-0.06
642.135	0.02
642.322	0.01
642.508	-0.03
642.695	-0.01
642.881	-0.05
643.068	-0.01
643.254	-0.01
643.441	-0.01
643.627	-0.06
643.813	-0.02
644	0.02
644.186	-0.04
644.372	0.02
644.559	0.01
644.745	-0.02
644.931	-0.03
645.118	-0.05
645.304	-0.02
645.49	-0.03
645.676	-0.02
645.862	0.02
646.049	0.04
646.235	-0.02
646.421	0.06
646.607	0.05
646.793	-0.04
646.979	-0.03
647.165	0.01
647.352	0
647.538	0.03
647.724	0.02
647.91	-0
648.096	-0
648.282	0.03
648.468	-0.02
648.654	-0.02
648.84	0
649.026	0.01
649.212	-0.01
649.397	-0.04
649.583	-0.06
649.769	0.02
649.955	-0.03
650.141	0.01
650.327	0.05
650.513	0
650.698	0.02
650.884	-0.09
651.07	0
651.256	0.01
651.442	0.03
651.627	-0.01
651.813	0
651.999	0
652.184	0.03
652.37	-0
652.556	-0.03
652.741	0.05
652.927	-0.07
653.113	-0
653.298	-0
653.484	0.01
653.669	-0.06
653.855	-0.02
654.04	0.03
654.226	-0.01
654.412	-0.03
654.597	-0.06
654.782	0.04
654.968	0.05
655.153	-0
655.339	-0.02
655.524	-0.07
655.71	0
655.895	0
656.08	-0.02
656.266	0.01
656.451	0.03
656.636	-0.03
656.822	-0.01
657.007	-0.06
657.192	0.02
657.378	-0.04
657.563	-0.01
657.748	0.01
657.933	0.02
658.118	-0.01
658.304	-0.02
658.489	0.02
658.674	0.01
658.859	-0.05
659.044	-0
659.229	0.01
659.414	-0.01
659.599	-0.04
659.785	-0.06
659.97	-0.01
660.155	0.01
660.34	0.01
660.525	-0
660.71	-0.03
660.895	0.02
661.08	-0.01
661.264	-0.02
661.449	0.06
661.634	0.03
661.819	0.02
662.004	0.01
662.189	-0.06
662.374	-0.05
662.559	-0.07
662.743	-0.07
662.928	0
663.113	-0.05
663.298	-0.09
663.483	-0.02
663.667	-0
663.852	-0.04
664.037	0.04
664.221	-0.03
664.406	0.01
664.591	0.01
664.775	-0.01
664.96	0.02
665.145	-0.02
665.329	0.02
665.514	-0.06
665.698	0.01
665.883	-0.09
666.068	0.05
666.252	-0.01
666.437	-0.06
666.621	-0.01
666.806	0.04
666.99	-0.03
667.174	-0.07
667.359	0.07
667.543	-0.02
667.728	-0.01
667.912	-0.05
668.096	0.03
668.281	-0.01
668.465	-0.03
668.649	-0.01
668.834	-0.04
669.018	-0.03
669.202	-0.04
669.387	-0.06
669.571	0.01
669.755	-0.03
669.939	0
670.124	-0.02
670.308	0.03
670.492	0.01
670.676	-0.04
670.86	-0
671.044	-0.07
671.228	0.03
671.413	-0.02
671.597	-0.05
671.781	-0.05
671.965	0.02
672.149	-0.02
672.333	-0.01
672.517	-0.04
672.701	0.03
672.885	-0.06
673.069	-0.04
673.253	0.03
673.437	-0.05
673.621	-0.03
673.804	-0
673.988	-0.02
674.172	0.01
674.356	-0.04
674.54	-0.06
674.724	0.05
674.908	-0.06
675.091	0.06
675.275	0
675.459	0.06
675.643	0.07
675.826	0.06
676.01	0.01
676.194	-0.03
676.377	-0
676.561	0.02
676.745	0.02
676.928	0.03
677.112	0.04
677.296	-0.03
677.479	-0.01
677.663	-0.01
677.846	0.02
678.03	0
678.213	-0.04
678.397	-0
678.58	-0
678.764	-0.06
678.947	-0.04
679.131	0.01
679.314	-0.01
679.498	0.03
679.681	0
679.865	0.05
680.048	-0.02
680.231	-0.01
680.415	-0.01
680.598	-0.05
680.781	-0.03
680.965	-0.06
681.148	-0
681.331	0
681.514	-0.02
681.698	-0.03
681.881	0
682.064	0.01
682.247	-0.03
682.43	-0.09
682.614	0.01
682.797	0.02
682.98	0.01
683.163	-0.04
683.346	0.03
683.529	-0.04
683.712	-0.06
683.895	0.02
684.078	-0.08
684.261	-0.05
684.444	-0.01
684.627	0.01
684.81	-0.02
684.993	-0.02
685.176	0.04
685.359	-0.03
685.542	-0.02
685.725	0.08
685.908	-0
686.091	-0.01
686.274	0.03
686.457	-0.02
686.639	-0.08
686.822	0.03
687.005	-0.01
687.188	0.02
687.371	0.06
687.553	0.02
687.736	-0.01
687.919	0.06
688.102	0.06
688.284	-0.07
688.467	-0
688.65	-0.05
688.832	-0.07
689.015	-0.01
689.197	-0.06
689.38	0.12
689.563	0.06
689.745	-0.04
689.928	-0.05
690.11	-0.03
690.293	-0.04
690.475	-0.09
690.658	-0.02
690.84	-0
691.023	0.05
691.205	-0.01
691.388	-0.05
691.57	0.05
691.752	0.06
691.935	-0.12
692.117	-0.02
692.3	-0.02
692.482	-0.04
692.664	-0.02
692.847	0.01
693.029	0.07
693.211	0.04
693.393	-0.01
693.576	-0.05
693.758	0.02
693.94	-0.01
694.122	-0.07
694.304	-0.05
694.487	-0.03
694.669	0.01
694.851	-0.05
695.033	-0.01
695.215	-0.02
695.397	-0.05
695.579	0.02
695.761	-0.02
695.943	-0.13
696.125	0.04
696.308	0.02
696.49	-0.11
696.671	0.1
696.853	-0.05
697.035	0.1
697.217	-0.02
697.399	0.04
697.581	-0.03
697.763	-0.07
697.945	-0.01
698.127	-0.02
698.309	-0.11
698.491	-0
698.672	0.01
698.854	0.02
699.036	0.04
699.218	-0.01
699.399	0.04
699.581	0.02
699.763	-0.02
699.945	-0.03
700.126	-0.04
700.308	-0.01
700.49	0.01
700.671	-0.11
700.853	-0.04
701.035	-0.01
701.216	-0.04
701.398	-0.1
701.579	-0.1
701.761	0.01
701.943	-0.03
702.124	-0
702.306	-0.03
702.487	0.05
702.669	0.01
702.85	-0.03
703.031	-0.04
703.213	0.09
703.394	0.05
703.576	-0.07
703.757	0.06
703.938	0.01
704.12	0.14
704.301	-0.06
704.483	-0.08
704.664	0.01
704.845	0.07
705.026	0.02
705.208	-0.03
705.389	-0.01
705.57	-0.06
705.751	-0.03
705.933	-0.04
706.114	0.07
706.295	0.02
706.476	-0.02
706.657	0.07
706.838	-0
707.02	0.05
707.201	-0.04
707.382	-0.02
707.563	-0.02
707.744	-0.04
707.925	-0.08
708.106	-0.02
708.287	0.04
708.468	0.07
708.649	-0.02
708.83	0.03
709.011	-0.11
709.192	0.03
709.373	-0.05
709.554	-0.01
709.734	0.02
709.915	-0.01
710.096	0.05
710.277	-0.11
710.458	-0
710.639	0.02
710.819	-0.12
711	-0.04
711.181	0.06
711.362	0.08
711.542	0.03
711.723	-0.01
711.904	0.05
712.085	-0.03
712.265	0.03
712.446	-0.09
712.627	-0.05
712.807	-0.01
712.988	0.03
713.168	-0.11
713.349	-0.01
713.53	-0.11
713.71	-0.04
713.891	-0.05
714.071	0.01
714.252	-0.02
714.432	-0.03
714.613	-0.04
714.793	-0
714.974	0.08
715.154	0.08
715.334	0.08
715.515	0.03
715.695	-0.1
715.876	0.04
716.056	-0.08
716.236	-0.04
716.417	-0.04
716.597	-0.08
716.777	0.1
716.957	-0.04
717.138	-0
717.318	-0.05
717.498	-0.13
717.678	-0
717.859	-0.05
718.039	-0.04
718.219	0.06
718.399	0.03
718.579	-0.08
718.759	-0.11
718.939	0.02
719.12	0.02
719.3	0.01
719.48	-0.11
719.66	-0.08
719.84	0.11
720.02	-0.04
720.2	-0.01
720.38	-0.04
720.56	0.05
720.74	-0.11
720.92	0.03
721.1	0.02
721.279	0.05
721.459	0.07
721.639	-0.07
721.819	0.09
721.999	-0.01
722.179	0.05
722.359	-0.12
722.538	0.02
722.718	-0.02
722.898	0.04
723.078	0.02
723.257	-0.05
723.437	-0.03
723.617	0.03
723.797	-0.03
723.976	0.03
724.156	0.01
724.336	0.09
724.515	0.11
724.695	-0.15
724.874	-0.04
725.054	0.09
725.234	-0.01
725.413	0.01
725.593	0.01
725.772	-0.02
725.952	0.03
726.131	-0.06
726.311	0.03
726.49	0.03
726.67	0.01
726.849	-0.07
727.028	0.05
727.208	-0.1
727.387	0
727.567	-0.07
727.746	-0.01
727.925	-0.05
728.105	-0.1
728.284	-0.02
728.463	0.04
728.643	-0.02
728.822	-0.15
729.001	-0.01
729.18	0.02
729.359	0.01
729.539	-0.05
729.718	0.02
729.897	0.08
730.076	-0.09
730.255	-0.13
730.434	0.03
730.614	0.07
730.793	0.04
730.972	0.01
731.151	-0.01
731.33	0.17
731.509	0.06
731.688	-0.07
731.867	0.05
732.046	-0.19
732.225	0.11
732.404	-0.1
732.583	-0.13
732.762	0.01
732.941	0.03
733.12	0.03
733.298	-0.03
733.477	0.14
733.656	0.02
733.835	-0.11
734.014	0.11
734.193	-0.01
734.371	0.09
734.55	-0.01
734.729	-0.13
734.908	-0.04
735.086	0.05
735.265	0.11
735.444	-0.12
735.623	-0.03
735.801	-0.05
735.98	-0.04
736.159	-0
736.337	-0.02
736.516	-0
736.694	0.04
736.873	-0.11
737.052	0.06
737.23	0.05
737.409	-0.14
737.587	0.21
737.766	-0.11
737.944	0
738.123	0.03
738.301	0.02
738.479	-0.05
738.658	0.02
738.836	-0.22
739.015	0.03
739.193	0.12
739.371	-0.04
739.55	-0.13
739.728	-0.19
739.906	0.05
740.085	0.13
740.263	0.01
740.441	-0.18
740.62	0.16
740.798	-0.07
740.976	-0.09
741.154	-0.05
741.332	0.18
741.511	0.02
741.689	0.08
741.867	0.05
742.045	0.03
742.223	-0.06
742.401	-0.12
742.579	-0.1
742.757	-0.01
742.935	-0.12
743.114	-0.06
743.292	0.02
743.47	-0.01
743.648	-0.03
743.826	-0.12
744.004	0.12
744.181	0.03
744.359	-0.03
744.537	0.07
744.715	0.01
744.893	0.01
745.071	0
745.249	0.02
745.427	-0.06
745.605	0.13
745.782	0.04
745.96	0.03
746.138	0.06
746.316	0.01
746.493	0.04
746.671	0.05
746.849	-0.03
747.027	0.2
747.204	-0.02
747.382	0.05
747.56	-0.07
747.737	0.05
747.915	-0.09
748.093	0.14
748.27	-0.12
748.448	-0.11
748.625	-0.19
748.803	-0.03
748.98	-0.04
749.158	0.1
749.335	0.05
749.513	-0.03
749.69	0.03
749.868	-0.12
750.045	-0.01
750.223	-0.02
750.4	-0.17
750.578	0.1
750.755	-0.09
750.932	-0.14
751.11	0.15
751.287	-0.08
751.464	0.06
751.642	-0.12
751.819	0.02
751.996	-0.02
752.173	-0.08
752.351	-0.07
752.528	-0
752.705	-0.1
752.882	-0.04
753.06	0.11
753.237	0.08
753.414	0.13
753.591	0.08
753.768	0.02
753.945	0.04
754.122	-0.01
754.299	-0.01
754.476	-0.06
754.654	-0.1
754.831	0.01
755.008	0.04
755.185	-0.1
755.362	-0.14
755.539	0.02
755.716	-0.07
755.892	-0.01
756.069	-0.05
756.246	0.01
756.423	-0.02
756.6	0.08
756.777	-0.17
756.954	0.06
757.131	-0.05
757.307	-0.11
757.484	0
757.661	-0.04
757.838	0.06
758.015	-0.12
758.191	0.04
758.368	0.17
758.545	0.15
758.721	0.07
758.898	-0.06
759.075	-0.02
759.251	0.02
759.428	0.15
759.605	-0.2
759.781	-0.05
759.958	0.11
760.134	0.05
760.311	-0.1
760.488	0.01
760.664	0.06
760.841	-0.03
761.017	-0.07
761.194	0.02
761.37	0.05
761.547	-0.01
761.723	-0.05
761.899	0.05
762.076	-0.08
762.252	-0.02
762.429	0.01
762.605	0.17
762.781	-0.15
762.958	0.09
763.134	-0.03
763.31	-0.06
763.486	0.04
763.663	-0.2
763.839	0
764.015	-0.09
764.191	-0.03
764.368	-0.08
764.544	-0.1
764.72	0.02
764.896	0.11
765.072	0.02
765.248	-0.01
765.425	-0.05
765.601	-0.02
765.777	0.02
765.953	-0.2
766.129	-0.02
766.305	-0.19
766.481	0.12
766.657	0.01
766.833	0.09
767.009	-0.14
767.185	-0.05
767.361	-0.02
767.537	-0.05
767.713	-0
767.889	-0.06
768.065	0.01
768.24	-0.01
768.416	0.1
768.592	-0.09
768.768	-0.02
768.944	-0.04
769.12	-0.22
769.295	-0.07
769.471	0.13
769.647	-0.13
769.823	0.1
769.998	-0.18
770.174	-0.23
770.35	0.26
770.525	0.29
770.701	0.03
770.877	-0.08
771.052	-0.03
771.228	0.03
771.403	0.06
771.579	0.03
771.755	0.23
771.93	-0.19
772.106	-0.17
772.281	-0.25
772.457	0.05
772.632	-0.02
772.808	-0.16
772.983	-0.13
773.159	-0.21
773.334	0.13
773.509	-0.12
773.685	-0.17
773.86	0.33
774.036	0.19
774.211	0
774.386	-0.05
774.562	-0.02
774.737	0.16
774.912	-0.06
775.087	0.09
775.263	0.07
775.438	-0
775.613	-0.02
775.788	-0.06
775.964	0.13
776.139	0.47
776.314	-0.11
776.489	-0.04
776.664	0.07
776.839	-0.07
777.014	0.01
777.19	0.1
777.365	0.1
777.54	0.2
777.715	-0.11
777.89	0
778.065	-0.09
778.24	-0.03
778.415	0.13
778.59	-0.06
778.765	-0.07
778.94	0.1
779.115	-0
779.289	-0.1
779.464	-0.08
779.639	0.01
779.814	-0.27
779.989	-0.17
780.164	0.12
780.339	0.04
780.513	-0.02
780.688	-0.14
780.863	0.07
781.038	0.2
781.212	-0.35
781.387	0.15
781.562	0.14
781.737	0.02
781.911	0.16
782.086	-0.18
782.261	0.02
782.435	0.28
782.61	-0.06
782.784	0.03
782.959	0.13
783.134	-0.27
783.308	-0.1
783.483	-0.27
783.657	0.38
783.832	0.06
784.006	-0.21
784.181	-0.1
784.355	0.12
784.53	-0.14
784.704	-0.39
784.878	0.23
785.053	0.14
785.227	-0.02
785.402	0.44
785.576	-0.26
785.75	-0.16
785.925	-0.18
786.099	-0.05
786.273	0.04
786.448	0.14
786.622	0.01
786.796	0.03
786.97	-0.22
787.145	0.27
787.319	-0.43
787.493	0.04
787.667	-0.23
787.841	-0.12
788.015	0.13
788.19	-0.01
788.364	0.05
788.538	0.21
788.712	0.42
788.886	0.14
789.06	0.2
789.234	0.12
789.408	-0.14
789.582	-0.03
789.756	-0.27
789.93	-0.11
790.104	-0.01
790.278	0.03
790.452	-0.23
790.626	0.11
790.8	-0.18
790.973	0.14
791.147	0.24
791.321	0.35
791.495	0.28
791.669	0.02
791.843	0.03
792.016	-0
792.19	0.27
792.364	-0.17
792.538	0.67
792.711	0.33
792.885	-0.25
793.059	-0.2
793.233	-0.43
793.406	-0.04
793.58	0.04
793.754	0.07
793.927	-0.24
794.101	0.27
794.274	0.08
794.448	0.1
794.622	-0.18
794.795	0.64
794.969	-0.14
795.142	0.32
795.316	-0.12
795.489	-0.19
795.663	0.54
795.836	-0.22
796.009	-0.24
796.183	0.1
796.356	0.08
796.53	-0.11
796.703	0.09
796.876	0.45
797.05	-0.28
797.223	-0.23
797.396	-0.01
797.57	0.15
797.743	0.29
797.916	0.2
798.09	-0.01
798.263	0.13
798.436	0
798.609	-0.09
798.782	0.01
798.956	-0.14
799.129	0.09
799.302	0.1
799.475	-0.19
799.648	-0.09
799.821	0.07
799.994	0.01
800.167	-0.31
800.34	-0.18
800.514	-0.18
800.687	-0
800.86	-0.25
801.033	-0.05
801.206	0.22
801.379	-0.12
801.551	0.25
801.724	0.43
801.897	0.04
802.07	-0.17
802.243	-0.29
802.416	-0.04
802.589	-0.21
802.762	0.16
802.935	-0.15
803.107	0.24
803.28	-0.14
803.453	0.01
803.626	-0.37
803.798	-0.11
803.971	-0.45
804.144	0.09
804.317	0.29
804.489	0.21
804.662	-0.06
804.835	-0.29
805.007	-0.18
805.18	0.01
805.353	0.12
805.525	-0.04
805.698	-0.07
805.87	0.16
806.043	0.25
806.215	-0.33
806.388	-0.28
806.56	-0.07
806.733	0.54
806.905	-0
807.078	-0.16
807.25	-0.04
807.423	0.36
807.595	-0.11
807.768	-0.08
807.94	0.34
808.112	0.18
808.285	-0.04
808.457	0.11
808.629	-0.21
808.802	0.25
808.974	-0.23
809.146	-0.05
809.318	-0.54
809.491	0.21
809.663	0.21
809.835	-0.11
810.007	-0.01
810.18	-0.07
810.352	-0.4
810.524	-0.21
810.696	0.19
810.868	0.37
811.04	-0.26
811.212	0.01
811.384	0.2
811.556	0.2
811.728	0.19
811.901	0.65
812.073	0.02
812.245	0.52
812.417	-0.1
812.589	-0.45
812.76	0.1
812.932	0.32
813.104	0.33
813.276	-0.11
813.448	-0
813.62	-0.09
813.792	0.17
813.964	-0.14
814.136	0.12
814.307	-0.06
814.479	-0.27
814.651	-0.2
814.823	0.7
814.995	0.02
815.166	0.25
815.338	-0.37
815.51	-0.22
815.681	0.8
815.853	0.03
816.025	-0.19
816.196	0.39
816.368	0.54
816.54	-0.12
816.711	-0.28
816.883	-0.34
817.054	0.97
817.226	-0.59
817.398	0.08
817.569	-0.26
817.741	0.09
817.912	0.07
818.084	0.2
818.255	0.28
818.426	-0.22
818.598	0.07
818.769	-0.34
818.941	-0.15
819.112	0.64
819.283	0.22
819.455	-0.36
819.626	0.01
819.798	0.58
819.969	-0.07
820.14	-0.39
820.311	0.09
820.483	0.22
820.654	-0.1
820.825	-0
820.996	-0.5
821.168	-0.18
821.339	0.19
821.51	-0.35
821.681	-0.46
821.852	0.29
822.023	-0.22
822.195	-1.11
822.366	0.39
822.537	0.02
822.708	-0.02
822.879	-0.23
823.05	0.43
823.221	-0.23
823.392	0.17
823.563	-0.15
823.734	0.02
823.905	0.11
824.076	-0.11
824.247	-0.36
824.418	-0.2
824.589	0.36
824.759	0.13
824.93	0.04
825.101	-0.52
825.272	0.23
825.443	0.7
825.614	0.48
825.784	-0.51
825.955	1.02
826.126	0.26
826.297	0.66
826.467	0.83
826.638	0.82
826.809	-1.04
826.98	-0.01
827.15	-0.14
827.321	-0.28
827.492	0.82
827.662	-0.04
827.833	0.64
828.003	0.08
828.174	-0.62
828.345	-0.45
828.515	0.46
828.686	0
828.856	-0.67
829.027	-0.29
829.197	0.28
829.368	0.25
829.538	0.12
829.709	-0.34
829.879	0.4
830.049	0.51
830.22	-0.09
830.39	0.56
830.56	0.31
830.731	-0.05
830.901	-0.4
831.072	0.65
831.242	0.22
831.412	0.23
831.582	0.73
831.753	-0.13
831.923	0.04
832.093	0.13
832.263	-0.22
832.434	-0.12
832.604	-0.23
832.774	0.55
832.944	-0.12
833.114	-0.46
833.284	0.45
833.454	-0.47
833.624	-0.49
833.795	0.29
833.965	0.89
834.135	0.48
834.305	-0.74
834.475	-0.62
834.645	0.32
834.815	-0.21
834.985	-0.61
835.155	-0.36
835.325	0.5
835.494	0.06
835.664	-0.51
835.834	-0.76
836.004	0.25
836.174	0.62
836.344	-0.13
836.514	-0.61
836.684	-0.39
836.853	-0.09
837.023	-0.23
837.193	-0.3
837.363	0.22
837.532	0.57
837.702	-0.37
837.872	-0.71
838.041	0.23
838.211	1.6
838.381	-0.57
838.55	-0.1
838.72	1.95
838.89	1.18
839.059	-0.34
839.229	-0.94
839.398	0.35
839.568	-0.05
839.738	-0.82
839.907	0.4
840.077	0.68
840.246	0.21
840.416	-0.08
840.585	-0.8
840.755	1.42
840.924	0.46
841.093	-1.14
841.263	-0.04
841.432	-0.6
841.602	-0.8
841.771	-0.59
841.94	-0.03
842.11	1.85
842.279	1.56
842.448	-0.58
842.617	0.11
842.787	1.06
842.956	-0.66
843.125	-0.47
843.294	0.46
843.464	1.08
843.633	-0.57
843.802	-0.23
843.971	0.23
844.14	0.17
844.309	0.84
844.479	-0.77
844.648	-1.04
844.817	-1.03
844.986	0.04
845.155	-0.89
845.324	-0.23
845.493	0.54
845.662	-1.48
845.831	0.12
846	0.33
846.169	-0.26
846.338	0.98
846.507	0.2
846.676	0.13
846.844	-0.21
847.013	0.84
847.182	-0.19
847.351	-0.68
847.52	-0.15
847.689	-0.11
847.858	-0.6
848.026	-1
848.195	0.25
848.364	-1.14
848.533	-1.09
848.701	-0.15
848.87	-0.01
849.039	1.27
849.207	0.41
849.376	1.42
849.545	1.98
849.713	-0.24
849.882	-0.84
850.051	-0.26
850.219	0.3
850.388	0.77
850.556	-0.19
850.725	-0.08
850.893	1.3
851.062	-0.34
851.23	0.08
851.399	-0.58
851.567	-0.36
851.736	-0.49
851.904	-1.18
852.073	-0.53
852.241	0.02
852.41	0.22
852.578	-0.42
852.746	-0.81
852.915	0.41
853.083	0.56
853.251	-1.17
853.42	0.57
853.588	-0.05
853.756	0.79
853.924	-0.35
854.093	0.15
854.261	-0.11
854.429	-1.55
854.597	0.39
854.765	-0.53
854.934	0.35
855.102	1.74
855.27	-0.02
855.438	-0.21
855.606	1.58
855.774	1.43
855.942	-2.49
856.11	-1
856.278	-0.07
856.446	0.77
856.614	-0.5
856.782	-0.5
856.95	0.56
857.118	0.41
857.286	-0.32
857.454	-0.1
857.622	0.01
857.79	0.08
857.958	-0.56
858.126	-0.43
858.294	-1.92
858.462	0.33
858.629	-0.25
858.797	-0.57
858.965	-0.39
859.133	-0.44
859.301	-0.23
859.468	0.43
859.636	-1.03
859.804	1.69
859.971	0.05
860.139	-0.4
860.307	1.27
860.474	-0.66
860.642	-0.69
860.81	-1.42
860.977	-0.45
861.145	1.03
861.313	0.05
861.48	-0.16
861.648	0.58
861.815	0.44
861.983	-0.67
862.15	0.15
862.318	1.75
862.485	1.15
862.653	-0.73
862.82	-1.28
862.988	0.64
863.155	0.52
863.322	-1.14
863.49	-1.21
863.657	-0.38
863.824	0.97
863.992	0.85
864.159	-0.33
864.326	2.5
864.494	-1.26
864.661	0.58
864.828	-1.57
864.996	1.97
865.163	2.13
865.33	-0.67
865.497	-0.87
865.664	-1.21
865.832	-1.1
865.999	0.22
866.166	-1.69
866.333	-0.84
866.5	-0.11
866.667	0.16
866.834	0.04
867.001	1.22
867.168	0.37
867.335	0.64
867.502	-1.51
867.669	0.75
867.836	0.8
868.003	0.12
868.17	1.59
868.337	2.12
868.504	2.92
868.671	-2.03
868.838	-0.75
869.005	0.77
869.172	0.96
869.339	-1.49
869.505	0.42
869.672	-0.6
869.839	2.2
870.006	1.7
870.173	-1.01
870.339	-0.02
870.506	4.18
870.673	0.52
870.84	0.79
871.006	1.43
871.173	-2.07
871.34	1.08
871.506	-0.82
871.673	1.27
871.839	-1.77
872.006	-0
872.173	0.43
872.339	-1.17
872.506	1.04
872.672	-1.6
872.839	-1.67
873.005	1.56
873.172	1.22
873.338	2.87
873.505	-0.52
873.671	-0.56
873.838	1.73
874.004	-0.66
874.171	-0.63
874.337	0.77
874.503	-0.67
874.67	-0.47
874.836	-0.95
875.002	0.86
875.169	1.02
875.335	0.03
875.501	-1.23
875.668	1.28
875.834	-1.06
876	-1.51
876.166	1.09
876.332	-0.11
876.499	2.65
876.665	-0.42
876.831	-1.26
876.997	3.4
877.163	0.9
877.329	0.22
877.495	0.69
877.662	-0.11
877.828	-0.07
877.994	-0.17
878.16	-2.48
878.326	-2.96
878.492	-0.11
878.658	-0.39
878.824	0.63
878.99	1.84
879.156	-0.3
879.322	2.39
879.487	-0.34
879.653	0.65
879.819	1.94
879.985	0.48
880.151	2.2
880.317	-0.94
880.483	0.69
880.648	0.09
880.814	-2.17
880.98	-1.45
881.146	-2.33
881.312	-0.66
881.477	-0.49
881.643	1.18
881.809	0.07
881.974	2.59
882.14	-1.3
882.306	-0.59
882.471	1.92
882.637	-1.71
882.803	2.12
882.968	2.47
883.134	2.52
883.299	-1.37
883.465	-0.45
883.63	0.86
883.796	2.18
883.961	2.22
884.127	0.65
884.292	-3.92
884.458	-1.92
884.623	-1.92
