Data from Apollo_Calib_20240827__AbsoluteIrradiance__262__03-31-01-267.txt Node

Date: Wed Aug 28 03:31:01 BST 2024
User: biology
Spectrometer: FLMT08252
Trigger mode: 0
Integration Time (sec): 5.000000E-1
Scans to average: 5
Electric dark correction enabled: true
Nonlinearity correction enabled: false
Boxcar width: 0
XAxis mode: Wavelengths
Number of Pixels in Spectrum: 3648
>>>>>Begin Spectral Data<<<<<
179.588	-0
179.809	-0
180.03	-0
180.251	-0
180.473	-0
180.694	0
180.915	0
181.136	-0
181.357	-0
181.578	-0
181.799	-0
182.02	-0
182.241	-0
182.462	-0
182.683	0
182.904	-0
183.125	-0
183.346	0
183.567	0
183.788	-0
184.009	-0
184.23	0
184.451	0
184.672	-0
184.892	-0
185.113	0
185.334	0
185.555	0
185.776	-0
185.996	0
186.217	0
186.438	0
186.659	-0
186.879	0
187.1	0
187.321	-0
187.541	-0
187.762	0
187.983	0
188.203	0
188.424	0
188.644	-0
188.865	0
189.086	-0
189.306	-0
189.527	0
189.747	0
189.968	-0
190.188	0
190.409	0
190.629	0
190.849	-0
191.07	-0
191.29	0
191.511	0
191.731	-0
191.951	-0
192.172	0
192.392	0
192.612	0
192.833	0
193.053	0
193.273	0
193.493	0
193.714	0
193.934	0
194.154	0
194.374	-0
194.594	-0
194.815	0
195.035	0
195.255	0
195.475	-0
195.695	0
195.915	0
196.135	-0
196.355	0
196.575	0
196.795	0
197.015	-0
197.235	-0
197.455	0
197.675	0
197.895	0
198.115	-0
198.335	0
198.555	-0
198.775	0
198.995	0
199.214	0
199.434	0
199.654	-0
199.874	0
200.094	0.87
200.313	-0.08
200.533	-0.47
200.753	-0.51
200.973	1.21
201.192	0.56
201.412	-0.51
201.632	0.13
201.851	0.49
202.071	-0.16
202.291	-0.48
202.51	-0.3
202.73	0.15
202.95	-0.08
203.169	-0.57
203.389	0.2
203.608	0.64
203.828	0.17
204.047	-0.16
204.267	0.53
204.486	0.44
204.706	0.42
204.925	0.38
205.145	0.03
205.364	0.56
205.583	0.66
205.803	-0.02
206.022	-0.25
206.242	0.6
206.461	-0.2
206.68	-0.21
206.9	0.19
207.119	0.65
207.338	0.98
207.557	0.06
207.777	-0.35
207.996	0.03
208.215	0.66
208.434	-0.28
208.654	-0.27
208.873	0.19
209.092	0.66
209.311	0.02
209.53	0.13
209.749	0.09
209.968	-0.02
210.187	0.29
210.407	-0.25
210.626	0.07
210.845	0.55
211.064	0.01
211.283	0.05
211.502	0.58
211.721	0.01
211.94	0.03
212.159	0.17
212.377	0.29
212.596	0.62
212.815	-0
213.034	0.27
213.253	0.41
213.472	0.4
213.691	-0.02
213.91	-0.23
214.128	0.04
214.347	0.52
214.566	-0.21
214.785	-0.37
215.003	0.46
215.222	-0.03
215.441	0.04
215.66	-0.23
215.878	0.11
216.097	0.25
216.316	-0.25
216.534	-0.11
216.753	0.08
216.972	0.18
217.19	0.02
217.409	-0.08
217.627	-0.09
217.846	-0.05
218.064	0.22
218.283	0.08
218.501	0.56
218.72	0.4
218.938	-0.15
219.157	-0.07
219.375	0.36
219.594	0.32
219.812	-0.1
220.031	-0.02
220.249	0.46
220.467	0.23
220.686	0.06
220.904	-0.11
221.122	-0.11
221.341	0.37
221.559	0.06
221.777	-0.13
221.995	0.1
222.214	0.32
222.432	-0.01
222.65	0.27
222.868	0.15
223.086	0.09
223.305	0.32
223.523	0.01
223.741	0.45
223.959	0.17
224.177	-0.21
224.395	-0
224.613	0.04
224.831	0.27
225.049	-0.12
225.267	-0.02
225.485	-0.02
225.703	-0.01
225.921	0.01
226.139	0.04
226.357	0.26
226.575	0.06
226.793	-0.08
227.011	0.53
227.229	0.13
227.447	0.09
227.665	-0.05
227.883	-0.19
228.1	0.13
228.318	0.15
228.536	-0.18
228.754	-0.02
228.972	0.13
229.189	0.23
229.407	-0.04
229.625	0.05
229.843	0.32
230.06	0.1
230.278	-0.04
230.496	0.05
230.713	0.19
230.931	0.25
231.149	-0
231.366	-0.15
231.584	-0.05
231.801	0.46
232.019	0.06
232.236	-0.03
232.454	-0.06
232.671	0.15
232.889	-0.01
233.106	-0.02
233.324	0.03
233.541	0.01
233.759	0.02
233.976	0.04
234.194	0.1
234.411	0
234.628	0
234.846	0.02
235.063	0.03
235.28	0.09
235.498	0.08
235.715	-0
235.932	0.22
236.149	0.02
236.367	0.05
236.584	-0.04
236.801	-0
237.018	0.23
237.236	0.04
237.453	-0.12
237.67	0.19
237.887	0.15
238.104	-0.02
238.321	-0.01
238.538	0.13
238.755	0.2
238.973	-0.12
239.19	0.17
239.407	0.18
239.624	0.09
239.841	-0.12
240.058	-0
240.275	0.23
240.492	0.03
240.709	0.03
240.925	0.13
241.142	0.03
241.359	-0.05
241.576	-0
241.793	0
242.01	0.06
242.227	0.13
242.444	0.09
242.66	0.09
242.877	0.08
243.094	0.03
243.311	0.02
243.527	0.03
243.744	0.14
243.961	0.12
244.178	-0
244.394	0.07
244.611	0.22
244.828	0.26
245.044	-0.07
245.261	0.02
245.477	0.11
245.694	0.12
245.911	0
246.127	0.16
246.344	0.2
246.56	0.1
246.777	0.04
246.993	0.05
247.21	0.12
247.426	0.08
247.643	-0
247.859	-0.03
248.076	-0
248.292	0.24
248.508	0.03
248.725	0.11
248.941	0.12
249.157	0.19
249.374	-0.02
249.59	0.05
249.806	0.09
250.023	0.16
250.239	0
250.455	-0.02
250.671	0.01
250.888	0.11
251.104	0.09
251.32	0.02
251.536	0.06
251.752	0.02
251.969	0.1
252.185	0.05
252.401	0.21
252.617	-0.04
252.833	0.05
253.049	0.06
253.265	0.06
253.481	0.02
253.697	0.01
253.913	-0.02
254.129	0.09
254.345	0.1
254.561	0.02
254.777	0.1
254.993	0.03
255.209	0.07
255.425	0.03
255.641	-0.01
255.857	0.2
256.073	0.17
256.288	-0.03
256.504	0.03
256.72	0.08
256.936	0.25
257.152	0.02
257.367	-0.01
257.583	0.12
257.799	0.09
258.015	-0.02
258.23	0.02
258.446	0.23
258.662	0.06
258.877	0.01
259.093	-0.12
259.309	0.1
259.524	0.09
259.74	0.01
259.955	-0.09
260.171	0.05
260.387	0.02
260.602	0.08
260.818	0.08
261.033	-0.04
261.249	0.06
261.464	0
261.68	-0.08
261.895	0.07
262.11	0.14
262.326	0.05
262.541	-0.03
262.757	0.12
262.972	0.06
263.187	0.07
263.403	0.07
263.618	0.11
263.833	0.05
264.049	-0.04
264.264	0.04
264.479	0.1
264.694	0.24
264.91	-0.03
265.125	0.04
265.34	0.08
265.555	0.17
265.77	0.07
265.986	0.02
266.201	0.06
266.416	0.14
266.631	-0.04
266.846	0.01
267.061	-0.01
267.276	0.06
267.491	-0.07
267.706	0.07
267.921	0.05
268.136	0.07
268.351	0.03
268.566	-0.09
268.781	0.13
268.996	0.05
269.211	0.04
269.426	-0.02
269.641	0
269.856	0.14
270.071	-0.03
270.285	-0.04
270.5	0.12
270.715	0
270.93	0.1
271.145	0.06
271.359	0.12
271.574	-0.04
271.789	0.08
272.004	-0.01
272.218	0.06
272.433	0.08
272.648	-0.02
272.862	0.13
273.077	0.01
273.292	0.05
273.506	-0.03
273.721	0.03
273.936	0.07
274.15	0.12
274.365	0.05
274.579	0.07
274.794	0.08
275.008	0.13
275.223	-0.03
275.437	0.02
275.652	0.08
275.866	0.1
276.081	0.01
276.295	0.08
276.509	0.04
276.724	0.03
276.938	0.04
277.153	0.09
277.367	0.11
277.581	0.05
277.796	0.04
278.01	-0.02
278.224	0.02
278.438	0.15
278.653	-0.03
278.867	-0.02
279.081	0.06
279.295	0.04
279.51	0.08
279.724	-0.07
279.938	0.08
280.152	0.03
280.366	0.01
280.58	0.02
280.794	0.14
281.008	0.08
281.222	0.07
281.437	0.19
281.651	0.05
281.865	0.09
282.079	0.02
282.293	-0.05
282.507	-0
282.721	0.03
282.935	0.04
283.148	-0.05
283.362	0.03
283.576	-0.03
283.79	0.05
284.004	-0.08
284.218	0.13
284.432	-0.01
284.646	0.06
284.859	0.03
285.073	0.01
285.287	0.01
285.501	-0.02
285.714	0.03
285.928	0.06
286.142	0
286.356	-0.02
286.569	-0.04
286.783	0.06
286.997	0.07
287.21	0.1
287.424	0.02
287.637	0.04
287.851	0.01
288.065	0.05
288.278	0.04
288.492	0.03
288.705	0.05
288.919	0.1
289.132	-0.03
289.346	0.1
289.559	-0.05
289.773	-0.06
289.986	0
290.2	0.04
290.413	0.09
290.626	-0.03
290.84	0.04
291.053	0.04
291.267	0.1
291.48	0.01
291.693	0.06
291.906	0.02
292.12	0.01
292.333	-0.02
292.546	0.03
292.76	0.08
292.973	0.03
293.186	0.09
293.399	0
293.612	0.06
293.826	0.05
294.039	0.01
294.252	0.05
294.465	0.06
294.678	0.09
294.891	0.01
295.104	-0.02
295.317	0.01
295.53	0.04
295.743	0.06
295.956	0.02
296.169	0.1
296.382	0.09
296.595	0.05
296.808	-0.02
297.021	0.08
297.234	0.08
297.447	0.03
297.66	0.06
297.873	0.07
298.086	0.05
298.299	-0.01
298.511	-0.03
298.724	0.03
298.937	0
299.15	0.02
299.363	0.02
299.575	0.06
299.788	0.08
300.001	-0.02
300.213	-0.03
300.426	-0.04
300.639	0.05
300.852	0.03
301.064	0.12
301.277	0.12
301.489	0.14
301.702	0.07
301.915	0.02
302.127	0.03
302.34	0.05
302.552	0.07
302.765	-0.01
302.977	0.04
303.19	0.03
303.402	0.03
303.615	0.06
303.827	0.04
304.04	0
304.252	0.07
304.464	0.02
304.677	0.12
304.889	0.08
305.102	0.01
305.314	0.03
305.526	0.02
305.739	0.12
305.951	0
306.163	-0.02
306.375	0.13
306.588	0
306.8	0.03
307.012	-0.01
307.224	0.09
307.436	0.13
307.649	-0.05
307.861	0.03
308.073	0.09
308.285	0.01
308.497	0.01
308.709	0.04
308.921	0.06
309.133	0.07
309.346	0
309.558	0.04
309.77	0.06
309.982	0.07
310.194	0.05
310.406	0.01
310.617	0.1
310.829	0.03
311.041	0.04
311.253	0.02
311.465	0.03
311.677	0.02
311.889	0.04
312.101	0.01
312.313	0.07
312.524	0.1
312.736	-0.03
312.948	0.02
313.16	0.15
313.372	0.07
313.583	0.07
313.795	0.03
314.007	0
314.218	0.09
314.43	0.04
314.642	-0.02
314.853	0.03
315.065	0.07
315.277	0.01
315.488	0.06
315.7	0.06
315.912	0.11
316.123	0.04
316.335	0.02
316.546	0.11
316.758	0.05
316.969	-0
317.181	0.02
317.392	0.06
317.604	0.06
317.815	0
318.026	-0.03
318.238	0.06
318.449	0.1
318.661	-0.02
318.872	-0.01
319.083	0.01
319.295	0.11
319.506	-0.02
319.717	0.09
319.929	0.08
320.14	0.04
320.351	0.03
320.562	0.02
320.774	0.04
320.985	0.06
321.196	-0.02
321.407	-0.02
321.618	0.06
321.829	0.04
322.041	0.07
322.252	0.03
322.463	0.03
322.674	0.1
322.885	0
323.096	0.04
323.307	0.04
323.518	0.05
323.729	0.03
323.94	0.05
324.151	0.01
324.362	0.03
324.573	0.02
324.784	0.01
324.995	0.07
325.206	0.06
325.417	0.02
325.628	0.01
325.838	0.07
326.049	0.03
326.26	0.07
326.471	-0.02
326.682	0.06
326.892	0.03
327.103	-0.01
327.314	-0.02
327.525	0.11
327.735	0.06
327.946	-0.01
328.157	0.03
328.368	0.07
328.578	0.01
328.789	0.05
328.999	0.08
329.21	0.03
329.421	0.07
329.631	-0
329.842	-0.01
330.052	0.07
330.263	0.09
330.473	0.05
330.684	0.03
330.894	0.04
331.105	0.02
331.315	0.03
331.526	-0.02
331.736	0.11
331.947	0.03
332.157	0.07
332.367	0.01
332.578	0.09
332.788	0.12
332.999	0.1
333.209	0.07
333.419	-0.02
333.629	0.05
333.84	0.05
334.05	0.02
334.26	0.1
334.47	0.05
334.681	0.11
334.891	0.04
335.101	0.06
335.311	0.12
335.521	0.05
335.732	-0.03
335.942	0.11
336.152	0.08
336.362	0.08
336.572	0.03
336.782	0.12
336.992	0.03
337.202	0.02
337.412	0.01
337.622	0.05
337.832	0.03
338.042	0.06
338.252	0
338.462	0.02
338.672	0.05
338.882	0.07
339.092	0.04
339.302	0.11
339.511	0.03
339.721	0.02
339.931	-0.02
340.141	0.08
340.351	0.12
340.561	0.04
340.77	0.05
340.98	0.04
341.19	0.08
341.4	0.01
341.609	-0.02
341.819	0.04
342.029	0
342.238	0.08
342.448	-0.01
342.658	0.08
342.867	0.07
343.077	0.08
343.286	0.05
343.496	0.1
343.706	0.11
343.915	-0.03
344.125	0.04
344.334	0.02
344.544	-0.01
344.753	0.01
344.963	0.04
345.172	0.04
345.381	0.03
345.591	-0.01
345.8	0.05
346.01	0.1
346.219	0.13
346.428	-0.09
346.638	0.03
346.847	0.02
347.056	0.09
347.266	-0.01
347.475	0.07
347.684	0.04
347.893	0.06
348.103	0.06
348.312	0
348.521	0.02
348.73	0.06
348.94	0.08
349.149	0.01
349.358	0.03
349.567	0.02
349.776	-0.01
349.985	0.02
350.194	0.1
350.403	0.08
350.612	-0
350.821	0.01
351.03	0.02
351.239	-0.03
351.448	0
351.657	0.01
351.866	0.08
352.075	0
352.284	-0
352.493	0.01
352.702	0.11
352.911	0.06
353.12	0.04
353.329	0.08
353.538	0.09
353.746	0.03
353.955	0.02
354.164	0.05
354.373	-0.02
354.582	0.07
354.79	0.06
354.999	0.09
355.208	0.02
355.416	0.06
355.625	0.02
355.834	0.01
356.042	0.05
356.251	0.01
356.46	0.02
356.668	0.09
356.877	0.12
357.085	0.1
357.294	-0.04
357.503	0.06
357.711	0.04
357.92	0.2
358.128	0.03
358.337	-0.03
358.545	0.07
358.754	0.02
358.962	0.08
359.17	0.03
359.379	0.04
359.587	0.08
359.796	0.04
360.004	0.11
360.212	0.08
360.421	0.11
360.629	0.1
360.837	-0.01
361.046	0.08
361.254	0.1
361.462	0.05
361.67	-0
361.879	0.05
362.087	0.05
362.295	0.04
362.503	0.04
362.711	0.01
362.92	0.02
363.128	0.04
363.336	-0
363.544	-0.03
363.752	0.03
363.96	0.03
364.168	0.03
364.376	0.02
364.584	0.02
364.792	0.07
365	0.07
365.208	0.03
365.416	0.06
365.624	0.07
365.832	0.04
366.04	0.1
366.248	0.08
366.456	0.07
366.664	0.05
366.872	0.05
367.079	0.01
367.287	0.09
367.495	0.04
367.703	0.05
367.911	0.05
368.118	0.07
368.326	0.03
368.534	0.02
368.742	0.11
368.949	0.01
369.157	0.05
369.365	0.07
369.572	0.03
369.78	0.06
369.988	0.07
370.195	0.07
370.403	0.09
370.61	0.04
370.818	0.06
371.026	0.11
371.233	0.03
371.441	0.05
371.648	0
371.856	0.03
372.063	0.07
372.271	0.03
372.478	0.02
372.685	0.04
372.893	0.09
373.1	0.05
373.308	0.02
373.515	0.12
373.722	0.07
373.93	0.07
374.137	0.09
374.344	0.13
374.552	0.11
374.759	0.09
374.966	0.05
375.173	0.04
375.381	0.09
375.588	0.05
375.795	-0.02
376.002	0.04
376.209	0.08
376.417	0.06
376.624	0.05
376.831	0.07
377.038	0.01
377.245	-0
377.452	0.07
377.659	0.06
377.866	0.04
378.073	0.06
378.28	0.03
378.487	0.09
378.694	0.13
378.901	0.05
379.108	0.04
379.315	0.08
379.522	0.17
379.729	0.09
379.936	0.05
380.143	0.08
380.35	0.08
380.557	0.06
380.763	0.1
380.97	0.06
381.177	0.1
381.384	0.08
381.591	0.03
381.797	0.11
382.004	0.09
382.211	0.11
382.418	0.08
382.624	0.12
382.831	0.12
383.038	0.07
383.244	0.09
383.451	0.04
383.658	0.06
383.864	0.05
384.071	0
384.277	0.13
384.484	0.04
384.69	0.09
384.897	0.07
385.103	0.04
385.31	0.05
385.516	0.07
385.723	0.04
385.929	0.04
386.136	0.07
386.342	0.13
386.549	0.05
386.755	0.12
386.961	0.11
387.168	0.06
387.374	0.09
387.58	0.11
387.787	0.1
387.993	0.12
388.199	0.06
388.406	0.04
388.612	0.09
388.818	0.07
389.024	0.04
389.231	0.09
389.437	0.19
389.643	0.14
389.849	0.17
390.055	0.1
390.261	0.11
390.467	0.15
390.674	0.05
390.88	0.1
391.086	0.12
391.292	0.09
391.498	0.11
391.704	0.17
391.91	0.12
392.116	0.08
392.322	0.05
392.528	0.13
392.734	0.11
392.94	0.12
393.146	0.14
393.352	0.11
393.557	0.1
393.763	0.13
393.969	0.16
394.175	0.15
394.381	0.12
394.587	0.09
394.792	0.11
394.998	0.15
395.204	0.19
395.41	0.15
395.615	0.15
395.821	0.18
396.027	0.21
396.233	0.15
396.438	0.19
396.644	0.31
396.85	0.19
397.055	0.24
397.261	0.25
397.466	0.23
397.672	0.23
397.878	0.23
398.083	0.27
398.289	0.23
398.494	0.29
398.7	0.34
398.905	0.15
399.111	0.34
399.316	0.24
399.522	0.35
399.727	0.31
399.932	0.31
400.138	0.33
400.343	0.33
400.549	0.42
400.754	0.37
400.959	0.37
401.165	0.42
401.37	0.48
401.575	0.42
401.78	0.47
401.986	0.46
402.191	0.5
402.396	0.57
402.601	0.62
402.807	0.66
403.012	0.62
403.217	0.74
403.422	0.68
403.627	0.72
403.832	0.74
404.037	0.84
404.243	0.87
404.448	0.79
404.653	0.91
404.858	0.97
405.063	0.96
405.268	0.96
405.473	1.03
405.678	1.04
405.883	1.34
406.088	1.26
406.293	1.2
406.498	1.33
406.703	1.41
406.907	1.45
407.112	1.45
407.317	1.62
407.522	1.72
407.727	1.74
407.932	1.87
408.136	2
408.341	2.01
408.546	2.12
408.751	2.18
408.956	2.18
409.16	2.44
409.365	2.49
409.57	2.57
409.774	2.66
409.979	2.8
410.184	2.85
410.388	2.93
410.593	3.21
410.798	3.26
411.002	3.48
411.207	3.54
411.411	3.74
411.616	3.78
411.82	4
412.025	4.13
412.229	4.3
412.434	4.46
412.638	4.58
412.843	4.76
413.047	4.96
413.252	4.96
413.456	5.39
413.66	5.43
413.865	5.57
414.069	5.8
414.273	5.96
414.478	6.08
414.682	6.33
414.886	6.62
415.091	6.68
415.295	6.89
415.499	7.26
415.703	7.28
415.908	7.73
416.112	7.75
416.316	8.22
416.52	8.38
416.724	8.51
416.929	8.77
417.133	9.42
417.337	9.36
417.541	9.61
417.745	9.82
417.949	10.17
418.153	10.53
418.357	10.75
418.561	11.3
418.765	11.13
418.969	11.51
419.173	12.1
419.377	12.04
419.581	12.62
419.785	12.87
419.989	13
420.193	13.53
420.397	13.7
420.601	13.97
420.804	14.26
421.008	14.11
421.212	14.5
421.416	14.26
421.62	14.36
421.823	14.43
422.027	14.44
422.231	14.32
422.435	14.2
422.638	14.1
422.842	14.18
423.046	14.35
423.249	14.54
423.453	14.34
423.657	14.4
423.86	14.51
424.064	14.66
424.268	14.48
424.471	14.32
424.675	14.48
424.878	14.16
425.082	14.31
425.285	14.59
425.489	13.96
425.692	13.83
425.896	13.52
426.099	13.52
426.303	13.35
426.506	13.39
426.71	13.33
426.913	13.14
427.116	12.95
427.32	12.62
427.523	12.36
427.726	12.34
427.93	12.31
428.133	12.19
428.336	11.97
428.54	11.72
428.743	11.74
428.946	11.55
429.149	11.07
429.353	10.57
429.556	10.27
429.759	9.9
429.962	9.76
430.165	9.55
430.368	8.8
430.571	8.42
430.775	8.09
430.978	7.79
431.181	7.6
431.384	7.29
431.587	7.12
431.79	7.24
431.993	6.92
432.196	6.85
432.399	6.82
432.602	6.76
432.805	6.45
433.008	6.68
433.211	6.32
433.414	6.28
433.616	6.11
433.819	5.9
434.022	5.71
434.225	5.64
434.428	5.45
434.631	5.55
434.833	5.22
435.036	5.15
435.239	5.08
435.442	4.82
435.645	4.79
435.847	4.78
436.05	4.67
436.253	4.61
436.455	4.41
436.658	4.18
436.861	4.25
437.063	4.15
437.266	3.99
437.468	3.97
437.671	4
437.874	3.84
438.076	3.57
438.279	3.6
438.481	3.52
438.684	3.63
438.886	3.35
439.089	3.27
439.291	3.28
439.494	3.23
439.696	3.11
439.899	3.12
440.101	3.13
440.303	2.92
440.506	3.05
440.708	2.89
440.91	2.83
441.113	2.7
441.315	2.79
441.517	2.54
441.72	2.64
441.922	2.38
442.124	2.18
442.326	2.3
442.529	2.3
442.731	2.13
442.933	2.16
443.135	2
443.337	1.87
443.539	1.97
443.742	1.81
443.944	1.88
444.146	1.72
444.348	1.71
444.55	1.58
444.752	1.64
444.954	1.52
445.156	1.52
445.358	1.41
445.56	1.55
445.762	1.4
445.964	1.42
446.166	1.31
446.368	1.22
446.57	1.37
446.772	1.23
446.974	1.13
447.175	1.19
447.377	1.09
447.579	1.14
447.781	1.07
447.983	1.06
448.184	1
448.386	1
448.588	0.9
448.79	0.9
448.991	0.97
449.193	0.91
449.395	0.88
449.597	0.92
449.798	0.93
450	0.86
450.202	0.85
450.403	0.84
450.605	0.79
450.806	0.75
451.008	0.63
451.21	0.75
451.411	0.72
451.613	0.7
451.814	0.74
452.016	0.74
452.217	0.62
452.419	0.69
452.62	0.67
452.821	0.68
453.023	0.72
453.224	0.64
453.426	0.62
453.627	0.58
453.828	0.62
454.03	0.55
454.231	0.59
454.432	0.53
454.634	0.65
454.835	0.56
455.036	0.41
455.238	0.59
455.439	0.62
455.64	0.45
455.841	0.38
456.042	0.58
456.244	0.46
456.445	0.42
456.646	0.41
456.847	0.4
457.048	0.47
457.249	0.49
457.45	0.66
457.651	0.35
457.852	0.46
458.054	0.41
458.255	0.34
458.456	0.41
458.657	0.4
458.858	0.34
459.058	0.38
459.259	0.37
459.46	0.28
459.661	0.32
459.862	0.51
460.063	0.34
460.264	0.36
460.465	0.26
460.666	0.39
460.866	0.29
461.067	0.29
461.268	0.24
461.469	0.29
461.67	0.23
461.87	0.26
462.071	0.25
462.272	0.19
462.473	0.24
462.673	0.26
462.874	0.22
463.075	0.24
463.275	0.19
463.476	0.25
463.676	0.26
463.877	0.21
464.078	0.24
464.278	0.27
464.479	0.22
464.679	0.25
464.88	0.26
465.08	0.27
465.281	0.18
465.481	0.23
465.682	0.22
465.882	0.28
466.083	0.18
466.283	0.18
466.483	0.19
466.684	0.15
466.884	0.13
467.085	0.21
467.285	0.25
467.485	0.13
467.686	0.2
467.886	0.11
468.086	0.19
468.286	0.15
468.487	0.19
468.687	0.11
468.887	0.14
469.087	0.23
469.287	0.19
469.488	0.1
469.688	0.19
469.888	0.2
470.088	0.2
470.288	0.18
470.488	0.2
470.688	0.11
470.888	0.13
471.088	0.11
471.288	0.18
471.488	0.17
471.688	0.19
471.888	0.1
472.088	0.12
472.288	0.14
472.488	0.07
472.688	0.1
472.888	0.15
473.088	0.12
473.288	0.17
473.488	0.13
473.688	0.2
473.887	0.14
474.087	0.11
474.287	0.16
474.487	0.08
474.687	0.14
474.886	0.07
475.086	0.14
475.286	0.11
475.486	0.12
475.685	0.14
475.885	0.08
476.085	0.11
476.284	0.15
476.484	0.12
476.684	0.11
476.883	0.15
477.083	0.1
477.282	0.05
477.482	0.16
477.681	0.13
477.881	0.12
478.08	0.06
478.28	0.06
478.479	0.11
478.679	0.15
478.878	0.03
479.078	0.06
479.277	0.1
479.477	0.08
479.676	0.14
479.875	0.06
480.075	0.01
480.274	0.12
480.473	0.1
480.673	0.03
480.872	0.1
481.071	0.08
481.271	0.09
481.47	0.05
481.669	0.06
481.868	0.07
482.067	0.06
482.267	0.04
482.466	0.05
482.665	0.04
482.864	0.04
483.063	0.05
483.262	0.1
483.461	0.13
483.661	0.09
483.86	0.08
484.059	0.06
484.258	0.09
484.457	0.07
484.656	0.08
484.855	0.11
485.054	0.02
485.253	0.02
485.452	0.03
485.651	0.07
485.849	0.05
486.048	0.02
486.247	0.06
486.446	0.06
486.645	0.03
486.844	0.04
487.043	0.02
487.241	0.09
487.44	0.05
487.639	0.03
487.838	0.09
488.037	0.05
488.235	0.12
488.434	0.06
488.633	0.03
488.831	0.05
489.03	0.08
489.229	0.06
489.427	0.06
489.626	0.09
489.825	0.12
490.023	0.05
490.222	0.05
490.42	0.06
490.619	0.08
490.817	0.05
491.016	0.03
491.214	0.06
491.413	0.04
491.611	0.04
491.81	0.02
492.008	0.1
492.207	0.05
492.405	0.05
492.604	0.01
492.802	0.01
493	0.06
493.199	0.04
493.397	0.05
493.595	0.05
493.794	0.03
493.992	0.06
494.19	0.04
494.388	0.07
494.587	0.04
494.785	0.06
494.983	0.03
495.181	0.03
495.379	0.04
495.578	0.04
495.776	0.06
495.974	0.05
496.172	0.04
496.37	0.04
496.568	0.04
496.766	0.01
496.964	0.07
497.162	0.05
497.36	-0.01
497.558	0.06
497.756	0.06
497.954	0.05
498.152	0.02
498.35	0.03
498.548	0.06
498.746	0.04
498.944	0.02
499.142	0.03
499.34	0.01
499.538	0.04
499.736	0.02
499.933	0.07
500.131	0.07
500.329	0.02
500.527	0.06
500.725	0.07
500.922	0.04
501.12	0.05
501.318	0.04
501.516	0.02
501.713	0.03
501.911	0.03
502.109	-0
502.306	0.05
502.504	0.03
502.701	0.04
502.899	0.03
503.097	0.07
503.294	0.05
503.492	0.03
503.689	0.03
503.887	0.04
504.084	0.1
504.282	0.04
504.479	0
504.677	0.05
504.874	0.01
505.072	0.04
505.269	0.02
505.466	0.05
505.664	0.05
505.861	-0.02
506.059	0.02
506.256	0.06
506.453	-0
506.651	0.08
506.848	0.05
507.045	0.04
507.242	0.05
507.44	0.02
507.637	0.01
507.834	0.02
508.031	0.06
508.229	0.02
508.426	0.04
508.623	0.02
508.82	-0
509.017	0.02
509.214	0.02
509.411	0.05
509.608	-0.01
509.805	0.04
510.003	0.01
510.2	0.04
510.397	0.06
510.594	0
510.791	0.02
510.988	0
511.184	0.06
511.381	0.03
511.578	-0.01
511.775	0.05
511.972	0.02
512.169	0.03
512.366	0.02
512.563	0.05
512.76	-0
512.956	0.05
513.153	0.02
513.35	0.04
513.547	0.01
513.744	0.01
513.94	0.01
514.137	0.01
514.334	0.05
514.53	0.04
514.727	0.03
514.924	0.05
515.12	0.01
515.317	0
515.514	0.02
515.71	0.02
515.907	0.01
516.103	0.02
516.3	0.04
516.497	0.04
516.693	0.05
516.89	0.01
517.086	-0
517.283	0.06
517.479	0.06
517.676	0
517.872	0.02
518.068	0.01
518.265	0.01
518.461	-0.01
518.658	-0.01
518.854	0.04
519.05	0.01
519.247	0.01
519.443	0.04
519.639	0.01
519.836	0.02
520.032	0.03
520.228	0
520.424	0.08
520.621	0.05
520.817	-0
521.013	0.04
521.209	0.02
521.405	0.06
521.601	0.04
521.798	0.02
521.994	0.08
522.19	0.02
522.386	-0.01
522.582	-0
522.778	0.03
522.974	0.02
523.17	0.04
523.366	0.05
523.562	0.03
523.758	0.01
523.954	0.01
524.15	0.01
524.346	0.04
524.542	0.02
524.738	-0
524.934	0.01
525.129	0.02
525.325	0.01
525.521	0.02
525.717	0.04
525.913	0.01
526.109	0.03
526.304	0.01
526.5	0.04
526.696	0.05
526.892	0.01
527.087	0.02
527.283	-0
527.479	0.04
527.674	0
527.87	0.02
528.066	0.03
528.261	0.05
528.457	0.04
528.653	0.01
528.848	0.03
529.044	0.04
529.239	0.03
529.435	0.06
529.63	0.04
529.826	0.06
530.021	0.02
530.217	0.03
530.412	0
530.608	0.01
530.803	0.03
530.999	0
531.194	-0.02
531.389	0.03
531.585	-0.01
531.78	0.01
531.975	0.04
532.171	0.05
532.366	0.01
532.561	0.03
532.757	0.01
532.952	0.02
533.147	0.04
533.342	0
533.538	0.01
533.733	0.05
533.928	0.02
534.123	0.01
534.318	0
534.513	0.01
534.709	0.04
534.904	0.01
535.099	0.02
535.294	0.01
535.489	0.01
535.684	0.01
535.879	-0
536.074	0.03
536.269	-0.01
536.464	0.03
536.659	0.02
536.854	0.02
537.049	0.01
537.244	0.03
537.439	0.01
537.634	0.06
537.828	0.02
538.023	0.01
538.218	0.01
538.413	0.01
538.608	-0.01
538.803	0.04
538.997	-0.02
539.192	0.05
539.387	0.04
539.582	0.01
539.776	0.04
539.971	0.03
540.166	0.02
540.36	0
540.555	0.02
540.75	-0
540.944	0.01
541.139	-0.01
541.334	0.02
541.528	0.05
541.723	0.04
541.917	0.01
542.112	-0.01
542.306	0.02
542.501	0.01
542.695	0.02
542.89	0
543.084	0.05
543.279	-0.01
543.473	0.01
543.668	0.02
543.862	0.02
544.056	0.04
544.251	0.01
544.445	0.03
544.64	0.01
544.834	0.01
545.028	0.02
545.222	0.02
545.417	0.05
545.611	0.04
545.805	0.01
546	0
546.194	0.01
546.388	0.02
546.582	0.03
546.776	0.02
546.97	0.03
547.165	0.04
547.359	0.03
547.553	-0
547.747	0.03
547.941	0.03
548.135	0.01
548.329	0.02
548.523	0.04
548.717	-0
548.911	0.01
549.105	0.02
549.299	0.02
549.493	0.04
549.687	0.04
549.881	0.03
550.075	0.02
550.269	-0.02
550.463	0.05
550.657	-0.01
550.85	0.02
551.044	0.01
551.238	0.03
551.432	-0.01
551.626	-0.01
551.82	0.04
552.013	0
552.207	0.02
552.401	0.02
552.594	0.03
552.788	0.02
552.982	0.03
553.176	-0
553.369	0.03
553.563	0.02
553.756	-0.04
553.95	-0.02
554.144	0.03
554.337	0.05
554.531	0.03
554.724	0.03
554.918	0.02
555.111	0.05
555.305	0.03
555.498	0.06
555.692	0.03
555.885	-0
556.079	0.01
556.272	-0.01
556.466	0.04
556.659	0.03
556.852	-0
557.046	0.01
557.239	0.04
557.432	-0.03
557.626	0
557.819	0.04
558.012	0.04
558.206	0.04
558.399	0.02
558.592	0.04
558.785	0.01
558.979	0.03
559.172	0.01
559.365	0.01
559.558	0.03
559.751	0
559.944	0.02
560.138	0
560.331	-0.01
560.524	-0
560.717	0.02
560.91	0.01
561.103	0.04
561.296	0.01
561.489	0.03
561.682	0.02
561.875	0.05
562.068	0.02
562.261	0.03
562.454	0.03
562.647	0.02
562.84	0.03
563.032	0.01
563.225	0.03
563.418	-0
563.611	-0.01
563.804	0
563.997	-0.02
564.19	-0
564.382	0.01
564.575	0.01
564.768	0.02
564.961	0.01
565.153	-0.01
565.346	0.03
565.539	0.04
565.731	0.02
565.924	0.04
566.117	0.06
566.309	0.01
566.502	-0
566.695	0
566.887	0.01
567.08	-0.01
567.272	0.01
567.465	0.02
567.657	0.03
567.85	0.03
568.042	0.04
568.235	0.05
568.427	0.02
568.62	0.01
568.812	0.03
569.005	0.04
569.197	0.01
569.389	0.02
569.582	0.02
569.774	0.03
569.966	-0.02
570.159	-0.02
570.351	0.02
570.543	-0
570.736	0.03
570.928	0
571.12	0.03
571.312	-0.01
571.505	-0.05
571.697	0.06
571.889	-0.01
572.081	0.02
572.273	-0.02
572.465	0.07
572.658	0
572.85	0.02
573.042	0.01
573.234	0.01
573.426	0.06
573.618	-0.05
573.81	0.02
574.002	0.06
574.194	0.04
574.386	-0.02
574.578	-0.06
574.77	-0.01
574.962	-0.01
575.154	-0.03
575.346	0.01
575.538	0.04
575.729	-0.01
575.921	0.01
576.113	0.01
576.305	0.04
576.497	0
576.689	0.02
576.88	-0.03
577.072	0.03
577.264	0.01
577.456	0
577.647	-0.06
577.839	-0.01
578.031	0.06
578.223	-0.02
578.414	-0.01
578.606	0.03
578.798	0.02
578.989	0
579.181	0.01
579.372	0.03
579.564	0.02
579.755	0.02
579.947	0.01
580.139	0.03
580.33	-0.04
580.522	-0
580.713	-0.05
580.905	-0
581.096	-0.01
581.287	0.02
581.479	-0.01
581.67	0.03
581.862	0.02
582.053	-0.01
582.244	-0.04
582.436	0
582.627	0.01
582.818	-0.04
583.01	-0.01
583.201	0.03
583.392	0.04
583.583	-0.01
583.775	-0.02
583.966	0
584.157	0.01
584.348	-0
584.54	-0.03
584.731	0.03
584.922	0
585.113	-0.04
585.304	0.03
585.495	0.05
585.686	0.02
585.877	0.03
586.068	0.02
586.259	0.04
586.45	0.03
586.641	-0.02
586.832	-0.05
587.023	0.03
587.214	0.02
587.405	0.01
587.596	-0.02
587.787	0.03
587.978	0.02
588.169	-0.03
588.36	-0.03
588.551	0.02
588.742	-0.02
588.932	0.01
589.123	0
589.314	0.02
589.505	0.03
589.696	0.03
589.886	-0.02
590.077	-0.03
590.268	0.01
590.458	-0.01
590.649	-0.05
590.84	0.06
591.03	-0.02
591.221	-0.02
591.412	-0.05
591.602	0.04
591.793	0.03
591.984	-0.03
592.174	0.02
592.365	0.09
592.555	-0.01
592.746	0.03
592.936	0
593.127	0.02
593.317	0.07
593.508	-0.02
593.698	-0.01
593.889	0
594.079	0.03
594.269	-0.02
594.46	0.01
594.65	0.02
594.84	0
595.031	-0.01
595.221	0
595.411	-0.04
595.602	0.02
595.792	0
595.982	-0
596.172	0.07
596.363	0.02
596.553	0.03
596.743	0.01
596.933	-0
597.123	0.05
597.314	0
597.504	-0.01
597.694	0.04
597.884	0.03
598.074	0.01
598.264	-0.01
598.454	0.03
598.644	-0.01
598.834	0
599.024	-0.08
599.214	-0.02
599.404	0
599.594	-0.02
599.784	-0.02
599.974	0.05
600.164	0.04
600.354	-0.03
600.544	-0.03
600.734	0.01
600.924	0.04
601.114	-0.03
601.303	0.01
601.493	0.03
601.683	-0.01
601.873	0.02
602.063	-0.03
602.252	0.05
602.442	-0.05
602.632	-0.03
602.821	-0.04
603.011	0.03
603.201	0
603.39	-0.02
603.58	-0
603.77	0
603.959	0.03
604.149	-0.02
604.339	-0.03
604.528	0.05
604.718	0.04
604.907	-0.01
605.097	-0.01
605.286	-0.03
605.476	0.02
605.665	0.02
605.855	-0.02
606.044	0.06
606.234	0.05
606.423	0
606.612	-0.04
606.802	0.02
606.991	0.03
607.181	0
607.37	-0.06
607.559	0
607.749	-0.07
607.938	-0.01
608.127	-0.02
608.316	0.01
608.506	0.01
608.695	-0.01
608.884	-0.03
609.073	0.01
609.263	0.02
609.452	0.02
609.641	0
609.83	-0.02
610.019	-0.01
610.208	-0.02
610.397	0.01
610.586	0.03
610.775	-0.02
610.965	-0.01
611.154	-0
611.343	0.01
611.532	0.01
611.721	-0.03
611.91	-0
612.099	0.03
612.287	-0.01
612.476	-0.04
612.665	0.04
612.854	-0.03
613.043	0.05
613.232	0
613.421	-0.05
613.61	0.02
613.798	-0.01
613.987	0.04
614.176	0.02
614.365	0.03
614.554	0.01
614.742	0.02
614.931	-0.01
615.12	0.04
615.309	0
615.497	-0
615.686	-0.02
615.875	-0
616.063	0.03
616.252	-0.03
616.44	-0.01
616.629	-0
616.818	0.08
617.006	0
617.195	-0.02
617.383	0.03
617.572	0.04
617.76	-0.04
617.949	0
618.137	0.02
618.326	0.06
618.514	-0.02
618.703	-0.04
618.891	0.07
619.079	-0.05
619.268	0.04
619.456	-0.01
619.644	0.02
619.833	0.01
620.021	0
620.209	-0.07
620.398	0.03
620.586	-0.01
620.774	0.01
620.962	-0
621.151	0.04
621.339	-0
621.527	-0.03
621.715	-0.05
621.903	-0.02
622.092	-0.03
622.28	0.01
622.468	-0.01
622.656	-0.02
622.844	0.04
623.032	-0.02
623.22	-0.03
623.408	0.04
623.596	-0.01
623.784	0.03
623.972	-0.02
624.16	-0.02
624.348	0.06
624.536	0
624.724	-0.01
624.912	0.05
625.1	0.02
625.288	-0.04
625.476	-0.01
625.664	0.07
625.851	-0.02
626.039	-0
626.227	0.03
626.415	-0.03
626.603	-0.07
626.79	0.02
626.978	-0.02
627.166	0.05
627.354	0.02
627.541	-0.03
627.729	-0.07
627.917	0.02
628.104	0.06
628.292	0
628.48	-0
628.667	0.01
628.855	0.02
629.042	0.03
629.23	0
629.418	0
629.605	0
629.793	-0.03
629.98	-0.02
630.168	-0.01
630.355	0
630.543	0.04
630.73	-0.07
630.917	0.03
631.105	0.03
631.292	0
631.48	-0
631.667	0.07
631.854	0.04
632.042	0.02
632.229	-0.03
632.416	-0.01
632.604	-0.01
632.791	-0.03
632.978	0.04
633.165	0.02
633.353	0.06
633.54	0.01
633.727	-0.04
633.914	-0.03
634.101	-0.07
634.289	0.03
634.476	-0.03
634.663	-0.03
634.85	-0
635.037	-0.04
635.224	-0.05
635.411	0.05
635.598	0.02
635.785	-0
635.972	-0.02
636.159	0.05
636.346	-0.03
636.533	-0.02
636.72	-0.01
636.907	-0.01
637.094	0.05
637.281	-0.01
637.468	0.03
637.655	0.02
637.842	-0.02
638.029	-0.02
638.215	0.03
638.402	0.04
638.589	-0.03
638.776	0
638.963	-0.01
639.149	0.05
639.336	0.06
639.523	-0.03
639.709	0.01
639.896	-0.02
640.083	0.07
640.27	0.01
640.456	-0.02
640.643	0.03
640.829	-0.03
641.016	0.04
641.203	-0.04
641.389	0.06
641.576	0.03
641.762	-0.01
641.949	-0.02
642.135	0.02
642.322	0.02
642.508	-0.03
642.695	0.02
642.881	0.01
643.068	-0
643.254	-0
643.441	0.01
643.627	-0.02
643.813	-0.02
644	0.03
644.186	-0.01
644.372	0.05
644.559	0.05
644.745	-0.01
644.931	-0.01
645.118	0.01
645.304	0
645.49	-0.04
645.676	-0.01
645.862	0.03
646.049	0.06
646.235	-0.01
646.421	0.07
646.607	0.1
646.793	-0.01
646.979	-0.04
647.165	-0
647.352	-0.01
647.538	0.03
647.724	0.01
647.91	0.01
648.096	0.05
648.282	0.05
648.468	-0.01
648.654	0.01
648.84	0.01
649.026	-0.01
649.212	-0.01
649.397	-0.01
649.583	-0.03
649.769	0.03
649.955	0
650.141	-0
650.327	0.01
650.513	-0.03
650.698	0.01
650.884	-0.06
651.07	-0.02
651.256	0.04
651.442	0.01
651.627	-0.02
651.813	0.02
651.999	0
652.184	0.01
652.37	-0.03
652.556	0.01
652.741	0.04
652.927	-0.06
653.113	0.01
653.298	-0.01
653.484	-0
653.669	-0.04
653.855	-0.03
654.04	0.05
654.226	-0.01
654.412	-0.03
654.597	-0.02
654.782	-0.01
654.968	0.04
655.153	0.04
655.339	-0.03
655.524	-0.04
655.71	0.04
655.895	0.01
656.08	-0.01
656.266	0.05
656.451	0.02
656.636	-0.02
656.822	0.02
657.007	-0.05
657.192	0.01
657.378	-0.03
657.563	0.02
657.748	0.01
657.933	0.02
658.118	-0.01
658.304	-0.01
658.489	0.05
658.674	0.01
658.859	-0.04
659.044	0.04
659.229	0.03
659.414	-0.03
659.599	-0
659.785	-0.04
659.97	-0.02
660.155	0.04
660.34	0
660.525	-0
660.71	-0.02
660.895	0.06
661.08	-0.01
661.264	-0.02
661.449	0.08
661.634	0.07
661.819	-0
662.004	0.03
662.189	-0.09
662.374	-0.01
662.559	-0.03
662.743	-0.03
662.928	0.01
663.113	0.02
663.298	-0.05
663.483	-0
663.667	-0.01
663.852	-0.06
664.037	0.05
664.221	-0.03
664.406	0.01
664.591	0.02
664.775	-0.01
664.96	-0.05
665.145	0.01
665.329	0.03
665.514	-0.01
665.698	-0.02
665.883	-0.11
666.068	0.07
666.252	0
666.437	-0.03
666.621	-0.01
666.806	0.03
666.99	0.01
667.174	-0.01
667.359	0.06
667.543	-0.02
667.728	-0.03
667.912	-0.07
668.096	0.03
668.281	-0.01
668.465	-0.01
668.649	0.03
668.834	-0.05
669.018	-0.03
669.202	-0.01
669.387	-0.02
669.571	0.03
669.755	-0.02
669.939	-0.02
670.124	-0.03
670.308	0.04
670.492	-0.01
670.676	0.01
670.86	-0
671.044	-0.03
671.228	0.05
671.413	0
671.597	-0.06
671.781	-0.03
671.965	0.03
672.149	0.02
672.333	-0.02
672.517	-0.01
672.701	0.04
672.885	-0
673.069	-0.09
673.253	0.05
673.437	-0.01
673.621	-0.08
673.804	-0.02
673.988	-0.01
674.172	-0.01
674.356	-0.08
674.54	0
674.724	0.11
674.908	-0.01
675.091	0.03
675.275	-0.01
675.459	0.02
675.643	0.07
675.826	-0.01
676.01	0.02
676.194	-0.03
676.377	0.05
676.561	0.02
676.745	0.01
676.928	0.05
677.112	0.03
677.296	-0.02
677.479	-0.02
677.663	0.04
677.846	0.06
678.03	0
678.213	-0.05
678.397	0.04
678.58	0.01
678.764	-0.03
678.947	-0.04
679.131	-0.04
679.314	0.03
679.498	-0.02
679.681	0.01
679.865	0.04
680.048	0
680.231	-0.03
680.415	-0.02
680.598	0
680.781	-0.01
680.965	-0.05
681.148	-0.01
681.331	-0.03
681.514	0.05
681.698	-0.05
681.881	0.02
682.064	-0
682.247	0.01
682.43	-0.08
682.614	0.05
682.797	0.03
682.98	0.06
683.163	-0.05
683.346	0.01
683.529	0
683.712	-0.04
683.895	0.07
684.078	-0.04
684.261	-0.04
684.444	-0.01
684.627	0
684.81	-0.03
684.993	-0.02
685.176	-0.01
685.359	0.03
685.542	-0.01
685.725	0.07
685.908	-0.04
686.091	0.02
686.274	0.05
686.457	0.04
686.639	0.01
686.822	0.04
687.005	-0
687.188	-0
687.371	0.1
687.553	-0.05
687.736	-0
687.919	0.1
688.102	0.09
688.284	0.01
688.467	0.04
688.65	-0.02
688.832	-0.04
689.015	-0.04
689.197	-0.01
689.38	0.09
689.563	0.11
689.745	-0.1
689.928	-0.02
690.11	0.01
690.293	0.05
690.475	-0.01
690.658	0.01
690.84	0.01
691.023	0.01
691.205	-0.01
691.388	0.03
691.57	0.1
691.752	-0.01
691.935	-0.09
692.117	-0
692.3	-0.02
692.482	-0.01
692.664	0.02
692.847	0.02
693.029	0.07
693.211	0.03
693.393	-0.02
693.576	-0.03
693.758	0
693.94	-0.01
694.122	-0.02
694.304	-0.01
694.487	-0
694.669	0.07
694.851	-0.06
695.033	0.02
695.215	-0.01
695.397	-0.06
695.579	0.03
695.761	0
695.943	-0.05
696.125	0.05
696.308	0.04
696.49	-0.08
696.671	0.14
696.853	-0.02
697.035	0.15
697.217	-0.05
697.399	0.07
697.581	-0.03
697.763	0.06
697.945	-0.03
698.127	0.02
698.309	0.1
698.491	0.01
698.672	0.06
698.854	0.05
699.036	0.11
699.218	-0.03
699.399	0.04
699.581	0.08
699.763	0.01
699.945	-0.03
700.126	-0.09
700.308	0.01
700.49	0
700.671	-0.06
700.853	-0.06
701.035	0.01
701.216	0.05
701.398	0.02
701.579	-0.02
701.761	0.03
701.943	-0.01
702.124	-0.06
702.306	0.07
702.487	0.12
702.669	-0.03
702.85	-0.02
703.031	-0.05
703.213	0.08
703.394	-0.02
703.576	-0.01
703.757	0.09
703.938	0.01
704.12	0.15
704.301	0.01
704.483	-0.06
704.664	0.03
704.845	0.06
705.026	0.1
705.208	-0
705.389	-0.02
705.57	0.02
705.751	-0.07
705.933	-0.03
706.114	0.07
706.295	0.04
706.476	-0.04
706.657	0.1
706.838	0.03
707.02	0.05
707.201	0.01
707.382	-0.01
707.563	0.05
707.744	-0.01
707.925	-0.03
708.106	-0.06
708.287	0.05
708.468	0.13
708.649	0
708.83	0.05
709.011	-0.04
709.192	0.07
709.373	-0.05
709.554	-0.01
709.734	0.1
709.915	0.09
710.096	-0.02
710.277	-0.1
710.458	0.02
710.639	0.08
710.819	-0.05
711	0.04
711.181	0.07
711.362	0.04
711.542	-0
711.723	-0.02
711.904	0.09
712.085	0.04
712.265	0
712.446	-0.09
712.627	-0.01
712.807	0.03
712.988	0.02
713.168	-0.06
713.349	0.08
713.53	-0.15
713.71	-0.08
713.891	-0.1
714.071	-0.03
714.252	0.03
714.432	0.01
714.613	-0.12
714.793	0.02
714.974	0.14
715.154	0.05
715.334	0.04
715.515	0.07
715.695	-0.11
715.876	-0.03
716.056	0.03
716.236	0.02
716.417	-0.02
716.597	-0.01
716.777	0.1
716.957	-0.02
717.138	-0.05
717.318	0.02
717.498	-0.05
717.678	0.03
717.859	0.05
718.039	-0.08
718.219	-0.04
718.399	0.01
718.579	-0.02
718.759	-0.06
718.939	0.05
719.12	0.01
719.3	0.03
719.48	-0.09
719.66	-0.1
719.84	0.13
720.02	0
720.2	-0.03
720.38	-0.04
720.56	0.06
720.74	-0.02
720.92	0.04
721.1	0.11
721.279	0.04
721.459	0
721.639	-0.11
721.819	0.05
721.999	0.01
722.179	0
722.359	-0.11
722.538	0
722.718	-0.02
722.898	0.04
723.078	-0.06
723.257	-0.05
723.437	0.02
723.617	-0.04
723.797	-0.03
723.976	0.16
724.156	0.06
724.336	0.07
724.515	0.1
724.695	-0.2
724.874	-0.01
725.054	0.01
725.234	-0.04
725.413	0.04
725.593	-0.01
725.772	0.02
725.952	-0.03
726.131	0.04
726.311	0.02
726.49	-0.02
726.67	-0.03
726.849	-0.04
727.028	-0.04
727.208	-0.01
727.387	-0.02
727.567	-0.15
727.746	-0.02
727.925	-0.06
728.105	-0.06
728.284	-0.01
728.463	-0.03
728.643	0.06
728.822	-0.09
729.001	-0.01
729.18	-0.01
729.359	0.03
729.539	0.01
729.718	-0.03
729.897	0.05
730.076	-0.06
730.255	-0.13
730.434	-0.01
730.614	-0
730.793	0.05
730.972	-0.05
731.151	0.02
731.33	0.23
731.509	0.04
731.688	0.06
731.867	-0.05
732.046	-0.07
732.225	0.22
732.404	-0.08
732.583	-0.07
732.762	0.01
732.941	0.09
733.12	-0.02
733.298	-0.01
733.477	0.16
733.656	0.01
733.835	-0.19
734.014	0.1
734.193	-0.03
734.371	0.04
734.55	0.02
734.729	-0.13
734.908	0.04
735.086	0.03
735.265	0.04
735.444	-0.14
735.623	-0.08
735.801	-0.1
735.98	-0
736.159	-0.03
736.337	0.08
736.516	0.07
736.694	0.05
736.873	-0.05
737.052	0.12
737.23	0.17
737.409	-0.05
737.587	0.25
737.766	-0.13
737.944	-0.06
738.123	0.04
738.301	0.08
738.479	-0.07
738.658	-0.03
738.836	-0.16
739.015	-0.04
739.193	0.06
739.371	-0.15
739.55	0.1
739.728	-0.11
739.906	0.08
740.085	0.2
740.263	-0.01
740.441	-0.19
740.62	0.18
740.798	0.13
740.976	-0.14
741.154	-0.04
741.332	0.1
741.511	-0.04
741.689	0.03
741.867	0.18
742.045	-0.09
742.223	-0.02
742.401	-0.02
742.579	-0.05
742.757	0.09
742.935	-0.05
743.114	-0.09
743.292	-0.03
743.47	0.03
743.648	0.09
743.826	0.05
744.004	0.03
744.181	0.14
744.359	-0.11
744.537	0.02
744.715	0.03
744.893	0.08
745.071	-0.06
745.249	0.02
745.427	-0
745.605	0.02
745.782	0.03
745.96	0.1
746.138	0.09
746.316	0.13
746.493	0.03
746.671	0.08
746.849	-0.11
747.027	0.13
747.204	-0.09
747.382	0.12
747.56	-0.11
747.737	-0.05
747.915	-0.09
748.093	0.04
748.27	-0.04
748.448	0.06
748.625	0
748.803	-0.13
748.98	-0.1
749.158	-0.07
749.335	0.07
749.513	-0.01
749.69	0.09
749.868	-0.03
750.045	0.12
750.223	0.01
750.4	-0.14
750.578	0.2
750.755	0.02
750.932	-0.19
751.11	0.07
751.287	-0.07
751.464	0.11
751.642	-0.1
751.819	0.05
751.996	-0.01
752.173	-0.06
752.351	-0.21
752.528	0.05
752.705	-0
752.882	-0.08
753.06	0.02
753.237	0.06
753.414	0.24
753.591	0.18
753.768	0.1
753.945	-0.02
754.122	0.02
754.299	0.07
754.476	-0.06
754.654	-0.03
754.831	0.04
755.008	-0.01
755.185	-0.09
755.362	-0.14
755.539	0.07
755.716	-0.14
755.892	0.03
756.069	-0.05
756.246	-0.05
756.423	-0.06
756.6	0.13
756.777	-0.1
756.954	0.19
757.131	-0.05
757.307	0.01
757.484	-0.06
757.661	0.06
757.838	0
758.015	-0.19
758.191	0.04
758.368	0.06
758.545	0.11
758.721	0.11
758.898	-0.16
759.075	0.06
759.251	0.14
759.428	0.14
759.605	-0.16
759.781	0.06
759.958	-0.04
760.134	0.03
760.311	-0.05
760.488	0.22
760.664	0.15
760.841	-0.06
761.017	-0.18
761.194	-0.01
761.37	0.15
761.547	0.04
761.723	-0.12
761.899	0.15
762.076	-0.09
762.252	-0.08
762.429	-0.11
762.605	0.13
762.781	-0.05
762.958	0.15
763.134	-0
763.31	-0.04
763.486	0.13
763.663	-0.21
763.839	0.01
764.015	-0.19
764.191	-0.08
764.368	-0.08
764.544	-0.1
764.72	0.07
764.896	0.07
765.072	0.06
765.248	-0.07
765.425	0.14
765.601	-0.02
765.777	-0.04
765.953	-0.19
766.129	-0.15
766.305	-0.09
766.481	0.1
766.657	-0.02
766.833	0.11
767.009	-0.08
767.185	-0.11
767.361	-0.04
767.537	-0.08
767.713	0.16
767.889	-0.1
768.065	0.06
768.24	-0.09
768.416	0.06
768.592	-0.04
768.768	-0.1
768.944	0
769.12	-0.15
769.295	-0.06
769.471	0.01
769.647	0.06
769.823	0.15
769.998	-0.01
770.174	-0.03
770.35	0.36
770.525	0.35
770.701	-0
770.877	-0.05
771.052	-0.08
771.228	0.1
771.403	0.19
771.579	0.14
771.755	0.28
771.93	-0.06
772.106	-0.12
772.281	-0.25
772.457	-0.09
772.632	0.13
772.808	-0.18
772.983	-0.06
773.159	-0.15
773.334	0.14
773.509	-0.04
773.685	-0.07
773.86	0.27
774.036	0.16
774.211	0.07
774.386	0.02
774.562	0.08
774.737	0.33
774.912	-0.24
775.087	0.03
775.263	-0.07
775.438	0.06
775.613	-0.19
775.788	0.01
775.964	0.24
776.139	0.43
776.314	-0.19
776.489	0.05
776.664	-0.01
776.839	-0.19
777.014	0.22
777.19	0.21
777.365	0.21
777.54	0.34
777.715	0.09
777.89	-0.08
778.065	-0.15
778.24	0
778.415	0.14
778.59	-0.07
778.765	0.08
778.94	0.03
779.115	-0.2
779.289	-0.11
779.464	-0.12
779.639	-0.07
779.814	-0.07
779.989	-0.24
780.164	0.32
780.339	0.06
780.513	-0.02
780.688	-0.12
780.863	-0.06
781.038	0.17
781.212	-0.12
781.387	-0.05
781.562	0.39
781.737	0.05
781.911	0.27
782.086	-0.16
782.261	-0.11
782.435	0.34
782.61	-0.2
782.784	-0.06
782.959	0.04
783.134	-0.12
783.308	-0.1
783.483	-0.22
783.657	0.5
783.832	-0.02
784.006	-0.29
784.181	0.11
784.355	0.31
784.53	-0.15
784.704	-0.29
784.878	0.2
785.053	0.21
785.227	0.31
785.402	0.33
785.576	-0.46
785.75	-0.07
785.925	0.03
786.099	0.03
786.273	0.03
786.448	0.34
786.622	0.26
786.796	-0.13
786.97	-0.08
787.145	0.59
787.319	-0.34
787.493	-0.01
787.667	-0.37
787.841	0.04
788.015	0.12
788.19	-0.05
788.364	-0.01
788.538	0.28
788.712	0.1
788.886	-0.16
789.06	0.27
789.234	0.23
789.408	-0.23
789.582	-0.11
789.756	0.03
789.93	-0.02
790.104	0.16
790.278	-0.21
790.452	-0.25
790.626	0.18
790.8	-0.23
790.973	0.13
791.147	0.22
791.321	0.35
791.495	0.14
791.669	-0.21
791.843	0.04
792.016	0.18
792.19	0.26
792.364	-0.32
792.538	0.4
792.711	0.26
792.885	-0.08
793.059	-0.28
793.233	-0.56
793.406	0.3
793.58	-0.1
793.754	0.13
793.927	-0.09
794.101	-0.07
794.274	0.01
794.448	0.29
794.622	-0.36
794.795	0.62
794.969	-0.28
795.142	0.34
795.316	-0.15
795.489	-0.15
795.663	0.38
795.836	0.05
796.009	-0.29
796.183	0.21
796.356	0.18
796.53	0.12
796.703	-0.1
796.876	0.59
797.05	-0.17
797.223	-0.14
797.396	0.01
797.57	-0.01
797.743	0.39
797.916	0.13
798.09	-0.05
798.263	0.12
798.436	0.02
798.609	-0.15
798.782	0.2
798.956	0.12
799.129	-0.02
799.302	-0.13
799.475	-0.36
799.648	-0.12
799.821	0.05
799.994	-0.01
800.167	-0.23
800.34	0.03
800.514	0.02
800.687	-0.16
800.86	-0.23
801.033	0.13
801.206	0.29
801.379	-0.09
801.551	0.38
801.724	0.05
801.897	0.56
802.07	0.09
802.243	-0.55
802.416	0.04
802.589	-0.22
802.762	-0.03
802.935	-0.06
803.107	0.41
803.28	0.55
803.453	0.12
803.626	-0.18
803.798	0.13
803.971	-0.22
804.144	0.25
804.317	0.15
804.489	0.09
804.662	0.05
804.835	-0.16
805.007	-0.14
805.18	0.28
805.353	0.08
805.525	-0.09
805.698	-0.02
805.87	0.16
806.043	0.41
806.215	-0.23
806.388	-0.44
806.56	0.26
806.733	0.3
806.905	0.21
807.078	-0.17
807.25	-0.26
807.423	0.33
807.595	0.01
807.768	-0.1
807.94	0.44
808.112	-0.02
808.285	-0.1
808.457	-0.03
808.629	-0.12
808.802	0.37
808.974	0.1
809.146	-0.23
809.318	-0.34
809.491	-0.01
809.663	0.37
809.835	-0.37
810.007	0.61
810.18	-0.01
810.352	-0.27
810.524	-0.06
810.696	0.4
810.868	0.22
811.04	-0.22
811.212	-0.09
811.384	0.54
811.556	0.21
811.728	0.23
811.901	0.34
812.073	-0.07
812.245	0.18
812.417	0.37
812.589	-0.29
812.76	0.01
812.932	0.2
813.104	0.25
813.276	0.06
813.448	0.48
813.62	0.14
813.792	0.37
813.964	-0.05
814.136	0.11
814.307	-0.11
814.479	-0.41
814.651	0.03
814.823	0.75
814.995	-0.11
815.166	-0.01
815.338	-0.37
815.51	-0.53
815.681	0.85
815.853	0.17
816.025	0.2
816.196	0.77
816.368	0.52
816.54	-0.09
816.711	-0.31
816.883	0.17
817.054	1
817.226	-0.59
817.398	-0.15
817.569	-0.33
817.741	0.35
817.912	-0.29
818.084	-0.08
818.255	0.08
818.426	-0
818.598	-0.05
818.769	-0.4
818.941	0.42
819.112	0.2
819.283	0.04
819.455	0.1
819.626	0.12
819.798	0.01
819.969	0.18
820.14	-0.24
820.311	0.28
820.483	-0.16
820.654	0.36
820.825	-0.19
820.996	-0.27
821.168	-0.22
821.339	0.07
821.51	-0.46
821.681	0.01
821.852	0.4
822.023	-0.1
822.195	-0.88
822.366	0.4
822.537	-0.04
822.708	0.14
822.879	-0.32
823.05	0.88
823.221	-0.17
823.392	0.16
823.563	-0.34
823.734	0.29
823.905	-0.36
824.076	0.33
824.247	-0.55
824.418	-0.34
824.589	0.78
824.759	0.39
824.93	0.04
825.101	-0.85
825.272	0.22
825.443	0.57
825.614	0.14
825.784	-0.66
825.955	0.51
826.126	0.95
826.297	0
826.467	0.82
826.638	1.08
826.809	-1
826.98	-0.3
827.15	0.22
827.321	0.44
827.492	0.58
827.662	-0.04
827.833	0.95
828.003	0.1
828.174	-0.82
828.345	-0.65
828.515	0.98
828.686	-0.05
828.856	-0.12
829.027	0.16
829.197	0.31
829.368	0.35
829.538	-0.12
829.709	-0.7
829.879	-0
830.049	0.23
830.22	-0.34
830.39	-0.37
830.56	0.56
830.731	0.21
830.901	-0.25
831.072	0.04
831.242	0.39
831.412	-0.05
831.582	-0.15
831.753	-0.62
831.923	0.39
832.093	0.39
832.263	0.16
832.434	-0
832.604	0.36
832.774	0.54
832.944	-0.16
833.114	-0.25
833.284	0.26
833.454	-0.1
833.624	-0.02
833.795	-0.65
833.965	0.87
834.135	0.79
834.305	-0.72
834.475	-0.5
834.645	0.44
834.815	-0.33
834.985	-0.35
835.155	-0.87
835.325	0.42
835.494	0.63
835.664	-0.32
835.834	-0.36
836.004	-0.35
836.174	-0.16
836.344	0.65
836.514	-0.79
836.684	-0.19
836.853	0.09
837.023	0.7
837.193	-0.67
837.363	0.8
837.532	0.83
837.702	-0.01
837.872	-0.26
838.041	0.23
838.211	1.01
838.381	-0.97
838.55	-0.01
838.72	1.78
838.89	0.83
839.059	0.02
839.229	-0.61
839.398	2.01
839.568	0.86
839.738	0
839.907	1.24
840.077	-0.12
840.246	-0.2
840.416	-0.04
840.585	-0.84
840.755	0.82
840.924	0.57
841.093	-0.67
841.263	-0.64
841.432	-0.12
841.602	-0.64
841.771	-0.61
841.94	-0.41
842.11	1.8
842.279	1.46
842.448	-1.5
842.617	-0.21
842.787	0.9
842.956	-1.29
843.125	0.55
843.294	0.35
843.464	1.53
843.633	1.26
843.802	-1.23
843.971	-0.39
844.14	0.27
844.309	0.09
844.479	0.15
844.648	-0.89
844.817	-0.34
844.986	1.17
845.155	-0.78
845.324	-0.44
845.493	-0.15
845.662	-1.18
845.831	0.65
846	0.04
846.169	-0.06
846.338	0.98
846.507	0.24
846.676	0.29
846.844	-0.02
847.013	0.48
847.182	0.16
847.351	-1.08
847.52	-0.46
847.689	0.55
847.858	-0.34
848.026	-0.5
848.195	-0.19
848.364	0
848.533	-0.82
848.701	-0.81
848.87	-0.43
849.039	0.53
849.207	0.7
849.376	1.12
849.545	1.53
849.713	-1.17
849.882	-0.2
850.051	0.42
850.219	0.35
850.388	0.37
850.556	0.01
850.725	-0.31
850.893	1.31
851.062	0.38
851.23	0.05
851.399	-1.66
851.567	-1.05
851.736	0.74
851.904	-1
852.073	0.52
852.241	0.16
852.41	-0.22
852.578	-0.06
852.746	-0.31
852.915	1.16
853.083	0.03
853.251	-0.93
853.42	-0.52
853.588	0.32
853.756	1.57
853.924	-0.34
854.093	-0.03
854.261	-0.27
854.429	-1.51
854.597	0.07
854.765	-0.69
854.934	0.51
855.102	-0.04
855.27	0.46
855.438	0.87
855.606	0.62
855.774	1.14
855.942	-1.64
856.11	-2.42
856.278	0.32
856.446	0.28
856.614	0.29
856.782	-0.91
856.95	1.1
857.118	1.67
857.286	-0.15
857.454	-1.13
857.622	0.77
857.79	-0.18
857.958	0.1
858.126	0.4
858.294	-1.99
858.462	0.35
858.629	-1.17
858.797	-1.3
858.965	0.46
859.133	-0.43
859.301	-0.14
859.468	-0.39
859.636	-1.24
859.804	1.03
859.971	1.05
860.139	-1.42
860.307	1.32
860.474	0.12
860.642	-0.34
860.81	-0.99
860.977	0.27
861.145	1.06
861.313	0.25
861.48	0.7
861.648	2.35
861.815	0.42
861.983	-0.97
862.15	-0.58
862.318	2.2
862.485	1.78
862.653	-0.82
862.82	-0.67
862.988	1.44
863.155	1.42
863.322	-0.84
863.49	-1.6
863.657	-0.85
863.824	2.77
863.992	0.16
864.159	0.57
864.326	2.43
864.494	-0.28
864.661	3.35
864.828	-0.9
864.996	1.76
865.163	1.91
865.33	-0.36
865.497	-1.21
865.664	-0.44
865.832	-1.31
865.999	-0.73
866.166	-1.29
866.333	-0.25
866.5	0.31
866.667	-0.34
866.834	-0.1
867.001	1.74
867.168	-3.49
867.335	0.35
867.502	-2.6
867.669	-0.59
867.836	4.01
868.003	-0.59
868.17	0.96
868.337	-1.03
868.504	2.05
868.671	-1.48
868.838	-1.08
869.005	2.74
869.172	-1.05
869.339	0.95
869.505	-0.54
869.672	-1.12
869.839	2
870.006	-0.65
870.173	-1.73
870.339	0.15
870.506	2.41
870.673	-2.55
870.84	1.08
871.006	0.67
871.173	0.36
871.34	-0.3
871.506	-1.87
871.673	1.21
871.839	-2.83
872.006	2.28
872.173	-0.95
872.339	-0.52
872.506	0.34
872.672	0.59
872.839	-2.59
873.005	-0.01
873.172	3.64
873.338	1.22
873.505	1.47
873.671	-1.69
873.838	2.12
874.004	-2
874.171	-1.26
874.337	0.42
874.503	0.64
874.67	-0.37
874.836	-0.61
875.002	2.82
875.169	0.86
875.335	0.18
875.501	-0.26
875.668	2.26
875.834	1.04
876	0.47
876.166	1.53
876.332	0.24
876.499	2.28
876.665	-0.23
876.831	-1.62
876.997	2.92
877.163	1.92
877.329	0.14
877.495	0.08
877.662	0.5
877.828	1.86
877.994	-0.71
878.16	-1.42
878.326	-0.99
878.492	-0.51
878.658	-0.14
878.824	-0.05
878.99	1.16
879.156	-0.25
879.322	2.86
879.487	-1.67
879.653	0.51
879.819	0.51
879.985	0.1
880.151	0.72
880.317	-0.52
880.483	1.5
880.648	0.33
880.814	-2.96
880.98	0.61
881.146	-2.23
881.312	-1.51
881.477	0.35
881.643	1.27
881.809	1.21
881.974	1.68
882.14	-3.28
882.306	-0.8
882.471	3.61
882.637	-0.74
882.803	3.83
882.968	1.77
883.134	3.64
883.299	0.51
883.465	0.61
883.63	3.2
883.796	0.96
883.961	-0.16
884.127	-0.83
884.292	-2.13
884.458	-2.96
884.623	-2.96
