Data from Apollo_Calib_20240827__AbsoluteIrradiance__624__09-33-02-539.txt Node

Date: Wed Aug 28 09:33:02 BST 2024
User: biology
Spectrometer: FLMT08252
Trigger mode: 0
Integration Time (sec): 5.000000E-1
Scans to average: 5
Electric dark correction enabled: true
Nonlinearity correction enabled: false
Boxcar width: 0
XAxis mode: Wavelengths
Number of Pixels in Spectrum: 3648
>>>>>Begin Spectral Data<<<<<
179.588	-0
179.809	-0
180.03	-0
180.251	-0
180.473	-0
180.694	0
180.915	0
181.136	-0
181.357	0
181.578	-0
181.799	-0
182.02	0
182.241	0
182.462	-0
182.683	0
182.904	-0
183.125	-0
183.346	-0
183.567	0
183.788	-0
184.009	-0
184.23	-0
184.451	-0
184.672	-0
184.892	-0
185.113	0
185.334	0
185.555	-0
185.776	-0
185.996	0
186.217	0
186.438	-0
186.659	-0
186.879	-0
187.1	0
187.321	-0
187.541	-0
187.762	-0
187.983	-0
188.203	-0
188.424	-0
188.644	-0
188.865	-0
189.086	-0
189.306	-0
189.527	-0
189.747	-0
189.968	-0
190.188	0
190.409	-0
190.629	0
190.849	-0
191.07	-0
191.29	-0
191.511	-0
191.731	-0
191.951	-0
192.172	-0
192.392	-0
192.612	-0
192.833	-0
193.053	0
193.273	0
193.493	-0
193.714	-0
193.934	0
194.154	0
194.374	-0
194.594	-0
194.815	0
195.035	-0
195.255	0
195.475	-0
195.695	0
195.915	0
196.135	-0
196.355	0
196.575	0
196.795	-0
197.015	-0
197.235	-0
197.455	-0
197.675	0
197.895	-0
198.115	-0
198.335	-0
198.555	-0
198.775	-0
198.995	-0
199.214	0
199.434	-0
199.654	-0
199.874	-0
200.094	0.56
200.313	-0.71
200.533	-0.44
200.753	-1.02
200.973	0.19
201.192	0.07
201.412	-1.27
201.632	-0.69
201.851	0.46
202.071	-0.9
202.291	-0.39
202.51	-1.19
202.73	-0.27
202.95	-0.44
203.169	-0.72
203.389	-0.38
203.608	-0.29
203.828	-0.75
204.047	-0.58
204.267	0.13
204.486	-0.28
204.706	-0.2
204.925	-0.28
205.145	-0.33
205.364	0.21
205.583	0.38
205.803	-0.37
206.022	-0.64
206.242	-0.26
206.461	-0.35
206.68	-0.45
206.9	-0.29
207.119	0.4
207.338	-0.03
207.557	-0.47
207.777	-0.19
207.996	-0.3
208.215	0.19
208.434	-0.24
208.654	-0.57
208.873	-0.21
209.092	0.23
209.311	-0.35
209.53	-0.1
209.749	-0.37
209.968	-0.34
210.187	-0.25
210.407	-0.67
210.626	-0.28
210.845	-0.11
211.064	-0.13
211.283	-0.32
211.502	-0
211.721	-0.14
211.94	-0.09
212.159	-0.08
212.377	-0.14
212.596	0.14
212.815	-0.18
213.034	0.04
213.253	0.15
213.472	-0
213.691	-0.2
213.91	-0.27
214.128	-0.17
214.347	0.11
214.566	-0.62
214.785	-0.48
215.003	0.08
215.222	-0.18
215.441	-0.1
215.66	-0.41
215.878	-0.01
216.097	-0.02
216.316	-0.28
216.534	-0.34
216.753	-0.12
216.972	-0.18
217.19	-0.18
217.409	-0.2
217.627	-0.2
217.846	-0.03
218.064	-0.12
218.283	-0.37
218.501	0.23
218.72	0.01
218.938	-0.22
219.157	-0.28
219.375	-0.1
219.594	-0.02
219.812	-0.24
220.031	-0.23
220.249	0.34
220.467	0.27
220.686	-0.06
220.904	-0.22
221.122	-0.36
221.341	0.17
221.559	-0.22
221.777	-0.18
221.995	-0.15
222.214	0.03
222.432	-0.21
222.65	0.13
222.868	-0.07
223.086	-0.09
223.305	0.07
223.523	-0.03
223.741	0.15
223.959	-0.24
224.177	-0.29
224.395	-0.24
224.613	-0.07
224.831	0.11
225.049	-0.19
225.267	-0.14
225.485	-0.12
225.703	-0.11
225.921	-0.11
226.139	-0.2
226.357	0.03
226.575	-0.01
226.793	-0.13
227.011	0.45
227.229	-0.02
227.447	-0.07
227.665	-0.18
227.883	-0.39
228.1	-0.09
228.318	0.03
228.536	-0.31
228.754	-0.14
228.972	0.04
229.189	0.1
229.407	-0.04
229.625	-0.06
229.843	-0.06
230.06	0.02
230.278	-0.2
230.496	-0.11
230.713	-0.03
230.931	0.15
231.149	-0.15
231.366	-0.2
231.584	-0.05
231.801	0.18
232.019	-0.08
232.236	-0.24
232.454	-0.12
232.671	0.03
232.889	-0.09
233.106	-0.27
233.324	-0.1
233.541	-0.06
233.759	-0.02
233.976	-0.06
234.194	-0.07
234.411	0.05
234.628	-0.23
234.846	-0.08
235.063	-0.15
235.28	-0.11
235.498	-0.08
235.715	-0.15
235.932	-0.01
236.149	-0.11
236.367	-0.18
236.584	-0.08
236.801	-0.06
237.018	0.07
237.236	-0.1
237.453	-0.18
237.67	0.01
237.887	-0.03
238.104	-0.11
238.321	-0.14
238.538	-0.15
238.755	-0.1
238.973	-0.32
239.19	-0.05
239.407	0.02
239.624	0.05
239.841	-0.21
240.058	-0.14
240.275	0.01
240.492	-0.1
240.709	-0.09
240.925	-0.17
241.142	0.02
241.359	-0.25
241.576	-0.15
241.793	-0.12
242.01	-0.05
242.227	0.07
242.444	-0.04
242.66	0.03
242.877	-0.1
243.094	-0.08
243.311	-0
243.527	-0.08
243.744	-0.06
243.961	-0.03
244.178	-0.13
244.394	-0.2
244.611	0.11
244.828	0.16
245.044	-0.14
245.261	-0.11
245.477	-0.01
245.694	-0.11
245.911	-0.08
246.127	-0.06
246.344	0.1
246.56	0
246.777	-0.08
246.993	-0.1
247.21	0.05
247.426	0.04
247.643	-0.13
247.859	-0.14
248.076	-0.14
248.292	0.17
248.508	-0.09
248.725	-0.05
248.941	0.02
249.157	0.01
249.374	-0.16
249.59	-0.13
249.806	0.03
250.023	-0
250.239	-0.13
250.455	-0.15
250.671	-0.02
250.888	-0.07
251.104	0
251.32	-0.14
251.536	-0.01
251.752	-0.05
251.969	-0.03
252.185	-0.08
252.401	0.13
252.617	-0.03
252.833	-0.08
253.049	-0.05
253.265	-0.07
253.481	-0
253.697	-0.1
253.913	-0.1
254.129	-0.03
254.345	-0.07
254.561	-0.13
254.777	-0.1
254.993	0.03
255.209	-0.07
255.425	-0.09
255.641	-0.09
255.857	0.01
256.073	-0.02
256.288	-0.17
256.504	-0.03
256.72	-0.05
256.936	0.05
257.152	-0.06
257.367	-0.13
257.583	-0.04
257.799	-0.02
258.015	-0.14
258.23	-0.15
258.446	-0.01
258.662	-0.08
258.877	-0.12
259.093	-0.11
259.309	-0
259.524	-0.08
259.74	-0.11
259.955	-0.15
260.171	0.05
260.387	-0.08
260.602	0.06
260.818	-0
261.033	-0.1
261.249	-0.1
261.464	-0.04
261.68	-0.12
261.895	-0.01
262.11	-0.07
262.326	-0.09
262.541	-0.14
262.757	0
262.972	0.02
263.187	-0.02
263.403	-0.03
263.618	0.07
263.833	-0.03
264.049	-0.09
264.264	-0.1
264.479	-0.04
264.694	0.06
264.91	-0.13
265.125	-0.05
265.34	-0.03
265.555	0.1
265.77	0.01
265.986	-0.06
266.201	-0.03
266.416	-0
266.631	-0.01
266.846	-0.08
267.061	-0.02
267.276	-0.05
267.491	-0.13
267.706	-0.01
267.921	-0.01
268.136	0.03
268.351	-0.06
268.566	-0.13
268.781	0.11
268.996	0.02
269.211	0
269.426	-0.16
269.641	-0.07
269.856	0.03
270.071	-0.13
270.285	-0.16
270.5	-0.01
270.715	0.05
270.93	-0.07
271.145	-0.02
271.359	0.05
271.574	-0.1
271.789	-0.06
272.004	-0.06
272.218	-0.09
272.433	-0.03
272.648	-0.07
272.862	0
273.077	-0.03
273.292	-0.03
273.506	-0.09
273.721	-0.06
273.936	-0
274.15	0.05
274.365	-0.06
274.579	-0.04
274.794	0.01
275.008	0.09
275.223	-0.11
275.437	-0.06
275.652	0.02
275.866	-0.03
276.081	-0.05
276.295	0.02
276.509	-0.02
276.724	-0.01
276.938	0.01
277.153	0.01
277.367	0.04
277.581	-0.04
277.796	-0.08
278.01	-0.07
278.224	0.04
278.438	0.05
278.653	-0.11
278.867	-0.08
279.081	-0.23
279.295	-0.05
279.51	-0
279.724	-0.13
279.938	-0
280.152	-0.03
280.366	-0.05
280.58	-0
280.794	0.02
281.008	-0.01
281.222	0.07
281.437	0.09
281.651	0.02
281.865	0.05
282.079	-0.03
282.293	-0.09
282.507	-0.05
282.721	-0.04
282.935	-0.01
283.148	-0.11
283.362	-0.09
283.576	-0.1
283.79	-0.07
284.004	-0.02
284.218	-0.02
284.432	-0.03
284.646	-0.05
284.859	-0.06
285.073	-0.03
285.287	-0.02
285.501	-0.02
285.714	-0.04
285.928	-0.01
286.142	-0.01
286.356	-0.04
286.569	-0.05
286.783	0.05
286.997	0.06
287.21	-0.02
287.424	-0.02
287.637	-0.04
287.851	-0.05
288.065	-0.01
288.278	-0.04
288.492	-0.01
288.705	-0.02
288.919	0.02
289.132	-0.11
289.346	0.02
289.559	-0.09
289.773	0.01
289.986	-0.06
290.2	-0
290.413	0.01
290.626	-0.04
290.84	-0.04
291.053	0.03
291.267	0.01
291.48	0.03
291.693	0.01
291.906	-0.08
292.12	-0.06
292.333	-0.05
292.546	-0.04
292.76	0.06
292.973	-0
293.186	-0.05
293.399	-0.01
293.612	0.05
293.826	0.01
294.039	-0.01
294.252	-0.05
294.465	-0.01
294.678	-0.01
294.891	-0.05
295.104	-0.06
295.317	-0.01
295.53	0
295.743	0.02
295.956	0.01
296.169	0.01
296.382	0
296.595	-0.06
296.808	-0.05
297.021	-0.02
297.234	0.03
297.447	-0.03
297.66	-0.01
297.873	0.03
298.086	-0
298.299	-0.02
298.511	-0.08
298.724	-0.05
298.937	-0.1
299.15	-0.02
299.363	-0.04
299.575	0.04
299.788	-0.04
300.001	-0.04
300.213	-0.05
300.426	-0.02
300.639	-0.01
300.852	-0.07
301.064	0.02
301.277	0.04
301.489	0.03
301.702	0.03
301.915	-0.05
302.127	-0.03
302.34	-0
302.552	-0.01
302.765	-0.07
302.977	0.04
303.19	-0.08
303.402	-0.04
303.615	-0.04
303.827	-0.04
304.04	-0.05
304.252	-0
304.464	-0.03
304.677	0.09
304.889	0.02
305.102	-0.07
305.314	-0.05
305.526	0.03
305.739	0
305.951	-0.07
306.163	-0.08
306.375	0.05
306.588	-0.04
306.8	-0.08
307.012	-0.08
307.224	-0.01
307.436	0.05
307.649	-0.09
307.861	0.03
308.073	0.02
308.285	-0.03
308.497	-0.04
308.709	-0.02
308.921	0
309.133	0.02
309.346	-0.02
309.558	-0.06
309.77	0.04
309.982	-0.01
310.194	0.01
310.406	-0.05
310.617	0.05
310.829	-0.01
311.041	-0.03
311.253	-0.02
311.465	-0.07
311.677	-0.01
311.889	-0.03
312.101	-0.07
312.313	0.03
312.524	0.04
312.736	-0.05
312.948	-0.07
313.16	0.07
313.372	0.02
313.583	-0.02
313.795	-0.02
314.007	-0.12
314.218	-0.01
314.43	-0.04
314.642	-0.06
314.853	-0.1
315.065	-0.02
315.277	-0.03
315.488	-0.06
315.7	0.01
315.912	-0.02
316.123	-0.03
316.335	-0.06
316.546	0.09
316.758	-0.04
316.969	-0.05
317.181	0.01
317.392	-0.04
317.604	0.08
317.815	-0.04
318.026	-0.07
318.238	-0.01
318.449	0
318.661	-0.1
318.872	-0.05
319.083	-0.07
319.295	0.03
319.506	-0.05
319.717	-0.01
319.929	0.04
320.14	-0.01
320.351	0
320.562	-0.02
320.774	-0.03
320.985	-0.01
321.196	-0.06
321.407	-0.08
321.618	0
321.829	0.02
322.041	0.01
322.252	-0
322.463	-0
322.674	-0.04
322.885	-0.06
323.096	-0.05
323.307	0.01
323.518	0.02
323.729	-0.05
323.94	-0.02
324.151	-0.07
324.362	0.01
324.573	-0.02
324.784	-0.08
324.995	0.03
325.206	-0
325.417	-0.04
325.628	-0.03
325.838	-0
326.049	-0.01
326.26	0
326.471	-0.02
326.682	0.05
326.892	0.01
327.103	-0.11
327.314	-0.08
327.525	0
327.735	-0
327.946	-0
328.157	-0.05
328.368	-0.01
328.578	-0.09
328.789	-0.01
328.999	-0.03
329.21	-0.06
329.421	0.01
329.631	-0.06
329.842	-0.08
330.052	0.02
330.263	0.02
330.473	0.04
330.684	0
330.894	-0.03
331.105	0.03
331.315	-0.05
331.526	-0.07
331.736	0.02
331.947	-0.02
332.157	-0.02
332.367	-0.07
332.578	-0.01
332.788	0.01
332.999	0.04
333.209	-0.02
333.419	-0.05
333.629	-0.01
333.84	0.04
334.05	-0.04
334.26	0.01
334.47	-0.01
334.681	0.05
334.891	-0.03
335.101	-0.02
335.311	0.06
335.521	-0
335.732	-0.07
335.942	0.05
336.152	0.03
336.362	0
336.572	-0.02
336.782	-0.01
336.992	-0.05
337.202	-0.05
337.412	-0.06
337.622	-0.01
337.832	0.01
338.042	-0
338.252	-0.04
338.462	-0.04
338.672	0.02
338.882	-0.05
339.092	-0.06
339.302	0.03
339.511	0.01
339.721	-0.08
339.931	-0.08
340.141	0.02
340.351	0.02
340.561	-0.03
340.77	0.01
340.98	-0.02
341.19	-0.01
341.4	-0.05
341.609	-0.05
341.819	-0.03
342.029	-0.1
342.238	-0.01
342.448	-0.08
342.658	-0.01
342.867	-0.02
343.077	0
343.286	-0.01
343.496	0
343.706	0.05
343.915	-0.07
344.125	-0.02
344.334	0
344.544	-0.06
344.753	-0.02
344.963	-0.01
345.172	-0.04
345.381	-0.06
345.591	-0.05
345.8	-0.03
346.01	0.06
346.219	0.06
346.428	-0.15
346.638	-0.03
346.847	-0.05
347.056	0.02
347.266	-0.04
347.475	-0.02
347.684	-0
347.893	-0
348.103	-0
348.312	-0.05
348.521	0.01
348.73	-0.01
348.94	-0
349.149	-0.07
349.358	-0.07
349.567	-0.05
349.776	-0.09
349.985	-0.02
350.194	0.04
350.403	0.03
350.612	-0.07
350.821	-0.03
351.03	-0.05
351.239	-0.06
351.448	-0.04
351.657	-0.03
351.866	0.04
352.075	-0.02
352.284	0
352.493	-0.08
352.702	0.02
352.911	-0.01
353.12	-0.01
353.329	-0.02
353.538	-0.02
353.746	-0.03
353.955	-0.07
354.164	-0
354.373	-0.03
354.582	0.01
354.79	0
354.999	0.04
355.208	-0.01
355.416	0.04
355.625	-0.04
355.834	-0.03
356.042	0.01
356.251	-0.03
356.46	-0.08
356.668	-0.02
356.877	0.04
357.085	0.04
357.294	-0.06
357.503	-0
357.711	-0
357.92	0.11
358.128	-0.02
358.337	-0.06
358.545	-0.04
358.754	-0.04
358.962	0.03
359.17	-0.01
359.379	-0.05
359.587	-0.03
359.796	-0.03
360.004	0.02
360.212	-0
360.421	0.05
360.629	-0.03
360.837	-0.06
361.046	-0.01
361.254	0.02
361.462	-0.03
361.67	-0.02
361.879	0.02
362.087	0.04
362.295	-0.01
362.503	-0.03
362.711	-0.05
362.92	-0.05
363.128	-0.03
363.336	-0.07
363.544	-0.04
363.752	-0.09
363.96	-0.04
364.168	-0.02
364.376	0.03
364.584	-0.01
364.792	-0
365	0.01
365.208	0.01
365.416	-0
365.624	0.01
365.832	-0.01
366.04	0.04
366.248	0.02
366.456	-0.01
366.664	-0
366.872	-0.01
367.079	-0.02
367.287	-0.02
367.495	0.01
367.703	-0.02
367.911	-0.02
368.118	-0
368.326	-0.02
368.534	-0.07
368.742	0.03
368.949	-0.04
369.157	-0.06
369.365	-0.04
369.572	0.02
369.78	-0.05
369.988	-0.01
370.195	-0.02
370.403	0
370.61	-0.03
370.818	0
371.026	0.05
371.233	-0.07
371.441	-0
371.648	-0.07
371.856	-0.02
372.063	0.01
372.271	-0.06
372.478	-0.03
372.685	-0.03
372.893	0.01
373.1	-0.02
373.308	-0.01
373.515	0.09
373.722	0.05
373.93	-0.05
374.137	0.03
374.344	0.04
374.552	0.01
374.759	-0.01
374.966	-0
375.173	-0.05
375.381	0.02
375.588	-0.01
375.795	-0.05
376.002	-0.06
376.209	-0.07
376.417	-0.02
376.624	-0.02
376.831	0
377.038	-0.06
377.245	-0.07
377.452	-0.03
377.659	-0.04
377.866	-0.06
378.073	-0.04
378.28	-0.03
378.487	0.02
378.694	0.03
378.901	-0.06
379.108	-0.06
379.315	-0.02
379.522	0.04
379.729	0.02
379.936	-0.02
380.143	-0.01
380.35	-0.04
380.557	-0.03
380.763	-0.01
380.97	-0.02
381.177	0.01
381.384	0.01
381.591	-0.03
381.797	-0
382.004	-0
382.211	-0
382.418	-0.05
382.624	0.03
382.831	0.01
383.038	-0.03
383.244	-0.03
383.451	-0.01
383.658	-0.02
383.864	-0.06
384.071	-0.04
384.277	0.06
384.484	-0.06
384.69	0.02
384.897	-0.06
385.103	-0.02
385.31	-0.05
385.516	-0.06
385.723	-0.03
385.929	-0.03
386.136	-0.05
386.342	0.02
386.549	-0.04
386.755	0.05
386.961	0.02
387.168	-0.02
387.374	-0.02
387.58	0.04
387.787	-0.01
387.993	-0.04
388.199	-0.02
388.406	-0.04
388.612	-0.02
388.818	-0.06
389.024	-0.05
389.231	-0.01
389.437	0.02
389.643	-0.04
389.849	-0.02
390.055	-0.03
390.261	-0.03
390.467	-0.06
390.674	-0.07
390.88	-0.02
391.086	-0.01
391.292	-0.08
391.498	0
391.704	0.01
391.91	-0.05
392.116	-0.06
392.322	-0.1
392.528	0
392.734	-0.01
392.94	-0.01
393.146	-0.03
393.352	-0.06
393.557	-0.05
393.763	-0.03
393.969	-0.03
394.175	-0.01
394.381	0.01
394.587	-0.04
394.792	-0.07
394.998	0
395.204	-0.01
395.41	-0.05
395.615	-0.03
395.821	-0.03
396.027	-0.02
396.233	-0.07
396.438	-0.04
396.644	0.03
396.85	-0.04
397.055	-0.06
397.261	0.01
397.466	-0.03
397.672	-0.02
397.878	0.02
398.083	0.03
398.289	-0.04
398.494	0.01
398.7	0.01
398.905	-0.09
399.111	0.03
399.316	-0.08
399.522	-0.02
399.727	-0.07
399.932	-0.03
400.138	-0.02
400.343	0.01
400.549	-0.02
400.754	-0.02
400.959	0.02
401.165	-0.03
401.37	-0.04
401.575	-0.01
401.78	-0.06
401.986	-0.04
402.191	-0.03
402.396	-0.02
402.601	0.01
402.807	0.02
403.012	-0.02
403.217	0.02
403.422	-0
403.627	-0.02
403.832	-0.03
404.037	-0.02
404.243	-0
404.448	-0.06
404.653	-0.03
404.858	-0.01
405.063	-0
405.268	-0.06
405.473	-0.07
405.678	-0.06
405.883	0.1
406.088	0.01
406.293	-0.09
406.498	-0.03
406.703	0.03
406.907	-0
407.112	-0.08
407.317	0.01
407.522	0.04
407.727	-0.09
407.932	-0.01
408.136	0.05
408.341	-0.03
408.546	-0.06
408.751	-0.02
408.956	-0.05
409.16	-0.02
409.365	-0.04
409.57	-0.05
409.774	-0.02
409.979	0.06
410.184	-0.03
410.388	-0.07
410.593	0.01
410.798	-0.03
411.002	-0.04
411.207	-0.03
411.411	0.02
411.616	-0.06
411.82	0
412.025	-0
412.229	-0.05
412.434	0.02
412.638	-0.01
412.843	-0.04
413.047	-0.01
413.252	-0.09
413.456	-0.04
413.66	0.02
413.865	-0.06
414.069	0.04
414.273	-0.04
414.478	-0.06
414.682	-0.04
414.886	-0.08
415.091	-0.07
415.295	-0.08
415.499	-0.01
415.703	-0.04
415.908	-0.02
416.112	-0.13
416.316	0.03
416.52	-0.04
416.724	-0.08
416.929	-0.08
417.133	0.05
417.337	-0.07
417.541	-0.05
417.745	-0.07
417.949	-0.02
418.153	-0
418.357	-0.1
418.561	0.05
418.765	-0.05
418.969	0.1
419.173	-0.01
419.377	-0.1
419.581	0.02
419.785	-0.08
419.989	-0.08
420.193	-0.12
420.397	-0.03
420.601	0.02
420.804	0
421.008	-0.04
421.212	-0.04
421.416	0.01
421.62	-0.02
421.823	-0.03
422.027	0.05
422.231	-0.08
422.435	-0.03
422.638	-0.06
422.842	-0.05
423.046	-0.01
423.249	0.02
423.453	-0.01
423.657	-0.01
423.86	-0.04
424.064	-0.02
424.268	0.01
424.471	-0.04
424.675	0.03
424.878	0.12
425.082	-0.01
425.285	0.02
425.489	-0.07
425.692	-0.05
425.896	-0.06
426.099	0.01
426.303	-0.06
426.506	-0.12
426.71	-0.03
426.913	-0.01
427.116	0.04
427.32	-0.04
427.523	-0.01
427.726	0.1
427.93	-0.06
428.133	-0
428.336	-0.05
428.54	-0.07
428.743	0.01
428.946	-0.01
429.149	-0.07
429.353	-0.03
429.556	-0.03
429.759	-0.02
429.962	-0.08
430.165	-0.06
430.368	-0.04
430.571	-0.05
430.775	-0
430.978	-0.04
431.181	-0
431.384	-0.02
431.587	-0.05
431.79	-0
431.993	-0.12
432.196	-0.04
432.399	-0.02
432.602	0.03
432.805	-0.02
433.008	-0.04
433.211	-0.11
433.414	0.03
433.616	0.01
433.819	-0.02
434.022	-0.11
434.225	0.09
434.428	0
434.631	0.05
434.833	-0.04
435.036	-0.06
435.239	0.01
435.442	0.01
435.645	-0.07
435.847	-0.01
436.05	0.02
436.253	-0.01
436.455	-0.09
436.658	-0.05
436.861	0.01
437.063	-0.06
437.266	-0.04
437.468	-0.01
437.671	0.11
437.874	-0.06
438.076	-0.04
438.279	-0.1
438.481	-0.01
438.684	-0.1
438.886	0.01
439.089	-0.12
439.291	-0.04
439.494	-0.01
439.696	-0.1
439.899	-0.08
440.101	-0.05
440.303	-0.06
440.506	-0.01
440.708	-0.02
440.91	-0.03
441.113	-0.03
441.315	-0
441.517	-0.09
441.72	0.01
441.922	-0.07
442.124	-0.07
442.326	-0.02
442.529	0.05
442.731	-0.05
442.933	0.09
443.135	-0.04
443.337	-0.07
443.539	-0.05
443.742	-0.02
443.944	-0.01
444.146	-0.06
444.348	-0.05
444.55	-0.06
444.752	-0
444.954	-0.08
445.156	-0.05
445.358	-0.07
445.56	-0
445.762	-0.05
445.964	-0.02
446.166	-0.06
446.368	-0.03
446.57	0.07
446.772	-0.05
446.974	-0.04
447.175	-0.03
447.377	-0.07
447.579	-0.07
447.781	-0.12
447.983	0.01
448.184	-0.01
448.386	-0.04
448.588	-0.08
448.79	-0.02
448.991	-0.07
449.193	-0.06
449.395	-0.03
449.597	-0.03
449.798	-0.03
450	-0
450.202	-0.06
450.403	-0.03
450.605	0.02
450.806	-0.01
451.008	-0.08
451.21	-0.03
451.411	-0.01
451.613	-0.1
451.814	-0.06
452.016	0.04
452.217	-0.04
452.419	0.01
452.62	-0.05
452.821	0
453.023	0.05
453.224	0.02
453.426	-0.09
453.627	0.02
453.828	-0.01
454.03	-0.05
454.231	-0.04
454.432	-0.03
454.634	0.02
454.835	-0.09
455.036	-0.11
455.238	-0
455.439	0.02
455.64	-0.08
455.841	-0.08
456.042	0.07
456.244	0.02
456.445	-0.09
456.646	-0.08
456.847	-0.06
457.048	0.02
457.249	0.04
457.45	0.17
457.651	-0.08
457.852	0.03
458.054	-0
458.255	-0.02
458.456	0.01
458.657	-0.04
458.858	-0.09
459.058	-0.06
459.259	0.05
459.46	-0.03
459.661	-0.05
459.862	0.11
460.063	-0.03
460.264	0.03
460.465	-0.07
460.666	0.03
460.866	-0.06
461.067	-0.03
461.268	-0.01
461.469	-0.07
461.67	-0.04
461.87	-0.05
462.071	-0.02
462.272	-0.05
462.473	0.01
462.673	-0.05
462.874	-0.08
463.075	-0.02
463.275	-0.04
463.476	0.03
463.676	-0.04
463.877	0.01
464.078	-0.02
464.278	0.04
464.479	-0.05
464.679	-0.01
464.88	-0.01
465.08	0.05
465.281	-0.08
465.481	-0.08
465.682	-0.09
465.882	0.04
466.083	0.02
466.283	-0.05
466.483	-0.02
466.684	-0.06
466.884	-0.07
467.085	-0.06
467.285	0
467.485	-0.06
467.686	0.02
467.886	-0.07
468.086	0.01
468.286	0.01
468.487	-0.01
468.687	-0.06
468.887	-0.02
469.087	0.01
469.287	-0.05
469.488	-0.07
469.688	-0.03
469.888	0.03
470.088	0
470.288	0.03
470.488	-0.01
470.688	-0.07
470.888	0
471.088	-0.07
471.288	-0.01
471.488	0.01
471.688	-0.01
471.888	-0.06
472.088	0.02
472.288	-0.02
472.488	-0.05
472.688	-0.02
472.888	-0.03
473.088	-0.04
473.288	-0.06
473.488	-0.01
473.688	0.08
473.887	-0.01
474.087	-0.05
474.287	-0.02
474.487	-0.06
474.687	-0
474.886	-0.03
475.086	-0.08
475.286	0
475.486	-0.01
475.685	-0.03
475.885	-0.03
476.085	-0.05
476.284	-0.02
476.484	-0.02
476.684	0.02
476.883	0.03
477.083	-0.01
477.282	-0.02
477.482	0.04
477.681	0.01
477.881	-0.03
478.08	-0.05
478.28	-0.04
478.479	0
478.679	0.06
478.878	-0.02
479.078	-0.04
479.277	-0
479.477	-0.04
479.676	0.01
479.875	-0.02
480.075	-0.07
480.274	0.01
480.473	-0.05
480.673	-0.05
480.872	-0.01
481.071	-0.04
481.271	0
481.47	-0.04
481.669	-0.03
481.868	-0.03
482.067	-0.05
482.267	-0.05
482.466	-0.05
482.665	-0.03
482.864	-0.06
483.063	-0.07
483.262	-0.04
483.461	0.02
483.661	0
483.86	-0.02
484.059	-0.04
484.258	-0.02
484.457	-0.01
484.656	-0.03
484.855	0.02
485.054	-0.06
485.253	-0.05
485.452	-0.04
485.651	-0.01
485.849	-0.02
486.048	-0.01
486.247	-0.06
486.446	-0.04
486.645	-0.03
486.844	-0.02
487.043	-0.03
487.241	-0.01
487.44	-0.05
487.639	-0.02
487.838	0.01
488.037	-0.01
488.235	0.01
488.434	-0.03
488.633	-0.02
488.831	-0.02
489.03	0.02
489.229	-0.01
489.427	-0.03
489.626	0.01
489.825	0.01
490.023	-0.02
490.222	-0.01
490.42	0.01
490.619	0.01
490.817	-0.01
491.016	-0.03
491.214	-0.01
491.413	-0.01
491.611	0
491.81	-0
492.008	0.01
492.207	0.02
492.405	-0.02
492.604	-0.04
492.802	-0.02
493	-0.02
493.199	-0.03
493.397	-0.01
493.595	-0.03
493.794	-0.03
493.992	0.03
494.19	-0.02
494.388	-0.02
494.587	-0.03
494.785	-0.01
494.983	-0.05
495.181	-0.02
495.379	-0.02
495.578	-0.02
495.776	-0.01
495.974	-0
496.172	-0.03
496.37	-0.02
496.568	-0.04
496.766	-0.03
496.964	0.02
497.162	-0.01
497.36	-0.04
497.558	0.02
497.756	0.02
497.954	0
498.152	-0.03
498.35	-0.01
498.548	-0.03
498.746	-0.01
498.944	-0.04
499.142	-0.03
499.34	-0.03
499.538	-0.01
499.736	-0.04
499.933	0.02
500.131	0.03
500.329	-0.01
500.527	0.02
500.725	0.02
500.922	0.01
501.12	0
501.318	0
501.516	-0.03
501.713	-0.01
501.911	-0.02
502.109	-0.05
502.306	-0.01
502.504	-0.02
502.701	-0.03
502.899	-0.03
503.097	0.02
503.294	0
503.492	-0.04
503.689	0.02
503.887	-0.01
504.084	0
504.282	-0.02
504.479	-0.04
504.677	0.02
504.874	-0.06
505.072	0
505.269	-0.01
505.466	0
505.664	0.03
505.861	-0.08
506.059	-0.05
506.256	-0
506.453	-0.04
506.651	0.02
506.848	0.02
507.045	-0
507.242	-0.01
507.44	-0.01
507.637	-0.01
507.834	-0.02
508.031	0.02
508.229	-0.04
508.426	-0.03
508.623	0.01
508.82	-0.03
509.017	-0.04
509.214	-0.01
509.411	-0.01
509.608	-0.04
509.805	-0.02
510.003	-0.02
510.2	-0.03
510.397	0.01
510.594	-0.04
510.791	-0.03
510.988	-0.03
511.184	0
511.381	-0.02
511.578	-0.03
511.775	0.01
511.972	-0
512.169	-0.02
512.366	-0
512.563	0.01
512.76	-0.03
512.956	0.02
513.153	-0.01
513.35	-0.01
513.547	-0.03
513.744	-0.04
513.94	-0.03
514.137	-0
514.334	-0.01
514.53	-0.02
514.727	-0
514.924	0.01
515.12	-0.03
515.317	-0.04
515.514	-0.03
515.71	-0.03
515.907	-0.02
516.103	-0
516.3	0.01
516.497	0.01
516.693	0.01
516.89	0.01
517.086	-0.03
517.283	0.01
517.479	-0.01
517.676	-0.01
517.872	-0.02
518.068	-0
518.265	-0.01
518.461	-0.02
518.658	-0.04
518.854	-0.02
519.05	-0.03
519.247	-0.03
519.443	0.01
519.639	0
519.836	-0.03
520.032	-0.01
520.228	-0.02
520.424	0.03
520.621	-0.01
520.817	-0.02
521.013	0.01
521.209	0.01
521.405	0.05
521.601	-0.02
521.798	-0.01
521.994	0.03
522.19	-0.04
522.386	-0.02
522.582	-0.01
522.778	-0.02
522.974	-0.03
523.17	-0.01
523.366	-0.05
523.562	0.04
523.758	-0.02
523.954	-0.04
524.15	-0.03
524.346	-0
524.542	-0.02
524.738	-0.03
524.934	-0.02
525.129	-0.03
525.325	-0
525.521	-0.02
525.717	-0
525.913	-0.02
526.109	-0.01
526.304	-0.03
526.5	0
526.696	0.02
526.892	-0.01
527.087	0
527.283	-0.05
527.479	0.01
527.674	-0
527.87	-0.04
528.066	-0.03
528.261	-0
528.457	-0
528.653	-0.03
528.848	-0.03
529.044	-0.02
529.239	-0.03
529.435	0.02
529.63	-0.01
529.826	0.04
530.021	0.02
530.217	0.02
530.412	-0.03
530.608	-0.04
530.803	-0.01
530.999	0
531.194	-0.06
531.389	-0.01
531.585	-0.07
531.78	-0.02
531.975	-0.02
532.171	0.01
532.366	-0.02
532.561	-0.03
532.757	-0.02
532.952	-0.02
533.147	0.01
533.342	-0
533.538	-0.05
533.733	-0
533.928	-0.02
534.123	-0.02
534.318	-0.06
534.513	-0.02
534.709	-0
534.904	-0.02
535.099	-0.01
535.294	-0.02
535.489	0.01
535.684	-0.02
535.879	-0.03
536.074	-0.02
536.269	-0.03
536.464	-0.01
536.659	-0.01
536.854	-0.02
537.049	0
537.244	-0.01
537.439	-0.02
537.634	0.02
537.828	-0.02
538.023	-0.03
538.218	-0.05
538.413	-0.02
538.608	-0.03
538.803	0
538.997	-0.02
539.192	0.01
539.387	-0.01
539.582	0
539.776	-0.01
539.971	-0.05
540.166	-0.01
540.36	-0.04
540.555	-0.01
540.75	-0.02
540.944	-0.01
541.139	-0.03
541.334	-0.03
541.528	-0
541.723	-0.02
541.917	-0.01
542.112	-0.05
542.306	-0
542.501	-0.03
542.695	-0.03
542.89	-0.02
543.084	-0.03
543.279	-0.03
543.473	-0.02
543.668	-0.02
543.862	-0.02
544.056	0
544.251	-0
544.445	-0.03
544.64	-0.03
544.834	-0.03
545.028	-0.01
545.222	0
545.417	0.03
545.611	-0.01
545.805	-0.01
546	-0.02
546.194	-0.02
546.388	-0.03
546.582	-0.01
546.776	-0.01
546.97	-0.02
547.165	0
547.359	0.01
547.553	-0.02
547.747	-0.02
547.941	-0.02
548.135	-0.02
548.329	0.02
548.523	-0.02
548.717	-0.01
548.911	-0.01
549.105	-0.02
549.299	-0.01
549.493	0.02
549.687	-0.01
549.881	-0.01
550.075	-0.02
550.269	-0.05
550.463	-0.02
550.657	-0.01
550.85	-0.02
551.044	-0.02
551.238	0
551.432	-0.03
551.626	-0.05
551.82	-0.03
552.013	-0.02
552.207	-0
552.401	0
552.594	-0.01
552.788	-0.02
552.982	-0.02
553.176	-0.04
553.369	0.02
553.563	-0.02
553.756	-0.03
553.95	-0.03
554.144	-0.03
554.337	0.02
554.531	-0.01
554.724	-0.01
554.918	-0.02
555.111	0
555.305	-0.02
555.498	0.03
555.692	0.01
555.885	-0.03
556.079	-0.01
556.272	-0.01
556.466	0.01
556.659	-0.01
556.852	-0.01
557.046	-0.04
557.239	0.02
557.432	-0.03
557.626	-0.01
557.819	0
558.012	-0.01
558.206	-0.01
558.399	-0.01
558.592	0.02
558.785	-0.02
558.979	0.01
559.172	-0
559.365	0.03
559.558	-0
559.751	-0
559.944	-0.03
560.138	0
560.331	-0.01
560.524	-0.04
560.717	-0.02
560.91	-0.01
561.103	0.01
561.296	-0.02
561.489	-0.01
561.682	-0.01
561.875	0.02
562.068	0
562.261	-0.02
562.454	0.02
562.647	-0.01
562.84	0.01
563.032	-0.01
563.225	0.01
563.418	-0.03
563.611	-0.02
563.804	-0.02
563.997	-0.02
564.19	-0.05
564.382	-0.07
564.575	-0.03
564.768	-0.01
564.961	-0.02
565.153	-0.03
565.346	0.01
565.539	0.01
565.731	-0.01
565.924	0.02
566.117	0.02
566.309	0
566.502	-0.04
566.695	-0.02
566.887	0.01
567.08	-0.03
567.272	-0.02
567.465	-0.03
567.657	-0.01
567.85	0
568.042	-0.01
568.235	0.01
568.427	-0.03
568.62	-0.02
568.812	-0.01
569.005	-0.01
569.197	-0.05
569.389	-0
569.582	0
569.774	-0.01
569.966	-0.05
570.159	-0.07
570.351	0
570.543	-0.05
570.736	-0.01
570.928	-0.04
571.12	-0.02
571.312	-0.01
571.505	-0.04
571.697	0.04
571.889	-0.03
572.081	-0.02
572.273	-0.04
572.465	0.02
572.658	-0.01
572.85	-0.01
573.042	-0.04
573.234	-0.04
573.426	0.04
573.618	-0.04
573.81	-0.01
574.002	0.01
574.194	0.01
574.386	-0.04
574.578	-0.08
574.77	-0.04
574.962	-0.02
575.154	-0.04
575.346	-0.02
575.538	0.01
575.729	-0.03
575.921	-0.02
576.113	-0.02
576.305	0.03
576.497	-0.03
576.689	-0.01
576.88	-0.01
577.072	0
577.264	-0.03
577.456	-0.02
577.647	-0.09
577.839	-0.03
578.031	0.01
578.223	-0.04
578.414	-0.05
578.606	-0
578.798	-0.02
578.989	-0.02
579.181	-0.02
579.372	0
579.564	-0.01
579.755	-0.01
579.947	-0.01
580.139	-0.01
580.33	-0.07
580.522	-0.03
580.713	-0.08
580.905	-0.05
581.096	-0
581.287	-0.01
581.479	-0.03
581.67	-0
581.862	-0.02
582.053	-0.03
582.244	-0.07
582.436	-0.04
582.627	-0.02
582.818	-0.01
583.01	-0.06
583.201	0.01
583.392	-0.01
583.583	0
583.775	-0.02
583.966	-0.05
584.157	-0.04
584.348	-0.03
584.54	-0.06
584.731	0
584.922	-0
585.113	-0.03
585.304	-0.02
585.495	-0
585.686	-0
585.877	-0.01
586.068	-0.01
586.259	-0.02
586.45	-0.02
586.641	-0.04
586.832	-0.07
587.023	-0.01
587.214	-0.01
587.405	-0.02
587.596	-0.03
587.787	-0
587.978	-0.02
588.169	-0.05
588.36	-0.03
588.551	-0.01
588.742	-0.03
588.932	-0.01
589.123	-0.01
589.314	0.01
589.505	-0.02
589.696	-0.02
589.886	-0.05
590.077	-0.03
590.268	-0.01
590.458	-0.05
590.649	-0.07
590.84	0.02
591.03	-0.03
591.221	-0.06
591.412	-0.07
591.602	0
591.793	0.02
591.984	-0.03
592.174	-0.06
592.365	0.04
592.555	-0.05
592.746	0.01
592.936	-0.01
593.127	0.01
593.317	0.03
593.508	-0.04
593.698	-0.04
593.889	-0.02
594.079	-0.01
594.269	-0.05
594.46	-0.03
594.65	-0.02
594.84	-0.03
595.031	-0.04
595.221	-0.05
595.411	-0.06
595.602	0.01
595.792	-0.04
595.982	0.01
596.172	0.04
596.363	-0.02
596.553	-0.02
596.743	-0.01
596.933	-0.01
597.123	0.03
597.314	-0.03
597.504	-0.05
597.694	0.01
597.884	0
598.074	-0.03
598.264	-0.03
598.454	-0.01
598.644	-0.04
598.834	-0.03
599.024	-0.06
599.214	-0.04
599.404	0.01
599.594	-0.03
599.784	-0.05
599.974	0.02
600.164	-0
600.354	-0.07
600.544	-0.07
600.734	0.01
600.924	0.02
601.114	-0.04
601.303	-0.01
601.493	0.01
601.683	-0.03
601.873	-0.01
602.063	-0.05
602.252	-0
602.442	-0.1
602.632	-0.07
602.821	-0.04
603.011	0
603.201	-0.03
603.39	-0.04
603.58	-0.05
603.77	-0.04
603.959	0.01
604.149	-0
604.339	-0.01
604.528	0.02
604.718	0
604.907	-0.06
605.097	0.01
605.286	-0.06
605.476	0.02
605.665	-0
605.855	-0.03
606.044	0.01
606.234	-0.01
606.423	-0.03
606.612	-0.07
606.802	-0
606.991	-0
607.181	-0.01
607.37	-0.06
607.559	-0.05
607.749	-0.06
607.938	-0.01
608.127	-0.05
608.316	-0.06
608.506	-0.02
608.695	-0.02
608.884	-0.02
609.073	-0.05
609.263	0
609.452	-0.02
609.641	0.01
609.83	-0.07
610.019	-0.02
610.208	-0.04
610.397	-0.03
610.586	-0
610.775	-0.09
610.965	-0.03
611.154	-0.04
611.343	-0.02
611.532	-0.02
611.721	-0.05
611.91	-0.03
612.099	0.01
612.287	-0.06
612.476	-0.05
612.665	-0.03
612.854	-0.03
613.043	0
613.232	-0.04
613.421	-0.06
613.61	-0.01
613.798	-0.04
613.987	0.01
614.176	-0.02
614.365	0.02
614.554	-0.01
614.742	0.01
614.931	-0.05
615.12	0.04
615.309	-0.03
615.497	-0.02
615.686	-0.06
615.875	0
616.063	-0.03
616.252	-0.04
616.44	-0.03
616.629	-0.03
616.818	0.02
617.006	-0.03
617.195	-0.01
617.383	-0.02
617.572	-0.04
617.76	-0.04
617.949	-0.03
618.137	-0.03
618.326	0.04
618.514	-0.05
618.703	-0.02
618.891	0.03
619.079	-0.08
619.268	-0.03
619.456	-0.03
619.644	0.01
619.833	-0.04
620.021	-0.03
620.209	-0.07
620.398	-0.02
620.586	-0.01
620.774	0.02
620.962	-0.02
621.151	0.01
621.339	-0.03
621.527	-0.04
621.715	-0.06
621.903	-0.03
622.092	-0.05
622.28	-0.02
622.468	-0.03
622.656	-0.06
622.844	-0.01
623.032	-0.03
623.22	-0.06
623.408	0.02
623.596	0
623.784	-0.01
623.972	-0.05
624.16	-0.03
624.348	0.01
624.536	-0.02
624.724	-0.03
624.912	0.02
625.1	0.01
625.288	-0.04
625.476	-0.07
625.664	0
625.851	-0.03
626.039	-0.01
626.227	-0.01
626.415	-0
626.603	-0.09
626.79	-0.01
626.978	-0.02
627.166	-0.01
627.354	-0.03
627.541	-0.05
627.729	-0.09
627.917	-0
628.104	0.02
628.292	-0.02
628.48	-0.03
628.667	-0.01
628.855	-0.01
629.042	0.03
629.23	-0.03
629.418	-0.02
629.605	-0.04
629.793	-0.06
629.98	-0.01
630.168	-0.03
630.355	-0.05
630.543	-0.01
630.73	-0.04
630.917	-0.01
631.105	0.04
631.292	-0.03
631.48	-0.04
631.667	0.07
631.854	-0.02
632.042	-0.03
632.229	-0.07
632.416	-0.02
632.604	-0.02
632.791	-0.07
632.978	0.04
633.165	-0.01
633.353	0.03
633.54	0.02
633.727	-0.07
633.914	-0.06
634.101	-0.07
634.289	0.03
634.476	-0.08
634.663	-0.04
634.85	0.02
635.037	-0.05
635.224	-0.08
635.411	0.03
635.598	-0
635.785	-0.04
635.972	-0.04
636.159	0.01
636.346	-0.05
636.533	-0.03
636.72	-0.06
636.907	-0.03
637.094	0
637.281	-0.03
637.468	0
637.655	-0.03
637.842	-0.02
638.029	-0.03
638.215	0.01
638.402	-0
638.589	-0.04
638.776	-0.03
638.963	-0.03
639.149	0.01
639.336	0.04
639.523	-0.01
639.709	-0.02
639.896	-0.04
640.083	0.05
640.27	-0
640.456	-0.05
640.643	-0
640.829	-0.07
641.016	-0.05
641.203	-0.06
641.389	0.02
641.576	-0.03
641.762	-0.02
641.949	-0.06
642.135	-0.04
642.322	-0
642.508	-0.07
642.695	-0.02
642.881	-0.04
643.068	-0
643.254	-0.04
643.441	0.02
643.627	-0.03
643.813	-0.07
644	0.02
644.186	-0.05
644.372	0.01
644.559	-0
644.745	-0.02
644.931	-0.03
645.118	-0.02
645.304	-0.02
645.49	-0.04
645.676	-0.06
645.862	-0.03
646.049	0.01
646.235	-0.02
646.421	0.02
646.607	0.04
646.793	-0.03
646.979	-0.03
647.165	0.01
647.352	-0.03
647.538	0.04
647.724	-0
647.91	-0.02
648.096	0.04
648.282	-0
648.468	-0.04
648.654	-0.01
648.84	-0.03
649.026	-0.02
649.212	-0.02
649.397	-0.07
649.583	-0.06
649.769	0
649.955	-0.04
650.141	-0.02
650.327	0.02
650.513	-0.04
650.698	0
650.884	-0.06
651.07	-0.01
651.256	-0.01
651.442	-0.05
651.627	-0.03
651.813	-0.02
651.999	-0.05
652.184	-0.01
652.37	-0.02
652.556	-0.06
652.741	0.04
652.927	-0.09
653.113	-0.04
653.298	-0.01
653.484	-0.07
653.669	-0.05
653.855	-0.03
654.04	-0.01
654.226	-0.01
654.412	-0.07
654.597	-0.06
654.782	-0.02
654.968	0.02
655.153	0.02
655.339	-0.02
655.524	-0.06
655.71	0.01
655.895	-0.05
656.08	0.02
656.266	0.02
656.451	0.01
656.636	-0.08
656.822	-0.03
657.007	-0.05
657.192	-0.03
657.378	-0.09
657.563	-0.01
657.748	0.02
657.933	0.02
658.118	-0.03
658.304	-0.06
658.489	-0
658.674	-0.01
658.859	-0.04
659.044	-0
659.229	-0.03
659.414	-0.05
659.599	-0.01
659.785	-0.05
659.97	-0.06
660.155	0.01
660.34	-0.03
660.525	-0.02
660.71	-0.03
660.895	0.03
661.08	-0.03
661.264	-0.04
661.449	0.02
661.634	0.01
661.819	0.01
662.004	-0.01
662.189	-0.09
662.374	-0.07
662.559	-0.06
662.743	-0.08
662.928	-0.04
663.113	-0.06
663.298	-0.1
663.483	-0.03
663.667	-0.02
663.852	-0.08
664.037	0
664.221	-0.07
664.406	-0.02
664.591	0
664.775	-0.01
664.96	-0.02
665.145	0
665.329	0.01
665.514	-0.01
665.698	-0.01
665.883	-0.09
666.068	0.02
666.252	-0.01
666.437	-0.06
666.621	-0.02
666.806	0
666.99	-0.04
667.174	-0.07
667.359	0.02
667.543	-0.04
667.728	-0.03
667.912	-0.1
668.096	0.03
668.281	-0.05
668.465	-0.04
668.649	-0.03
668.834	-0.04
669.018	-0.04
669.202	-0.04
669.387	-0.03
669.571	0.02
669.755	-0.07
669.939	-0.04
670.124	-0.04
670.308	0.03
670.492	-0.02
670.676	0
670.86	-0.03
671.044	-0.07
671.228	0
671.413	-0.06
671.597	-0.05
671.781	-0.04
671.965	-0.01
672.149	-0.04
672.333	-0.06
672.517	-0.04
672.701	-0.04
672.885	-0.08
673.069	-0.1
673.253	0.05
673.437	-0.04
673.621	-0.07
673.804	-0.03
673.988	-0.03
674.172	-0.04
674.356	-0.07
674.54	-0.02
674.724	0.02
674.908	-0.01
675.091	0
675.275	-0.04
675.459	-0.01
675.643	0.04
675.826	-0
676.01	0.04
676.194	-0.01
676.377	0.04
676.561	-0.01
676.745	-0.02
676.928	0.01
677.112	0.03
677.296	-0.1
677.479	-0.07
677.663	-0.04
677.846	-0.02
678.03	-0.03
678.213	-0.06
678.397	0.05
678.58	-0.06
678.764	-0.06
678.947	-0.05
679.131	0.01
679.314	0.04
679.498	-0.06
679.681	-0.02
679.865	-0
680.048	-0.01
680.231	-0.02
680.415	-0.04
680.598	-0.06
680.781	-0.03
680.965	-0.03
681.148	-0
681.331	-0.08
681.514	0.01
681.698	-0.04
681.881	-0.02
682.064	-0.04
682.247	0.03
682.43	-0.1
682.614	0
682.797	0.05
682.98	0
683.163	-0.06
683.346	-0.03
683.529	-0.07
683.712	-0.05
683.895	-0
684.078	-0.08
684.261	-0.06
684.444	-0.04
684.627	0.01
684.81	-0.07
684.993	-0.05
685.176	-0.01
685.359	-0.12
685.542	-0.03
685.725	0.05
685.908	-0
686.091	-0.02
686.274	0.01
686.457	0.01
686.639	-0.07
686.822	-0.02
687.005	-0.04
687.188	-0.01
687.371	0.05
687.553	-0.05
687.736	-0.05
687.919	0.07
688.102	0.04
688.284	-0.05
688.467	-0.01
688.65	-0.01
688.832	-0.02
689.015	-0.04
689.197	-0.08
689.38	0.04
689.563	0.04
689.745	-0.05
689.928	-0.08
690.11	-0.04
690.293	0.01
690.475	-0.11
690.658	0.03
690.84	-0.02
691.023	-0.02
691.205	-0.02
691.388	-0.07
691.57	0.03
691.752	-0.05
691.935	-0.04
692.117	-0.07
692.3	-0.02
692.482	-0.05
692.664	-0
692.847	0
693.029	0.04
693.211	-0
693.393	-0.05
693.576	-0.02
693.758	0.01
693.94	-0.03
694.122	-0.06
694.304	-0.03
694.487	-0.06
694.669	0.02
694.851	-0.02
695.033	-0.05
695.215	-0.03
695.397	-0.07
695.579	-0.04
695.761	-0.07
695.943	-0.11
696.125	0.04
696.308	-0.02
696.49	-0.13
696.671	0.1
696.853	-0.01
697.035	0.07
697.217	-0.07
697.399	-0
697.581	-0.05
697.763	-0.03
697.945	-0.12
698.127	0
698.309	0.08
698.491	-0.04
698.672	0.04
698.854	0.06
699.036	0.06
699.218	-0.02
699.399	0.01
699.581	0.02
699.763	0
699.945	-0.05
700.126	-0.06
700.308	-0.02
700.49	-0.01
700.671	-0.12
700.853	-0.09
701.035	-0.05
701.216	-0.03
701.398	-0.06
701.579	-0
701.761	0.03
701.943	-0.05
702.124	-0.04
702.306	-0.02
702.487	0.11
702.669	0.04
702.85	-0.05
703.031	-0.06
703.213	0.09
703.394	0.04
703.576	-0.06
703.757	0.04
703.938	0.01
704.12	0.09
704.301	-0.06
704.483	-0.04
704.664	-0.05
704.845	0.07
705.026	0.08
705.208	-0.02
705.389	0.01
705.57	0.03
705.751	-0.09
705.933	-0.03
706.114	-0.02
706.295	-0.01
706.476	-0.06
706.657	0.03
706.838	0.05
707.02	0.09
707.201	-0
707.382	-0.07
707.563	0.01
707.744	-0.04
707.925	-0.07
708.106	-0.06
708.287	0.03
708.468	0.04
708.649	-0.03
708.83	0
709.011	-0.07
709.192	0.02
709.373	-0.07
709.554	-0.06
709.734	0.07
709.915	0.04
710.096	-0.02
710.277	-0.1
710.458	-0.02
710.639	0.04
710.819	-0.08
711	0.05
711.181	0.07
711.362	0.09
711.542	-0.03
711.723	0
711.904	0.13
712.085	-0.01
712.265	0.01
712.446	-0.08
712.627	-0.02
712.807	-0.01
712.988	-0
713.168	-0.08
713.349	0.05
713.53	-0.1
713.71	-0.07
713.891	-0.09
714.071	0.02
714.252	0.01
714.432	0.04
714.613	-0.09
714.793	-0.05
714.974	0.07
715.154	0.09
715.334	0.02
715.515	0.05
715.695	-0.02
715.876	-0.03
716.056	-0.01
716.236	-0.01
716.417	-0.03
716.597	-0.01
716.777	0.14
716.957	0.02
717.138	0.07
717.318	0.03
717.498	-0.15
717.678	0.05
717.859	-0.02
718.039	-0.02
718.219	0
718.399	0.08
718.579	-0.07
718.759	-0.01
718.939	0.04
719.12	0.02
719.3	-0
719.48	-0.09
719.66	-0.05
719.84	0.05
720.02	0.07
720.2	-0.1
720.38	0.04
720.56	0.17
720.74	0.09
720.92	0.08
721.1	0.1
721.279	0.1
721.459	0.08
721.639	-0.03
721.819	0.03
721.999	0.04
722.179	0.17
722.359	0.03
722.538	0.04
722.718	-0.01
722.898	0.03
723.078	0.07
723.257	0.1
723.437	0.09
723.617	0.04
723.797	0.06
723.976	0.1
724.156	0.12
724.336	0.13
724.515	0.15
724.695	-0.06
724.874	0.02
725.054	0.13
725.234	-0
725.413	0.11
725.593	0.11
725.772	0.03
725.952	0.07
726.131	0.07
726.311	0.1
726.49	0.04
726.67	0.08
726.849	0.07
727.028	0.1
727.208	0.06
727.387	0.12
727.567	0.03
727.746	0.04
727.925	0.02
728.105	0
728.284	0.03
728.463	0.05
728.643	0.15
728.822	0.02
729.001	0.09
729.18	0.1
729.359	0.08
729.539	0.02
729.718	0.13
729.897	0.19
730.076	0.14
730.255	0.03
730.434	0.13
730.614	0.1
730.793	0.25
730.972	0.08
731.151	0.11
731.33	0.16
731.509	0.11
731.688	0.12
731.867	0.15
732.046	0.02
732.225	0.32
732.404	0.07
732.583	0
732.762	0.09
732.941	0.21
733.12	0.23
733.298	0.14
733.477	0.19
733.656	0.09
733.835	-0.01
734.014	0.22
734.193	0.11
734.371	0.2
734.55	0.2
734.729	0.06
734.908	0.17
735.086	0.14
735.265	0.27
735.444	-0.01
735.623	0.06
735.801	0.08
735.98	0.22
736.159	0.11
736.337	0.23
736.516	0.15
736.694	0.15
736.873	0.11
737.052	0.3
737.23	0.25
737.409	0.1
737.587	0.28
737.766	-0.03
737.944	0.08
738.123	0.23
738.301	0.13
738.479	0.07
738.658	0.09
738.836	-0.1
739.015	0.24
739.193	0.18
739.371	0.02
739.55	0.06
739.728	0.03
739.906	0.17
740.085	0.18
740.263	0.2
740.441	-0.09
740.62	0.27
740.798	0.23
740.976	0.05
741.154	0.06
741.332	0.26
741.511	-0.02
741.689	0.16
741.867	0.18
742.045	0.02
742.223	0.05
742.401	-0.06
742.579	0.06
742.757	0.05
742.935	-0.03
743.114	-0.13
743.292	0.03
743.47	0.05
743.648	0.12
743.826	-0.19
744.004	0.16
744.181	0.07
744.359	0.03
744.537	-0
744.715	-0.03
744.893	0.07
745.071	0.09
745.249	0.06
745.427	-0.01
745.605	0.16
745.782	0.01
745.96	0.01
746.138	0.12
746.316	0.09
746.493	0.01
746.671	0.07
746.849	-0.01
747.027	0.13
747.204	-0.12
747.382	0.05
747.56	-0.12
747.737	0.01
747.915	-0.19
748.093	-0
748.27	-0.06
748.448	-0.12
748.625	-0.14
748.803	-0.08
748.98	-0.05
749.158	-0.06
749.335	0.03
749.513	-0.09
749.69	-0.05
749.868	-0.07
750.045	0.1
750.223	0.02
750.4	-0.18
750.578	0.06
750.755	0.06
750.932	-0.15
751.11	0.12
751.287	-0.22
751.464	-0.02
751.642	-0.08
751.819	0.04
751.996	-0.15
752.173	-0.11
752.351	-0.11
752.528	-0.02
752.705	-0.07
752.882	-0.17
753.06	0.03
753.237	-0.03
753.414	0.1
753.591	0.05
753.768	0.04
753.945	-0.1
754.122	-0.04
754.299	0.03
754.476	-0.15
754.654	0.04
754.831	0.02
755.008	-0.07
755.185	-0.09
755.362	-0.1
755.539	-0.06
755.716	-0.06
755.892	-0.09
756.069	-0.06
756.246	-0.17
756.423	-0.07
756.6	0.09
756.777	-0.04
756.954	0.04
757.131	-0.08
757.307	-0.14
757.484	-0.15
757.661	0.03
757.838	-0.14
758.015	-0.18
758.191	0.04
758.368	0.03
758.545	0.21
758.721	0.04
758.898	-0.25
759.075	-0.03
759.251	0.05
759.428	0.03
759.605	-0.2
759.781	-0.15
759.958	0.01
760.134	-0.02
760.311	-0.08
760.488	0.09
760.664	0.09
760.841	-0.07
761.017	-0.17
761.194	-0.04
761.37	0.06
761.547	0.01
761.723	-0.06
761.899	0.09
762.076	-0.11
762.252	-0.23
762.429	-0.17
762.605	0.02
762.781	-0.07
762.958	0.11
763.134	-0.02
763.31	-0.09
763.486	-0.02
763.663	-0.16
763.839	-0.09
764.015	-0.21
764.191	-0.11
764.368	-0.15
764.544	-0.07
764.72	-0.01
764.896	0.05
765.072	-0.09
765.248	-0.1
765.425	-0.12
765.601	-0.04
765.777	-0.06
765.953	-0.27
766.129	-0.07
766.305	-0.23
766.481	-0.04
766.657	-0.1
766.833	0.07
767.009	-0.25
767.185	-0.08
767.361	0.01
767.537	-0.17
767.713	0.12
767.889	-0.17
768.065	-0.07
768.24	0.07
768.416	0.02
768.592	-0.06
768.768	-0.1
768.944	-0.09
769.12	-0.32
769.295	-0.04
769.471	-0
769.647	-0.14
769.823	0.07
769.998	-0.17
770.174	-0.04
770.35	0.12
770.525	0.05
770.701	0.03
770.877	-0.22
771.052	-0.14
771.228	0.07
771.403	-0.09
771.579	0.09
771.755	0.06
771.93	-0.18
772.106	-0.28
772.281	-0.28
772.457	-0.11
772.632	0.11
772.808	-0.17
772.983	-0.19
773.159	-0.15
773.334	-0
773.509	-0.39
773.685	-0.19
773.86	0.12
774.036	0.12
774.211	0.03
774.386	-0.26
774.562	-0.06
774.737	0.01
774.912	-0.19
775.087	-0.07
775.263	-0.07
775.438	0.02
775.613	-0.16
775.788	-0.22
775.964	0.19
776.139	0.25
776.314	-0.18
776.489	-0.09
776.664	-0
776.839	-0.11
777.014	0.18
777.19	-0.04
777.365	0.1
777.54	0.14
777.715	-0.13
777.89	-0.07
778.065	-0.26
778.24	-0.08
778.415	-0.06
778.59	-0.11
778.765	-0.1
778.94	-0.18
779.115	-0.11
779.289	-0.15
779.464	-0.01
779.639	-0.06
779.814	-0.26
779.989	-0.27
780.164	0.02
780.339	-0.08
780.513	-0.1
780.688	-0.24
780.863	-0.17
781.038	0.13
781.212	-0.16
781.387	-0.07
781.562	0.23
781.737	-0.04
781.911	0.08
782.086	-0.17
782.261	-0.04
782.435	0.17
782.61	-0.19
782.784	-0.08
782.959	0.14
783.134	-0.25
783.308	-0.3
783.483	-0.16
783.657	0.23
783.832	-0.05
784.006	-0.24
784.181	-0.11
784.355	0.13
784.53	-0.36
784.704	-0.25
784.878	0.1
785.053	-0.05
785.227	0.13
785.402	0.33
785.576	-0.51
785.75	-0.05
785.925	-0.17
786.099	-0.04
786.273	0
786.448	0.25
786.622	0.12
786.796	-0.07
786.97	-0.18
787.145	0.31
787.319	-0.19
787.493	-0.15
787.667	-0.46
787.841	-0.17
788.015	-0.03
788.19	-0.19
788.364	-0.04
788.538	0.01
788.712	0.1
788.886	-0.21
789.06	0.26
789.234	0.06
789.408	-0.36
789.582	-0.33
789.756	-0.3
789.93	-0.35
790.104	-0.16
790.278	-0.15
790.452	-0.42
790.626	0.06
790.8	-0.32
790.973	0.05
791.147	-0.05
791.321	0.15
791.495	0.12
791.669	-0.08
791.843	-0
792.016	-0.17
792.19	0.24
792.364	-0.26
792.538	0.41
792.711	-0.05
792.885	-0.09
793.059	-0.41
793.233	-0.71
793.406	-0.1
793.58	-0.05
793.754	-0.02
793.927	-0.12
794.101	0.21
794.274	-0.15
794.448	0.05
794.622	-0.24
794.795	0.08
794.969	-0.22
795.142	0.26
795.316	-0.14
795.489	-0.07
795.663	0.37
795.836	-0.22
796.009	-0.46
796.183	0.18
796.356	-0.06
796.53	-0.15
796.703	-0.11
796.876	0.54
797.05	-0.26
797.223	-0.06
797.396	0.06
797.57	0.03
797.743	0.19
797.916	0.08
798.09	-0.18
798.263	0.01
798.436	0.02
798.609	-0.27
798.782	0.01
798.956	-0.02
799.129	-0.28
799.302	-0.1
799.475	-0.18
799.648	-0.37
799.821	-0.23
799.994	-0.33
800.167	-0.35
800.34	-0.06
800.514	-0.07
800.687	-0.22
800.86	-0.06
801.033	-0.18
801.206	-0.09
801.379	-0.4
801.551	0.17
801.724	-0.17
801.897	0.06
802.07	-0.43
802.243	-0.46
802.416	-0.23
802.589	-0.29
802.762	-0.15
802.935	-0.16
803.107	-0.06
803.28	0.3
803.453	-0.03
803.626	0.04
803.798	-0.04
803.971	-0.38
804.144	0.04
804.317	-0.21
804.489	0.22
804.662	-0.2
804.835	-0.3
805.007	-0.23
805.18	0.14
805.353	-0.1
805.525	-0.48
805.698	-0.16
805.87	-0.14
806.043	-0.08
806.215	-0.44
806.388	-0.44
806.56	-0.03
806.733	0.45
806.905	0.06
807.078	-0.31
807.25	-0.38
807.423	-0.02
807.595	-0.03
807.768	-0.3
807.94	0.17
808.112	0.11
808.285	-0.09
808.457	-0.45
808.629	-0.24
808.802	-0.09
808.974	0.05
809.146	-0.29
809.318	-0.37
809.491	0.09
809.663	0.22
809.835	-0.31
810.007	-0.11
810.18	-0.34
810.352	-0.46
810.524	-0.15
810.696	0.09
810.868	0.27
811.04	0.02
811.212	-0.32
811.384	0.06
811.556	0.07
811.728	-0.19
811.901	0.36
812.073	-0.43
812.245	0.04
812.417	0.28
812.589	-0.7
812.76	-0.12
812.932	0.3
813.104	-0.09
813.276	-0.59
813.448	0.28
813.62	-0.1
813.792	-0.06
813.964	0.07
814.136	-0.14
814.307	-0.07
814.479	-0.25
814.651	-0.5
814.823	0.12
814.995	-0.11
815.166	-0.19
815.338	-0.37
815.51	-0.65
815.681	0.49
815.853	-0.45
816.025	-0.03
816.196	0.26
816.368	0.16
816.54	-0.86
816.711	-0.72
816.883	-0.51
817.054	0.34
817.226	-0.46
817.398	-0.09
817.569	-0.24
817.741	-0.02
817.912	-0.06
818.084	-0.45
818.255	0.2
818.426	-0.14
818.598	-0.04
818.769	-0.16
818.941	-0.14
819.112	0.49
819.283	0.12
819.455	-0.65
819.626	-0.32
819.798	-0.07
819.969	0.09
820.14	-0.19
820.311	-0.3
820.483	0.24
820.654	-0.09
820.825	0.03
820.996	-0.34
821.168	-0.74
821.339	-0.39
821.51	-0.55
821.681	-0.64
821.852	-0.17
822.023	-0.36
822.195	-0.92
822.366	0.15
822.537	0.07
822.708	-0.02
822.879	-0.62
823.05	0.3
823.221	-0.8
823.392	0.09
823.563	-0.48
823.734	-0.48
823.905	-0.39
824.076	-0.44
824.247	-0.76
824.418	-0.68
824.589	0.61
824.759	-0.61
824.93	-0.41
825.101	-0.8
825.272	0.19
825.443	-0.18
825.614	0.48
825.784	-1.12
825.955	0.63
826.126	0.02
826.297	0.22
826.467	0.18
826.638	0.16
826.809	-1.1
826.98	-0.49
827.15	-0.08
827.321	-0.42
827.492	-0.11
827.662	-0.55
827.833	0.33
828.003	0.02
828.174	-0.45
828.345	-0.71
828.515	0.46
828.686	0.13
828.856	-0.52
829.027	0.04
829.197	0.56
829.368	-0.43
829.538	-0.77
829.709	-0.38
829.879	0.2
830.049	-0.07
830.22	-0.59
830.39	-0.38
830.56	0.06
830.731	-0.37
830.901	-0.21
831.072	-0.32
831.242	0.22
831.412	0.26
831.582	-0.33
831.753	-0.47
831.923	-0.19
832.093	-0.08
832.263	-0.24
832.434	-0.94
832.604	-0.4
832.774	0.24
832.944	-0.35
833.114	-0.66
833.284	-0.1
833.454	-0.87
833.624	-0.57
833.795	-1.21
833.965	0.24
834.135	0.69
834.305	-1.08
834.475	-1.1
834.645	-0.01
834.815	-0.99
834.985	-0.7
835.155	-0.54
835.325	-0.34
835.494	-0.13
835.664	-0.32
835.834	-0.81
836.004	-0.25
836.174	0.18
836.344	-0.08
836.514	-0.83
836.684	0.04
836.853	-0.47
837.023	-0.48
837.193	-0.09
837.363	0.29
837.532	0.59
837.702	-0.05
837.872	-0.88
838.041	1.29
838.211	0.55
838.381	-0.45
838.55	-0.36
838.72	0.72
838.89	0.6
839.059	-0.1
839.229	-0.71
839.398	1.27
839.568	-0.34
839.738	-0.55
839.907	0.5
840.077	-0.37
840.246	-0.7
840.416	-1.52
840.585	-1
840.755	0.39
840.924	0.02
841.093	-0.62
841.263	-0.53
841.432	-0.35
841.602	-1.02
841.771	-1.01
841.94	-0.6
842.11	1.22
842.279	0.81
842.448	-0.89
842.617	-1.45
842.787	0.93
842.956	-0.73
843.125	-0.06
843.294	0.6
843.464	0.17
843.633	0.6
843.802	-1.19
843.971	-0.09
844.14	0.13
844.309	0.01
844.479	-1.51
844.648	-1.35
844.817	-1.34
844.986	0.07
845.155	-0.8
845.324	-0.17
845.493	-0.22
845.662	-1.36
845.831	-0.07
846	0.37
846.169	-1.1
846.338	-0.08
846.507	0.48
846.676	0.49
846.844	0.24
847.013	-0.97
847.182	-0.09
847.351	-1.4
847.52	-1.09
847.689	-0.34
847.858	-0.37
848.026	-0.85
848.195	-0.25
848.364	-0.92
848.533	-0.79
848.701	-0.57
848.87	-0.63
849.039	-0.92
849.207	-0.21
849.376	0.98
849.545	0.37
849.713	-0.19
849.882	-0.91
850.051	-1.18
850.219	-0.07
850.388	-0.66
850.556	-0.63
850.725	-0.3
850.893	-0.35
851.062	-1.49
851.23	1.01
851.399	-1.55
851.567	-2.16
851.736	-0.8
851.904	-1.29
852.073	0.07
852.241	0.05
852.41	-0.79
852.578	-0.15
852.746	-0.95
852.915	-0.26
853.083	-0.76
853.251	-0.91
853.42	-0.47
853.588	-0.3
853.756	1.12
853.924	-0.31
854.093	-0.15
854.261	0.32
854.429	-2.08
854.597	-0.62
854.765	-1.38
854.934	0.27
855.102	0.09
855.27	-0.99
855.438	0.27
855.606	0.95
855.774	0.38
855.942	-2.16
856.11	-0.95
856.278	0.57
856.446	0.68
856.614	-0.65
856.782	-0.85
856.95	0.29
857.118	0.89
857.286	0.23
857.454	-1.35
857.622	-0.09
857.79	-0.6
857.958	-2.2
858.126	-0.97
858.294	-2.28
858.462	-1.27
858.629	-1.13
858.797	-2.02
858.965	-0.33
859.133	-0.15
859.301	-1.06
859.468	-0.89
859.636	-1.42
859.804	0.93
859.971	0.51
860.139	-0.05
860.307	1.2
860.474	-1.02
860.642	-1.6
860.81	-0.96
860.977	-0.82
861.145	0.37
861.313	-1.38
861.48	-0.68
861.648	0.12
861.815	-1
861.983	-1.66
862.15	-0.36
862.318	0.81
862.485	0.52
862.653	-1.31
862.82	-1.97
862.988	0.56
863.155	-1.27
863.322	-1.17
863.49	-2.45
863.657	-0.83
863.824	2.31
863.992	-0.71
864.159	0.4
864.326	0.3
864.494	-0.94
864.661	1.2
864.828	-2.11
864.996	1.78
865.163	0.76
865.33	-1.88
865.497	-2.66
865.664	-1.68
865.832	-1.71
865.999	-0.94
866.166	-2.38
866.333	-0.57
866.5	-3.3
866.667	-0.42
866.834	-0.5
867.001	0.33
867.168	-2.46
867.335	0.15
867.502	-2.92
867.669	-0.57
867.836	1.72
868.003	-0.18
868.17	0.31
868.337	1.55
868.504	0.81
868.671	-2.02
868.838	-1.82
869.005	-0.16
869.172	0.39
869.339	-1.05
869.505	-1.45
869.672	-1.55
869.839	1.38
870.006	-0.29
870.173	-3.63
870.339	0.11
870.506	1.12
870.673	-1.93
870.84	-1.25
871.006	0.36
871.173	-1.07
871.34	0.11
871.506	-2.99
871.673	1.87
871.839	-2.24
872.006	0.82
872.173	-1.45
872.339	-1.29
872.506	-0.28
872.672	0.33
872.839	-2.87
873.005	0.13
873.172	3.03
873.338	0.91
873.505	-0.59
873.671	0.64
873.838	0.64
874.004	-2.64
874.171	-2.14
874.337	1.74
874.503	1.03
874.67	-0.93
874.836	-1.05
875.002	2.8
875.169	0.29
875.335	0.24
875.501	-0.81
875.668	-1.38
875.834	2.18
876	-2.3
876.166	0.01
876.332	-0.07
876.499	3.14
876.665	-2.05
876.831	-0.7
876.997	1.92
877.163	-0.98
877.329	-0.84
877.495	-0.68
877.662	0.58
877.828	-0.57
877.994	0.4
878.16	-3.31
878.326	-2.24
878.492	-0.98
878.658	0.44
878.824	-0.32
878.99	-0.13
879.156	-2.09
879.322	1.02
879.487	-0.21
879.653	0.88
879.819	0.05
879.985	-1.32
880.151	0.43
880.317	0.07
880.483	-1.27
880.648	0.31
880.814	-3.32
880.98	0.63
881.146	-2.93
881.312	-1.15
881.477	-3.1
881.643	0.47
881.809	-0.17
881.974	1.43
882.14	-2.95
882.306	0.66
882.471	1.58
882.637	-1.13
882.803	1.46
882.968	2.43
883.134	2.84
883.299	-2.08
883.465	-0.49
883.63	-0.08
883.796	0.89
883.961	0.69
884.127	0.31
884.292	-4.79
884.458	-3.33
884.623	-3.32
