Data from Apollo_Calib_20240827__AbsoluteIrradiance__398__05-47-01-455.txt Node

Date: Wed Aug 28 05:47:01 BST 2024
User: biology
Spectrometer: FLMT08252
Trigger mode: 0
Integration Time (sec): 5.000000E-1
Scans to average: 5
Electric dark correction enabled: true
Nonlinearity correction enabled: false
Boxcar width: 0
XAxis mode: Wavelengths
Number of Pixels in Spectrum: 3648
>>>>>Begin Spectral Data<<<<<
179.588	-0
179.809	-0
180.03	-0
180.251	-0
180.473	-0
180.694	0
180.915	0
181.136	-0
181.357	0
181.578	-0
181.799	-0
182.02	-0
182.241	0
182.462	-0
182.683	0
182.904	-0
183.125	-0
183.346	0
183.567	0
183.788	0
184.009	-0
184.23	0
184.451	0
184.672	-0
184.892	-0
185.113	0
185.334	0
185.555	-0
185.776	-0
185.996	0
186.217	0
186.438	-0
186.659	-0
186.879	0
187.1	-0
187.321	-0
187.541	-0
187.762	-0
187.983	-0
188.203	0
188.424	0
188.644	0
188.865	0
189.086	-0
189.306	0
189.527	-0
189.747	0
189.968	-0
190.188	0
190.409	-0
190.629	0
190.849	-0
191.07	-0
191.29	0
191.511	0
191.731	-0
191.951	-0
192.172	-0
192.392	0
192.612	-0
192.833	-0
193.053	0
193.273	0
193.493	0
193.714	-0
193.934	0
194.154	0
194.374	0
194.594	-0
194.815	0
195.035	0
195.255	0
195.475	-0
195.695	0
195.915	0
196.135	-0
196.355	0
196.575	0
196.795	0
197.015	-0
197.235	-0
197.455	-0
197.675	0
197.895	-0
198.115	-0
198.335	0
198.555	-0
198.775	0
198.995	0
199.214	0
199.434	0
199.654	-0
199.874	-0
200.094	0.85
200.313	-0.25
200.533	-0.24
200.753	-0.43
200.973	1.48
201.192	0.46
201.412	-0.39
201.632	-0.49
201.851	1.01
202.071	-0.03
202.291	-0.41
202.51	-0.81
202.73	0.4
202.95	-0.07
203.169	-0.54
203.389	-0.13
203.608	0.2
203.828	-0.58
204.047	-0.23
204.267	0.37
204.486	-0.03
204.706	0.32
204.925	0.04
205.145	-0.36
205.364	0.36
205.583	0.4
205.803	0.01
206.022	-0.56
206.242	0.3
206.461	0.04
206.68	0
206.9	0.13
207.119	0.64
207.338	0.53
207.557	-0.18
207.777	-0.23
207.996	-0.22
208.215	0.56
208.434	-0.2
208.654	-0.19
208.873	0.23
209.092	0.75
209.311	-0.38
209.53	-0.09
209.749	-0.28
209.968	-0.17
210.187	-0.16
210.407	-0.53
210.626	0.04
210.845	0.24
211.064	0.05
211.283	-0.12
211.502	0.25
211.721	-0.03
211.94	0.07
212.159	-0.15
212.377	0.02
212.596	0.18
212.815	-0
213.034	0.23
213.253	-0.04
213.472	0.01
213.691	-0.13
213.91	-0.28
214.128	-0.06
214.347	0.39
214.566	-0.36
214.785	-0.2
215.003	0.28
215.222	-0.08
215.441	-0.03
215.66	-0.16
215.878	0.12
216.097	0.31
216.316	-0.16
216.534	0.12
216.753	0.09
216.972	0.07
217.19	-0.09
217.409	-0.31
217.627	-0.15
217.846	-0.17
218.064	0.15
218.283	-0.12
218.501	0.47
218.72	0.27
218.938	-0.17
219.157	-0.14
219.375	0.22
219.594	0.16
219.812	-0.25
220.031	-0.25
220.249	0.28
220.467	0.42
220.686	-0.17
220.904	-0.2
221.122	-0.09
221.341	0.33
221.559	-0.03
221.777	-0.19
221.995	0.21
222.214	0.14
222.432	-0.11
222.65	0.24
222.868	0.17
223.086	0.01
223.305	0.13
223.523	0.07
223.741	0.23
223.959	0.03
224.177	-0.24
224.395	-0.07
224.613	0
224.831	0.28
225.049	-0.09
225.267	-0.13
225.485	0.06
225.703	-0.11
225.921	0.04
226.139	-0.02
226.357	0.18
226.575	0.05
226.793	-0.09
227.011	0.54
227.229	0.06
227.447	0.21
227.665	-0.25
227.883	-0.25
228.1	0.03
228.318	-0.04
228.536	-0.3
228.754	-0.17
228.972	0.05
229.189	0.16
229.407	0.04
229.625	-0.02
229.843	0.15
230.06	0.14
230.278	-0.1
230.496	-0.06
230.713	0.06
230.931	0.12
231.149	0.04
231.366	-0.13
231.584	0.1
231.801	0.29
232.019	-0.06
232.236	-0.22
232.454	-0.1
232.671	0.08
232.889	-0.1
233.106	-0.1
233.324	0.04
233.541	-0.05
233.759	0.03
233.976	0.03
234.194	0.01
234.411	-0.07
234.628	-0.05
234.846	-0.09
235.063	0.02
235.28	0.04
235.498	0.01
235.715	-0.11
235.932	0.1
236.149	0.09
236.367	-0.04
236.584	0.03
236.801	0.02
237.018	0.2
237.236	0.06
237.453	-0.17
237.67	0.05
237.887	-0
238.104	-0.06
238.321	-0.05
238.538	-0.03
238.755	0.03
238.973	-0.16
239.19	0.07
239.407	0.06
239.624	0.13
239.841	-0.03
240.058	-0.12
240.275	0.02
240.492	-0.02
240.709	0.01
240.925	-0.01
241.142	-0.03
241.359	-0.17
241.576	-0.04
241.793	-0.04
242.01	-0.03
242.227	0.11
242.444	0.08
242.66	0.16
242.877	0.03
243.094	-0.02
243.311	0.05
243.527	-0.05
243.744	0.02
243.961	0.01
244.178	-0.08
244.394	-0.04
244.611	0.17
244.828	0.13
245.044	-0.04
245.261	-0.03
245.477	0.1
245.694	0.12
245.911	-0.03
246.127	0.04
246.344	0.14
246.56	0
246.777	-0.06
246.993	0.03
247.21	0.06
247.426	0.05
247.643	-0.01
247.859	-0.11
248.076	-0.02
248.292	0.25
248.508	0.05
248.725	0.05
248.941	0.05
249.157	0.09
249.374	-0.11
249.59	-0.07
249.806	0.08
250.023	0.07
250.239	-0.07
250.455	-0.13
250.671	-0.01
250.888	0.1
251.104	0.08
251.32	0.01
251.536	0.07
251.752	-0.06
251.969	0.13
252.185	-0.01
252.401	0.15
252.617	0.05
252.833	-0.05
253.049	-0.03
253.265	0.02
253.481	0.05
253.697	-0.05
253.913	-0.06
254.129	-0.02
254.345	0.04
254.561	0.03
254.777	-0.02
254.993	0.15
255.209	-0.01
255.425	0.01
255.641	-0.01
255.857	0.13
256.073	0.04
256.288	-0.1
256.504	-0.04
256.72	0.05
256.936	0.17
257.152	-0.03
257.367	-0.07
257.583	0.04
257.799	0.07
258.015	-0.01
258.23	-0.06
258.446	0.11
258.662	0.03
258.877	-0.02
259.093	-0.17
259.309	-0.03
259.524	0.01
259.74	0.02
259.955	-0.1
260.171	0.03
260.387	-0.01
260.602	0.08
260.818	0.05
261.033	-0.04
261.249	-0.06
261.464	-0.01
261.68	-0.09
261.895	0.02
262.11	0.1
262.326	-0.02
262.541	-0.07
262.757	0.12
262.972	0.03
263.187	0.03
263.403	-0.03
263.618	0.08
263.833	0.03
264.049	-0.08
264.264	-0.06
264.479	0.06
264.694	0.09
264.91	-0.08
265.125	-0.04
265.34	0.14
265.555	0.16
265.77	0.06
265.986	0.01
266.201	0
266.416	0.11
266.631	-0.04
266.846	-0.04
267.061	0.06
267.276	0.12
267.491	-0.12
267.706	0.05
267.921	0.1
268.136	0.05
268.351	0.02
268.566	-0.1
268.781	0.13
268.996	0.08
269.211	-0.02
269.426	-0.11
269.641	0.04
269.856	0.06
270.071	-0.07
270.285	-0.07
270.5	0.04
270.715	0.12
270.93	-0.01
271.145	0
271.359	0.06
271.574	0
271.789	0.02
272.004	-0.05
272.218	-0.03
272.433	0.05
272.648	-0.04
272.862	0.09
273.077	-0.01
273.292	0
273.506	-0.07
273.721	0.01
273.936	0.06
274.15	0.11
274.365	-0.02
274.579	0.05
274.794	0.07
275.008	0.07
275.223	-0.01
275.437	0.02
275.652	0.06
275.866	0.07
276.081	0.01
276.295	0.06
276.509	0.02
276.724	0.05
276.938	0.07
277.153	0.02
277.367	0.05
277.581	0.02
277.796	-0.07
278.01	-0.05
278.224	0.06
278.438	0.14
278.653	-0.09
278.867	-0.02
279.081	-0.19
279.295	-0.01
279.51	0.08
279.724	-0.04
279.938	0.11
280.152	0.07
280.366	-0.03
280.58	0.05
280.794	0.09
281.008	0.05
281.222	0.1
281.437	0.11
281.651	0.08
281.865	0.14
282.079	0.01
282.293	-0.11
282.507	-0.01
282.721	0.02
282.935	0.03
283.148	-0.12
283.362	0.04
283.576	-0.07
283.79	-0.01
284.004	-0.05
284.218	0.09
284.432	-0.04
284.646	0.01
284.859	-0.04
285.073	-0.02
285.287	-0
285.501	0.06
285.714	-0.01
285.928	0.03
286.142	0.04
286.356	-0.06
286.569	-0.03
286.783	0.08
286.997	0.08
287.21	-0.03
287.424	0.06
287.637	-0
287.851	-0.01
288.065	0.12
288.278	0.01
288.492	0.03
288.705	-0.01
288.919	0.03
289.132	-0.08
289.346	0.08
289.559	-0.04
289.773	-0.07
289.986	-0.02
290.2	0.02
290.413	0.02
290.626	-0.01
290.84	0.02
291.053	0.05
291.267	0.11
291.48	0.04
291.693	0.03
291.906	-0.01
292.12	-0
292.333	-0
292.546	-0.03
292.76	0.09
292.973	0.03
293.186	0
293.399	-0.04
293.612	0.07
293.826	0.01
294.039	0.04
294.252	0.03
294.465	0.08
294.678	0
294.891	0.05
295.104	0
295.317	-0.03
295.53	0.07
295.743	0
295.956	0.05
296.169	0.08
296.382	0.06
296.595	0.03
296.808	-0.08
297.021	0.06
297.234	0.04
297.447	0.01
297.66	0.04
297.873	0.03
298.086	0.05
298.299	-0.01
298.511	-0.02
298.724	0.01
298.937	-0.05
299.15	0.01
299.363	-0.01
299.575	-0.01
299.788	0.03
300.001	0.01
300.213	-0.03
300.426	0.02
300.639	-0.01
300.852	-0.03
301.064	0.1
301.277	0.06
301.489	0.03
301.702	0.08
301.915	0.04
302.127	0.03
302.34	0.03
302.552	0.08
302.765	0.02
302.977	0.06
303.19	0
303.402	-0
303.615	-0.01
303.827	-0
304.04	-0
304.252	0.03
304.464	0.02
304.677	0.1
304.889	0.01
305.102	-0
305.314	-0.03
305.526	0.06
305.739	0.06
305.951	0
306.163	0
306.375	0.1
306.588	-0.03
306.8	-0.02
307.012	-0.01
307.224	0.01
307.436	0.05
307.649	-0.04
307.861	-0
308.073	0.03
308.285	0
308.497	-0.02
308.709	-0.01
308.921	0.04
309.133	0.06
309.346	-0.03
309.558	0.01
309.77	0.03
309.982	0.06
310.194	0.06
310.406	-0.02
310.617	0.11
310.829	0.05
311.041	0.06
311.253	-0.01
311.465	-0.01
311.677	0.01
311.889	0.03
312.101	-0.04
312.313	0.08
312.524	0.04
312.736	-0.02
312.948	0.02
313.16	0.11
313.372	0.09
313.583	0.03
313.795	-0.01
314.007	-0.03
314.218	0.04
314.43	0.04
314.642	0
314.853	-0.09
315.065	0.06
315.277	0.03
315.488	0.04
315.7	0.06
315.912	0.03
316.123	0.02
316.335	-0.01
316.546	0.1
316.758	0
316.969	0
317.181	0.03
317.392	0.02
317.604	0.08
317.815	-0.04
318.026	0.01
318.238	-0.01
318.449	0.02
318.661	-0.01
318.872	-0.02
319.083	-0.03
319.295	0.06
319.506	-0.04
319.717	0.03
319.929	0.08
320.14	-0.01
320.351	0.02
320.562	-0.02
320.774	-0.01
320.985	0.02
321.196	-0.06
321.407	-0.09
321.618	0.02
321.829	0.03
322.041	0.02
322.252	0
322.463	0.03
322.674	0.02
322.885	-0.04
323.096	-0.02
323.307	-0.01
323.518	0.01
323.729	-0.05
323.94	0.02
324.151	0.01
324.362	0.05
324.573	0.02
324.784	-0.05
324.995	0.06
325.206	0.07
325.417	-0.01
325.628	-0.01
325.838	0.05
326.049	0.05
326.26	0.06
326.471	0.04
326.682	0.03
326.892	0.01
327.103	-0.06
327.314	-0.02
327.525	0.11
327.735	-0.01
327.946	0.02
328.157	-0.04
328.368	0.07
328.578	0.03
328.789	0.04
328.999	0.02
329.21	0
329.421	0.04
329.631	-0.04
329.842	-0.02
330.052	0.04
330.263	0.01
330.473	0.05
330.684	0.02
330.894	0.01
331.105	0.04
331.315	0.02
331.526	-0.02
331.736	0.09
331.947	0.06
332.157	0.06
332.367	-0.04
332.578	0.03
332.788	0.03
332.999	0.05
333.209	-0.03
333.419	-0.06
333.629	0.01
333.84	0.09
334.05	0.01
334.26	0.05
334.47	0
334.681	0.08
334.891	-0.01
335.101	0.04
335.311	0.11
335.521	-0
335.732	-0.01
335.942	0.07
336.152	0.06
336.362	0.04
336.572	0.03
336.782	0.05
336.992	0.04
337.202	-0.01
337.412	-0.01
337.622	-0
337.832	0.02
338.042	-0.01
338.252	-0
338.462	0.02
338.672	0.05
338.882	0.04
339.092	-0.02
339.302	0.07
339.511	0.05
339.721	-0
339.931	-0.01
340.141	0.07
340.351	0.06
340.561	0.03
340.77	0.06
340.98	0.02
341.19	0.03
341.4	-0.04
341.609	-0.04
341.819	0
342.029	-0.06
342.238	0.01
342.448	-0.04
342.658	0.04
342.867	0.04
343.077	0
343.286	0.03
343.496	0.04
343.706	0.11
343.915	-0.03
344.125	0.03
344.334	0.01
344.544	-0.06
344.753	-0.01
344.963	-0.04
345.172	0.01
345.381	-0.03
345.591	-0.04
345.8	0.02
346.01	0.09
346.219	0.05
346.428	-0.07
346.638	-0
346.847	0.02
347.056	0.08
347.266	-0.02
347.475	0.03
347.684	0.05
347.893	0.04
348.103	0.05
348.312	-0.03
348.521	0.04
348.73	-0
348.94	0.01
349.149	-0
349.358	0.03
349.567	-0.03
349.776	-0.02
349.985	-0.02
350.194	0.04
350.403	0.07
350.612	-0.06
350.821	0.03
351.03	0.01
351.239	-0.01
351.448	0.03
351.657	-0.03
351.866	0.12
352.075	0.01
352.284	0.06
352.493	-0.02
352.702	0.06
352.911	0.07
353.12	0.01
353.329	-0.01
353.538	0.01
353.746	0.02
353.955	0.02
354.164	0.03
354.373	-0
354.582	0.03
354.79	0.02
354.999	0.02
355.208	0.01
355.416	0.09
355.625	-0.06
355.834	-0.02
356.042	0.05
356.251	0.02
356.46	-0.05
356.668	0.03
356.877	0.13
357.085	0.04
357.294	-0.08
357.503	0.01
357.711	0.02
357.92	0.15
358.128	0.01
358.337	-0
358.545	0.03
358.754	-0
358.962	0.06
359.17	-0.03
359.379	0.04
359.587	0.05
359.796	0.06
360.004	0.07
360.212	0.06
360.421	0.05
360.629	0.01
360.837	-0.01
361.046	0.04
361.254	0.11
361.462	0.02
361.67	-0.02
361.879	0.03
362.087	0.06
362.295	-0
362.503	0.01
362.711	-0.03
362.92	0.02
363.128	0.02
363.336	-0.03
363.544	-0.04
363.752	-0.01
363.96	-0.02
364.168	-0.01
364.376	0.01
364.584	0.06
364.792	0.06
365	0.07
365.208	0.02
365.416	0.03
365.624	0.05
365.832	0.01
366.04	0.05
366.248	0.06
366.456	0.03
366.664	0.04
366.872	0.03
367.079	0.03
367.287	0.01
367.495	0.01
367.703	0
367.911	0.02
368.118	0.04
368.326	0.01
368.534	-0.03
368.742	0.11
368.949	-0.03
369.157	-0
369.365	0.04
369.572	-0.01
369.78	-0.05
369.988	0.05
370.195	0.04
370.403	0.06
370.61	0
370.818	0.03
371.026	0.04
371.233	-0
371.441	0.04
371.648	-0.02
371.856	-0.01
372.063	0.03
372.271	-0.01
372.478	-0
372.685	-0.02
372.893	0.06
373.1	0.04
373.308	-0.02
373.515	0.08
373.722	0.08
373.93	-0.02
374.137	0.04
374.344	0.11
374.552	0.03
374.759	0.05
374.966	-0.04
375.173	-0.04
375.381	0.07
375.588	-0.02
375.795	-0.07
376.002	-0.01
376.209	-0.05
376.417	0.01
376.624	0.02
376.831	0.04
377.038	0.02
377.245	-0.02
377.452	-0
377.659	0.02
377.866	0.04
378.073	0.03
378.28	-0.01
378.487	0.06
378.694	0.08
378.901	-0.03
379.108	0.02
379.315	0.07
379.522	0.1
379.729	0.03
379.936	-0.03
380.143	0.04
380.35	0.04
380.557	0
380.763	0.03
380.97	0.03
381.177	0.02
381.384	0.05
381.591	-0.04
381.797	0.04
382.004	-0.01
382.211	0.03
382.418	-0.01
382.624	0.05
382.831	0.07
383.038	-0.01
383.244	0.01
383.451	0.04
383.658	0.04
383.864	-0
384.071	-0.02
384.277	0.07
384.484	-0.01
384.69	0.04
384.897	-0.04
385.103	-0.03
385.31	-0.02
385.516	-0.01
385.723	0
385.929	0.02
386.136	-0.04
386.342	0.04
386.549	0.01
386.755	0.06
386.961	0.03
387.168	-0
387.374	0.01
387.58	0.02
387.787	0.03
387.993	0.03
388.199	0.02
388.406	-0.01
388.612	0.02
388.818	-0.03
389.024	-0.01
389.231	0.04
389.437	0.07
389.643	0.01
389.849	0.03
390.055	0.03
390.261	0.02
390.467	0.05
390.674	-0.04
390.88	-0.01
391.086	0.03
391.292	-0.02
391.498	0.1
391.704	0.01
391.91	-0
392.116	0
392.322	-0.06
392.528	0.02
392.734	0.02
392.94	0.02
393.146	-0.04
393.352	0.05
393.557	0.02
393.763	0.04
393.969	-0
394.175	0.03
394.381	-0
394.587	-0.05
394.792	0.02
394.998	0.04
395.204	0.09
395.41	-0.01
395.615	0.04
395.821	0.06
396.027	0.05
396.233	-0.06
396.438	0.04
396.644	0.11
396.85	0.07
397.055	0.03
397.261	0.05
397.466	-0.02
397.672	0.05
397.878	0.04
398.083	0.03
398.289	-0.02
398.494	0.08
398.7	0.03
398.905	-0.1
399.111	0.07
399.316	-0.05
399.522	-0
399.727	-0.03
399.932	0.01
400.138	0.04
400.343	0.1
400.549	0.04
400.754	0.01
400.959	-0
401.165	0.03
401.37	0.02
401.575	0.12
401.78	-0
401.986	0
402.191	-0.01
402.396	0.01
402.601	0.06
402.807	0.04
403.012	-0.01
403.217	0.04
403.422	-0.01
403.627	0.03
403.832	-0.01
404.037	0.04
404.243	-0.01
404.448	-0.02
404.653	-0
404.858	0.02
405.063	0.06
405.268	0.01
405.473	0.01
405.678	0
405.883	0.18
406.088	0.06
406.293	-0.01
406.498	-0.02
406.703	0.05
406.907	0.02
407.112	-0.02
407.317	0.02
407.522	0.04
407.727	-0.05
407.932	0.08
408.136	0.07
408.341	0.01
408.546	0.02
408.751	-0
408.956	-0.02
409.16	0.07
409.365	0
409.57	0.01
409.774	0.02
409.979	0.03
410.184	0.06
410.388	-0.03
410.593	0.1
410.798	0.02
411.002	-0.01
411.207	0.08
411.411	0.05
411.616	-0.06
411.82	0.04
412.025	0.03
412.229	-0.03
412.434	0.1
412.638	0.03
412.843	0.01
413.047	0.05
413.252	-0.02
413.456	0.01
413.66	0.09
413.865	-0.03
414.069	0.06
414.273	-0.02
414.478	0.01
414.682	-0
414.886	-0.01
415.091	-0.01
415.295	-0.04
415.499	0.02
415.703	0.03
415.908	0
416.112	-0.12
416.316	0.06
416.52	0.04
416.724	0
416.929	-0.01
417.133	0.1
417.337	0.02
417.541	-0.05
417.745	0.01
417.949	0.05
418.153	0.08
418.357	-0.01
418.561	0.06
418.765	0.02
418.969	0.14
419.173	0.02
419.377	-0.04
419.581	0.11
419.785	0.02
419.989	-0.08
420.193	0.01
420.397	-0.04
420.601	0.06
420.804	0.07
421.008	-0
421.212	0.1
421.416	0.05
421.62	0.01
421.823	-0
422.027	0.12
422.231	0.05
422.435	0.01
422.638	0.08
422.842	0.03
423.046	0.02
423.249	0.08
423.453	0.04
423.657	0.03
423.86	0.02
424.064	0.05
424.268	0.06
424.471	0.04
424.675	0.1
424.878	0.1
425.082	0.05
425.285	0.07
425.489	0.01
425.692	0.05
425.896	-0.04
426.099	0.06
426.303	-0.04
426.506	-0.03
426.71	0.02
426.913	0.08
427.116	0.13
427.32	0.02
427.523	0.01
427.726	0.12
427.93	-0.05
428.133	0.01
428.336	0
428.54	-0.02
428.743	0.04
428.946	0.05
429.149	-0.01
429.353	0.04
429.556	-0
429.759	-0
429.962	-0.04
430.165	0.03
430.368	0.02
430.571	0.02
430.775	0.05
430.978	0.04
431.181	0.06
431.384	0.05
431.587	-0.01
431.79	0.03
431.993	0.03
432.196	0.03
432.399	0.01
432.602	0.1
432.805	-0.03
433.008	0.01
433.211	-0.02
433.414	0.04
433.616	0.06
433.819	0.01
434.022	-0.08
434.225	0.14
434.428	0.05
434.631	0.11
434.833	0.04
435.036	0.01
435.239	0.1
435.442	0.06
435.645	-0.03
435.847	0.04
436.05	0.07
436.253	0.04
436.455	-0.04
436.658	0.02
436.861	0.12
437.063	0.01
437.266	-0.02
437.468	0.05
437.671	0.22
437.874	0.03
438.076	-0.03
438.279	-0.01
438.481	0.06
438.684	-0.01
438.886	0.06
439.089	-0.03
439.291	0.05
439.494	0.05
439.696	0.02
439.899	0.03
440.101	0.06
440.303	-0.04
440.506	0.04
440.708	-0.01
440.91	0.04
441.113	0.03
441.315	0.05
441.517	-0.01
441.72	0.08
441.922	0.01
442.124	-0.01
442.326	0.08
442.529	0.08
442.731	-0.03
442.933	0.12
443.135	0.01
443.337	0.07
443.539	0.02
443.742	0.01
443.944	0.03
444.146	-0.01
444.348	0
444.55	-0.02
444.752	0.02
444.954	-0.03
445.156	0.09
445.358	-0.03
445.56	0.07
445.762	0.01
445.964	0.04
446.166	-0.02
446.368	0.06
446.57	0.12
446.772	0.04
446.974	0.01
447.175	0.04
447.377	-0
447.579	-0.02
447.781	-0.03
447.983	0.07
448.184	0
448.386	0.05
448.588	-0.02
448.79	0.02
448.991	0
449.193	0.03
449.395	0.07
449.597	0.07
449.798	0.06
450	0.05
450.202	-0
450.403	0.02
450.605	0.06
450.806	0.02
451.008	0
451.21	0.05
451.411	0.07
451.613	0.04
451.814	0.04
452.016	0.09
452.217	0.05
452.419	0.08
452.62	0.06
452.821	0.06
453.023	0.1
453.224	0.06
453.426	0.05
453.627	0.04
453.828	0.09
454.03	0.06
454.231	0.07
454.432	0.01
454.634	0.12
454.835	0.06
455.036	-0.03
455.238	0.1
455.439	0.1
455.64	-0
455.841	0
456.042	0.08
456.244	0.07
456.445	0.03
456.646	-0.06
456.847	0.03
457.048	0.13
457.249	0.08
457.45	0.3
457.651	-0.02
457.852	0.1
458.054	0.05
458.255	0.04
458.456	0.07
458.657	0.09
458.858	0.03
459.058	0.03
459.259	0.07
459.46	0.03
459.661	0.03
459.862	0.17
460.063	0.03
460.264	0.08
460.465	-0.03
460.666	0.15
460.866	0.05
461.067	0.06
461.268	0.07
461.469	-0
461.67	0.07
461.87	0.04
462.071	-0.05
462.272	-0
462.473	0.06
462.673	0.07
462.874	0.01
463.075	0.03
463.275	-0.02
463.476	0.06
463.676	0.06
463.877	0.07
464.078	0.01
464.278	0.07
464.479	0.02
464.679	0.04
464.88	0.03
465.08	0.11
465.281	-0.02
465.481	0.04
465.682	0.03
465.882	0.06
466.083	0.03
466.283	0
466.483	0.06
466.684	-0.01
466.884	0.02
467.085	0.01
467.285	0.13
467.485	0.01
467.686	0.04
467.886	0.02
468.086	0.02
468.286	0.11
468.487	0.08
468.687	-0.02
468.887	0.05
469.087	0.04
469.287	0.04
469.488	0.01
469.688	0.09
469.888	0.06
470.088	0.09
470.288	0.11
470.488	0.1
470.688	0.02
470.888	0.06
471.088	-0.03
471.288	0.06
471.488	0.09
471.688	0.07
471.888	0.03
472.088	0.1
472.288	0.1
472.488	0.01
472.688	0.04
472.888	0.05
473.088	0.05
473.288	0.07
473.488	0.04
473.688	0.17
473.887	0.05
474.087	0.03
474.287	0.1
474.487	0.05
474.687	0.1
474.886	0.04
475.086	0.06
475.286	0.07
475.486	0.07
475.685	0.07
475.885	0.09
476.085	0.08
476.284	0.1
476.484	0.02
476.684	0.1
476.883	0.12
477.083	0.1
477.282	0.02
477.482	0.13
477.681	0.14
477.881	0.09
478.08	0.08
478.28	0.04
478.479	0.07
478.679	0.19
478.878	0.08
479.078	0.09
479.277	0.08
479.477	0.05
479.676	0.11
479.875	0.07
480.075	0.04
480.274	0.08
480.473	0.09
480.673	0.07
480.872	0.16
481.071	0.11
481.271	0.12
481.47	0.08
481.669	0.08
481.868	0.06
482.067	0.07
482.267	0.09
482.466	0.07
482.665	0.09
482.864	0.06
483.063	0.08
483.262	0.11
483.461	0.16
483.661	0.14
483.86	0.13
484.059	0.14
484.258	0.12
484.457	0.12
484.656	0.11
484.855	0.18
485.054	0.09
485.253	0.09
485.452	0.1
485.651	0.15
485.849	0.18
486.048	0.13
486.247	0.13
486.446	0.17
486.645	0.11
486.844	0.09
487.043	0.13
487.241	0.2
487.44	0.14
487.639	0.14
487.838	0.19
488.037	0.2
488.235	0.24
488.434	0.2
488.633	0.18
488.831	0.23
489.03	0.23
489.229	0.19
489.427	0.18
489.626	0.22
489.825	0.24
490.023	0.21
490.222	0.19
490.42	0.25
490.619	0.26
490.817	0.24
491.016	0.2
491.214	0.26
491.413	0.24
491.611	0.23
491.81	0.26
492.008	0.28
492.207	0.29
492.405	0.28
492.604	0.25
492.802	0.3
493	0.3
493.199	0.28
493.397	0.31
493.595	0.33
493.794	0.32
493.992	0.39
494.19	0.33
494.388	0.37
494.587	0.35
494.785	0.4
494.983	0.34
495.181	0.38
495.379	0.38
495.578	0.4
495.776	0.43
495.974	0.43
496.172	0.41
496.37	0.42
496.568	0.4
496.766	0.45
496.964	0.49
497.162	0.47
497.36	0.47
497.558	0.5
497.756	0.54
497.954	0.55
498.152	0.51
498.35	0.56
498.548	0.55
498.746	0.55
498.944	0.59
499.142	0.61
499.34	0.58
499.538	0.65
499.736	0.62
499.933	0.69
500.131	0.71
500.329	0.7
500.527	0.73
500.725	0.78
500.922	0.78
501.12	0.8
501.318	0.81
501.516	0.81
501.713	0.82
501.911	0.83
502.109	0.83
502.306	0.92
502.504	0.86
502.701	0.91
502.899	0.93
503.097	1.08
503.294	1
503.492	1.05
503.689	1.08
503.887	1.08
504.084	1.15
504.282	1.13
504.479	1.09
504.677	1.19
504.874	1.17
505.072	1.18
505.269	1.21
505.466	1.29
505.664	1.31
505.861	1.31
506.059	1.33
506.256	1.42
506.453	1.39
506.651	1.5
506.848	1.51
507.045	1.53
507.242	1.52
507.44	1.61
507.637	1.59
507.834	1.62
508.031	1.69
508.229	1.68
508.426	1.7
508.623	1.79
508.82	1.79
509.017	1.79
509.214	1.85
509.411	1.92
509.608	1.93
509.805	2
510.003	1.97
510.2	2.04
510.397	2.17
510.594	2.08
510.791	2.16
510.988	2.23
511.184	2.23
511.381	2.24
511.578	2.29
511.775	2.44
511.972	2.36
512.169	2.44
512.366	2.48
512.563	2.57
512.76	2.54
512.956	2.65
513.153	2.65
513.35	2.66
513.547	2.66
513.744	2.71
513.94	2.75
514.137	2.88
514.334	2.83
514.53	2.89
514.727	3.06
514.924	3.04
515.12	3
515.317	3.05
515.514	3.05
515.71	3.08
515.907	3.24
516.103	3.26
516.3	3.18
516.497	3.34
516.693	3.36
516.89	3.39
517.086	3.38
517.283	3.44
517.479	3.42
517.676	3.48
517.872	3.56
518.068	3.55
518.265	3.56
518.461	3.59
518.658	3.65
518.854	3.66
519.05	3.71
519.247	3.72
519.443	3.72
519.639	3.85
519.836	3.71
520.032	3.77
520.228	3.84
520.424	3.86
520.621	3.85
520.817	3.92
521.013	3.82
521.209	3.99
521.405	3.98
521.601	3.95
521.798	3.93
521.994	3.95
522.19	3.89
522.386	3.94
522.582	3.95
522.778	4.06
522.974	3.97
523.17	3.98
523.366	3.94
523.562	4.01
523.758	3.92
523.954	3.9
524.15	3.98
524.346	4.01
524.542	4
524.738	3.91
524.934	4.03
525.129	3.98
525.325	3.93
525.521	3.9
525.717	4
525.913	3.89
526.109	3.86
526.304	3.89
526.5	3.87
526.696	3.95
526.892	3.81
527.087	3.9
527.283	3.78
527.479	3.75
527.674	3.65
527.87	3.69
528.066	3.68
528.261	3.71
528.457	3.61
528.653	3.64
528.848	3.61
529.044	3.62
529.239	3.49
529.435	3.52
529.63	3.45
529.826	3.49
530.021	3.44
530.217	3.49
530.412	3.35
530.608	3.34
530.803	3.32
530.999	3.26
531.194	3.21
531.389	3.21
531.585	3.21
531.78	3.21
531.975	3.13
532.171	3.14
532.366	3.13
532.561	3.08
532.757	3.01
532.952	3.04
533.147	2.95
533.342	2.93
533.538	2.85
533.733	2.96
533.928	2.75
534.123	2.81
534.318	2.75
534.513	2.69
534.709	2.75
534.904	2.69
535.099	2.71
535.294	2.65
535.489	2.66
535.684	2.59
535.879	2.53
536.074	2.53
536.269	2.47
536.464	2.54
536.659	2.44
536.854	2.4
537.049	2.41
537.244	2.36
537.439	2.3
537.634	2.33
537.828	2.28
538.023	2.28
538.218	2.21
538.413	2.18
538.608	2.12
538.803	2.15
538.997	2.1
539.192	2.11
539.387	2.05
539.582	2.06
539.776	2.04
539.971	2.02
540.166	2.02
540.36	1.9
540.555	1.95
540.75	1.94
540.944	1.9
541.139	1.86
541.334	1.84
541.528	1.84
541.723	1.85
541.917	1.77
542.112	1.72
542.306	1.7
542.501	1.72
542.695	1.7
542.89	1.66
543.084	1.7
543.279	1.67
543.473	1.64
543.668	1.65
543.862	1.62
544.056	1.6
544.251	1.58
544.445	1.6
544.64	1.57
544.834	1.48
545.028	1.43
545.222	1.49
545.417	1.49
545.611	1.46
545.805	1.46
546	1.38
546.194	1.4
546.388	1.38
546.582	1.35
546.776	1.35
546.97	1.32
547.165	1.33
547.359	1.32
547.553	1.27
547.747	1.28
547.941	1.3
548.135	1.24
548.329	1.24
548.523	1.22
548.717	1.17
548.911	1.16
549.105	1.16
549.299	1.17
549.493	1.14
549.687	1.1
549.881	1.11
550.075	1.1
550.269	1.04
550.463	1.09
550.657	1.03
550.85	1.03
551.044	0.99
551.238	1
551.432	0.97
551.626	0.97
551.82	0.97
552.013	0.92
552.207	0.96
552.401	0.92
552.594	0.91
552.788	0.91
552.982	0.89
553.176	0.83
553.369	0.91
553.563	0.87
553.756	0.83
553.95	0.84
554.144	0.82
554.337	0.85
554.531	0.77
554.724	0.82
554.918	0.8
555.111	0.8
555.305	0.76
555.498	0.78
555.692	0.76
555.885	0.72
556.079	0.74
556.272	0.67
556.466	0.71
556.659	0.7
556.852	0.67
557.046	0.63
557.239	0.65
557.432	0.63
557.626	0.6
557.819	0.63
558.012	0.64
558.206	0.64
558.399	0.57
558.592	0.59
558.785	0.56
558.979	0.6
559.172	0.57
559.365	0.6
559.558	0.57
559.751	0.57
559.944	0.53
560.138	0.54
560.331	0.5
560.524	0.48
560.717	0.51
560.91	0.52
561.103	0.49
561.296	0.48
561.489	0.5
561.682	0.48
561.875	0.49
562.068	0.51
562.261	0.46
562.454	0.47
562.647	0.43
562.84	0.46
563.032	0.43
563.225	0.43
563.418	0.4
563.611	0.41
563.804	0.4
563.997	0.37
564.19	0.34
564.382	0.4
564.575	0.38
564.768	0.38
564.961	0.35
565.153	0.34
565.346	0.4
565.539	0.4
565.731	0.39
565.924	0.37
566.117	0.38
566.309	0.33
566.502	0.31
566.695	0.32
566.887	0.32
567.08	0.29
567.272	0.32
567.465	0.29
567.657	0.3
567.85	0.34
568.042	0.29
568.235	0.34
568.427	0.28
568.62	0.31
568.812	0.31
569.005	0.3
569.197	0.26
569.389	0.29
569.582	0.29
569.774	0.28
569.966	0.23
570.159	0.22
570.351	0.25
570.543	0.24
570.736	0.26
570.928	0.22
571.12	0.25
571.312	0.23
571.505	0.21
571.697	0.28
571.889	0.19
572.081	0.24
572.273	0.21
572.465	0.26
572.658	0.23
572.85	0.23
573.042	0.2
573.234	0.21
573.426	0.24
573.618	0.17
573.81	0.24
574.002	0.25
574.194	0.24
574.386	0.18
574.578	0.12
574.77	0.18
574.962	0.17
575.154	0.15
575.346	0.17
575.538	0.2
575.729	0.15
575.921	0.17
576.113	0.2
576.305	0.19
576.497	0.18
576.689	0.16
576.88	0.16
577.072	0.22
577.264	0.16
577.456	0.14
577.647	0.09
577.839	0.15
578.031	0.2
578.223	0.12
578.414	0.13
578.606	0.16
578.798	0.17
578.989	0.14
579.181	0.14
579.372	0.15
579.564	0.12
579.755	0.14
579.947	0.12
580.139	0.14
580.33	0.09
580.522	0.12
580.713	0.05
580.905	0.12
581.096	0.15
581.287	0.14
581.479	0.12
581.67	0.13
581.862	0.1
582.053	0.1
582.244	0.08
582.436	0.1
582.627	0.11
582.818	0.09
583.01	0.09
583.201	0.13
583.392	0.13
583.583	0.1
583.775	0.07
583.966	0.09
584.157	0.07
584.348	0.13
584.54	0.08
584.731	0.1
584.922	0.12
585.113	0.08
585.304	0.11
585.495	0.12
585.686	0.1
585.877	0.1
586.068	0.09
586.259	0.1
586.45	0.1
586.641	0.07
586.832	0.06
587.023	0.08
587.214	0.09
587.405	0.1
587.596	0.06
587.787	0.11
587.978	0.08
588.169	0.06
588.36	0.04
588.551	0.1
588.742	0.09
588.932	0.09
589.123	0.07
589.314	0.11
589.505	0.09
589.696	0.07
589.886	0.05
590.077	0.05
590.268	0.07
590.458	0.03
590.649	0.02
590.84	0.12
591.03	0.02
591.221	0.03
591.412	0.03
591.602	0.1
591.793	0.12
591.984	0.05
592.174	0.04
592.365	0.14
592.555	0.04
592.746	0.07
592.936	0.05
593.127	0.07
593.317	0.1
593.508	0.05
593.698	0.03
593.889	0.05
594.079	0.09
594.269	0.04
594.46	0.05
594.65	0.06
594.84	0.05
595.031	0.04
595.221	0.03
595.411	0.01
595.602	0.07
595.792	0.05
595.982	0.03
596.172	0.11
596.363	0.06
596.553	0.09
596.743	0.03
596.933	0.04
597.123	0.07
597.314	0.03
597.504	0.03
597.694	0.07
597.884	0.06
598.074	0.03
598.264	0.03
598.454	0.06
598.644	0.03
598.834	0.04
599.024	-0.05
599.214	0.05
599.404	0.08
599.594	0.03
599.784	-0
599.974	0.07
600.164	0.05
600.354	-0
600.544	-0.01
600.734	0.07
600.924	0.07
601.114	0.02
601.303	0.04
601.493	0.05
601.683	0.04
601.873	0.04
602.063	-0.03
602.252	0.08
602.442	-0.03
602.632	0.01
602.821	0.02
603.011	0.06
603.201	0.02
603.39	0.01
603.58	-0
603.77	0.03
603.959	0.04
604.149	0.01
604.339	0.02
604.528	0.06
604.718	0.07
604.907	0.03
605.097	0.01
605.286	-0.01
605.476	0.05
605.665	0.08
605.855	0.03
606.044	0.1
606.234	0.07
606.423	0.03
606.612	-0.01
606.802	0.03
606.991	0.05
607.181	0.07
607.37	-0.01
607.559	0.03
607.749	-0.01
607.938	-0.01
608.127	0.02
608.316	-0.01
608.506	0.03
608.695	0.02
608.884	0.01
609.073	0.01
609.263	0.03
609.452	0.04
609.641	0.04
609.83	-0.02
610.019	0.04
610.208	0.02
610.397	0.03
610.586	0.05
610.775	-0.01
610.965	0.02
611.154	0.02
611.343	0.03
611.532	0.03
611.721	-0.03
611.91	0
612.099	0.04
612.287	0.01
612.476	-0.01
612.665	0.03
612.854	0.03
613.043	0.08
613.232	-0
613.421	-0.03
613.61	0.03
613.798	-0
613.987	0.04
614.176	0.03
614.365	0.07
614.554	0.03
614.742	0.05
614.931	-0
615.12	0.06
615.309	0.01
615.497	0.04
615.686	-0.01
615.875	0.01
616.063	0.03
616.252	0.01
616.44	0.01
616.629	0.02
616.818	0.05
617.006	0.01
617.195	0.02
617.383	0.01
617.572	0.02
617.76	-0.01
617.949	0.02
618.137	0.06
618.326	0.09
618.514	-0
618.703	-0.01
618.891	0.07
619.079	-0.04
619.268	0.04
619.456	-0.01
619.644	0.07
619.833	0.01
620.021	0.01
620.209	-0.03
620.398	0.04
620.586	0.04
620.774	0.01
620.962	0
621.151	0.09
621.339	0.02
621.527	-0.03
621.715	0.01
621.903	-0.03
622.092	-0.01
622.28	0.02
622.468	0.03
622.656	0.02
622.844	0.05
623.032	0.03
623.22	-0.03
623.408	0.07
623.596	0.04
623.784	0.03
623.972	-0.01
624.16	0.01
624.348	0.08
624.536	0.01
624.724	-0
624.912	0.08
625.1	0.08
625.288	-0
625.476	-0
625.664	0.01
625.851	-0.03
626.039	0.04
626.227	0.01
626.415	0.02
626.603	-0.03
626.79	0.01
626.978	-0.03
627.166	0.04
627.354	0.04
627.541	0
627.729	-0.05
627.917	0.04
628.104	0.07
628.292	0.02
628.48	0.01
628.667	0.03
628.855	0.03
629.042	0.02
629.23	-0.02
629.418	0.02
629.605	-0.01
629.793	-0.03
629.98	0.02
630.168	0
630.355	0.03
630.543	0.03
630.73	-0.02
630.917	0.03
631.105	0.07
631.292	-0
631.48	-0.01
631.667	0.1
631.854	0.02
632.042	-0.02
632.229	-0.01
632.416	0.03
632.604	0.01
632.791	-0.02
632.978	0.03
633.165	0.05
633.353	0.08
633.54	0.02
633.727	-0.06
633.914	0.01
634.101	-0.05
634.289	0.07
634.476	0
634.663	-0.03
634.85	-0.01
635.037	-0.04
635.224	-0.03
635.411	0.03
635.598	0.06
635.785	0.02
635.972	0.01
636.159	0.04
636.346	-0.01
636.533	0.02
636.72	-0.02
636.907	-0.01
637.094	0.01
637.281	0.01
637.468	0.02
637.655	0.01
637.842	0.01
638.029	-0.02
638.215	0.03
638.402	0.02
638.589	-0.01
638.776	-0.03
638.963	0.01
639.149	0.04
639.336	0.1
639.523	-0
639.709	-0.01
639.896	-0.04
640.083	0.05
640.27	0.01
640.456	-0.01
640.643	0.02
640.829	-0.05
641.016	-0.01
641.203	-0.04
641.389	0.04
641.576	-0
641.762	-0.01
641.949	-0.04
642.135	0.03
642.322	0.05
642.508	-0.06
642.695	-0.03
642.881	-0.01
643.068	0
643.254	0
643.441	0.06
643.627	-0.02
643.813	-0.02
644	0.05
644.186	-0.01
644.372	0.04
644.559	0.03
644.745	0.01
644.931	0
645.118	0
645.304	-0.01
645.49	0.03
645.676	0.01
645.862	0.03
646.049	0.06
646.235	0.02
646.421	0.06
646.607	0.07
646.793	0.01
646.979	-0.05
647.165	0.02
647.352	0.02
647.538	0.05
647.724	0.02
647.91	0.02
648.096	0.05
648.282	0.09
648.468	-0.01
648.654	0.04
648.84	0.03
649.026	0
649.212	-0.01
649.397	-0.01
649.583	-0.04
649.769	0.03
649.955	0.01
650.141	0.04
650.327	0.05
650.513	-0.03
650.698	0.02
650.884	-0.06
651.07	0.03
651.256	-0.01
651.442	0.01
651.627	-0
651.813	0.02
651.999	0.01
652.184	0.03
652.37	0
652.556	-0.01
652.741	0.04
652.927	-0.07
653.113	-0.01
653.298	0.02
653.484	-0.01
653.669	-0.03
653.855	-0.01
654.04	0.03
654.226	0.03
654.412	0.01
654.597	-0.01
654.782	0.01
654.968	0.08
655.153	0.03
655.339	0
655.524	-0.03
655.71	0.05
655.895	-0.03
656.08	0.02
656.266	0.04
656.451	0.04
656.636	-0.05
656.822	0.02
657.007	-0.03
657.192	0.02
657.378	-0.04
657.563	0.01
657.748	0.04
657.933	0.02
658.118	0
658.304	-0.02
658.489	0.03
658.674	0.03
658.859	-0.01
659.044	0.04
659.229	0.04
659.414	-0.02
659.599	0.01
659.785	-0.04
659.97	0
660.155	0.03
660.34	0
660.525	0.01
660.71	-0.03
660.895	0.04
661.08	-0.01
661.264	-0.04
661.449	0.09
661.634	0.05
661.819	0.05
662.004	0.06
662.189	-0.04
662.374	-0.01
662.559	-0.03
662.743	-0.02
662.928	0.03
663.113	0.01
663.298	-0.09
663.483	0.01
663.667	0.04
663.852	-0.08
664.037	0.03
664.221	-0.02
664.406	0.03
664.591	0.03
664.775	0.02
664.96	0.01
665.145	0.07
665.329	0.03
665.514	-0.01
665.698	0.02
665.883	-0.05
666.068	0.07
666.252	-0.01
666.437	-0.05
666.621	0.03
666.806	0.05
666.99	0.01
667.174	-0.03
667.359	0.06
667.543	0.01
667.728	-0.03
667.912	-0.07
668.096	0.02
668.281	0
668.465	0.03
668.649	-0.02
668.834	-0.04
669.018	0.02
669.202	-0
669.387	-0.06
669.571	0.07
669.755	-0.04
669.939	-0.01
670.124	0
670.308	0.08
670.492	0.02
670.676	0.01
670.86	0
671.044	-0.03
671.228	0.04
671.413	-0.06
671.597	-0.03
671.781	-0.01
671.965	0.04
672.149	0
672.333	0.02
672.517	-0.02
672.701	0.06
672.885	-0.02
673.069	-0.04
673.253	0.07
673.437	-0.03
673.621	0
673.804	0.02
673.988	0
674.172	-0.01
674.356	-0.06
674.54	-0
674.724	0.09
674.908	0
675.091	0.04
675.275	0.05
675.459	0.04
675.643	-0.01
675.826	0.06
676.01	0.02
676.194	-0.01
676.377	0.07
676.561	0.04
676.745	0.02
676.928	-0
677.112	0.03
677.296	0.01
677.479	-0.01
677.663	0.01
677.846	0.06
678.03	0.04
678.213	0.01
678.397	0.04
678.58	0.02
678.764	0
678.947	-0.02
679.131	-0.02
679.314	0.06
679.498	-0.02
679.681	0.01
679.865	0.07
680.048	-0
680.231	0.01
680.415	0
680.598	-0.05
680.781	0.01
680.965	-0.01
681.148	-0
681.331	-0.02
681.514	0.06
681.698	-0
681.881	0.01
682.064	-0.01
682.247	0.03
682.43	-0.05
682.614	0.03
682.797	0.02
682.98	0.08
683.163	-0.05
683.346	0.01
683.529	-0.04
683.712	-0.03
683.895	0.04
684.078	-0.04
684.261	0.01
684.444	0.03
684.627	0.08
684.81	-0
684.993	-0
685.176	0.04
685.359	-0.04
685.542	-0.01
685.725	0.06
685.908	0.03
686.091	-0.07
686.274	0.06
686.457	0.06
686.639	0.04
686.822	0.07
687.005	0.01
687.188	0.07
687.371	0.1
687.553	0.02
687.736	0.05
687.919	0.09
688.102	0.06
688.284	0.01
688.467	0.05
688.65	-0.01
688.832	0.04
689.015	0.01
689.197	-0.06
689.38	0.09
689.563	0.07
689.745	-0.05
689.928	0.01
690.11	-0.02
690.293	0.04
690.475	-0.03
690.658	0.06
690.84	-0
691.023	0.03
691.205	-0.01
691.388	0.01
691.57	0.05
691.752	0.06
691.935	-0.09
692.117	-0.04
692.3	0.05
692.482	0
692.664	0
692.847	0.01
693.029	0.06
693.211	0.07
693.393	0.01
693.576	0.01
693.758	-0.01
693.94	0.01
694.122	-0.02
694.304	-0.02
694.487	-0.03
694.669	0.04
694.851	0.01
695.033	0.05
695.215	-0.01
695.397	-0.03
695.579	0.05
695.761	-0.06
695.943	-0.02
696.125	0.09
696.308	0.01
696.49	-0.07
696.671	0.15
696.853	-0.01
697.035	0.13
697.217	0.01
697.399	0.03
697.581	0.01
697.763	0.03
697.945	0
698.127	0.06
698.309	0.1
698.491	0.02
698.672	0.03
698.854	0.11
699.036	0.12
699.218	-0.01
699.399	0
699.581	0.07
699.763	0
699.945	-0.03
700.126	-0.06
700.308	0.06
700.49	-0
700.671	-0.06
700.853	-0.03
701.035	-0.01
701.216	-0.01
701.398	-0.08
701.579	0.03
701.761	0.07
701.943	-0.03
702.124	-0.03
702.306	-0.01
702.487	0.11
702.669	0.02
702.85	-0.04
703.031	-0.06
703.213	0.13
703.394	0
703.576	-0
703.757	0.13
703.938	0.1
704.12	0.16
704.301	-0.02
704.483	-0.02
704.664	0.01
704.845	0.12
705.026	0.08
705.208	-0.01
705.389	0.02
705.57	-0.01
705.751	0.05
705.933	0
706.114	0.13
706.295	0.03
706.476	-0.02
706.657	0.13
706.838	0.06
707.02	0.03
707.201	0.01
707.382	-0.12
707.563	0.09
707.744	-0.05
707.925	-0.05
708.106	-0.03
708.287	0.07
708.468	0.11
708.649	-0
708.83	-0.02
709.011	-0.05
709.192	0.06
709.373	-0.06
709.554	0.01
709.734	0.11
709.915	0.1
710.096	-0.03
710.277	-0.1
710.458	0.02
710.639	0
710.819	-0.06
711	0.01
711.181	0.04
711.362	0.1
711.542	0.01
711.723	0.05
711.904	0.09
712.085	0.09
712.265	-0.01
712.446	-0.07
712.627	-0.04
712.807	-0.01
712.988	0.03
713.168	-0.11
713.349	0.03
713.53	-0.1
713.71	-0.06
713.891	-0.05
714.071	0.05
714.252	-0.03
714.432	-0.05
714.613	-0.06
714.793	-0.01
714.974	0.11
715.154	0.08
715.334	0.16
715.515	0.06
715.695	-0.07
715.876	0
716.056	0
716.236	-0.02
716.417	0.05
716.597	-0.06
716.777	0.13
716.957	0.04
717.138	0.02
717.318	0.04
717.498	-0.06
717.678	0.07
717.859	0.1
718.039	-0.05
718.219	0.07
718.399	0.07
718.579	-0.04
718.759	-0.1
718.939	0.09
719.12	0.01
719.3	-0.02
719.48	-0.09
719.66	-0.12
719.84	0.07
720.02	-0
720.2	-0.03
720.38	0.02
720.56	0.14
720.74	-0.03
720.92	0.02
721.1	0.04
721.279	0.07
721.459	0.02
721.639	-0.09
721.819	0.04
721.999	0.02
722.179	0.02
722.359	-0.06
722.538	0.06
722.718	0.02
722.898	0
723.078	0.01
723.257	0.01
723.437	0.04
723.617	0.02
723.797	0.01
723.976	0.05
724.156	0.07
724.336	0.14
724.515	0.19
724.695	-0.12
724.874	0.02
725.054	-0.01
725.234	-0.07
725.413	0.04
725.593	-0.06
725.772	-0.05
725.952	-0.03
726.131	0.01
726.311	0.03
726.49	0.03
726.67	-0.03
726.849	-0.06
727.028	0.03
727.208	-0.05
727.387	0.09
727.567	-0.11
727.746	-0.01
727.925	0.06
728.105	-0.1
728.284	-0.01
728.463	-0.03
728.643	0
728.822	-0.04
729.001	-0.03
729.18	0.01
729.359	0.1
729.539	0.01
729.718	0.04
729.897	0.11
730.076	-0.01
730.255	-0.08
730.434	0.06
730.614	0.06
730.793	-0
730.972	-0
731.151	0.06
731.33	0.05
731.509	0.07
731.688	0.04
731.867	0.03
732.046	-0.14
732.225	0.21
732.404	-0.1
732.583	-0.13
732.762	-0
732.941	0.12
733.12	0.08
733.298	0.06
733.477	0.05
733.656	0.07
733.835	-0
734.014	0.13
734.193	0.01
734.371	0.07
734.55	0
734.729	-0.13
734.908	0.02
735.086	-0.02
735.265	0.1
735.444	-0.18
735.623	-0.12
735.801	-0.05
735.98	0.03
736.159	0.03
736.337	0.14
736.516	-0.04
736.694	0.04
736.873	-0.13
737.052	0.13
737.23	0.16
737.409	-0.07
737.587	0.09
737.766	-0.15
737.944	-0.09
738.123	0.14
738.301	0.1
738.479	-0.01
738.658	-0.1
738.836	-0.13
739.015	0.01
739.193	0.05
739.371	-0.15
739.55	0.07
739.728	-0.09
739.906	0.07
740.085	0.13
740.263	0.05
740.441	-0.17
740.62	0.16
740.798	0.02
740.976	-0
741.154	0.04
741.332	0.15
741.511	-0.05
741.689	0.05
741.867	0.12
742.045	-0.02
742.223	-0.03
742.401	-0.1
742.579	-0.04
742.757	0.12
742.935	-0.09
743.114	0.04
743.292	-0.13
743.47	-0.02
743.648	-0.04
743.826	-0.04
744.004	0.12
744.181	0.17
744.359	-0.04
744.537	0.11
744.715	-0.02
744.893	0.08
745.071	-0.01
745.249	-0.02
745.427	0.01
745.605	0.15
745.782	-0.07
745.96	0.03
746.138	0.11
746.316	0.1
746.493	-0.08
746.671	0.09
746.849	0.01
747.027	0.15
747.204	-0.06
747.382	0.14
747.56	-0.1
747.737	-0.08
747.915	-0.01
748.093	0.01
748.27	-0.04
748.448	0.03
748.625	-0.1
748.803	-0.11
748.98	-0.02
749.158	-0.07
749.335	0.04
749.513	0.07
749.69	0.07
749.868	-0.02
750.045	0.14
750.223	-0.05
750.4	-0.18
750.578	0.12
750.755	0.02
750.932	-0.17
751.11	0.15
751.287	-0.16
751.464	0.11
751.642	-0.04
751.819	0.07
751.996	0.02
752.173	-0.03
752.351	-0.08
752.528	0.06
752.705	-0.01
752.882	-0.12
753.06	0.03
753.237	0.02
753.414	0.16
753.591	0.16
753.768	0.02
753.945	0.06
754.122	-0.02
754.299	0.11
754.476	-0.08
754.654	0.05
754.831	0.05
755.008	-0
755.185	-0.02
755.362	-0.1
755.539	0.03
755.716	-0.12
755.892	-0
756.069	-0.1
756.246	-0.09
756.423	-0.01
756.6	0.06
756.777	0
756.954	0.11
757.131	-0.03
757.307	-0.01
757.484	-0.15
757.661	-0.02
757.838	0.04
758.015	-0.08
758.191	0.01
758.368	0.14
758.545	0.24
758.721	0.03
758.898	-0.09
759.075	0.07
759.251	0.13
759.428	-0.01
759.605	-0.08
759.781	-0.02
759.958	0.12
760.134	-0.04
760.311	-0.03
760.488	0.02
760.664	0.18
760.841	0.04
761.017	-0.16
761.194	0.05
761.37	0.15
761.547	0.08
761.723	0.06
761.899	0.01
762.076	-0.01
762.252	-0.14
762.429	-0.02
762.605	0.18
762.781	-0.06
762.958	0.19
763.134	-0.09
763.31	-0.07
763.486	0.05
763.663	-0.15
763.839	-0.02
764.015	-0.17
764.191	-0.05
764.368	-0.02
764.544	-0.1
764.72	0.09
764.896	0.03
765.072	-0.09
765.248	-0.04
765.425	-0.04
765.601	0.03
765.777	0.08
765.953	-0.22
766.129	-0.07
766.305	-0.03
766.481	0.1
766.657	-0.01
766.833	0.11
767.009	-0.08
767.185	-0.06
767.361	0.09
767.537	-0.07
767.713	0.14
767.889	-0.03
768.065	-0.04
768.24	0.12
768.416	0.03
768.592	-0.02
768.768	0.01
768.944	0.08
769.12	-0.15
769.295	-0.06
769.471	-0.1
769.647	0.04
769.823	0.21
769.998	-0.08
770.174	-0.15
770.35	0.36
770.525	0.34
770.701	0.05
770.877	-0.04
771.052	-0.05
771.228	0.12
771.403	0.19
771.579	0.12
771.755	0.26
771.93	0.06
772.106	-0.03
772.281	-0.18
772.457	0.06
772.632	0.01
772.808	-0.2
772.983	-0.03
773.159	-0.16
773.334	0.15
773.509	-0
773.685	-0.14
773.86	0.43
774.036	0.18
774.211	0.02
774.386	0.02
774.562	0
774.737	0.01
774.912	-0.04
775.087	0.11
775.263	-0.02
775.438	0.01
775.613	-0.09
775.788	-0.01
775.964	0.25
776.139	0.32
776.314	-0.13
776.489	-0.03
776.664	0.04
776.839	0.01
777.014	0.16
777.19	0.15
777.365	0.08
777.54	0.28
777.715	-0.01
777.89	-0.01
778.065	-0.14
778.24	0.03
778.415	0.17
778.59	-0.07
778.765	-0.23
778.94	0.17
779.115	-0.08
779.289	-0.09
779.464	0.04
779.639	0.03
779.814	-0.23
779.989	-0.12
780.164	0.16
780.339	-0.01
780.513	-0.06
780.688	-0.22
780.863	-0.07
781.038	0.17
781.212	-0.21
781.387	-0.04
781.562	0.22
781.737	-0.1
781.911	0.25
782.086	0.04
782.261	-0.11
782.435	0.3
782.61	-0.11
782.784	0.05
782.959	0.33
783.134	-0.11
783.308	-0.46
783.483	-0.18
783.657	0.33
783.832	0.08
784.006	-0.26
784.181	0.02
784.355	0.3
784.53	-0.09
784.704	-0.31
784.878	0.25
785.053	0.08
785.227	0.16
785.402	0.37
785.576	-0.08
785.75	0.11
785.925	-0.01
786.099	0.15
786.273	0.01
786.448	0.07
786.622	0.23
786.796	0.02
786.97	-0.09
787.145	0.38
787.319	-0.42
787.493	-0.16
787.667	-0.53
787.841	-0.11
788.015	0.21
788.19	-0.17
788.364	-0.02
788.538	0.07
788.712	0.14
788.886	-0.07
789.06	0.2
789.234	0.21
789.408	-0.38
789.582	0.01
789.756	-0.07
789.93	-0.17
790.104	-0.05
790.278	-0.02
790.452	0.01
790.626	0.13
790.8	0.1
790.973	0.13
791.147	0.36
791.321	0.33
791.495	-0.03
791.669	-0.04
791.843	-0.06
792.016	-0
792.19	0.3
792.364	-0.22
792.538	0.39
792.711	0.07
792.885	-0.25
793.059	-0.09
793.233	-0.44
793.406	0.2
793.58	0.06
793.754	0.07
793.927	-0.03
794.101	0.44
794.274	-0.06
794.448	0.14
794.622	-0.17
794.795	0.38
794.969	-0.05
795.142	0.36
795.316	-0.08
795.489	-0.17
795.663	0.27
795.836	0.14
796.009	-0.3
796.183	0.56
796.356	0.19
796.53	0.05
796.703	0.15
796.876	0.62
797.05	-0.14
797.223	0.07
797.396	0.12
797.57	-0.01
797.743	0.44
797.916	-0.03
798.09	0.06
798.263	0.32
798.436	0.16
798.609	-0.05
798.782	-0.42
798.956	0.04
799.129	0.06
799.302	0.1
799.475	-0.11
799.648	-0.36
799.821	-0.23
799.994	0.01
800.167	-0.23
800.34	0.07
800.514	-0.13
800.687	-0.13
800.86	-0.38
801.033	0.04
801.206	-0.07
801.379	-0.24
801.551	0.23
801.724	0.15
801.897	0.28
802.07	-0.03
802.243	-0.3
802.416	-0.1
802.589	-0.04
802.762	0
802.935	-0
803.107	0.42
803.28	0.48
803.453	-0.22
803.626	-0.32
803.798	-0.13
803.971	-0.09
804.144	0.15
804.317	-0.01
804.489	0.04
804.662	-0.05
804.835	-0.13
805.007	-0.14
805.18	0.44
805.353	-0
805.525	-0.1
805.698	-0.07
805.87	0.01
806.043	0.32
806.215	-0.35
806.388	-0.08
806.56	0.51
806.733	0.25
806.905	0.2
807.078	-0.34
807.25	-0.04
807.423	0.11
807.595	0.08
807.768	-0.03
807.94	0.27
808.112	0.02
808.285	-0.02
808.457	-0.29
808.629	0.04
808.802	0.28
808.974	-0.06
809.146	-0.25
809.318	-0.34
809.491	0.05
809.663	0.01
809.835	-0.43
810.007	0.4
810.18	0.02
810.352	-0.72
810.524	-0.18
810.696	0.04
810.868	0.08
811.04	-0
811.212	-0.18
811.384	0.23
811.556	-0.05
811.728	-0.06
811.901	0.67
812.073	-0.08
812.245	0.27
812.417	-0.04
812.589	-0.4
812.76	0.07
812.932	0.23
813.104	0.36
813.276	-0.13
813.448	0.31
813.62	0.21
813.792	0.18
813.964	0.19
814.136	0
814.307	0.11
814.479	-0.29
814.651	0.04
814.823	0.89
814.995	-0.19
815.166	0.29
815.338	-0.25
815.51	-0.23
815.681	0.58
815.853	0.54
816.025	-0.07
816.196	0.35
816.368	0.49
816.54	-0.79
816.711	-0.16
816.883	0.12
817.054	0.83
817.226	-0.65
817.398	-0.02
817.569	-0.45
817.741	0.64
817.912	-0.18
818.084	-0.24
818.255	0.16
818.426	-0.28
818.598	-0.02
818.769	-0.33
818.941	0.1
819.112	0.77
819.283	0.49
819.455	-0.08
819.626	-0.31
819.798	0.25
819.969	0.23
820.14	-0
820.311	-0.15
820.483	0.4
820.654	-0.19
820.825	0.05
820.996	-0
821.168	-0.05
821.339	0.17
821.51	-0.56
821.681	-0.4
821.852	-0.25
822.023	-0.12
822.195	-0.6
822.366	0.4
822.537	0.21
822.708	0.34
822.879	-0.38
823.05	0.75
823.221	-0.16
823.392	0.53
823.563	0.24
823.734	-0.11
823.905	-0.11
824.076	-0.12
824.247	-0.49
824.418	0.03
824.589	0.48
824.759	0.25
824.93	-0.07
825.101	-0.59
825.272	0.22
825.443	0.85
825.614	0.59
825.784	-1.18
825.955	0.98
826.126	0.21
826.297	0.42
826.467	1.11
826.638	1.05
826.809	-0.95
826.98	-0.22
827.15	-0.1
827.321	0.14
827.492	0.5
827.662	-0.11
827.833	0.96
828.003	-0.43
828.174	-0.44
828.345	-0.42
828.515	0.41
828.686	0.3
828.856	-0.35
829.027	0.09
829.197	0.01
829.368	0.61
829.538	-0.38
829.709	-0.59
829.879	-0.21
830.049	0.31
830.22	0.28
830.39	-0.24
830.56	0.14
830.731	-0.27
830.901	-0.65
831.072	0.05
831.242	-0.11
831.412	-0.27
831.582	0.54
831.753	-0.34
831.923	0.51
832.093	0.19
832.263	0.18
832.434	-0.68
832.604	-0.45
832.774	0.59
832.944	-0.21
833.114	-0.03
833.284	-0.06
833.454	-0.18
833.624	0.16
833.795	-0.2
833.965	1.01
834.135	0.57
834.305	-0.62
834.475	-0.98
834.645	-0.3
834.815	-0.66
834.985	-0.77
835.155	-1.01
835.325	0.13
835.494	0.12
835.664	-0.43
835.834	-1.24
836.004	0.12
836.174	-0.16
836.344	-0.48
836.514	-0.93
836.684	-0.09
836.853	0.2
837.023	0.37
837.193	-0.48
837.363	0.51
837.532	0.3
837.702	-0.47
837.872	-0.63
838.041	0.5
838.211	1.35
838.381	-0.88
838.55	-0.37
838.72	1.83
838.89	1.64
839.059	-0.52
839.229	-0.76
839.398	1.39
839.568	0.06
839.738	0.28
839.907	0.77
840.077	0.56
840.246	-0.52
840.416	-0.68
840.585	-0.7
840.755	1.49
840.924	0.68
841.093	-0.75
841.263	0.11
841.432	0.6
841.602	-0.36
841.771	-0.7
841.94	0.46
842.11	1.58
842.279	1.54
842.448	-0.56
842.617	-0.61
842.787	0.62
842.956	-0.47
843.125	0.09
843.294	-0.18
843.464	0.61
843.633	-0.18
843.802	-1.02
843.971	-0.49
844.14	0.78
844.309	1.17
844.479	-0.21
844.648	-1.01
844.817	-0.04
844.986	0.39
845.155	-0.34
845.324	-0.3
845.493	0.28
845.662	-0.68
845.831	0.61
846	0.46
846.169	0.17
846.338	1.03
846.507	-0.44
846.676	0.01
846.844	-0.19
847.013	0.24
847.182	0.02
847.351	-0.47
847.52	-0.23
847.689	-0.18
847.858	-0.12
848.026	-0.44
848.195	0.77
848.364	-0.32
848.533	-0.33
848.701	-0.39
848.87	-0.28
849.039	1.29
849.207	1.02
849.376	-0.31
849.545	0.93
849.713	-0.76
849.882	0.16
850.051	0.12
850.219	0.35
850.388	0.01
850.556	-0.4
850.725	-0.3
850.893	0.72
851.062	0.11
851.23	0.88
851.399	-1.11
851.567	-0.25
851.736	-0.01
851.904	-1.25
852.073	-0.4
852.241	0.82
852.41	-0.09
852.578	0.1
852.746	-1.65
852.915	-0.24
853.083	0.2
853.251	-1.04
853.42	-0.36
853.588	0.01
853.756	1.5
853.924	0.02
854.093	-0.62
854.261	-0.26
854.429	-1.05
854.597	-0.34
854.765	-0.62
854.934	0.85
855.102	1.96
855.27	0.08
855.438	0.13
855.606	1.42
855.774	0.99
855.942	-1.44
856.11	-1.6
856.278	-0.15
856.446	0.53
856.614	0.18
856.782	-0.13
856.95	0.69
857.118	0.43
857.286	0.42
857.454	0.02
857.622	1.8
857.79	0.55
857.958	-0.54
858.126	-0.22
858.294	-1.2
858.462	-0.07
858.629	-0.29
858.797	-0.76
858.965	0.14
859.133	-0.13
859.301	-0.26
859.468	0.94
859.636	-0.42
859.804	0.73
859.971	0.62
860.139	-0.13
860.307	1.2
860.474	0.94
860.642	-0.28
860.81	-1.53
860.977	0.29
861.145	1.37
861.313	-0.45
861.48	0.59
861.648	0.82
861.815	-0.96
861.983	-0.91
862.15	-0.54
862.318	0.62
862.485	1.44
862.653	-1.3
862.82	-0.31
862.988	0.92
863.155	0.58
863.322	-2.23
863.49	-0.25
863.657	-1.1
863.824	1.75
863.992	-0.05
864.159	-0.06
864.326	2.11
864.494	-0.83
864.661	2.15
864.828	-1.64
864.996	1.16
865.163	2.29
865.33	-1.34
865.497	-3.48
865.664	-1.44
865.832	-0.19
865.999	-1.91
866.166	-1.17
866.333	-0.39
866.5	-0.59
866.667	-0.01
866.834	-0.7
867.001	1.32
867.168	-2.4
867.335	0.81
867.502	-2.29
867.669	1.27
867.836	1.11
868.003	0.79
868.17	1.24
868.337	1.92
868.504	2.31
868.671	-2.04
868.838	-1.63
869.005	2.02
869.172	1.35
869.339	-0.26
869.505	0.28
869.672	0.47
869.839	2.42
870.006	0.62
870.173	-1.93
870.339	-0.67
870.506	2.35
870.673	-0.91
870.84	-1.11
871.006	-0.04
871.173	-1.25
871.34	-0.04
871.506	-2.04
871.673	0.46
871.839	-1.72
872.006	1.02
872.173	-0.22
872.339	-0.06
872.506	1.95
872.672	-0.71
872.839	-3.57
873.005	1.57
873.172	1.86
873.338	0.86
873.505	2.02
873.671	0.01
873.838	0.35
874.004	-1.45
874.171	-2.13
874.337	1.19
874.503	-0.47
874.67	-0.35
874.836	-1.35
875.002	3.95
875.169	2.01
875.335	-0.36
875.501	-1.02
875.668	0.64
875.834	1.07
876	-0.27
876.166	1.85
876.332	1.64
876.499	3.38
876.665	-0.73
876.831	0.89
876.997	3.16
877.163	2.03
877.329	-1.18
877.495	0.76
877.662	1.48
877.828	1.38
877.994	-1.08
878.16	-1.47
878.326	-0.1
878.492	1.16
878.658	0.6
878.824	-0.73
878.99	0.94
879.156	-2.47
879.322	2.31
879.487	-1.02
879.653	-0.31
879.819	-0.08
879.985	-1.9
880.151	-0.12
880.317	1.58
880.483	0.74
880.648	-0.08
880.814	-2.81
880.98	0.07
881.146	-2.49
881.312	-0.06
881.477	-2.32
881.643	1.03
881.809	2.27
881.974	1.05
882.14	-1.13
882.306	-1.76
882.471	2.61
882.637	-1.76
882.803	1.75
882.968	1.94
883.134	3.1
883.299	-0.81
883.465	-0.18
883.63	1.76
883.796	1.02
883.961	1.16
884.127	0.9
884.292	-4.7
884.458	-3.48
884.623	-3.47
