Data from Apollo_Calib_20240827__AbsoluteIrradiance__522__07-51-01-171.txt Node

Date: Wed Aug 28 07:51:01 BST 2024
User: biology
Spectrometer: FLMT08252
Trigger mode: 0
Integration Time (sec): 5.000000E-1
Scans to average: 5
Electric dark correction enabled: true
Nonlinearity correction enabled: false
Boxcar width: 0
XAxis mode: Wavelengths
Number of Pixels in Spectrum: 3648
>>>>>Begin Spectral Data<<<<<
179.588	-0
179.809	-0
180.03	-0
180.251	-0
180.473	-0
180.694	0
180.915	0
181.136	-0
181.357	0
181.578	0
181.799	-0
182.02	-0
182.241	0
182.462	-0
182.683	0
182.904	-0
183.125	-0
183.346	0
183.567	0
183.788	-0
184.009	-0
184.23	0
184.451	0
184.672	-0
184.892	-0
185.113	-0
185.334	0
185.555	-0
185.776	-0
185.996	0
186.217	0
186.438	0
186.659	-0
186.879	0
187.1	0
187.321	-0
187.541	-0
187.762	-0
187.983	0
188.203	-0
188.424	0
188.644	0
188.865	-0
189.086	0
189.306	-0
189.527	-0
189.747	0
189.968	0
190.188	0
190.409	-0
190.629	0
190.849	-0
191.07	-0
191.29	0
191.511	-0
191.731	0
191.951	-0
192.172	-0
192.392	-0
192.612	-0
192.833	0
193.053	0
193.273	0
193.493	-0
193.714	0
193.934	0
194.154	0
194.374	0
194.594	0
194.815	-0
195.035	-0
195.255	-0
195.475	-0
195.695	0
195.915	0
196.135	-0
196.355	0
196.575	0
196.795	0
197.015	-0
197.235	-0
197.455	-0
197.675	0
197.895	-0
198.115	-0
198.335	-0
198.555	0
198.775	0
198.995	0
199.214	0
199.434	-0
199.654	0
199.874	0
200.094	0.68
200.313	-0.36
200.533	-0.29
200.753	-0.45
200.973	0.45
201.192	0.65
201.412	-0.56
201.632	-0.68
201.851	1.03
202.071	-0.44
202.291	-0.03
202.51	-0.68
202.73	0.3
202.95	0
203.169	-0.34
203.389	-0.1
203.608	-0.14
203.828	-0.15
204.047	0.07
204.267	0.24
204.486	-0.02
204.706	-0.06
204.925	-0.21
205.145	-0.12
205.364	0.43
205.583	0.7
205.803	-0.46
206.022	-0.31
206.242	-0.06
206.461	-0.13
206.68	-0.28
206.9	0
207.119	0.61
207.338	0.21
207.557	0.04
207.777	-0.15
207.996	-0.27
208.215	0.26
208.434	-0.33
208.654	-0.4
208.873	-0.14
209.092	0.46
209.311	-0.15
209.53	-0.14
209.749	0.06
209.968	-0.06
210.187	0.02
210.407	-0.13
210.626	-0.18
210.845	0.11
211.064	-0.2
211.283	-0.14
211.502	0.17
211.721	-0.11
211.94	0.18
212.159	0.16
212.377	0.19
212.596	0.23
212.815	0.26
213.034	0.13
213.253	0.35
213.472	0.35
213.691	-0.09
213.91	-0.12
214.128	0.14
214.347	0.34
214.566	-0.34
214.785	-0.23
215.003	0.13
215.222	0.02
215.441	-0.12
215.66	-0.36
215.878	0
216.097	0.07
216.316	-0.11
216.534	-0.17
216.753	0.24
216.972	-0.01
217.19	0.14
217.409	0
217.627	-0.08
217.846	-0.07
218.064	-0.03
218.283	-0.04
218.501	0.38
218.72	0.16
218.938	-0.18
219.157	-0.13
219.375	0.17
219.594	0.04
219.812	-0.24
220.031	-0.21
220.249	0.19
220.467	0.45
220.686	-0.07
220.904	-0.15
221.122	-0.22
221.341	0.29
221.559	0.04
221.777	-0.32
221.995	-0.03
222.214	0.07
222.432	0.12
222.65	0.18
222.868	0.02
223.086	0.06
223.305	0.14
223.523	-0.08
223.741	0.26
223.959	-0.31
224.177	-0.17
224.395	0.03
224.613	-0.02
224.831	0.01
225.049	-0.12
225.267	0.01
225.485	0.13
225.703	0.08
225.921	-0.02
226.139	-0.01
226.357	0.22
226.575	-0.01
226.793	-0.06
227.011	0.55
227.229	0.1
227.447	0.16
227.665	-0.07
227.883	-0.31
228.1	0.02
228.318	0.01
228.536	-0.22
228.754	-0.11
228.972	0.09
229.189	0.2
229.407	-0.14
229.625	-0.02
229.843	0.17
230.06	0.22
230.278	-0.14
230.496	0.01
230.713	-0.06
230.931	0.06
231.149	0.01
231.366	-0.19
231.584	-0.01
231.801	0.21
232.019	-0.04
232.236	-0.16
232.454	-0
232.671	0.06
232.889	-0.03
233.106	-0.1
233.324	0.07
233.541	-0.01
233.759	0.06
233.976	-0.05
234.194	-0.04
234.411	0.04
234.628	-0.1
234.846	0.02
235.063	-0.05
235.28	-0.01
235.498	-0.09
235.715	-0.1
235.932	0.11
236.149	0.04
236.367	-0.09
236.584	0.04
236.801	-0.01
237.018	0.12
237.236	-0.04
237.453	-0.15
237.67	-0.06
237.887	-0.1
238.104	-0.04
238.321	-0.01
238.538	0.02
238.755	0.01
238.973	-0.1
239.19	-0.03
239.407	0.03
239.624	-0.01
239.841	-0.18
240.058	-0.14
240.275	0.02
240.492	-0.15
240.709	-0.05
240.925	-0.06
241.142	-0.01
241.359	-0.21
241.576	-0
241.793	-0.11
242.01	0.01
242.227	0.04
242.444	0.06
242.66	0.03
242.877	-0.02
243.094	-0.02
243.311	-0.01
243.527	0.07
243.744	-0.03
243.961	0.11
244.178	-0.09
244.394	-0.04
244.611	0.08
244.828	0.14
245.044	-0.05
245.261	0
245.477	-0
245.694	0
245.911	-0.06
246.127	0.07
246.344	0.1
246.56	0.01
246.777	-0.07
246.993	-0.02
247.21	0.06
247.426	-0.03
247.643	-0.08
247.859	-0.1
248.076	-0.05
248.292	0.2
248.508	-0.06
248.725	-0.01
248.941	0.07
249.157	0.11
249.374	-0.08
249.59	0.01
249.806	0.01
250.023	-0.02
250.239	-0.05
250.455	-0.04
250.671	0.01
250.888	0.07
251.104	-0.1
251.32	0
251.536	0.07
251.752	-0.02
251.969	-0.01
252.185	0
252.401	0.12
252.617	0.06
252.833	-0.02
253.049	0.05
253.265	0.05
253.481	0.02
253.697	-0.02
253.913	-0.05
254.129	0
254.345	0.05
254.561	0
254.777	0.03
254.993	0.12
255.209	0.05
255.425	-0.09
255.641	-0.05
255.857	0.06
256.073	-0
256.288	-0.09
256.504	0.02
256.72	0.02
256.936	0.11
257.152	0.02
257.367	-0.06
257.583	0.08
257.799	-0.01
258.015	-0.05
258.23	-0.06
258.446	0.12
258.662	-0.01
258.877	-0.02
259.093	-0.01
259.309	-0.06
259.524	0.02
259.74	-0.05
259.955	-0.11
260.171	-0.03
260.387	0.03
260.602	0.03
260.818	0.01
261.033	-0.1
261.249	0
261.464	-0.01
261.68	-0.09
261.895	0.03
262.11	0.03
262.326	-0.07
262.541	-0.09
262.757	0.05
262.972	-0.02
263.187	0
263.403	-0
263.618	0.04
263.833	-0.05
264.049	-0.05
264.264	-0.01
264.479	0.06
264.694	0.08
264.91	-0.07
265.125	0.01
265.34	0.01
265.555	0.17
265.77	0.01
265.986	-0
266.201	0.05
266.416	0.06
266.631	-0
266.846	-0
267.061	0.04
267.276	0.03
267.491	-0.18
267.706	0.02
267.921	0.09
268.136	0.06
268.351	0.01
268.566	-0.03
268.781	0.02
268.996	0.03
269.211	-0.01
269.426	-0.05
269.641	-0
269.856	0.01
270.071	-0.07
270.285	-0.11
270.5	0.01
270.715	0.08
270.93	-0.04
271.145	-0.02
271.359	-0
271.574	-0.04
271.789	-0.05
272.004	-0.01
272.218	-0.04
272.433	0.03
272.648	-0.06
272.862	0
273.077	0.02
273.292	-0.01
273.506	-0.03
273.721	0
273.936	0.04
274.15	0.07
274.365	0
274.579	0.02
274.794	0.08
275.008	0.02
275.223	-0.07
275.437	0.02
275.652	0.06
275.866	0.03
276.081	-0.01
276.295	0.04
276.509	0.03
276.724	0
276.938	0.02
277.153	0.02
277.367	0.06
277.581	-0.02
277.796	-0.04
278.01	-0.01
278.224	0.02
278.438	0.17
278.653	-0.07
278.867	-0.02
279.081	-0.04
279.295	0.01
279.51	0.01
279.724	-0.11
279.938	0.06
280.152	0.01
280.366	-0.02
280.58	0.04
280.794	0.07
281.008	0.03
281.222	0.05
281.437	0.15
281.651	0.01
281.865	0.06
282.079	-0.01
282.293	-0.1
282.507	-0.03
282.721	0.04
282.935	0.01
283.148	-0.1
283.362	-0.01
283.576	-0.04
283.79	0
284.004	-0.1
284.218	0.08
284.432	-0.04
284.646	0.05
284.859	-0.01
285.073	-0.03
285.287	0.06
285.501	-0.01
285.714	-0.03
285.928	0.03
286.142	-0
286.356	-0.06
286.569	-0.06
286.783	0.05
286.997	0.03
287.21	-0.05
287.424	0.06
287.637	0.02
287.851	0.01
288.065	0.01
288.278	0.01
288.492	0.02
288.705	-0.02
288.919	0.01
289.132	-0.06
289.346	0.06
289.559	-0.08
289.773	-0.07
289.986	-0.01
290.2	-0.02
290.413	0.06
290.626	-0.02
290.84	0
291.053	0
291.267	0.06
291.48	0.02
291.693	0.04
291.906	-0.02
292.12	0.01
292.333	-0.04
292.546	-0
292.76	0.02
292.973	0.01
293.186	-0
293.399	-0.03
293.612	0.07
293.826	-0.01
294.039	-0.01
294.252	-0.01
294.465	0.01
294.678	0.01
294.891	0.05
295.104	-0.02
295.317	0.02
295.53	0.02
295.743	0.01
295.956	-0.01
296.169	0.05
296.382	0.07
296.595	0.02
296.808	-0
297.021	0.06
297.234	0.08
297.447	-0.01
297.66	0.05
297.873	0.05
298.086	0.02
298.299	-0.06
298.511	-0.04
298.724	-0.02
298.937	-0.04
299.15	-0.03
299.363	0.01
299.575	0.03
299.788	0.02
300.001	0.02
300.213	-0.01
300.426	-0.01
300.639	0
300.852	-0
301.064	0.07
301.277	0.07
301.489	0.02
301.702	0.03
301.915	-0.03
302.127	0.04
302.34	0.04
302.552	0
302.765	-0.04
302.977	0.03
303.19	-0.05
303.402	0.01
303.615	-0.04
303.827	-0
304.04	-0
304.252	0
304.464	0.02
304.677	0.09
304.889	0.07
305.102	-0.02
305.314	0
305.526	0.06
305.739	0.04
305.951	-0.03
306.163	-0.02
306.375	0.07
306.588	-0.03
306.8	-0.04
307.012	-0.06
307.224	0.01
307.436	0.05
307.649	-0.05
307.861	0.06
308.073	0.06
308.285	-0.04
308.497	-0.01
308.709	-0
308.921	-0
309.133	0.03
309.346	-0.01
309.558	0.01
309.77	0.03
309.982	0.04
310.194	0.05
310.406	-0.02
310.617	0.08
310.829	0.02
311.041	0.06
311.253	-0.05
311.465	-0.02
311.677	-0.01
311.889	0.04
312.101	-0.01
312.313	0.03
312.524	0.02
312.736	-0.01
312.948	-0.02
313.16	0.06
313.372	0.05
313.583	0
313.795	-0
314.007	-0.03
314.218	0.02
314.43	-0.03
314.642	-0.04
314.853	-0.03
315.065	0.02
315.277	-0.04
315.488	0.03
315.7	0.03
315.912	0.05
316.123	0.03
316.335	-0.01
316.546	0.09
316.758	0.01
316.969	-0.03
317.181	0.01
317.392	-0.03
317.604	0.06
317.815	-0.07
318.026	-0
318.238	0.03
318.449	0.01
318.661	-0.06
318.872	-0.08
319.083	-0.05
319.295	0.03
319.506	0.01
319.717	0.01
319.929	0.05
320.14	0.06
320.351	0.01
320.562	-0.02
320.774	0
320.985	0.04
321.196	-0.01
321.407	-0.05
321.618	0.03
321.829	0.03
322.041	0.01
322.252	0
322.463	0.05
322.674	0.04
322.885	-0.03
323.096	-0.01
323.307	0
323.518	0.02
323.729	-0.01
323.94	-0.02
324.151	-0.04
324.362	-0.01
324.573	0.02
324.784	-0.03
324.995	0.01
325.206	0.02
325.417	-0.02
325.628	0
325.838	0.03
326.049	-0.03
326.26	0.05
326.471	0.01
326.682	0.03
326.892	0.01
327.103	-0.04
327.314	-0.06
327.525	0.04
327.735	0.03
327.946	0
328.157	-0.01
328.368	0.05
328.578	-0.01
328.789	0.01
328.999	0
329.21	-0.01
329.421	0.02
329.631	-0.05
329.842	-0.01
330.052	0.05
330.263	0.05
330.473	0.06
330.684	0.02
330.894	-0.04
331.105	-0.01
331.315	0.03
331.526	-0.07
331.736	0.06
331.947	0.02
332.157	0.02
332.367	-0.05
332.578	0.03
332.788	0.06
332.999	0.02
333.209	0.04
333.419	-0.04
333.629	-0.02
333.84	0.01
334.05	-0.02
334.26	0.08
334.47	-0.01
334.681	0.09
334.891	-0.01
335.101	0.08
335.311	0.04
335.521	-0
335.732	-0.02
335.942	0.05
336.152	0.05
336.362	0.07
336.572	0.02
336.782	0.01
336.992	-0.05
337.202	-0.02
337.412	-0.03
337.622	-0
337.832	-0.02
338.042	0.03
338.252	-0.02
338.462	0
338.672	-0
338.882	-0.03
339.092	0
339.302	0.04
339.511	0.02
339.721	-0.01
339.931	-0.04
340.141	0.03
340.351	0.04
340.561	0.01
340.77	0.01
340.98	0.04
341.19	0.04
341.4	-0
341.609	-0.03
341.819	-0.01
342.029	-0.06
342.238	0.03
342.448	0.02
342.658	0.04
342.867	0.04
343.077	-0.03
343.286	0.03
343.496	0.05
343.706	0.02
343.915	-0.04
344.125	-0.02
344.334	-0.01
344.544	-0.06
344.753	-0.01
344.963	-0.03
345.172	-0.01
345.381	-0
345.591	-0.01
345.8	-0
346.01	0.04
346.219	0.08
346.428	-0.12
346.638	-0.02
346.847	0
347.056	0.05
347.266	-0.05
347.475	0.01
347.684	-0.01
347.893	0.03
348.103	-0.02
348.312	-0.02
348.521	0.02
348.73	-0.03
348.94	0.04
349.149	-0.03
349.358	0
349.567	-0.04
349.776	-0.06
349.985	-0.03
350.194	0.06
350.403	0.05
350.612	-0.05
350.821	-0
351.03	-0
351.239	-0.05
351.448	0.01
351.657	-0.03
351.866	0.1
352.075	-0.02
352.284	0.03
352.493	-0.06
352.702	0.06
352.911	0.02
353.12	0.01
353.329	-0.01
353.538	0.02
353.746	0.02
353.955	-0.03
354.164	0.04
354.373	0.01
354.582	0.03
354.79	0.04
354.999	0.04
355.208	-0.02
355.416	0.08
355.625	-0.05
355.834	-0
356.042	0.03
356.251	-0.01
356.46	-0.01
356.668	0.01
356.877	0.09
357.085	0.04
357.294	-0.09
357.503	0.03
357.711	-0.04
357.92	0.08
358.128	0.04
358.337	0.01
358.545	0.02
358.754	-0
358.962	0.03
359.17	0
359.379	-0
359.587	0.01
359.796	-0.02
360.004	0.06
360.212	0.02
360.421	0.02
360.629	-0
360.837	-0.04
361.046	0.06
361.254	0.1
361.462	-0.01
361.67	0
361.879	0
362.087	0.07
362.295	-0.01
362.503	-0.02
362.711	-0.02
362.92	-0.04
363.128	-0.03
363.336	-0.02
363.544	-0.07
363.752	-0.02
363.96	-0.04
364.168	-0.01
364.376	0.01
364.584	0.01
364.792	0.03
365	0.01
365.208	0.04
365.416	0.01
365.624	0.03
365.832	-0.01
366.04	0.05
366.248	0.01
366.456	0.02
366.664	0
366.872	0
367.079	-0.03
367.287	0
367.495	0.02
367.703	-0.01
367.911	-0.04
368.118	0
368.326	0.02
368.534	-0.04
368.742	0.06
368.949	-0.04
369.157	-0.02
369.365	0.04
369.572	-0.05
369.78	-0.06
369.988	0.02
370.195	0.04
370.403	0.02
370.61	0.04
370.818	0.04
371.026	0.07
371.233	-0.04
371.441	0.01
371.648	-0.03
371.856	0.02
372.063	0.04
372.271	-0.02
372.478	-0.03
372.685	0
372.893	0.06
373.1	0
373.308	0
373.515	0.02
373.722	0.02
373.93	-0.01
374.137	0.05
374.344	0.06
374.552	0.04
374.759	0.03
374.966	0.02
375.173	-0.02
375.381	0.05
375.588	0.02
375.795	-0.06
376.002	-0.01
376.209	-0.03
376.417	0.01
376.624	-0
376.831	0.01
377.038	0.03
377.245	-0.05
377.452	-0
377.659	0.01
377.866	-0.04
378.073	0.01
378.28	-0
378.487	0.04
378.694	0.02
378.901	-0.01
379.108	0
379.315	0
379.522	0.1
379.729	-0.02
379.936	0.01
380.143	0.01
380.35	-0.03
380.557	-0.02
380.763	0
380.97	-0.04
381.177	0.01
381.384	0.02
381.591	-0.01
381.797	-0.01
382.004	0.05
382.211	0.04
382.418	0.01
382.624	0.04
382.831	0.07
383.038	0.03
383.244	-0
383.451	-0.01
383.658	-0.02
383.864	-0.02
384.071	-0.03
384.277	0.05
384.484	-0.06
384.69	0.01
384.897	-0.03
385.103	0.02
385.31	-0.01
385.516	-0.02
385.723	-0.03
385.929	0
386.136	-0.02
386.342	-0.02
386.549	0.03
386.755	0.07
386.961	-0.02
387.168	-0.01
387.374	0.02
387.58	0.01
387.787	-0.01
387.993	0.02
388.199	-0.03
388.406	-0.03
388.612	0.01
388.818	-0.02
389.024	-0.04
389.231	0.02
389.437	0.06
389.643	0.01
389.849	-0.03
390.055	-0.01
390.261	0.03
390.467	0.03
390.674	-0.06
390.88	-0.01
391.086	0.05
391.292	-0.02
391.498	0.06
391.704	-0.03
391.91	-0.01
392.116	-0
392.322	-0.1
392.528	-0
392.734	-0.01
392.94	0.05
393.146	-0.04
393.352	-0.01
393.557	-0.02
393.763	-0.01
393.969	0.02
394.175	0.01
394.381	0.01
394.587	-0.07
394.792	-0.01
394.998	0.01
395.204	0.09
395.41	-0.04
395.615	-0
395.821	0.05
396.027	-0.01
396.233	-0.02
396.438	-0.01
396.644	0.08
396.85	0.03
397.055	-0.02
397.261	-0.01
397.466	0.07
397.672	-0.01
397.878	0.03
398.083	0.03
398.289	-0
398.494	0.05
398.7	0.02
398.905	-0.03
399.111	0.08
399.316	-0.03
399.522	-0.07
399.727	0
399.932	-0.01
400.138	-0.02
400.343	0.06
400.549	0.01
400.754	0.02
400.959	0.03
401.165	0.03
401.37	0.04
401.575	0.06
401.78	-0.02
401.986	-0.01
402.191	-0.03
402.396	0
402.601	0.02
402.807	-0.01
403.012	-0.01
403.217	0.08
403.422	0.01
403.627	0
403.832	0.01
404.037	0
404.243	0.03
404.448	0
404.653	-0.02
404.858	-0.02
405.063	0.03
405.268	-0.03
405.473	-0.02
405.678	-0.01
405.883	0.14
406.088	0.04
406.293	-0.03
406.498	-0.06
406.703	0.05
406.907	-0.01
407.112	-0.08
407.317	0.01
407.522	0.04
407.727	-0.09
407.932	0
408.136	0.1
408.341	0.01
408.546	-0.01
408.751	0.02
408.956	-0.02
409.16	0.04
409.365	0
409.57	-0
409.774	-0.03
409.979	0.05
410.184	0.02
410.388	-0.03
410.593	-0
410.798	-0.01
411.002	-0.01
411.207	0.08
411.411	0.01
411.616	-0.05
411.82	-0.04
412.025	0.01
412.229	-0.01
412.434	0.07
412.638	-0
412.843	-0.01
413.047	0.01
413.252	-0.01
413.456	-0.01
413.66	0.02
413.865	-0.03
414.069	0.06
414.273	-0.02
414.478	-0.01
414.682	-0.01
414.886	-0.01
415.091	-0.04
415.295	-0.06
415.499	0.03
415.703	-0.04
415.908	0.03
416.112	-0.09
416.316	0.01
416.52	-0.04
416.724	-0.07
416.929	-0.05
417.133	0.11
417.337	-0.03
417.541	-0.02
417.745	-0.01
417.949	0.02
418.153	0.03
418.357	-0.08
418.561	0.07
418.765	0.01
418.969	0.06
419.173	0
419.377	-0.03
419.581	0.04
419.785	0
419.989	-0.06
420.193	-0.01
420.397	-0.02
420.601	0.02
420.804	0.05
421.008	0.01
421.212	0.01
421.416	0.04
421.62	-0.04
421.823	0.01
422.027	0.07
422.231	0.03
422.435	-0.02
422.638	0.05
422.842	-0.01
423.046	-0.04
423.249	0.01
423.453	0.01
423.657	0.02
423.86	0.01
424.064	0.01
424.268	0.04
424.471	0.05
424.675	0.1
424.878	0.09
425.082	-0.03
425.285	0.01
425.489	-0.04
425.692	0
425.896	-0.02
426.099	0.03
426.303	-0.03
426.506	-0.08
426.71	0.02
426.913	0.02
427.116	0.06
427.32	0.01
427.523	0.04
427.726	0.1
427.93	-0.09
428.133	-0.03
428.336	-0.09
428.54	-0.05
428.743	-0.04
428.946	0.02
429.149	-0.04
429.353	0.01
429.556	-0.05
429.759	-0
429.962	-0.01
430.165	0.01
430.368	-0.01
430.571	-0.02
430.775	0.02
430.978	0
431.181	0.03
431.384	0.03
431.587	-0.06
431.79	-0.01
431.993	0.06
432.196	0.01
432.399	0.01
432.602	0.02
432.805	-0.02
433.008	0.01
433.211	-0.06
433.414	0.04
433.616	0.02
433.819	0.05
434.022	-0.06
434.225	0.08
434.428	0.08
434.631	0.05
434.833	0.03
435.036	0.01
435.239	0.06
435.442	0.02
435.645	-0.03
435.847	0.01
436.05	0.08
436.253	0.03
436.455	-0.05
436.658	-0.01
436.861	0.07
437.063	-0.04
437.266	-0
437.468	0.01
437.671	0.11
437.874	0.04
438.076	-0.04
438.279	-0.07
438.481	-0.03
438.684	-0.07
438.886	-0
439.089	-0.05
439.291	-0.01
439.494	0.03
439.696	0
439.899	0.05
440.101	-0.03
440.303	-0.03
440.506	0.02
440.708	-0.01
440.91	0.05
441.113	-0.04
441.315	0.01
441.517	-0.08
441.72	0.03
441.922	-0.06
442.124	-0.06
442.326	-0.02
442.529	0.06
442.731	-0.04
442.933	0.08
443.135	0.02
443.337	-0.04
443.539	-0.03
443.742	-0.03
443.944	0.08
444.146	0.01
444.348	-0.05
444.55	-0
444.752	-0.03
444.954	-0.05
445.156	0.01
445.358	-0.02
445.56	0.06
445.762	-0.02
445.964	-0
446.166	-0.01
446.368	-0.09
446.57	0.02
446.772	-0.01
446.974	-0.06
447.175	0.01
447.377	-0.03
447.579	-0.01
447.781	-0.11
447.983	0.06
448.184	0.01
448.386	-0
448.588	-0.12
448.79	-0.03
448.991	-0.02
449.193	-0.02
449.395	0.01
449.597	0.07
449.798	-0.01
450	0.01
450.202	0.03
450.403	0
450.605	0.06
450.806	-0
451.008	-0.03
451.21	-0.05
451.411	0.02
451.613	-0.01
451.814	-0
452.016	-0.01
452.217	-0.01
452.419	0.03
452.62	-0.03
452.821	0.01
453.023	0.05
453.224	0.1
453.426	0.01
453.627	0.02
453.828	0.04
454.03	-0.01
454.231	0.02
454.432	-0.03
454.634	0.04
454.835	-0.01
455.036	-0.06
455.238	0.02
455.439	0.02
455.64	-0.05
455.841	-0.01
456.042	0.04
456.244	0.01
456.445	-0.05
456.646	-0.01
456.847	-0.04
457.048	0.03
457.249	0.02
457.45	0.16
457.651	-0.08
457.852	0.05
458.054	-0.02
458.255	-0.02
458.456	0.02
458.657	0.03
458.858	-0.04
459.058	0.05
459.259	0.01
459.46	-0.01
459.661	-0.03
459.862	0.1
460.063	-0.04
460.264	0.04
460.465	-0.06
460.666	0.08
460.866	-0.01
461.067	-0.01
461.268	-0.02
461.469	0
461.67	-0.03
461.87	-0.03
462.071	-0.02
462.272	-0.06
462.473	-0
462.673	0
462.874	-0.05
463.075	-0.01
463.275	-0.02
463.476	-0.01
463.676	0
463.877	-0.02
464.078	-0.03
464.278	0.01
464.479	-0.03
464.679	0.04
464.88	0.01
465.08	0.03
465.281	-0.03
465.481	0.02
465.682	0.03
465.882	0.02
466.083	0
466.283	-0.01
466.483	0.02
466.684	-0.05
466.884	-0.03
467.085	-0.04
467.285	0.06
467.485	-0.01
467.686	0.02
467.886	-0.05
468.086	0.01
468.286	-0
468.487	-0.02
468.687	-0.01
468.887	-0.05
469.087	0.01
469.287	0.01
469.488	-0.04
469.688	-0
469.888	0.08
470.088	0.05
470.288	0.04
470.488	0.05
470.688	-0.05
470.888	-0.05
471.088	-0.05
471.288	0.03
471.488	0.02
471.688	0.01
471.888	-0.01
472.088	0.05
472.288	0
472.488	-0.04
472.688	-0.03
472.888	-0.02
473.088	0.03
473.288	0.01
473.488	0.04
473.688	0.08
473.887	0.01
474.087	-0
474.287	0.01
474.487	-0.01
474.687	0.05
474.886	0.01
475.086	-0.02
475.286	0.02
475.486	0.03
475.685	0.01
475.885	0.02
476.085	0
476.284	0.03
476.484	-0.03
476.684	0.01
476.883	0.04
477.083	0.01
477.282	-0.02
477.482	0.06
477.681	0.04
477.881	0
478.08	-0.04
478.28	-0.07
478.479	0.04
478.679	0.08
478.878	-0.01
479.078	-0.05
479.277	-0.01
479.477	-0.02
479.676	0.05
479.875	-0.02
480.075	-0.02
480.274	-0
480.473	-0.01
480.673	-0.02
480.872	0.03
481.071	0.01
481.271	0.04
481.47	-0.04
481.669	-0.01
481.868	-0
482.067	-0.03
482.267	0
482.466	-0.04
482.665	-0.04
482.864	-0.04
483.063	-0.03
483.262	0.01
483.461	0.02
483.661	0.03
483.86	-0.01
484.059	0
484.258	0
484.457	0
484.656	0.01
484.855	0.02
485.054	-0.05
485.253	-0.03
485.452	-0.03
485.651	0.01
485.849	0.01
486.048	-0.03
486.247	-0.01
486.446	0.01
486.645	-0.03
486.844	-0.03
487.043	-0.01
487.241	0.02
487.44	-0.04
487.639	-0.02
487.838	0.01
488.037	0.01
488.235	0.04
488.434	0.01
488.633	-0.02
488.831	0.01
489.03	0.03
489.229	-0
489.427	-0.01
489.626	0.04
489.825	0.05
490.023	0.01
490.222	0
490.42	0.02
490.619	0.01
490.817	0.02
491.016	-0.02
491.214	0.02
491.413	-0.02
491.611	-0.01
491.81	0.01
492.008	0.02
492.207	0.02
492.405	-0
492.604	-0.04
492.802	-0.01
493	-0.01
493.199	-0.04
493.397	0.01
493.595	-0.01
493.794	-0.01
493.992	0.05
494.19	-0.01
494.388	0.01
494.587	-0.02
494.785	0
494.983	-0.03
495.181	-0.01
495.379	-0.02
495.578	0.01
495.776	0
495.974	0.02
496.172	-0.01
496.37	-0.01
496.568	-0.02
496.766	-0.02
496.964	0.04
497.162	-0
497.36	0
497.558	0.02
497.756	0.02
497.954	-0
498.152	-0.03
498.35	-0.01
498.548	-0.02
498.746	0.01
498.944	-0.01
499.142	-0.01
499.34	-0.02
499.538	0.01
499.736	-0.02
499.933	0.04
500.131	0.03
500.329	-0.02
500.527	0.05
500.725	0.04
500.922	0.03
501.12	0.01
501.318	0.02
501.516	0
501.713	0.02
501.911	0.01
502.109	-0.03
502.306	0.01
502.504	-0.01
502.701	-0.01
502.899	-0
503.097	0.01
503.294	0
503.492	-0.01
503.689	0.01
503.887	0.02
504.084	0.03
504.282	-0.01
504.479	-0.02
504.677	0.01
504.874	-0.03
505.072	0.02
505.269	0.01
505.466	0.02
505.664	0.03
505.861	-0.04
506.059	-0.05
506.256	0.02
506.453	-0.02
506.651	0.05
506.848	0.03
507.045	0.01
507.242	-0.04
507.44	-0
507.637	0.02
507.834	0.01
508.031	0
508.229	-0.02
508.426	0
508.623	0.01
508.82	-0
509.017	-0.02
509.214	-0.01
509.411	-0.01
509.608	-0.01
509.805	0.01
510.003	-0
510.2	-0.03
510.397	0.02
510.594	-0.01
510.791	0.01
510.988	-0.02
511.184	0.03
511.381	0.02
511.578	-0.01
511.775	0.03
511.972	-0.02
512.169	-0.01
512.366	0
512.563	0.01
512.76	-0.02
512.956	0.01
513.153	-0.03
513.35	0.02
513.547	-0.01
513.744	-0.04
513.94	-0.04
514.137	0.01
514.334	0.02
514.53	0
514.727	0.02
514.924	0.06
515.12	-0.01
515.317	-0.03
515.514	-0.01
515.71	-0.03
515.907	0.02
516.103	0.01
516.3	0
516.497	0.02
516.693	0.01
516.89	0.02
517.086	-0.03
517.283	0
517.479	-0.02
517.676	-0
517.872	0.01
518.068	-0.03
518.265	-0.03
518.461	-0.02
518.658	-0.02
518.854	-0.01
519.05	0
519.247	-0
519.443	0.02
519.639	0.01
519.836	0
520.032	-0.01
520.228	0.01
520.424	0.04
520.621	0.03
520.817	-0
521.013	0.02
521.209	-0.01
521.405	0.05
521.601	-0.01
521.798	0.01
521.994	0.03
522.19	-0.01
522.386	-0.02
522.582	-0
522.778	-0.02
522.974	-0.01
523.17	-0.01
523.366	0.01
523.562	0.02
523.758	0
523.954	-0.01
524.15	-0.02
524.346	0.03
524.542	-0
524.738	-0.02
524.934	0.01
525.129	-0.06
525.325	-0.01
525.521	0
525.717	0.03
525.913	0.01
526.109	-0.01
526.304	-0.01
526.5	0.02
526.696	0.02
526.892	0
527.087	-0
527.283	-0.01
527.479	0
527.674	-0.02
527.87	-0
528.066	-0.01
528.261	-0.01
528.457	0.01
528.653	0
528.848	-0.01
529.044	0.01
529.239	-0.02
529.435	0.03
529.63	-0.01
529.826	0.04
530.021	0.01
530.217	0.03
530.412	-0.01
530.608	-0.03
530.803	-0
530.999	-0.01
531.194	-0.03
531.389	0.03
531.585	-0.04
531.78	0.01
531.975	-0
532.171	0.03
532.366	0
532.561	-0
532.757	-0
532.952	-0
533.147	0
533.342	0.01
533.538	-0.01
533.733	0.02
533.928	0.01
534.123	-0
534.318	-0.04
534.513	-0.01
534.709	-0
534.904	-0
535.099	-0.02
535.294	-0
535.489	-0
535.684	-0
535.879	-0.03
536.074	0.01
536.269	-0.02
536.464	0.01
536.659	-0
536.854	-0
537.049	0.02
537.244	0
537.439	-0
537.634	0.05
537.828	0.01
538.023	-0.02
538.218	-0.02
538.413	-0.01
538.608	-0.04
538.803	0.02
538.997	-0.03
539.192	0.03
539.387	0.01
539.582	0
539.776	0.01
539.971	0.01
540.166	0.01
540.36	-0.03
540.555	0
540.75	0.01
540.944	0.02
541.139	-0.03
541.334	-0.01
541.528	0.01
541.723	0.01
541.917	-0.01
542.112	-0.06
542.306	0
542.501	-0.01
542.695	0.01
542.89	0
543.084	0.01
543.279	-0.02
543.473	0.01
543.668	0
543.862	0
544.056	0.02
544.251	-0.01
544.445	0.03
544.64	-0.02
544.834	-0
545.028	0.01
545.222	0
545.417	0.02
545.611	0.01
545.805	0.01
546	-0.02
546.194	0
546.388	0.01
546.582	0.01
546.776	0
546.97	0.03
547.165	0.01
547.359	0.01
547.553	-0.01
547.747	0.02
547.941	-0.01
548.135	-0.02
548.329	0.02
548.523	-0.01
548.717	-0.01
548.911	-0.01
549.105	-0
549.299	-0.01
549.493	0.04
549.687	0.01
549.881	0.01
550.075	0
550.269	-0.03
550.463	0.01
550.657	-0.02
550.85	0.01
551.044	0.01
551.238	-0
551.432	-0.03
551.626	-0.01
551.82	0.02
552.013	-0.02
552.207	0.01
552.401	0.01
552.594	0.02
552.788	0.01
552.982	-0.01
553.176	-0.01
553.369	0.02
553.563	0.03
553.756	-0.01
553.95	-0.03
554.144	-0.01
554.337	0.03
554.531	0.01
554.724	-0
554.918	-0.03
555.111	0.03
555.305	0.01
555.498	0.05
555.692	0.02
555.885	0.01
556.079	0
556.272	-0.02
556.466	0.01
556.659	-0.01
556.852	-0.01
557.046	-0
557.239	-0
557.432	-0.01
557.626	-0.01
557.819	0.01
558.012	0.04
558.206	0.03
558.399	-0.01
558.592	0.01
558.785	-0.01
558.979	0.01
559.172	0.02
559.365	0.02
559.558	-0
559.751	0
559.944	0.02
560.138	0.02
560.331	-0.02
560.524	-0
560.717	0.01
560.91	0
561.103	0.02
561.296	0.03
561.489	0.02
561.682	-0
561.875	0.04
562.068	0.02
562.261	0.04
562.454	0.03
562.647	0.03
562.84	0.04
563.032	0.01
563.225	0
563.418	-0.01
563.611	0
563.804	0.01
563.997	-0
564.19	-0.02
564.382	-0.03
564.575	0
564.768	0.01
564.961	0.02
565.153	-0.01
565.346	0.02
565.539	0.03
565.731	0.03
565.924	0.02
566.117	0.02
566.309	-0.01
566.502	0.02
566.695	0.02
566.887	0.04
567.08	-0.03
567.272	0
567.465	0.01
567.657	0.02
567.85	0.03
568.042	0.02
568.235	0.04
568.427	0.02
568.62	0.01
568.812	0.04
569.005	0.02
569.197	-0.02
569.389	0.03
569.582	0.02
569.774	0.01
569.966	-0
570.159	0.01
570.351	0.05
570.543	0.03
570.736	0.02
570.928	-0.01
571.12	0.03
571.312	0.02
571.505	0.01
571.697	0.05
571.889	0
572.081	0.02
572.273	-0
572.465	0.05
572.658	0.03
572.85	0.02
573.042	0.03
573.234	0.03
573.426	0.07
573.618	0.01
573.81	0.04
574.002	0.06
574.194	0.07
574.386	-0
574.578	-0.02
574.77	-0.02
574.962	0.04
575.154	-0.02
575.346	0.02
575.538	0.04
575.729	0.01
575.921	0.03
576.113	0.03
576.305	0.06
576.497	0.03
576.689	0.04
576.88	0.02
577.072	0.06
577.264	0.02
577.456	0.04
577.647	-0.03
577.839	0.03
578.031	0.09
578.223	0.02
578.414	0.02
578.606	0.09
578.798	0.07
578.989	0.03
579.181	0.05
579.372	0.07
579.564	0.06
579.755	0.06
579.947	0.06
580.139	0.09
580.33	0.03
580.522	0.03
580.713	0.01
580.905	0.06
581.096	0.06
581.287	0.06
581.479	0.08
581.67	0.1
581.862	0.06
582.053	0.09
582.244	0.03
582.436	0.09
582.627	0.08
582.818	0.06
583.01	0.05
583.201	0.11
583.392	0.1
583.583	0.08
583.775	0.09
583.966	0.08
584.157	0.09
584.348	0.07
584.54	0.06
584.731	0.11
584.922	0.11
585.113	0.08
585.304	0.11
585.495	0.14
585.686	0.13
585.877	0.12
586.068	0.14
586.259	0.15
586.45	0.15
586.641	0.13
586.832	0.08
587.023	0.13
587.214	0.13
587.405	0.17
587.596	0.09
587.787	0.17
587.978	0.17
588.169	0.15
588.36	0.15
588.551	0.18
588.742	0.14
588.932	0.19
589.123	0.17
589.314	0.2
589.505	0.21
589.696	0.22
589.886	0.16
590.077	0.14
590.268	0.19
590.458	0.15
590.649	0.16
590.84	0.23
591.03	0.2
591.221	0.18
591.412	0.17
591.602	0.25
591.793	0.26
591.984	0.22
592.174	0.22
592.365	0.31
592.555	0.22
592.746	0.26
592.936	0.28
593.127	0.3
593.317	0.31
593.508	0.25
593.698	0.26
593.889	0.27
594.079	0.29
594.269	0.27
594.46	0.29
594.65	0.27
594.84	0.3
595.031	0.31
595.221	0.31
595.411	0.28
595.602	0.34
595.792	0.34
595.982	0.35
596.172	0.4
596.363	0.37
596.553	0.41
596.743	0.39
596.933	0.39
597.123	0.43
597.314	0.38
597.504	0.39
597.694	0.45
597.884	0.44
598.074	0.46
598.264	0.42
598.454	0.47
598.644	0.46
598.834	0.48
599.024	0.43
599.214	0.49
599.404	0.55
599.594	0.53
599.784	0.5
599.974	0.57
600.164	0.57
600.354	0.52
600.544	0.53
600.734	0.55
600.924	0.63
601.114	0.56
601.303	0.56
601.493	0.63
601.683	0.61
601.873	0.63
602.063	0.61
602.252	0.7
602.442	0.59
602.632	0.68
602.821	0.63
603.011	0.72
603.201	0.7
603.39	0.7
603.58	0.68
603.77	0.77
603.959	0.81
604.149	0.76
604.339	0.79
604.528	0.83
604.718	0.83
604.907	0.82
605.097	0.77
605.286	0.84
605.476	0.9
605.665	0.91
605.855	0.88
606.044	0.97
606.234	0.94
606.423	0.97
606.612	0.96
606.802	0.98
606.991	1.01
607.181	1.05
607.37	1.02
607.559	1.01
607.749	1.02
607.938	1.07
608.127	1.08
608.316	1.09
608.506	1.12
608.695	1.14
608.884	1.14
609.073	1.19
609.263	1.22
609.452	1.21
609.641	1.25
609.83	1.19
610.019	1.28
610.208	1.26
610.397	1.31
610.586	1.37
610.775	1.3
610.965	1.38
611.154	1.37
611.343	1.43
611.532	1.39
611.721	1.45
611.91	1.47
612.099	1.46
612.287	1.49
612.476	1.49
612.665	1.57
612.854	1.54
613.043	1.63
613.232	1.62
613.421	1.62
613.61	1.72
613.798	1.71
613.987	1.78
614.176	1.76
614.365	1.84
614.554	1.85
614.742	1.94
614.931	1.82
615.12	2
615.309	1.95
615.497	1.99
615.686	1.95
615.875	2.05
616.063	2.03
616.252	2.09
616.44	2.19
616.629	2.2
616.818	2.23
617.006	2.3
617.195	2.25
617.383	2.3
617.572	2.3
617.76	2.4
617.949	2.45
618.137	2.54
618.326	2.53
618.514	2.48
618.703	2.55
618.891	2.69
619.079	2.62
619.268	2.81
619.456	2.72
619.644	2.88
619.833	2.8
620.021	2.9
620.209	2.9
620.398	3.03
620.586	3.01
620.774	3.12
620.962	3.13
621.151	3.26
621.339	3.22
621.527	3.27
621.715	3.32
621.903	3.39
622.092	3.39
622.28	3.49
622.468	3.49
622.656	3.6
622.844	3.6
623.032	3.69
623.22	3.63
623.408	3.82
623.596	3.83
623.784	4
623.972	3.88
624.16	3.96
624.348	4.06
624.536	4.13
624.724	4.08
624.912	4.2
625.1	4.25
625.288	4.27
625.476	4.27
625.664	4.39
625.851	4.38
626.039	4.48
626.227	4.42
626.415	4.53
626.603	4.5
626.79	4.61
626.978	4.67
627.166	4.7
627.354	4.64
627.541	4.69
627.729	4.6
627.917	4.83
628.104	4.84
628.292	4.8
628.48	4.84
628.667	4.84
628.855	5.05
629.042	4.99
629.23	4.95
629.418	4.87
629.605	4.99
629.793	4.87
629.98	4.95
630.168	4.94
630.355	4.88
630.543	4.96
630.73	4.82
630.917	4.85
631.105	4.95
631.292	4.82
631.48	4.84
631.667	4.85
631.854	4.75
632.042	4.73
632.229	4.56
632.416	4.64
632.604	4.55
632.791	4.41
632.978	4.52
633.165	4.34
633.353	4.36
633.54	4.31
633.727	4.16
633.914	4.08
634.101	4.03
634.289	4.13
634.476	3.91
634.663	3.92
634.85	3.81
635.037	3.66
635.224	3.56
635.411	3.62
635.598	3.42
635.785	3.33
635.972	3.27
636.159	3.24
636.346	3.09
636.533	2.99
636.72	2.9
636.907	2.84
637.094	2.77
637.281	2.62
637.468	2.61
637.655	2.58
637.842	2.48
638.029	2.36
638.215	2.32
638.402	2.25
638.589	2.15
638.776	2.11
638.963	2.02
639.149	2.02
639.336	1.98
639.523	1.88
639.709	1.75
639.896	1.71
640.083	1.73
640.27	1.64
640.456	1.54
640.643	1.52
640.829	1.4
641.016	1.38
641.203	1.31
641.389	1.35
641.576	1.28
641.762	1.22
641.949	1.2
642.135	1.17
642.322	1.12
642.508	1.01
642.695	1.08
642.881	0.96
643.068	0.96
643.254	0.94
643.441	1
643.627	0.92
643.813	0.81
644	0.85
644.186	0.77
644.372	0.72
644.559	0.8
644.745	0.72
644.931	0.65
645.118	0.69
645.304	0.66
645.49	0.62
645.676	0.61
645.862	0.6
646.049	0.62
646.235	0.57
646.421	0.6
646.607	0.56
646.793	0.51
646.979	0.45
647.165	0.46
647.352	0.44
647.538	0.46
647.724	0.42
647.91	0.41
648.096	0.43
648.282	0.42
648.468	0.36
648.654	0.38
648.84	0.36
649.026	0.35
649.212	0.34
649.397	0.27
649.583	0.27
649.769	0.33
649.955	0.34
650.141	0.32
650.327	0.32
650.513	0.28
650.698	0.29
650.884	0.2
651.07	0.23
651.256	0.24
651.442	0.25
651.627	0.22
651.813	0.23
651.999	0.18
652.184	0.25
652.37	0.2
652.556	0.19
652.741	0.27
652.927	0.12
653.113	0.2
653.298	0.19
653.484	0.15
653.669	0.13
653.855	0.18
654.04	0.15
654.226	0.13
654.412	0.16
654.597	0.08
654.782	0.15
654.968	0.17
655.153	0.16
655.339	0.11
655.524	0.1
655.71	0.13
655.895	0.11
656.08	0.1
656.266	0.18
656.451	0.1
656.636	0.1
656.822	0.12
657.007	0.06
657.192	0.09
657.378	0.04
657.563	0.1
657.748	0.12
657.933	0.11
658.118	0.07
658.304	0.06
658.489	0.14
658.674	0.13
658.859	0.05
659.044	0.12
659.229	0.08
659.414	0.05
659.599	0.1
659.785	0.01
659.97	0.05
660.155	0.09
660.34	0.04
660.525	0.04
660.71	0.05
660.895	0.09
661.08	0.03
661.264	0.04
661.449	0.09
661.634	0.12
661.819	0.04
662.004	0.06
662.189	0.02
662.374	0.05
662.559	0.01
662.743	-0.02
662.928	0.04
663.113	0.05
663.298	-0.01
663.483	0.07
663.667	0.07
663.852	-0.01
664.037	0.09
664.221	-0
664.406	0.09
664.591	0.09
664.775	0.04
664.96	0.07
665.145	0.03
665.329	0.04
665.514	0.05
665.698	0.03
665.883	-0.07
666.068	0.09
666.252	0.01
666.437	-0
666.621	0.03
666.806	0.08
666.99	0.01
667.174	0.01
667.359	0.09
667.543	0.03
667.728	0.03
667.912	-0.04
668.096	0.1
668.281	-0
668.465	0.06
668.649	0.02
668.834	-0.01
669.018	-0
669.202	0.04
669.387	-0.04
669.571	0.03
669.755	-0
669.939	0.03
670.124	0.03
670.308	0.08
670.492	0.06
670.676	0.01
670.86	0.02
671.044	-0.04
671.228	0.04
671.413	0
671.597	-0.02
671.781	-0.01
671.965	0.06
672.149	-0
672.333	0.06
672.517	0
672.701	0.03
672.885	0.01
673.069	-0.04
673.253	0.06
673.437	0.03
673.621	-0.02
673.804	0.01
673.988	0.01
674.172	0.02
674.356	-0.04
674.54	-0.02
674.724	0.09
674.908	-0.03
675.091	0.02
675.275	-0.05
675.459	0.08
675.643	-0
675.826	0.03
676.01	0.02
676.194	-0.03
676.377	0.04
676.561	0.03
676.745	0.01
676.928	0.04
677.112	0.08
677.296	0.01
677.479	0.01
677.663	0.01
677.846	0.03
678.03	-0.01
678.213	-0
678.397	0.05
678.58	0.01
678.764	0.01
678.947	-0.02
679.131	-0.05
679.314	0.09
679.498	0.02
679.681	0.04
679.865	0.02
680.048	0.01
680.231	-0.01
680.415	0.02
680.598	0.01
680.781	0.01
680.965	0.01
681.148	0.02
681.331	-0.02
681.514	0.02
681.698	-0.04
681.881	0.05
682.064	0.02
682.247	0.03
682.43	-0.11
682.614	0.03
682.797	0.07
682.98	0.03
683.163	-0.05
683.346	0.09
683.529	-0.03
683.712	-0
683.895	0.03
684.078	-0.04
684.261	0.02
684.444	0.03
684.627	0.05
684.81	-0
684.993	0.02
685.176	0.02
685.359	0.01
685.542	0.02
685.725	0.09
685.908	-0.01
686.091	0.02
686.274	0.03
686.457	0.05
686.639	-0
686.822	0.03
687.005	0.06
687.188	0.04
687.371	0.07
687.553	0.06
687.736	0.04
687.919	0.06
688.102	0.11
688.284	-0
688.467	-0.01
688.65	-0
688.832	-0.03
689.015	0.02
689.197	-0.08
689.38	0.1
689.563	0.06
689.745	-0.03
689.928	-0.02
690.11	-0.01
690.293	0.05
690.475	-0.05
690.658	0.05
690.84	0.01
691.023	0.02
691.205	-0.04
691.388	0
691.57	0.01
691.752	-0
691.935	-0.07
692.117	0.01
692.3	0.04
692.482	0.01
692.664	-0.02
692.847	0.02
693.029	0.06
693.211	0.04
693.393	-0.05
693.576	-0.03
693.758	0.05
693.94	-0.02
694.122	-0.01
694.304	0
694.487	-0.02
694.669	0.1
694.851	-0.02
695.033	0.02
695.215	-0.07
695.397	0
695.579	0.02
695.761	-0.03
695.943	-0.08
696.125	0.09
696.308	-0.02
696.49	-0.07
696.671	0.1
696.853	-0.06
697.035	0.05
697.217	0.03
697.399	0.03
697.581	-0.05
697.763	0.03
697.945	-0.04
698.127	-0.01
698.309	0.05
698.491	0.03
698.672	0.05
698.854	0.02
699.036	0.09
699.218	-0.02
699.399	0.08
699.581	0.03
699.763	-0.01
699.945	-0.02
700.126	-0.03
700.308	0.03
700.49	-0.05
700.671	-0.08
700.853	-0.05
701.035	-0.02
701.216	-0.02
701.398	-0.05
701.579	-0.01
701.761	0.05
701.943	-0.02
702.124	-0.06
702.306	-0.02
702.487	0.08
702.669	0.04
702.85	-0.02
703.031	-0.05
703.213	0.07
703.394	0.02
703.576	-0.03
703.757	0.06
703.938	0.06
704.12	0.11
704.301	-0
704.483	0.04
704.664	0.03
704.845	0.05
705.026	0.07
705.208	-0.02
705.389	0.02
705.57	-0.03
705.751	-0.02
705.933	0.02
706.114	0.09
706.295	-0.01
706.476	-0.07
706.657	0.07
706.838	-0.05
707.02	0.03
707.201	-0.05
707.382	-0.03
707.563	-0.06
707.744	0.03
707.925	0.01
708.106	-0.02
708.287	0.06
708.468	0.11
708.649	-0.05
708.83	0.04
709.011	0.04
709.192	0.05
709.373	-0.11
709.554	-0.01
709.734	0.02
709.915	0.1
710.096	0.07
710.277	-0.14
710.458	0.02
710.639	0.03
710.819	-0.07
711	0
711.181	0.07
711.362	0.02
711.542	0.03
711.723	-0.03
711.904	0.02
712.085	-0.01
712.265	-0.01
712.446	-0.09
712.627	0.01
712.807	0.01
712.988	0.06
713.168	-0.08
713.349	0
713.53	-0.1
713.71	-0.08
713.891	-0.08
714.071	-0.04
714.252	-0.02
714.432	-0.08
714.613	-0.13
714.793	-0.05
714.974	0.1
715.154	0.03
715.334	0.02
715.515	0.15
715.695	-0.05
715.876	0.07
716.056	0.01
716.236	0.02
716.417	-0.01
716.597	-0.02
716.777	0.09
716.957	-0.03
717.138	-0.04
717.318	0.01
717.498	-0.02
717.678	-0.01
717.859	0.06
718.039	-0.1
718.219	0.03
718.399	0.08
718.579	-0.09
718.759	-0.05
718.939	0.03
719.12	-0.01
719.3	0.01
719.48	-0.09
719.66	-0.1
719.84	0.05
720.02	-0.01
720.2	-0
720.38	0.03
720.56	0.1
720.74	-0.01
720.92	0.03
721.1	0.09
721.279	0.02
721.459	0.02
721.639	-0.11
721.819	0.01
721.999	-0.02
722.179	0.02
722.359	-0.09
722.538	-0.02
722.718	-0.03
722.898	-0.04
723.078	-0.01
723.257	-0.05
723.437	-0.02
723.617	0.04
723.797	0.05
723.976	-0.01
724.156	0.05
724.336	0.15
724.515	0.13
724.695	-0.12
724.874	-0
725.054	-0.04
725.234	-0.1
725.413	-0
725.593	0.02
725.772	-0.02
725.952	0.05
726.131	-0.02
726.311	0.06
726.49	0.01
726.67	-0.04
726.849	-0.06
727.028	-0.02
727.208	-0.05
727.387	0.05
727.567	-0.08
727.746	0.06
727.925	-0.1
728.105	-0.08
728.284	0
728.463	-0.07
728.643	0.08
728.822	-0.12
729.001	-0.04
729.18	-0.04
729.359	0.01
729.539	0.01
729.718	-0.04
729.897	0.06
730.076	0.01
730.255	-0.1
730.434	0.04
730.614	0.02
730.793	0.08
730.972	-0.04
731.151	0.01
731.33	0.07
731.509	0.03
731.688	0.04
731.867	0.02
732.046	-0.15
732.225	0.16
732.404	-0.02
732.583	-0.06
732.762	0.07
732.941	0.08
733.12	0.06
733.298	-0.02
733.477	0.02
733.656	-0.01
733.835	-0.08
734.014	0.09
734.193	0.03
734.371	0.01
734.55	0.01
734.729	-0.06
734.908	0.05
735.086	0.05
735.265	0.06
735.444	-0.16
735.623	-0.09
735.801	-0.06
735.98	-0.04
736.159	-0.03
736.337	-0.01
736.516	0.01
736.694	-0.03
736.873	0
737.052	0.08
737.23	0.21
737.409	-0.03
737.587	0.1
737.766	-0.11
737.944	-0.12
738.123	-0.03
738.301	0.01
738.479	-0.06
738.658	0.11
738.836	-0.17
739.015	-0
739.193	-0.04
739.371	-0.03
739.55	-0.12
739.728	-0.08
739.906	0.04
740.085	0.08
740.263	-0.07
740.441	-0.07
740.62	0.02
740.798	0.08
740.976	-0.13
741.154	-0.15
741.332	0.17
741.511	-0.1
741.689	0.04
741.867	-0.01
742.045	-0.03
742.223	0.04
742.401	-0.19
742.579	-0.07
742.757	0.06
742.935	-0.07
743.114	-0.07
743.292	-0.01
743.47	-0.05
743.648	0.06
743.826	-0.17
744.004	0.06
744.181	-0.03
744.359	-0.07
744.537	-0.02
744.715	-0.04
744.893	0.05
745.071	0.09
745.249	-0.01
745.427	-0.09
745.605	0.07
745.782	0.04
745.96	0.05
746.138	0.09
746.316	0.18
746.493	-0.04
746.671	-0.01
746.849	-0.08
747.027	0.07
747.204	-0.14
747.382	-0.01
747.56	-0.2
747.737	-0.03
747.915	-0.13
748.093	0.05
748.27	-0.06
748.448	-0.13
748.625	-0.16
748.803	-0.06
748.98	-0.07
749.158	-0.02
749.335	0.07
749.513	-0.1
749.69	0.01
749.868	0.01
750.045	0.05
750.223	0.03
750.4	-0.17
750.578	0.15
750.755	-0.05
750.932	-0.18
751.11	0.07
751.287	-0.17
751.464	0.08
751.642	-0.04
751.819	0
751.996	0.07
752.173	-0.03
752.351	-0.03
752.528	0.05
752.705	0.02
752.882	-0.07
753.06	0.04
753.237	0.08
753.414	0.16
753.591	0.18
753.768	-0.02
753.945	-0
754.122	-0.05
754.299	-0.06
754.476	-0.05
754.654	-0.07
754.831	0.02
755.008	-0.06
755.185	-0.04
755.362	-0.09
755.539	0.07
755.716	-0.13
755.892	-0.03
756.069	-0.06
756.246	0.06
756.423	-0.02
756.6	0.14
756.777	-0.05
756.954	0.07
757.131	-0.04
757.307	-0.08
757.484	-0.09
757.661	-0.04
757.838	-0.04
758.015	-0.03
758.191	-0
758.368	0.02
758.545	0.12
758.721	0.03
758.898	-0.02
759.075	0.02
759.251	0.05
759.428	0
759.605	-0.23
759.781	0.03
759.958	0.13
760.134	-0.06
760.311	-0.16
760.488	0.06
760.664	0.11
760.841	0.05
761.017	-0.08
761.194	0.02
761.37	0
761.547	-0.02
761.723	-0.01
761.899	0.08
762.076	-0.01
762.252	-0.13
762.429	-0.17
762.605	0.16
762.781	-0.09
762.958	0.13
763.134	-0.03
763.31	-0.09
763.486	0.14
763.663	-0.17
763.839	0.1
764.015	-0.29
764.191	-0.09
764.368	-0.05
764.544	-0.03
764.72	0.02
764.896	0.08
765.072	-0.01
765.248	-0.06
765.425	0.03
765.601	0.07
765.777	-0.05
765.953	-0.27
766.129	-0.07
766.305	-0.04
766.481	0.07
766.657	0.04
766.833	0.23
767.009	-0.18
767.185	-0.09
767.361	-0.05
767.537	-0.17
767.713	-0.13
767.889	-0.07
768.065	-0.01
768.24	-0.15
768.416	0.15
768.592	0.01
768.768	-0.01
768.944	0.01
769.12	-0.2
769.295	-0.06
769.471	-0.07
769.647	-0.07
769.823	0.14
769.998	-0.06
770.174	-0.1
770.35	0.39
770.525	0.2
770.701	0.06
770.877	-0.04
771.052	-0.07
771.228	0.15
771.403	-0.07
771.579	0.05
771.755	0.3
771.93	0
772.106	-0.12
772.281	-0.21
772.457	-0.07
772.632	-0.09
772.808	-0.18
772.983	-0
773.159	-0.23
773.334	-0.05
773.509	-0.07
773.685	-0.12
773.86	0.21
774.036	0.18
774.211	0
774.386	-0.09
774.562	-0
774.737	-0.14
774.912	-0.11
775.087	0.13
775.263	-0.12
775.438	0.07
775.613	-0.14
775.788	0.07
775.964	0.11
776.139	0.17
776.314	-0.21
776.489	0.16
776.664	-0.04
776.839	-0.25
777.014	0.16
777.19	0.17
777.365	0.21
777.54	0.27
777.715	-0.12
777.89	-0.06
778.065	-0.15
778.24	0.02
778.415	0.26
778.59	-0.1
778.765	-0.27
778.94	-0.05
779.115	0.04
779.289	-0.08
779.464	-0.03
779.639	-0.03
779.814	-0.28
779.989	-0.24
780.164	0.06
780.339	-0.01
780.513	-0.22
780.688	-0.26
780.863	-0.07
781.038	0.05
781.212	-0.04
781.387	-0.17
781.562	0.18
781.737	-0.15
781.911	0.06
782.086	-0.07
782.261	0.1
782.435	0.29
782.61	-0.13
782.784	-0.22
782.959	0.2
783.134	-0.11
783.308	-0.32
783.483	-0
783.657	0.27
783.832	0.18
784.006	-0.23
784.181	0.19
784.355	0.08
784.53	-0.19
784.704	-0.2
784.878	0.17
785.053	-0.01
785.227	0.28
785.402	0.24
785.576	-0.19
785.75	0.01
785.925	-0.24
786.099	0.07
786.273	-0.03
786.448	0.14
786.622	0.17
786.796	-0.09
786.97	-0.04
787.145	0.43
787.319	-0.37
787.493	-0.16
787.667	-0.3
787.841	0.09
788.015	0.03
788.19	-0.11
788.364	-0.18
788.538	0.25
788.712	0.23
788.886	-0.05
789.06	0.19
789.234	0.1
789.408	-0.28
789.582	-0.05
789.756	-0.13
789.93	-0.11
790.104	-0.19
790.278	-0.12
790.452	-0.18
790.626	0.25
790.8	-0.22
790.973	0.03
791.147	-0.04
791.321	0.25
791.495	0.11
791.669	-0.05
791.843	0.02
792.016	-0.1
792.19	0.44
792.364	-0.27
792.538	0.42
792.711	0.29
792.885	-0.05
793.059	-0.23
793.233	-0.47
793.406	0.13
793.58	-0.02
793.754	-0.02
793.927	-0.12
794.101	0.28
794.274	0.01
794.448	0.3
794.622	-0.21
794.795	0.28
794.969	-0.1
795.142	0.46
795.316	-0.16
795.489	-0.12
795.663	0.2
795.836	0.13
796.009	-0.13
796.183	0.39
796.356	-0.08
796.53	0.12
796.703	0.06
796.876	0.67
797.05	-0.01
797.223	-0.07
797.396	0.13
797.57	0.2
797.743	0.46
797.916	-0.02
798.09	-0.03
798.263	0.29
798.436	0.1
798.609	-0.05
798.782	0.04
798.956	0.03
799.129	-0.1
799.302	-0.1
799.475	-0.13
799.648	-0.19
799.821	-0.17
799.994	0.08
800.167	-0.39
800.34	0.05
800.514	0.26
800.687	-0.03
800.86	-0.06
801.033	-0.04
801.206	-0.03
801.379	-0.25
801.551	0.17
801.724	0.09
801.897	0.17
802.07	-0.07
802.243	-0.56
802.416	-0.23
802.589	0.11
802.762	0.2
802.935	0.36
803.107	0.31
803.28	0.53
803.453	-0.03
803.626	0.06
803.798	0.12
803.971	-0.14
804.144	-0
804.317	0.53
804.489	0.05
804.662	0.23
804.835	-0.2
805.007	-0.47
805.18	0.48
805.353	0.07
805.525	-0.47
805.698	0
805.87	0.05
806.043	0.27
806.215	-0.25
806.388	-0.11
806.56	0.33
806.733	0.12
806.905	0.21
807.078	-0.34
807.25	-0.34
807.423	-0.11
807.595	-0.19
807.768	0.07
807.94	0.2
808.112	0.27
808.285	-0.12
808.457	-0.45
808.629	0.09
808.802	0.33
808.974	-0.3
809.146	0.07
809.318	-0.3
809.491	-0
809.663	-0.02
809.835	0.1
810.007	0.03
810.18	-0.05
810.352	-0.21
810.524	0.07
810.696	0.09
810.868	0.4
811.04	-0.23
811.212	-0.12
811.384	0.25
811.556	0.22
811.728	0.1
811.901	0.38
812.073	-0.21
812.245	0.18
812.417	-0.18
812.589	-0.55
812.76	0.12
812.932	0.41
813.104	0.23
813.276	-0.02
813.448	0.19
813.62	0.11
813.792	0.25
813.964	0.08
814.136	0.02
814.307	-0.69
814.479	-0.28
814.651	-0.37
814.823	0.68
814.995	-0.2
815.166	0.26
815.338	0.1
815.51	-0.31
815.681	0.93
815.853	0.42
816.025	0.14
816.196	0.45
816.368	0.57
816.54	-0.65
816.711	-0.55
816.883	0.16
817.054	1.2
817.226	-0.42
817.398	0.43
817.569	-0.36
817.741	0
817.912	0.09
818.084	-0.13
818.255	0.32
818.426	-0.29
818.598	-0.33
818.769	-0.46
818.941	0.55
819.112	0.51
819.283	-0.07
819.455	-0.22
819.626	0.12
819.798	0.11
819.969	-0.14
820.14	-0.1
820.311	-0.13
820.483	-0.28
820.654	0.13
820.825	0.08
820.996	-0.22
821.168	-0.65
821.339	-0.55
821.51	-0.4
821.681	0.09
821.852	-0.42
822.023	-0.12
822.195	-0.63
822.366	0.29
822.537	0.16
822.708	0.09
822.879	-0.22
823.05	0.58
823.221	-0
823.392	0.07
823.563	0.11
823.734	0.23
823.905	-0.35
824.076	-0.53
824.247	-0.07
824.418	-0.45
824.589	0.43
824.759	0.23
824.93	-0.18
825.101	-0.9
825.272	-0.13
825.443	0.59
825.614	-0.05
825.784	-0.84
825.955	0.7
826.126	0.09
826.297	0.26
826.467	0.65
826.638	0.12
826.809	-0.96
826.98	0.22
827.15	0.18
827.321	-0.1
827.492	0.51
827.662	0.33
827.833	1.05
828.003	0.19
828.174	-0.51
828.345	-0.5
828.515	0.91
828.686	0.43
828.856	0.05
829.027	-0.35
829.197	-0.18
829.368	0.3
829.538	-0.33
829.709	-0.28
829.879	0.03
830.049	-0.25
830.22	-1.13
830.39	0.16
830.56	0.6
830.731	0.22
830.901	-1.06
831.072	0.01
831.242	0.31
831.412	0.24
831.582	0.38
831.753	-1.18
831.923	-0.06
832.093	-0.05
832.263	-0.53
832.434	-1.29
832.604	-0.52
832.774	1.14
832.944	-0.28
833.114	-0.37
833.284	0.37
833.454	-0.73
833.624	-0.39
833.795	-0.59
833.965	0.2
834.135	0.33
834.305	-0.64
834.475	-0.41
834.645	0.19
834.815	-0.07
834.985	-0.77
835.155	-0.42
835.325	0
835.494	0.2
835.664	-0.4
835.834	-0.82
836.004	0.01
836.174	-0
836.344	-0.44
836.514	-0.78
836.684	-0.26
836.853	0.4
837.023	0.28
837.193	-0.45
837.363	0.3
837.532	0.73
837.702	0.11
837.872	-0.59
838.041	0.82
838.211	1.14
838.381	-0.61
838.55	0.06
838.72	0.64
838.89	0.67
839.059	-0.22
839.229	-0.7
839.398	1.68
839.568	0.37
839.738	-0.04
839.907	0.92
840.077	0.56
840.246	-0.08
840.416	-0.59
840.585	-0.19
840.755	1.15
840.924	0.73
841.093	-0.54
841.263	0.17
841.432	0.75
841.602	-0.79
841.771	-1.13
841.94	-0.36
842.11	1.45
842.279	1.58
842.448	-0.3
842.617	-0.26
842.787	0.97
842.956	-0.68
843.125	-0.52
843.294	0.13
843.464	0.75
843.633	-0.57
843.802	-0.64
843.971	-0.78
844.14	0.76
844.309	0.42
844.479	-1.18
844.648	-0.52
844.817	-0.17
844.986	-0.29
845.155	-0.97
845.324	-0.92
845.493	-0.42
845.662	-1.4
845.831	-0.87
846	0.23
846.169	0.97
846.338	1.49
846.507	0.44
846.676	0.48
846.844	-0.82
847.013	-0.04
847.182	-0.01
847.351	-0.01
847.52	0.24
847.689	0.21
847.858	0.49
848.026	-0.62
848.195	-0.28
848.364	-0.46
848.533	-1.01
848.701	-0.45
848.87	-1.13
849.039	0.02
849.207	0.79
849.376	1.1
849.545	1.64
849.713	-0.14
849.882	-1.24
850.051	0.12
850.219	0.43
850.388	0.22
850.556	-0.5
850.725	-0.55
850.893	0.18
851.062	0.08
851.23	0.48
851.399	-0.49
851.567	-0.66
851.736	-0.21
851.904	-0.35
852.073	0.4
852.241	0.44
852.41	0.43
852.578	-0.68
852.746	0.07
852.915	0.4
853.083	0.42
853.251	-0.67
853.42	-0.39
853.588	0.2
853.756	1.77
853.924	-0.3
854.093	-0.76
854.261	-0.2
854.429	-1.08
854.597	-1.04
854.765	-0.67
854.934	0.88
855.102	1.19
855.27	0.86
855.438	0.61
855.606	0.24
855.774	1.17
855.942	-0.46
856.11	-1.34
856.278	0.75
856.446	0.94
856.614	-1.06
856.782	-0.55
856.95	1.26
857.118	0.86
857.286	0.15
857.454	-1.08
857.622	0.75
857.79	0.65
857.958	-0.19
858.126	-0.63
858.294	-2.2
858.462	-0.73
858.629	-1
858.797	-0.1
858.965	1.01
859.133	0.63
859.301	-0.13
859.468	-0.1
859.636	-0.64
859.804	1.09
859.971	0.17
860.139	-0.79
860.307	0.8
860.474	-1.35
860.642	-0.37
860.81	-0.85
860.977	0.46
861.145	1.53
861.313	-1.1
861.48	-1.36
861.648	0.4
861.815	-0.31
861.983	-1.71
862.15	-0.43
862.318	2.03
862.485	0.41
862.653	0.23
862.82	0.39
862.988	1.88
863.155	0.59
863.322	-1.05
863.49	-1.08
863.657	-0.13
863.824	0.86
863.992	-0.13
864.159	-0.67
864.326	1.19
864.494	-0.18
864.661	1.94
864.828	-1.02
864.996	1.05
865.163	2.47
865.33	-0.42
865.497	-2.24
865.664	-0.3
865.832	-1.98
865.999	-1.17
866.166	-1.46
866.333	-0.74
866.5	-0.51
866.667	1.25
866.834	-0.33
867.001	1.23
867.168	-3
867.335	0.26
867.502	-1.2
867.669	0.23
867.836	1.34
868.003	-0.46
868.17	1.82
868.337	0.75
868.504	0.47
868.671	-0.34
868.838	-1.4
869.005	0.17
869.172	-0.51
869.339	-0.76
869.505	0.35
869.672	0.23
869.839	0.87
870.006	0.57
870.173	-1.53
870.339	0.84
870.506	2.96
870.673	-1.91
870.84	1.23
871.006	0.83
871.173	-0.73
871.34	-0.79
871.506	-0.86
871.673	1.42
871.839	-2.15
872.006	0.09
872.173	0.19
872.339	-1.15
872.506	1.25
872.672	-0.05
872.839	-2.01
873.005	0.57
873.172	1.54
873.338	0.54
873.505	0.36
873.671	-1.36
873.838	0.34
874.004	-1.75
874.171	-0.2
874.337	0.81
874.503	1.24
874.67	-0.17
874.836	1.45
875.002	1.89
875.169	0.02
875.335	0
875.501	-1.38
875.668	2.89
875.834	-0.54
876	-0.94
876.166	2.92
876.332	1.03
876.499	2.24
876.665	-1.74
876.831	0.37
876.997	3.3
877.163	0.3
877.329	-1.61
877.495	1.74
877.662	0.9
877.828	0.88
877.994	-0.73
878.16	-1.7
878.326	-1.05
878.492	-0.14
878.658	-0.55
878.824	0.6
878.99	-0.01
879.156	-1.24
879.322	1.54
879.487	-0.22
879.653	-1.02
879.819	-0.37
879.985	-0.72
880.151	0.08
880.317	0.94
880.483	-0.63
880.648	0.96
880.814	-1.47
880.98	0.47
881.146	-1.2
881.312	-0.15
881.477	-2.08
881.643	1.62
881.809	-0.48
881.974	2.79
882.14	-1.52
882.306	0.4
882.471	2
882.637	-1.24
882.803	-0.82
882.968	1.63
883.134	2.62
883.299	0.73
883.465	-1.1
883.63	0.23
883.796	1.65
883.961	-0.01
884.127	1.34
884.292	-4.04
884.458	-1.95
884.623	-1.95
