Data from Apollo_Calib_20240827__AbsoluteIrradiance__543__08-12-01-923.txt Node

Date: Wed Aug 28 08:12:01 BST 2024
User: biology
Spectrometer: FLMT08252
Trigger mode: 0
Integration Time (sec): 5.000000E-1
Scans to average: 5
Electric dark correction enabled: true
Nonlinearity correction enabled: false
Boxcar width: 0
XAxis mode: Wavelengths
Number of Pixels in Spectrum: 3648
>>>>>Begin Spectral Data<<<<<
179.588	-0
179.809	-0
180.03	-0
180.251	-0
180.473	-0
180.694	0
180.915	0
181.136	-0
181.357	0
181.578	-0
181.799	0
182.02	-0
182.241	-0
182.462	-0
182.683	0
182.904	-0
183.125	-0
183.346	0
183.567	0
183.788	-0
184.009	-0
184.23	-0
184.451	0
184.672	-0
184.892	-0
185.113	0
185.334	0
185.555	-0
185.776	-0
185.996	0
186.217	0
186.438	-0
186.659	-0
186.879	0
187.1	-0
187.321	-0
187.541	-0
187.762	-0
187.983	-0
188.203	-0
188.424	0
188.644	-0
188.865	0
189.086	-0
189.306	-0
189.527	-0
189.747	-0
189.968	-0
190.188	-0
190.409	-0
190.629	0
190.849	-0
191.07	-0
191.29	0
191.511	-0
191.731	-0
191.951	-0
192.172	-0
192.392	-0
192.612	-0
192.833	-0
193.053	0
193.273	0
193.493	-0
193.714	-0
193.934	0
194.154	0
194.374	0
194.594	-0
194.815	-0
195.035	-0
195.255	-0
195.475	-0
195.695	0
195.915	0
196.135	-0
196.355	0
196.575	0
196.795	-0
197.015	-0
197.235	-0
197.455	-0
197.675	0
197.895	-0
198.115	-0
198.335	0
198.555	-0
198.775	0
198.995	0
199.214	0
199.434	-0
199.654	-0
199.874	-0
200.094	-0.12
200.313	-0.04
200.533	-0.56
200.753	-0.45
200.973	0.12
201.192	0.22
201.412	-0.99
201.632	-0.31
201.851	0.75
202.071	-0.64
202.291	-0.17
202.51	-0.89
202.73	0.09
202.95	-0.19
203.169	-0.57
203.389	-0.29
203.608	0.19
203.828	-0.53
204.047	-0.09
204.267	0.1
204.486	0.33
204.706	0.15
204.925	0.01
205.145	-0.32
205.364	0.37
205.583	0.42
205.803	-0.53
206.022	-0.37
206.242	0.02
206.461	0.1
206.68	-0.3
206.9	-0.03
207.119	0.44
207.338	0.14
207.557	-0.32
207.777	-0.18
207.996	-0.15
208.215	0.22
208.434	-0.39
208.654	-0.31
208.873	-0.03
209.092	0.36
209.311	0.14
209.53	-0.07
209.749	0.03
209.968	0.03
210.187	-0.41
210.407	-0.43
210.626	-0.22
210.845	-0.06
211.064	0.04
211.283	-0.37
211.502	0.09
211.721	0.01
211.94	-0.02
212.159	0.13
212.377	0.27
212.596	0.28
212.815	0.07
213.034	0.17
213.253	0.12
213.472	0.21
213.691	-0.18
213.91	-0.2
214.128	-0.23
214.347	0.18
214.566	-0.44
214.785	-0.31
215.003	0.24
215.222	-0.09
215.441	-0.07
215.66	-0.16
215.878	0.08
216.097	0.05
216.316	-0.27
216.534	-0.31
216.753	-0.17
216.972	0
217.19	-0.1
217.409	-0.1
217.627	-0.21
217.846	-0.13
218.064	-0.09
218.283	-0.19
218.501	0.29
218.72	0.2
218.938	-0.32
219.157	-0.07
219.375	-0.07
219.594	0.01
219.812	-0.3
220.031	-0.2
220.249	0.2
220.467	0.21
220.686	-0.07
220.904	-0.26
221.122	-0.08
221.341	0.34
221.559	0.01
221.777	-0.11
221.995	0
222.214	0.05
222.432	-0.06
222.65	0.06
222.868	-0.15
223.086	0.22
223.305	0.05
223.523	-0.09
223.741	0.2
223.959	-0.02
224.177	-0.27
224.395	-0.15
224.613	-0.02
224.831	0.08
225.049	-0.09
225.267	-0.04
225.485	-0.05
225.703	-0.08
225.921	-0.04
226.139	-0.14
226.357	0.04
226.575	0.02
226.793	-0.13
227.011	0.35
227.229	0.03
227.447	0.15
227.665	-0.16
227.883	-0.17
228.1	0.1
228.318	0.02
228.536	-0.26
228.754	-0.06
228.972	0.04
229.189	0.17
229.407	-0.11
229.625	-0.11
229.843	0.11
230.06	0.07
230.278	-0.06
230.496	0.02
230.713	0
230.931	0.28
231.149	-0.11
231.366	-0.21
231.584	0.01
231.801	0.27
232.019	0
232.236	-0.18
232.454	-0.18
232.671	0.07
232.889	-0.07
233.106	-0.2
233.324	0.05
233.541	0.09
233.759	0.02
233.976	-0.02
234.194	-0.04
234.411	-0.07
234.628	-0.03
234.846	-0.15
235.063	-0.1
235.28	-0.03
235.498	-0.02
235.715	-0.1
235.932	0.1
236.149	-0.08
236.367	-0.03
236.584	0.03
236.801	-0.11
237.018	0.13
237.236	0.05
237.453	-0.16
237.67	0.11
237.887	-0
238.104	0.02
238.321	-0.12
238.538	-0.08
238.755	0
238.973	-0.19
239.19	0.03
239.407	-0.06
239.624	0.04
239.841	-0.15
240.058	-0.14
240.275	0.12
240.492	-0.02
240.709	-0.04
240.925	-0.08
241.142	-0.05
241.359	-0.08
241.576	-0.08
241.793	-0.01
242.01	-0.03
242.227	0.08
242.444	0.02
242.66	0.14
242.877	-0.02
243.094	-0.06
243.311	0.07
243.527	-0.06
243.744	-0.09
243.961	0.03
244.178	-0.08
244.394	0.02
244.611	0.15
244.828	0.12
245.044	-0.11
245.261	0.03
245.477	0.07
245.694	0.1
245.911	-0.07
246.127	-0.01
246.344	0.18
246.56	0.1
246.777	-0.14
246.993	-0.07
247.21	0.09
247.426	0.03
247.643	-0.08
247.859	-0.09
248.076	-0.11
248.292	0.25
248.508	-0.02
248.725	0.02
248.941	-0.08
249.157	0.12
249.374	-0.02
249.59	-0.13
249.806	-0.04
250.023	-0.05
250.239	-0.05
250.455	-0.06
250.671	-0.03
250.888	0.03
251.104	0.01
251.32	-0.03
251.536	-0.01
251.752	0
251.969	-0.04
252.185	-0.01
252.401	0.15
252.617	0.02
252.833	-0.02
253.049	0.01
253.265	-0.04
253.481	-0.07
253.697	-0.06
253.913	-0.11
254.129	-0.01
254.345	-0.03
254.561	-0.05
254.777	-0.04
254.993	0.07
255.209	0
255.425	-0.12
255.641	-0.04
255.857	0.03
256.073	-0.03
256.288	-0.1
256.504	-0.09
256.72	0.03
256.936	0.08
257.152	-0.09
257.367	-0.06
257.583	0.01
257.799	0.08
258.015	-0.07
258.23	-0.1
258.446	0.12
258.662	-0.06
258.877	-0.1
259.093	-0.06
259.309	-0.08
259.524	0.01
259.74	-0.03
259.955	-0.1
260.171	-0.01
260.387	-0.1
260.602	0.06
260.818	0
261.033	-0.07
261.249	-0.01
261.464	-0.02
261.68	-0.12
261.895	0
262.11	0.06
262.326	-0.06
262.541	-0.12
262.757	0.01
262.972	0.02
263.187	-0.02
263.403	-0.02
263.618	-0
263.833	-0.05
264.049	-0.05
264.264	0.02
264.479	-0.06
264.694	0.04
264.91	-0.09
265.125	-0.1
265.34	0.07
265.555	0.11
265.77	0.03
265.986	-0.05
266.201	0.01
266.416	0.09
266.631	-0.04
266.846	-0.05
267.061	0.02
267.276	-0
267.491	-0.11
267.706	0.06
267.921	-0.03
268.136	0.03
268.351	0.06
268.566	-0.06
268.781	0.07
268.996	0.11
269.211	-0.03
269.426	-0
269.641	-0.06
269.856	0.02
270.071	-0.04
270.285	-0.11
270.5	-0
270.715	0.08
270.93	-0.03
271.145	0
271.359	0.03
271.574	-0.07
271.789	-0.07
272.004	-0.03
272.218	-0.05
272.433	0.04
272.648	-0.03
272.862	0.08
273.077	-0.03
273.292	-0.05
273.506	-0.05
273.721	-0.03
273.936	-0.02
274.15	0.09
274.365	-0.05
274.579	0.01
274.794	-0.02
275.008	0.08
275.223	-0.09
275.437	-0.02
275.652	-0.01
275.866	0.03
276.081	0
276.295	0.03
276.509	0.04
276.724	-0.02
276.938	-0.03
277.153	0.07
277.367	0.02
277.581	-0.01
277.796	0.01
278.01	-0.06
278.224	0.03
278.438	0.1
278.653	-0.11
278.867	-0.04
279.081	-0.15
279.295	-0.02
279.51	0.04
279.724	-0.1
279.938	0
280.152	-0.03
280.366	-0.03
280.58	0.01
280.794	0.06
281.008	0.05
281.222	0.04
281.437	0.13
281.651	-0.03
281.865	0.06
282.079	-0.07
282.293	-0.13
282.507	-0.03
282.721	0.04
282.935	-0
283.148	-0.07
283.362	-0.04
283.576	-0.05
283.79	-0.03
284.004	-0.06
284.218	0.03
284.432	-0.07
284.646	-0.01
284.859	-0.03
285.073	0.02
285.287	0.01
285.501	-0.04
285.714	-0.04
285.928	0.02
286.142	-0.01
286.356	-0.03
286.569	-0.03
286.783	0.1
286.997	-0.03
287.21	0.01
287.424	0.04
287.637	-0.01
287.851	0.01
288.065	0.07
288.278	0.02
288.492	0
288.705	0.01
288.919	-0.02
289.132	-0.1
289.346	0.1
289.559	-0.03
289.773	-0.05
289.986	-0.03
290.2	0.02
290.413	0.07
290.626	-0.07
290.84	0.02
291.053	-0
291.267	0.02
291.48	-0.01
291.693	0.01
291.906	-0.03
292.12	-0.04
292.333	-0.07
292.546	-0.02
292.76	0.09
292.973	0.02
293.186	0.03
293.399	-0.01
293.612	0.05
293.826	-0.01
294.039	-0.01
294.252	-0
294.465	0.02
294.678	0.03
294.891	-0.02
295.104	-0.06
295.317	-0.05
295.53	-0.02
295.743	-0.04
295.956	0
296.169	0.05
296.382	0.04
296.595	-0.01
296.808	-0.04
297.021	-0.01
297.234	0.03
297.447	-0.03
297.66	0.02
297.873	0.1
298.086	0.01
298.299	-0.03
298.511	-0.06
298.724	-0.04
298.937	-0.08
299.15	-0.02
299.363	0.03
299.575	0.03
299.788	-0
300.001	-0.03
300.213	-0.04
300.426	-0.02
300.639	-0.04
300.852	-0.02
301.064	-0
301.277	0.01
301.489	0.05
301.702	0.02
301.915	0.02
302.127	0
302.34	-0.01
302.552	0
302.765	-0.05
302.977	0.04
303.19	0.02
303.402	0.02
303.615	0.01
303.827	-0.05
304.04	0.01
304.252	0.02
304.464	-0.02
304.677	0.1
304.889	0.07
305.102	-0.03
305.314	0
305.526	0.06
305.739	0.03
305.951	-0.02
306.163	-0.04
306.375	0.04
306.588	-0.01
306.8	-0.03
307.012	-0.03
307.224	-0
307.436	0.05
307.649	-0.05
307.861	0.07
308.073	0.06
308.285	-0.01
308.497	-0.09
308.709	-0.03
308.921	0.03
309.133	0.03
309.346	0.01
309.558	-0.03
309.77	0.04
309.982	0
310.194	0.04
310.406	-0.05
310.617	0.04
310.829	0.02
311.041	0.02
311.253	-0.08
311.465	0.02
311.677	0.01
311.889	-0.05
312.101	-0
312.313	0.02
312.524	0.04
312.736	-0.05
312.948	-0.02
313.16	0.08
313.372	0.05
313.583	0.05
313.795	-0.02
314.007	-0.04
314.218	0.03
314.43	-0.06
314.642	-0.05
314.853	-0.09
315.065	0.02
315.277	-0.02
315.488	0.02
315.7	0.06
315.912	-0.01
316.123	-0.02
316.335	0
316.546	0.08
316.758	0.01
316.969	-0.02
317.181	0.01
317.392	0.02
317.604	0
317.815	-0.03
318.026	-0
318.238	-0.01
318.449	0.01
318.661	-0.07
318.872	-0.06
319.083	-0.03
319.295	0.04
319.506	-0.06
319.717	0.03
319.929	-0.01
320.14	0.03
320.351	-0.01
320.562	-0.03
320.774	-0.04
320.985	-0.02
321.196	-0.05
321.407	-0.1
321.618	0.05
321.829	0.01
322.041	0.02
322.252	-0.01
322.463	0.01
322.674	0.02
322.885	-0.07
323.096	-0
323.307	0.01
323.518	0.03
323.729	-0
323.94	0.01
324.151	-0.04
324.362	0.03
324.573	0.03
324.784	-0.03
324.995	0.04
325.206	-0.02
325.417	-0
325.628	0.01
325.838	0
326.049	-0.01
326.26	0.01
326.471	-0
326.682	-0.02
326.892	-0
327.103	-0.06
327.314	-0.01
327.525	0.08
327.735	0.04
327.946	-0.07
328.157	-0.01
328.368	-0.01
328.578	-0.02
328.789	0.02
328.999	0.05
329.21	-0
329.421	-0.01
329.631	-0.02
329.842	-0.05
330.052	0.05
330.263	0.03
330.473	0.02
330.684	0
330.894	-0.04
331.105	0.04
331.315	-0.05
331.526	-0.07
331.736	0.06
331.947	0.01
332.157	0.04
332.367	-0.06
332.578	0.05
332.788	0.03
332.999	0.01
333.209	-0
333.419	-0.05
333.629	0
333.84	-0
334.05	-0
334.26	0.05
334.47	-0.02
334.681	0.04
334.891	-0.02
335.101	0.02
335.311	0.08
335.521	0.04
335.732	-0.01
335.942	0
336.152	0.02
336.362	0.02
336.572	0.01
336.782	0.04
336.992	0.01
337.202	0.03
337.412	-0.04
337.622	0.01
337.832	0
338.042	0.01
338.252	-0.06
338.462	-0.01
338.672	-0.01
338.882	0.07
339.092	-0.01
339.302	0.07
339.511	0.02
339.721	-0.03
339.931	-0.03
340.141	0.05
340.351	0.08
340.561	-0.01
340.77	0.04
340.98	-0.02
341.19	0.02
341.4	-0.01
341.609	-0.03
341.819	-0.02
342.029	-0.03
342.238	-0.03
342.448	-0.03
342.658	0.03
342.867	-0.01
343.077	-0.01
343.286	0.02
343.496	0.01
343.706	0.08
343.915	-0.03
344.125	0.01
344.334	0.03
344.544	-0.13
344.753	-0.02
344.963	-0
345.172	-0.06
345.381	-0.05
345.591	-0.01
345.8	-0.01
346.01	0.05
346.219	0.01
346.428	-0.1
346.638	0.01
346.847	0
347.056	0.06
347.266	0.01
347.475	-0
347.684	0.02
347.893	0.04
348.103	-0.02
348.312	-0.04
348.521	-0
348.73	0.01
348.94	0.04
349.149	-0.02
349.358	-0.02
349.567	-0.04
349.776	-0.05
349.985	-0.01
350.194	0.03
350.403	0.02
350.612	-0.04
350.821	0.01
351.03	0.03
351.239	-0.01
351.448	-0
351.657	-0.06
351.866	0.07
352.075	0
352.284	-0
352.493	-0.05
352.702	0.06
352.911	0.03
353.12	0.06
353.329	-0.04
353.538	0
353.746	0.01
353.955	-0.04
354.164	0.02
354.373	-0.01
354.582	-0.02
354.79	0.01
354.999	0.03
355.208	-0.01
355.416	0.07
355.625	-0.02
355.834	-0.05
356.042	0.03
356.251	-0.03
356.46	-0.05
356.668	0.02
356.877	0.07
357.085	0.03
357.294	-0.07
357.503	0.01
357.711	-0.03
357.92	0.12
358.128	-0.02
358.337	-0.04
358.545	0.01
358.754	-0.02
358.962	-0.01
359.17	-0.03
359.379	0.05
359.587	0.06
359.796	0.02
360.004	0.06
360.212	0.04
360.421	0.05
360.629	-0.03
360.837	0.03
361.046	0.06
361.254	0.07
361.462	-0.02
361.67	-0.02
361.879	0.03
362.087	0.06
362.295	-0
362.503	-0.01
362.711	-0.05
362.92	-0.04
363.128	-0.01
363.336	-0.02
363.544	-0.07
363.752	-0.03
363.96	-0.07
364.168	-0.01
364.376	-0
364.584	-0.01
364.792	0.01
365	0.01
365.208	-0.02
365.416	0.01
365.624	0.06
365.832	0.03
366.04	0.06
366.248	0
366.456	0.02
366.664	0
366.872	-0.04
367.079	0.01
367.287	-0
367.495	0.02
367.703	-0.03
367.911	0.01
368.118	-0.04
368.326	-0.02
368.534	-0.06
368.742	0.05
368.949	-0.03
369.157	0.02
369.365	-0.03
369.572	-0
369.78	-0.02
369.988	0.04
370.195	0.02
370.403	0.02
370.61	-0.04
370.818	0
371.026	0.03
371.233	-0.05
371.441	-0.05
371.648	-0.03
371.856	0.02
372.063	0
372.271	-0.04
372.478	-0.02
372.685	-0.03
372.893	0.06
373.1	0.02
373.308	-0
373.515	0.11
373.722	0.03
373.93	-0.01
374.137	-0
374.344	0.1
374.552	0.04
374.759	0.03
374.966	-0.01
375.173	-0.01
375.381	0.01
375.588	0.01
375.795	-0.06
376.002	-0.02
376.209	-0.03
376.417	-0.01
376.624	0.01
376.831	0.03
377.038	-0.04
377.245	-0.06
377.452	-0.02
377.659	0.01
377.866	-0.03
378.073	-0.01
378.28	-0.04
378.487	0.02
378.694	0.02
378.901	-0.03
379.108	0.01
379.315	0
379.522	0.03
379.729	0.03
379.936	0
380.143	0.02
380.35	-0.01
380.557	-0
380.763	0.01
380.97	-0.06
381.177	0.02
381.384	-0.01
381.591	-0.05
381.797	0
382.004	0.01
382.211	0.01
382.418	-0.03
382.624	0.07
382.831	-0
383.038	-0.06
383.244	0.01
383.451	-0.03
383.658	0.02
383.864	0
384.071	-0.03
384.277	0.08
384.484	-0.07
384.69	0.04
384.897	0.04
385.103	-0.02
385.31	-0.08
385.516	-0.03
385.723	-0.03
385.929	-0.03
386.136	-0.06
386.342	-0.03
386.549	-0
386.755	0.04
386.961	0.01
387.168	-0.03
387.374	-0.01
387.58	0.01
387.787	0.03
387.993	0.04
388.199	-0.04
388.406	-0.02
388.612	0.01
388.818	-0.02
389.024	0
389.231	0.02
389.437	0.02
389.643	0.07
389.849	0.01
390.055	-0.02
390.261	0
390.467	-0.01
390.674	-0.03
390.88	-0.05
391.086	-0
391.292	-0.04
391.498	0.02
391.704	0.03
391.91	-0.05
392.116	-0.01
392.322	-0.08
392.528	0.02
392.734	-0.03
392.94	-0.02
393.146	-0.02
393.352	-0.03
393.557	-0.02
393.763	-0.02
393.969	-0.01
394.175	-0.03
394.381	0.02
394.587	-0.01
394.792	-0.02
394.998	0.02
395.204	0.05
395.41	-0.06
395.615	0.03
395.821	0.01
396.027	0.03
396.233	-0.03
396.438	-0.01
396.644	0.08
396.85	0.01
397.055	-0.06
397.261	0
397.466	-0.01
397.672	0
397.878	0.02
398.083	0
398.289	-0
398.494	0.04
398.7	0.01
398.905	-0.04
399.111	0.04
399.316	-0.09
399.522	-0.01
399.727	0.01
399.932	-0.04
400.138	-0.03
400.343	0.05
400.549	0.02
400.754	0.01
400.959	-0.01
401.165	-0.01
401.37	0.01
401.575	-0.03
401.78	-0.02
401.986	-0.03
402.191	-0.02
402.396	0
402.601	0.07
402.807	0.03
403.012	-0
403.217	0.02
403.422	-0.01
403.627	-0.01
403.832	-0.07
404.037	-0.01
404.243	0
404.448	-0.04
404.653	0.01
404.858	0.01
405.063	0.02
405.268	-0.02
405.473	-0.03
405.678	-0.08
405.883	0.13
406.088	0.03
406.293	-0.03
406.498	-0.04
406.703	0.05
406.907	0.03
407.112	-0.07
407.317	-0.01
407.522	0.04
407.727	-0.06
407.932	-0
408.136	0.08
408.341	-0.02
408.546	-0
408.751	0
408.956	-0.07
409.16	-0
409.365	-0.02
409.57	-0.04
409.774	0.02
409.979	0.03
410.184	-0.01
410.388	-0.06
410.593	0.02
410.798	-0.01
411.002	-0.03
411.207	0
411.411	0.04
411.616	-0.05
411.82	-0.06
412.025	0.02
412.229	-0.02
412.434	0.07
412.638	-0.01
412.843	-0.05
413.047	-0.04
413.252	-0.07
413.456	-0.04
413.66	0.03
413.865	0
414.069	0.05
414.273	-0.05
414.478	-0.03
414.682	-0.01
414.886	0.03
415.091	-0.05
415.295	-0.08
415.499	0.02
415.703	-0.02
415.908	0.02
416.112	-0.09
416.316	0
416.52	-0.01
416.724	-0.06
416.929	-0.07
417.133	0.07
417.337	0.02
417.541	-0.03
417.745	-0.04
417.949	0
418.153	0.02
418.357	-0.08
418.561	0.06
418.765	-0.01
418.969	0.1
419.173	0.01
419.377	-0.04
419.581	0.01
419.785	-0.04
419.989	-0.08
420.193	-0.02
420.397	-0.02
420.601	0.03
420.804	-0
421.008	0
421.212	0
421.416	-0.01
421.62	-0.01
421.823	-0.03
422.027	0.03
422.231	0.04
422.435	0
422.638	0.02
422.842	-0.05
423.046	-0.04
423.249	0.05
423.453	0.06
423.657	-0.02
423.86	-0.01
424.064	-0
424.268	0.06
424.471	-0.04
424.675	0.06
424.878	0.08
425.082	-0.01
425.285	0.04
425.489	0.03
425.692	-0
425.896	-0.04
426.099	0.01
426.303	-0.04
426.506	-0.06
426.71	-0
426.913	0.06
427.116	0.04
427.32	-0
427.523	-0.02
427.726	0.09
427.93	-0.1
428.133	-0.01
428.336	-0.05
428.54	-0.03
428.743	-0
428.946	0.05
429.149	-0.06
429.353	0.02
429.556	-0.04
429.759	-0.03
429.962	-0.03
430.165	-0
430.368	0.02
430.571	-0.04
430.775	0
430.978	0
431.181	0.02
431.384	0.02
431.587	-0
431.79	-0.01
431.993	0.02
432.196	-0.03
432.399	-0.05
432.602	0.06
432.805	-0.02
433.008	0.01
433.211	-0.1
433.414	0.03
433.616	0.01
433.819	0.03
434.022	-0.09
434.225	0.07
434.428	0.01
434.631	0.1
434.833	0.02
435.036	0.04
435.239	0.03
435.442	0.01
435.645	-0.01
435.847	-0.01
436.05	0.04
436.253	-0.02
436.455	-0.04
436.658	-0.01
436.861	0.05
437.063	-0.02
437.266	-0.02
437.468	0.04
437.671	0.1
437.874	-0.01
438.076	-0.04
438.279	-0.04
438.481	-0.01
438.684	-0.06
438.886	0.04
439.089	-0.07
439.291	-0.03
439.494	-0
439.696	-0.05
439.899	-0.03
440.101	0
440.303	-0.05
440.506	0.05
440.708	0
440.91	0
441.113	-0.04
441.315	0.01
441.517	-0.1
441.72	-0
441.922	-0.05
442.124	-0.1
442.326	0.02
442.529	0.07
442.731	-0.05
442.933	0.1
443.135	-0.03
443.337	-0.05
443.539	-0.06
443.742	-0.03
443.944	0.04
444.146	-0.04
444.348	-0.06
444.55	-0.03
444.752	-0.03
444.954	-0.08
445.156	0.02
445.358	-0.02
445.56	0.01
445.762	0
445.964	-0.01
446.166	-0.07
446.368	-0.08
446.57	0.05
446.772	-0.05
446.974	-0.02
447.175	-0
447.377	-0.03
447.579	-0.03
447.781	-0.1
447.983	0.03
448.184	-0.04
448.386	0.04
448.588	-0.04
448.79	-0.04
448.991	-0.03
449.193	0
449.395	0
449.597	0.02
449.798	-0
450	0.01
450.202	-0.01
450.403	-0.03
450.605	0.02
450.806	0.02
451.008	-0.1
451.21	-0.01
451.411	-0.03
451.613	-0.01
451.814	-0.01
452.016	0.06
452.217	0.04
452.419	0.03
452.62	-0.02
452.821	0.01
453.023	0.04
453.224	0.01
453.426	0
453.627	0.01
453.828	0.02
454.03	-0.02
454.231	0.03
454.432	-0.06
454.634	0.05
454.835	-0.03
455.036	-0.09
455.238	0.03
455.439	0.05
455.64	-0.09
455.841	-0.05
456.042	0.11
456.244	0.02
456.445	-0.01
456.646	-0.07
456.847	-0.02
457.048	0.02
457.249	0.04
457.45	0.22
457.651	-0.07
457.852	0.05
458.054	0.03
458.255	0.02
458.456	0.01
458.657	0.01
458.858	-0.04
459.058	0.03
459.259	0.06
459.46	-0
459.661	-0.04
459.862	0.05
460.063	0
460.264	0.02
460.465	-0.09
460.666	0.11
460.866	-0.01
461.067	0.01
461.268	0.02
461.469	-0.03
461.67	-0
461.87	-0.05
462.071	-0.01
462.272	0
462.473	-0.01
462.673	0.02
462.874	-0.06
463.075	-0
463.275	-0.05
463.476	-0.01
463.676	0.02
463.877	0.02
464.078	-0
464.278	-0
464.479	0.01
464.679	-0.01
464.88	0.01
465.08	0.04
465.281	-0.03
465.481	0.01
465.682	-0.02
465.882	-0
466.083	-0.01
466.283	-0
466.483	-0
466.684	-0.04
466.884	-0.03
467.085	-0.02
467.285	0.07
467.485	0.02
467.686	-0.01
467.886	-0.02
468.086	-0.03
468.286	0.01
468.487	0.02
468.687	-0.03
468.887	-0.01
469.087	0.04
469.287	-0.02
469.488	-0.09
469.688	0.01
469.888	0.04
470.088	0.03
470.288	0
470.488	0.05
470.688	-0.05
470.888	-0.02
471.088	-0.02
471.288	0.04
471.488	0.04
471.688	-0.03
471.888	-0.04
472.088	0.05
472.288	0.01
472.488	-0.03
472.688	-0.01
472.888	-0.03
473.088	0
473.288	0.01
473.488	0.01
473.688	0.07
473.887	-0.02
474.087	0
474.287	0.02
474.487	-0.01
474.687	0.03
474.886	-0.03
475.086	-0.02
475.286	0.01
475.486	-0.01
475.685	-0.01
475.885	-0.01
476.085	-0.02
476.284	0
476.484	-0.01
476.684	0
476.883	0.04
477.083	0.02
477.282	0
477.482	0.02
477.681	0.05
477.881	0
478.08	-0.03
478.28	-0.04
478.479	0.01
478.679	0.03
478.878	-0.02
479.078	-0.04
479.277	-0
479.477	-0.02
479.676	0.05
479.875	-0.02
480.075	-0.07
480.274	0.03
480.473	0.01
480.673	-0.06
480.872	0
481.071	-0.01
481.271	0.01
481.47	-0.01
481.669	0
481.868	-0.03
482.067	-0.04
482.267	-0.02
482.466	-0.05
482.665	-0.05
482.864	-0.05
483.063	-0.03
483.262	0.01
483.461	0.04
483.661	-0
483.86	-0.01
484.059	0.01
484.258	-0.01
484.457	-0.02
484.656	-0.02
484.855	0.01
485.054	-0.04
485.253	-0.03
485.452	-0.05
485.651	-0
485.849	0.01
486.048	-0.03
486.247	-0.04
486.446	-0.02
486.645	-0.07
486.844	-0.01
487.043	-0.02
487.241	0.01
487.44	-0.04
487.639	-0.01
487.838	0.02
488.037	0
488.235	0.06
488.434	0
488.633	-0.03
488.831	0
489.03	0
489.229	-0
489.427	0.01
489.626	0.03
489.825	0.04
490.023	0
490.222	0
490.42	0.01
490.619	0.05
490.817	0.04
491.016	-0.03
491.214	0.01
491.413	-0.01
491.611	-0.01
491.81	0.01
492.008	0.01
492.207	0.01
492.405	-0.01
492.604	-0.04
492.802	-0.01
493	0.02
493.199	-0.04
493.397	0.01
493.595	-0.01
493.794	-0.02
493.992	0.06
494.19	-0.01
494.388	0.02
494.587	-0.02
494.785	-0.02
494.983	-0.02
495.181	-0.02
495.379	-0.01
495.578	-0
495.776	0
495.974	0
496.172	-0.01
496.37	-0.02
496.568	-0.03
496.766	-0.01
496.964	0.03
497.162	0
497.36	-0.04
497.558	0.02
497.756	0.01
497.954	-0
498.152	-0.03
498.35	-0.02
498.548	-0.01
498.746	-0.01
498.944	-0.04
499.142	0.01
499.34	-0.04
499.538	-0.02
499.736	-0.01
499.933	0.03
500.131	0.03
500.329	-0.01
500.527	0.03
500.725	0.01
500.922	0
501.12	0
501.318	0
501.516	-0.02
501.713	-0
501.911	-0.03
502.109	0.01
502.306	0.01
502.504	-0.02
502.701	-0.02
502.899	0.01
503.097	0.03
503.294	-0
503.492	-0.01
503.689	0.01
503.887	0.01
504.084	0.04
504.282	0
504.479	-0.03
504.677	0.01
504.874	-0.05
505.072	-0
505.269	0
505.466	0.03
505.664	-0.01
505.861	-0.05
506.059	-0.04
506.256	0.02
506.453	-0.01
506.651	0.03
506.848	0.01
507.045	0.01
507.242	-0.01
507.44	-0.01
507.637	-0.01
507.834	-0
508.031	0.02
508.229	-0.02
508.426	-0
508.623	0.01
508.82	-0.03
509.017	-0.03
509.214	-0.03
509.411	-0.01
509.608	-0.04
509.805	-0
510.003	-0.02
510.2	-0.01
510.397	0.02
510.594	-0.03
510.791	-0.03
510.988	0.01
511.184	0.03
511.381	0
511.578	-0.01
511.775	0.02
511.972	-0.01
512.169	-0.01
512.366	-0
512.563	0.01
512.76	-0.01
512.956	0.02
513.153	-0.01
513.35	0.02
513.547	-0.02
513.744	-0.03
513.94	-0.03
514.137	0.01
514.334	0.01
514.53	0.01
514.727	0.01
514.924	0.05
515.12	-0.03
515.317	-0.01
515.514	-0.03
515.71	-0.03
515.907	-0.02
516.103	-0
516.3	0.02
516.497	0.02
516.693	0.03
516.89	0
517.086	-0.04
517.283	0.02
517.479	0
517.676	0
517.872	0.01
518.068	-0.01
518.265	-0.04
518.461	-0.03
518.658	-0.03
518.854	-0
519.05	-0.01
519.247	-0.02
519.443	0
519.639	-0.01
519.836	-0
520.032	-0
520.228	-0.03
520.424	0.03
520.621	-0
520.817	-0.02
521.013	0.01
521.209	-0
521.405	0.05
521.601	0.01
521.798	-0.01
521.994	0.03
522.19	0
522.386	-0.02
522.582	0
522.778	-0.02
522.974	-0.01
523.17	-0.01
523.366	-0.01
523.562	0.02
523.758	-0.01
523.954	-0
524.15	-0.01
524.346	0.03
524.542	-0.02
524.738	-0.04
524.934	0.01
525.129	-0.07
525.325	0
525.521	-0
525.717	0.03
525.913	-0.02
526.109	-0.01
526.304	-0.01
526.5	0.01
526.696	-0
526.892	0.02
527.087	0.02
527.283	-0.02
527.479	0.01
527.674	-0.01
527.87	-0.01
528.066	-0.01
528.261	0.02
528.457	-0.01
528.653	-0.02
528.848	-0.01
529.044	0.02
529.239	0
529.435	0.05
529.63	0.01
529.826	0.02
530.021	-0.02
530.217	0.02
530.412	-0.02
530.608	-0.03
530.803	0.01
530.999	-0.01
531.194	-0.03
531.389	0.02
531.585	-0.04
531.78	-0.01
531.975	0
532.171	0
532.366	-0.01
532.561	-0
532.757	-0.03
532.952	-0.03
533.147	0.02
533.342	-0.01
533.538	-0.02
533.733	0.01
533.928	0
534.123	-0.01
534.318	-0.02
534.513	-0.01
534.709	0
534.904	-0.01
535.099	-0.02
535.294	-0.01
535.489	0
535.684	0
535.879	-0.03
536.074	-0.02
536.269	-0.02
536.464	-0.01
536.659	-0.02
536.854	-0.01
537.049	-0.01
537.244	-0.01
537.439	-0.02
537.634	0.03
537.828	-0.01
538.023	-0.01
538.218	-0.02
538.413	0.02
538.608	-0.03
538.803	0.02
538.997	-0.03
539.192	0.02
539.387	0.01
539.582	0.01
539.776	0
539.971	-0.01
540.166	0
540.36	-0.03
540.555	0
540.75	-0
540.944	-0.01
541.139	-0.04
541.334	0
541.528	0.01
541.723	-0
541.917	-0.02
542.112	-0.06
542.306	-0.02
542.501	-0.01
542.695	-0
542.89	-0.03
543.084	0
543.279	-0.01
543.473	-0.01
543.668	-0
543.862	-0.02
544.056	0
544.251	-0.01
544.445	0.01
544.64	-0.02
544.834	-0.02
545.028	-0.01
545.222	0.02
545.417	0.02
545.611	0.01
545.805	0
546	-0.02
546.194	-0.01
546.388	-0.04
546.582	0.01
546.776	-0
546.97	-0.02
547.165	-0
547.359	-0.02
547.553	-0.01
547.747	0.01
547.941	-0.01
548.135	0.01
548.329	0.02
548.523	-0
548.717	0
548.911	-0.03
549.105	-0.01
549.299	0.01
549.493	0.01
549.687	0.01
549.881	0.02
550.075	-0.02
550.269	-0.02
550.463	0.01
550.657	-0.01
550.85	-0.01
551.044	-0.01
551.238	-0
551.432	-0.01
551.626	-0.04
551.82	0
552.013	-0.02
552.207	0.01
552.401	-0
552.594	-0.01
552.788	-0
552.982	0.04
553.176	-0.03
553.369	-0.01
553.563	-0.01
553.756	-0.06
553.95	-0.03
554.144	-0.02
554.337	0.02
554.531	-0.02
554.724	-0
554.918	-0.01
555.111	-0
555.305	-0.01
555.498	0.06
555.692	-0
555.885	-0.02
556.079	0.01
556.272	-0.03
556.466	0.01
556.659	-0
556.852	0
557.046	-0.01
557.239	0.02
557.432	-0.03
557.626	-0.02
557.819	-0.02
558.012	0
558.206	0.01
558.399	0.01
558.592	-0
558.785	-0.01
558.979	0.04
559.172	-0.01
559.365	0.02
559.558	-0
559.751	-0
559.944	0.01
560.138	-0.02
560.331	-0.02
560.524	-0.02
560.717	-0.01
560.91	0.01
561.103	0.03
561.296	0
561.489	0.01
561.682	-0.01
561.875	0.02
562.068	0.02
562.261	0
562.454	0.04
562.647	0.01
562.84	0.02
563.032	-0.02
563.225	0.02
563.418	-0.03
563.611	-0.01
563.804	-0.01
563.997	-0.02
564.19	-0.03
564.382	-0.06
564.575	0
564.768	-0.01
564.961	-0.03
565.153	0.01
565.346	-0.01
565.539	0.03
565.731	0
565.924	0.03
566.117	0.03
566.309	-0
566.502	-0.03
566.695	-0.01
566.887	-0
567.08	-0.02
567.272	-0
567.465	-0.02
567.657	0
567.85	-0.01
568.042	0.01
568.235	0.03
568.427	0.01
568.62	0.01
568.812	0.02
569.005	-0.02
569.197	-0.05
569.389	0.01
569.582	-0.01
569.774	0.02
569.966	-0.03
570.159	-0.05
570.351	0.02
570.543	-0.01
570.736	0
570.928	-0
571.12	-0.01
571.312	-0
571.505	-0.04
571.697	0.04
571.889	-0.02
572.081	-0.01
572.273	-0.03
572.465	0.03
572.658	-0.02
572.85	0.01
573.042	-0.01
573.234	-0.01
573.426	0.04
573.618	-0.03
573.81	0.01
574.002	0.03
574.194	0.03
574.386	-0.04
574.578	-0.07
574.77	-0.01
574.962	-0
575.154	-0.04
575.346	0
575.538	0.01
575.729	-0.01
575.921	-0.01
576.113	-0.01
576.305	0.02
576.497	-0.03
576.689	-0.01
576.88	-0.03
577.072	-0
577.264	-0.01
577.456	-0.01
577.647	-0.07
577.839	0.01
578.031	0.03
578.223	-0.03
578.414	-0.04
578.606	0.02
578.798	0.01
578.989	-0.02
579.181	0
579.372	-0
579.564	-0.02
579.755	0.02
579.947	0.02
580.139	0.02
580.33	-0.07
580.522	-0.02
580.713	-0.07
580.905	-0
581.096	0.01
581.287	0.01
581.479	0.01
581.67	0.02
581.862	-0
582.053	-0.03
582.244	-0.05
582.436	-0.02
582.627	-0.02
582.818	0
583.01	-0.05
583.201	0.02
583.392	0.04
583.583	0.01
583.775	0
583.966	-0.02
584.157	-0.02
584.348	-0
584.54	-0.02
584.731	0.02
584.922	0.01
585.113	-0.02
585.304	-0.01
585.495	-0.01
585.686	0.01
585.877	0.02
586.068	0
586.259	0.01
586.45	-0.01
586.641	-0.01
586.832	-0.05
587.023	0.02
587.214	0.01
587.405	-0.01
587.596	-0.03
587.787	0.04
587.978	-0
588.169	-0.03
588.36	-0.02
588.551	0.01
588.742	-0
588.932	-0.01
589.123	-0.02
589.314	0.02
589.505	0
589.696	0.01
589.886	-0.02
590.077	-0.05
590.268	-0.01
590.458	-0.02
590.649	-0.05
590.84	0.01
591.03	-0.04
591.221	-0.02
591.412	-0.02
591.602	0.01
591.793	0.05
591.984	-0.04
592.174	-0.01
592.365	0.05
592.555	-0.03
592.746	0.02
592.936	-0.01
593.127	0.01
593.317	0.02
593.508	-0.02
593.698	-0.04
593.889	0.01
594.079	-0.01
594.269	-0.03
594.46	-0.01
594.65	-0.01
594.84	-0.02
595.031	-0.04
595.221	-0.02
595.411	-0.04
595.602	0.02
595.792	-0.03
595.982	-0.01
596.172	0.06
596.363	0.01
596.553	-0.01
596.743	-0.01
596.933	-0.01
597.123	0.02
597.314	-0.02
597.504	-0.04
597.694	0.03
597.884	0
598.074	-0.02
598.264	-0.03
598.454	0.02
598.644	0.01
598.834	-0.02
599.024	-0.05
599.214	-0.01
599.404	0.02
599.594	-0.03
599.784	-0.02
599.974	-0.02
600.164	0.01
600.354	-0.02
600.544	-0.04
600.734	0.02
600.924	0.05
601.114	-0
601.303	-0.01
601.493	0.03
601.683	-0.02
601.873	-0.01
602.063	-0.04
602.252	0.03
602.442	-0.06
602.632	-0.02
602.821	-0.08
603.011	0.01
603.201	-0.01
603.39	-0.03
603.58	-0
603.77	0.02
603.959	0.04
604.149	-0
604.339	-0.02
604.528	-0.01
604.718	0.01
604.907	0.01
605.097	-0
605.286	-0.04
605.476	0.02
605.665	0.01
605.855	-0
606.044	-0.01
606.234	0.01
606.423	-0
606.612	-0.04
606.802	0.01
606.991	-0
607.181	0.02
607.37	-0.06
607.559	-0.02
607.749	-0.02
607.938	-0.01
608.127	-0
608.316	-0.01
608.506	-0.02
608.695	-0.01
608.884	-0.01
609.073	-0.02
609.263	0.02
609.452	0.02
609.641	0.02
609.83	-0.02
610.019	-0.01
610.208	-0.02
610.397	-0.01
610.586	0.03
610.775	-0.02
610.965	-0.03
611.154	-0.04
611.343	0
611.532	0.04
611.721	-0.03
611.91	-0.03
612.099	0.01
612.287	-0.01
612.476	-0.04
612.665	0.01
612.854	-0.03
613.043	0.07
613.232	-0.02
613.421	-0.04
613.61	0.03
613.798	-0.03
613.987	0.05
614.176	-0.01
614.365	0.03
614.554	0.01
614.742	0.03
614.931	-0.03
615.12	0.01
615.309	0.01
615.497	0.03
615.686	-0.02
615.875	-0.02
616.063	-0.01
616.252	-0.01
616.44	0.02
616.629	-0
616.818	0.02
617.006	-0.02
617.195	-0
617.383	0.04
617.572	-0
617.76	0.01
617.949	0.02
618.137	0.02
618.326	0.06
618.514	-0.04
618.703	-0.02
618.891	0.02
619.079	-0
619.268	0.05
619.456	-0.03
619.644	0.03
619.833	-0.02
620.021	-0.01
620.209	-0.03
620.398	0.02
620.586	0.01
620.774	0.06
620.962	-0.02
621.151	0.05
621.339	0.01
621.527	-0.02
621.715	-0.03
621.903	-0.02
622.092	-0.04
622.28	0.02
622.468	0.02
622.656	0.03
622.844	0.03
623.032	0
623.22	-0.07
623.408	0.03
623.596	0.04
623.784	0.06
623.972	-0.03
624.16	0
624.348	0.05
624.536	0.02
624.724	-0.01
624.912	0.03
625.1	0.03
625.288	-0.03
625.476	-0
625.664	0.05
625.851	-0.03
626.039	-0
626.227	0.04
626.415	0.03
626.603	-0.06
626.79	0.03
626.978	0
627.166	0.05
627.354	0.03
627.541	-0.02
627.729	-0.04
627.917	0.02
628.104	0.01
628.292	-0.01
628.48	0.01
628.667	0
628.855	-0.01
629.042	0.02
629.23	-0
629.418	0.02
629.605	0.04
629.793	-0.01
629.98	0.02
630.168	0.01
630.355	0.04
630.543	0.04
630.73	-0.02
630.917	0.04
631.105	0.09
631.292	0.03
631.48	0.01
631.667	0.1
631.854	0.02
632.042	0.03
632.229	-0.01
632.416	0.01
632.604	0.06
632.791	0.01
632.978	0.06
633.165	0.02
633.353	0.1
633.54	0.09
633.727	-0.03
633.914	0.02
634.101	-0.04
634.289	0.07
634.476	0.03
634.663	0.02
634.85	0.03
635.037	0.02
635.224	-0.01
635.411	0.07
635.598	0.06
635.785	0.02
635.972	0.02
636.159	0.04
636.346	0.02
636.533	0.02
636.72	0.05
636.907	0
637.094	0.05
637.281	0.03
637.468	0.09
637.655	0.05
637.842	0.04
638.029	0.05
638.215	0.08
638.402	0.06
638.589	0.03
638.776	0.02
638.963	0.05
639.149	0.11
639.336	0.11
639.523	0.05
639.709	0.04
639.896	0.05
640.083	0.09
640.27	0.08
640.456	0.06
640.643	0.08
640.829	0.02
641.016	0.06
641.203	0.03
641.389	0.1
641.576	0.11
641.762	0.05
641.949	0.06
642.135	0.1
642.322	0.08
642.508	0.02
642.695	0.1
642.881	0.09
643.068	0.08
643.254	0.06
643.441	0.14
643.627	0.07
643.813	0.06
644	0.12
644.186	0.06
644.372	0.06
644.559	0.13
644.745	0.13
644.931	0.1
645.118	0.11
645.304	0.09
645.49	0.12
645.676	0.1
645.862	0.11
646.049	0.14
646.235	0.11
646.421	0.19
646.607	0.17
646.793	0.16
646.979	0.1
647.165	0.15
647.352	0.12
647.538	0.15
647.724	0.13
647.91	0.15
648.096	0.18
648.282	0.19
648.468	0.12
648.654	0.21
648.84	0.19
649.026	0.19
649.212	0.19
649.397	0.12
649.583	0.13
649.769	0.22
649.955	0.19
650.141	0.22
650.327	0.19
650.513	0.15
650.698	0.2
650.884	0.13
651.07	0.19
651.256	0.25
651.442	0.2
651.627	0.19
651.813	0.25
651.999	0.23
652.184	0.22
652.37	0.22
652.556	0.21
652.741	0.27
652.927	0.16
653.113	0.22
653.298	0.22
653.484	0.18
653.669	0.2
653.855	0.21
654.04	0.26
654.226	0.26
654.412	0.25
654.597	0.2
654.782	0.25
654.968	0.26
655.153	0.26
655.339	0.29
655.524	0.25
655.71	0.29
655.895	0.3
656.08	0.29
656.266	0.31
656.451	0.32
656.636	0.27
656.822	0.28
657.007	0.26
657.192	0.3
657.378	0.25
657.563	0.3
657.748	0.35
657.933	0.33
658.118	0.27
658.304	0.27
658.489	0.31
658.674	0.31
658.859	0.28
659.044	0.32
659.229	0.34
659.414	0.24
659.599	0.27
659.785	0.23
659.97	0.27
660.155	0.31
660.34	0.29
660.525	0.23
660.71	0.24
660.895	0.28
661.08	0.24
661.264	0.23
661.449	0.3
661.634	0.29
661.819	0.26
662.004	0.21
662.189	0.14
662.374	0.18
662.559	0.15
662.743	0.12
662.928	0.16
663.113	0.15
663.298	0.11
663.483	0.15
663.667	0.14
663.852	0.09
664.037	0.18
664.221	0.13
664.406	0.18
664.591	0.16
664.775	0.15
664.96	0.1
665.145	0.09
665.329	0.1
665.514	0.09
665.698	0.08
665.883	0.01
666.068	0.13
666.252	0.09
666.437	0.04
666.621	0.09
666.806	0.11
666.99	0.04
667.174	0.03
667.359	0.12
667.543	0.08
667.728	0.05
667.912	-0.01
668.096	0.11
668.281	0.04
668.465	0.03
668.649	0.06
668.834	0.06
669.018	0.01
669.202	0.05
669.387	0.01
669.571	0.09
669.755	0.02
669.939	0.01
670.124	0.02
670.308	0.1
670.492	0.09
670.676	0.02
670.86	0.02
671.044	-0.05
671.228	0.04
671.413	-0.03
671.597	-0.04
671.781	-0.02
671.965	0.05
672.149	0.06
672.333	-0.01
672.517	-0.06
672.701	0.06
672.885	-0.01
673.069	-0.06
673.253	0.04
673.437	0
673.621	-0.03
673.804	0.06
673.988	0.03
674.172	0
674.356	-0.07
674.54	0.01
674.724	0.08
674.908	-0.01
675.091	0.02
675.275	0.03
675.459	0.04
675.643	0.06
675.826	0.04
676.01	0.02
676.194	-0
676.377	0
676.561	0.04
676.745	0.02
676.928	-0.01
677.112	0.02
677.296	-0.02
677.479	-0.01
677.663	-0
677.846	0.04
678.03	-0.05
678.213	0
678.397	0
678.58	-0.02
678.764	-0.03
678.947	-0.06
679.131	-0.05
679.314	0.05
679.498	-0.02
679.681	0.03
679.865	0.08
680.048	-0.02
680.231	-0.01
680.415	-0.02
680.598	-0.02
680.781	-0.01
680.965	0.01
681.148	-0.03
681.331	0
681.514	0
681.698	0.03
681.881	0.02
682.064	-0
682.247	0.03
682.43	-0.05
682.614	0.01
682.797	0.03
682.98	0.04
683.163	-0.05
683.346	0.02
683.529	-0.03
683.712	-0.02
683.895	0.02
684.078	-0.09
684.261	-0.03
684.444	0.02
684.627	-0.02
684.81	-0.03
684.993	-0.02
685.176	0.06
685.359	-0.03
685.542	-0.03
685.725	0.05
685.908	-0.05
686.091	0.02
686.274	0.05
686.457	0.01
686.639	-0.03
686.822	0.05
687.005	-0.04
687.188	0.02
687.371	0.03
687.553	-0.02
687.736	0.04
687.919	0.02
688.102	0.03
688.284	-0.06
688.467	0.02
688.65	-0.06
688.832	-0.04
689.015	-0.01
689.197	-0.02
689.38	0.07
689.563	0.1
689.745	-0.04
689.928	-0.05
690.11	-0
690.293	0.02
690.475	-0.06
690.658	-0.02
690.84	-0.02
691.023	0.04
691.205	-0.02
691.388	-0
691.57	0.05
691.752	-0.02
691.935	-0.09
692.117	-0.04
692.3	0
692.482	-0
692.664	-0.02
692.847	0
693.029	0.02
693.211	0.02
693.393	-0
693.576	-0.08
693.758	0.02
693.94	-0.05
694.122	-0.02
694.304	-0.01
694.487	-0.03
694.669	0.02
694.851	-0.09
695.033	-0.01
695.215	-0.03
695.397	-0.02
695.579	-0.01
695.761	-0.04
695.943	-0.09
696.125	0.07
696.308	0.05
696.49	-0.11
696.671	0.11
696.853	-0.04
697.035	0.09
697.217	-0.01
697.399	0.08
697.581	-0.08
697.763	-0.04
697.945	-0.06
698.127	-0.04
698.309	0.02
698.491	-0.04
698.672	0.04
698.854	-0.03
699.036	0.04
699.218	-0.07
699.399	0.03
699.581	0.01
699.763	0
699.945	-0.05
700.126	-0.01
700.308	0.02
700.49	0.02
700.671	-0.09
700.853	-0.05
701.035	-0.02
701.216	0
701.398	-0.03
701.579	-0
701.761	-0.02
701.943	-0.03
702.124	-0.02
702.306	-0.07
702.487	0.07
702.669	-0
702.85	-0.02
703.031	-0.07
703.213	0.07
703.394	0.08
703.576	-0.08
703.757	0.01
703.938	0.05
704.12	0.11
704.301	-0.03
704.483	-0.03
704.664	-0.03
704.845	0.14
705.026	0.02
705.208	-0
705.389	0.04
705.57	-0.01
705.751	0.05
705.933	-0.02
706.114	0.08
706.295	-0
706.476	-0.06
706.657	0.03
706.838	0.06
707.02	0.04
707.201	-0.02
707.382	-0.05
707.563	0.04
707.744	-0.08
707.925	-0.04
708.106	-0.05
708.287	0.03
708.468	0.12
708.649	0.04
708.83	0.04
709.011	-0.02
709.192	0.04
709.373	-0.09
709.554	-0.02
709.734	0.06
709.915	-0.04
710.096	-0.05
710.277	-0.09
710.458	-0.01
710.639	0.04
710.819	-0.16
711	-0.04
711.181	0.1
711.362	0.06
711.542	-0.04
711.723	-0
711.904	0.05
712.085	0.01
712.265	0.03
712.446	-0.08
712.627	-0.02
712.807	-0.06
712.988	0.02
713.168	-0.05
713.349	-0.03
713.53	-0.1
713.71	-0.09
713.891	-0.08
714.071	-0
714.252	0.03
714.432	-0.06
714.613	-0.07
714.793	-0.01
714.974	0.05
715.154	0.04
715.334	-0.02
715.515	0.08
715.695	-0.04
715.876	0.05
716.056	-0.01
716.236	-0.09
716.417	-0.03
716.597	-0.06
716.777	0.13
716.957	-0
717.138	-0.06
717.318	-0.03
717.498	-0.09
717.678	-0.02
717.859	-0.1
718.039	-0.1
718.219	0
718.399	0.03
718.579	-0.07
718.759	-0.01
718.939	0.06
719.12	-0.02
719.3	0.04
719.48	-0.18
719.66	-0.09
719.84	0.08
720.02	0.01
720.2	-0.09
720.38	0.03
720.56	0.03
720.74	0.01
720.92	0.01
721.1	0.13
721.279	0.08
721.459	0.01
721.639	-0.05
721.819	-0.05
721.999	-0.07
722.179	0.03
722.359	-0.1
722.538	0.04
722.718	-0.05
722.898	-0.05
723.078	-0.08
723.257	-0.02
723.437	0.01
723.617	-0.01
723.797	-0.05
723.976	-0.03
724.156	-0
724.336	0.05
724.515	0.1
724.695	-0.12
724.874	-0.07
725.054	0.02
725.234	-0.06
725.413	-0.05
725.593	-0.02
725.772	0.07
725.952	-0.05
726.131	0.01
726.311	0
726.49	-0.06
726.67	-0.08
726.849	-0.1
727.028	0.08
727.208	-0.07
727.387	0.02
727.567	-0.08
727.746	0.05
727.925	-0.06
728.105	-0.13
728.284	0.02
728.463	-0.05
728.643	-0.06
728.822	-0.07
729.001	-0.01
729.18	-0.03
729.359	0.1
729.539	-0.07
729.718	0.01
729.897	0.05
730.076	-0.08
730.255	-0.12
730.434	0.02
730.614	0.11
730.793	0.05
730.972	-0.04
731.151	-0.02
731.33	0.12
731.509	0.02
731.688	-0
731.867	0.01
732.046	-0.04
732.225	0.17
732.404	-0.05
732.583	-0.06
732.762	0.03
732.941	0.01
733.12	-0.02
733.298	-0.06
733.477	-0.03
733.656	-0.07
733.835	-0.08
734.014	-0.02
734.193	0.02
734.371	0.02
734.55	-0.03
734.729	-0.04
734.908	0.09
735.086	0.03
735.265	0.04
735.444	-0.12
735.623	-0.17
735.801	-0.12
735.98	-0.09
736.159	0.05
736.337	0.06
736.516	0.08
736.694	0.03
736.873	-0.09
737.052	0.09
737.23	0.05
737.409	-0.14
737.587	0.27
737.766	-0.14
737.944	-0.16
738.123	-0.03
738.301	0.03
738.479	0
738.658	-0.01
738.836	-0.14
739.015	-0.01
739.193	0.14
739.371	-0.09
739.55	-0.06
739.728	-0.02
739.906	-0.01
740.085	0.2
740.263	-0.1
740.441	-0.14
740.62	0.1
740.798	0.05
740.976	-0.14
741.154	-0.03
741.332	0.03
741.511	-0.04
741.689	0.14
741.867	0.04
742.045	-0.07
742.223	0.05
742.401	-0.07
742.579	-0.03
742.757	0.11
742.935	-0.07
743.114	-0.07
743.292	-0.08
743.47	0.02
743.648	0.04
743.826	0.04
744.004	0.08
744.181	0.07
744.359	-0.05
744.537	0.05
744.715	-0.04
744.893	-0.04
745.071	0.02
745.249	-0.12
745.427	-0.03
745.605	-0.02
745.782	0.05
745.96	0.05
746.138	0
746.316	-0.04
746.493	-0.06
746.671	0.01
746.849	0.12
747.027	0.05
747.204	-0.07
747.382	0.03
747.56	-0.21
747.737	-0.07
747.915	-0.16
748.093	0.03
748.27	-0.11
748.448	-0.2
748.625	-0.23
748.803	-0.11
748.98	-0.07
749.158	0.05
749.335	0.07
749.513	-0.04
749.69	0.02
749.868	-0.07
750.045	0.21
750.223	-0.05
750.4	-0.18
750.578	0.19
750.755	0.01
750.932	-0.11
751.11	0.11
751.287	-0.12
751.464	0.1
751.642	-0.08
751.819	-0
751.996	0.07
752.173	0.01
752.351	-0.16
752.528	0.07
752.705	-0.06
752.882	-0.08
753.06	0.06
753.237	0.02
753.414	0.16
753.591	0.12
753.768	0.1
753.945	-0.03
754.122	-0.05
754.299	0.06
754.476	-0.03
754.654	0.05
754.831	0.03
755.008	0.06
755.185	-0.1
755.362	-0.12
755.539	-0.01
755.716	-0.07
755.892	0.05
756.069	0.05
756.246	-0.12
756.423	-0.02
756.6	0.09
756.777	-0.01
756.954	0.08
757.131	-0.06
757.307	-0.08
757.484	-0.02
757.661	0.05
757.838	-0.08
758.015	-0.09
758.191	0.14
758.368	0.02
758.545	0.05
758.721	0.12
758.898	-0.01
759.075	0.09
759.251	0.12
759.428	0.16
759.605	-0.17
759.781	-0.03
759.958	0.06
760.134	0.06
760.311	-0.04
760.488	0.05
760.664	0.01
760.841	-0.02
761.017	-0.09
761.194	0.1
761.37	-0.01
761.547	0.03
761.723	0.09
761.899	0.18
762.076	-0.03
762.252	-0.04
762.429	-0.06
762.605	0.04
762.781	-0.12
762.958	0.2
763.134	0.01
763.31	-0.01
763.486	0.19
763.663	-0.16
763.839	-0.01
764.015	-0.26
764.191	-0.08
764.368	-0.06
764.544	-0.09
764.72	0.07
764.896	0.04
765.072	0
765.248	-0.06
765.425	0.05
765.601	-0.04
765.777	0.05
765.953	-0.24
766.129	-0.15
766.305	-0.01
766.481	0.07
766.657	-0.02
766.833	0.1
767.009	-0.22
767.185	-0.08
767.361	-0.06
767.537	-0.17
767.713	0.04
767.889	0.07
768.065	0.06
768.24	0.16
768.416	0.05
768.592	-0.15
768.768	-0.03
768.944	-0.01
769.12	-0.11
769.295	0.03
769.471	0.07
769.647	0.02
769.823	0.07
769.998	0.1
770.174	-0.07
770.35	0.2
770.525	0.12
770.701	0
770.877	-0.07
771.052	-0.1
771.228	0.04
771.403	0
771.579	0.09
771.755	0.36
771.93	-0.06
772.106	-0.12
772.281	-0.27
772.457	0.05
772.632	0.13
772.808	-0.16
772.983	-0.09
773.159	-0.15
773.334	0.23
773.509	-0.06
773.685	-0.04
773.86	0.28
774.036	0.1
774.211	0.06
774.386	-0.02
774.562	-0.13
774.737	0.01
774.912	-0.05
775.087	0.06
775.263	0.08
775.438	0.03
775.613	-0.12
775.788	0.07
775.964	0.15
776.139	0.18
776.314	-0.16
776.489	0.02
776.664	0.09
776.839	-0.15
777.014	0.03
777.19	0.08
777.365	0.14
777.54	0.21
777.715	-0.05
777.89	0.01
778.065	-0.07
778.24	-0.11
778.415	0.21
778.59	0.03
778.765	-0.04
778.94	-0.01
779.115	0.04
779.289	-0.06
779.464	0.14
779.639	0.11
779.814	-0.26
779.989	-0.15
780.164	0.11
780.339	0.07
780.513	-0.02
780.688	-0.23
780.863	-0.06
781.038	0.03
781.212	-0.12
781.387	0.11
781.562	0.4
781.737	-0.28
781.911	-0.07
782.086	-0.12
782.261	-0.01
782.435	0.28
782.61	-0.15
782.784	0.09
782.959	0.16
783.134	-0.12
783.308	-0.13
783.483	-0.03
783.657	0.31
783.832	0.17
784.006	-0.32
784.181	0.03
784.355	0.29
784.53	-0.26
784.704	-0.01
784.878	0.21
785.053	0.26
785.227	0.23
785.402	0.45
785.576	-0.12
785.75	-0.02
785.925	-0.28
786.099	0.11
786.273	0.01
786.448	0.13
786.622	0.1
786.796	0.09
786.97	-0.09
787.145	0.36
787.319	-0.58
787.493	-0.13
787.667	-0.37
787.841	-0.01
788.015	0.25
788.19	0.01
788.364	0.14
788.538	0.27
788.712	0.05
788.886	0.01
789.06	0.26
789.234	0.17
789.408	-0.21
789.582	0.14
789.756	-0.1
789.93	-0.14
790.104	-0.06
790.278	-0.21
790.452	-0.07
790.626	0.32
790.8	-0.09
790.973	0.27
791.147	0.2
791.321	0.14
791.495	0.14
791.669	0.08
791.843	0.23
792.016	-0.04
792.19	0.36
792.364	-0.1
792.538	0.54
792.711	0.34
792.885	-0.14
793.059	-0.3
793.233	-0.48
793.406	0.04
793.58	0.02
793.754	0.05
793.927	-0.18
794.101	0.2
794.274	-0.22
794.448	0.16
794.622	-0.29
794.795	0.47
794.969	-0.17
795.142	0.27
795.316	0.06
795.489	-0.13
795.663	0.56
795.836	-0.03
796.009	-0.13
796.183	0.34
796.356	-0.09
796.53	0.06
796.703	0.01
796.876	0.73
797.05	-0.21
797.223	-0.02
797.396	-0.04
797.57	-0.2
797.743	0.23
797.916	0.05
798.09	-0.12
798.263	0.08
798.436	0.17
798.609	-0.07
798.782	-0.08
798.956	0.03
799.129	-0.27
799.302	0.09
799.475	-0.25
799.648	-0
799.821	0.1
799.994	-0.09
800.167	-0.22
800.34	0.09
800.514	0.21
800.687	0.22
800.86	-0.06
801.033	-0.12
801.206	0.11
801.379	-0.15
801.551	0.12
801.724	0.29
801.897	0.09
802.07	-0.24
802.243	-0.59
802.416	-0.13
802.589	-0.17
802.762	0.25
802.935	-0.16
803.107	0.03
803.28	0.1
803.453	0.14
803.626	-0.2
803.798	0.06
803.971	-0.15
804.144	0.38
804.317	0.13
804.489	0.11
804.662	-0.19
804.835	-0.01
805.007	-0.52
805.18	0.53
805.353	-0.11
805.525	-0.07
805.698	-0.38
805.87	-0.01
806.043	0.44
806.215	-0.31
806.388	-0.01
806.56	-0.04
806.733	0.25
806.905	0.42
807.078	0.01
807.25	-0.31
807.423	-0.18
807.595	-0.09
807.768	0.04
807.94	0.27
808.112	-0.16
808.285	-0.19
808.457	-0.37
808.629	0.13
808.802	0.04
808.974	0.28
809.146	-0.15
809.318	-0.48
809.491	-0.18
809.663	0.22
809.835	-0.1
810.007	-0.11
810.18	0.14
810.352	-0.56
810.524	0.06
810.696	-0.03
810.868	0.26
811.04	0.04
811.212	-0.09
811.384	0.26
811.556	-0.3
811.728	0.29
811.901	0.6
812.073	-0.19
812.245	0.21
812.417	-0.02
812.589	-0.79
812.76	-0.04
812.932	0.28
813.104	0.32
813.276	0.06
813.448	-0.06
813.62	-0.04
813.792	0.33
813.964	-0.11
814.136	0.28
814.307	-0.25
814.479	-0.34
814.651	-0.1
814.823	0.46
814.995	0.02
815.166	-0.14
815.338	-0.57
815.51	-0.3
815.681	0.85
815.853	-0.11
816.025	-0.21
816.196	0.17
816.368	0.1
816.54	-0.2
816.711	-0.2
816.883	0.22
817.054	0.86
817.226	-0.35
817.398	-0.32
817.569	-0.31
817.741	-0.02
817.912	0.27
818.084	-0.01
818.255	-0.23
818.426	-0.03
818.598	-0.13
818.769	-0.62
818.941	0.02
819.112	0.51
819.283	0.14
819.455	-0.29
819.626	-0.24
819.798	0.03
819.969	0.13
820.14	0.13
820.311	-0.4
820.483	0.06
820.654	0.52
820.825	-0.15
820.996	0.14
821.168	-0.34
821.339	-0.14
821.51	-0.15
821.681	-0.38
821.852	-0.03
822.023	-0.48
822.195	-0.22
822.366	0.3
822.537	-0.1
822.708	-0.06
822.879	0
823.05	0.91
823.221	0.07
823.392	0.28
823.563	0.14
823.734	0.1
823.905	-0.15
824.076	-0.08
824.247	-0.44
824.418	-0.22
824.589	0.48
824.759	-0.62
824.93	0.06
825.101	-0.67
825.272	0.05
825.443	0.96
825.614	-0.21
825.784	-1.39
825.955	1.2
826.126	0.53
826.297	0
826.467	0.81
826.638	0.22
826.809	-1.1
826.98	0.43
827.15	0.02
827.321	-0.64
827.492	0.7
827.662	0.53
827.833	0.73
828.003	0.48
828.174	-0.25
828.345	-0.14
828.515	0.52
828.686	0.29
828.856	0.16
829.027	0.32
829.197	0.06
829.368	0.35
829.538	-0.34
829.709	-0.07
829.879	0.01
830.049	0.3
830.22	0.2
830.39	-0.25
830.56	0.11
830.731	-0
830.901	-0.5
831.072	0.79
831.242	0.42
831.412	-0.13
831.582	0.29
831.753	-0.35
831.923	1.1
832.093	0.15
832.263	0.08
832.434	-0.6
832.604	-0.43
832.774	0.23
832.944	-0.28
833.114	-0.14
833.284	0.62
833.454	-0.1
833.624	-0.31
833.795	-0.32
833.965	0.46
834.135	0.46
834.305	-1.04
834.475	-0.72
834.645	0.17
834.815	-0.71
834.985	-0.32
835.155	-0.57
835.325	-0
835.494	0.98
835.664	-0.03
835.834	-0.22
836.004	-0.28
836.174	0.47
836.344	0.23
836.514	-0.73
836.684	-0.3
836.853	-0.05
837.023	0.4
837.193	-0.46
837.363	0.78
837.532	0.65
837.702	-0.37
837.872	-0.79
838.041	2.07
838.211	1.34
838.381	-0.83
838.55	-0.22
838.72	0.99
838.89	0.95
839.059	-0.07
839.229	-0.23
839.398	0.89
839.568	-0.26
839.738	0.12
839.907	0.82
840.077	0.18
840.246	-0.65
840.416	0.09
840.585	-0.75
840.755	1.7
840.924	1.62
841.093	-0.37
841.263	-0.65
841.432	0.13
841.602	-1.03
841.771	-1.4
841.94	-0.15
842.11	1.67
842.279	0.63
842.448	-0.36
842.617	-0.19
842.787	1.15
842.956	-0.99
843.125	0.13
843.294	1.01
843.464	0.94
843.633	-0.34
843.802	-0.41
843.971	-0.15
844.14	0.12
844.309	0.56
844.479	-0.76
844.648	-0.93
844.817	-0.25
844.986	-0.21
845.155	0.24
845.324	0.82
845.493	0.2
845.662	-0.69
845.831	0.33
846	0.47
846.169	-0.28
846.338	0.73
846.507	-0.21
846.676	-0.13
846.844	-0.7
847.013	1.15
847.182	-0.03
847.351	-0.77
847.52	0.01
847.689	0.92
847.858	-0.26
848.026	-0.85
848.195	-0.38
848.364	0.02
848.533	-0.17
848.701	-0.22
848.87	0.59
849.039	0.74
849.207	0.82
849.376	0.51
849.545	0.37
849.713	-0.38
849.882	-0.77
850.051	0.64
850.219	0.03
850.388	1.5
850.556	-0.74
850.725	0.11
850.893	-0.27
851.062	-0.02
851.23	1.01
851.399	-1.69
851.567	-0.88
851.736	0.01
851.904	-0.34
852.073	-0.03
852.241	0.42
852.41	-0.15
852.578	-0.24
852.746	0.01
852.915	0.64
853.083	0.06
853.251	-1.41
853.42	0.39
853.588	0.37
853.756	0.69
853.924	-0.32
854.093	-0.33
854.261	-1.17
854.429	-0.85
854.597	-0.25
854.765	-0.73
854.934	0.16
855.102	0.44
855.27	0.02
855.438	0.9
855.606	0.65
855.774	1.03
855.942	-1.61
856.11	-0.76
856.278	0.27
856.446	0.6
856.614	0.29
856.782	-0.19
856.95	1.5
857.118	0.95
857.286	0.24
857.454	-1.67
857.622	0.91
857.79	1.12
857.958	-0.34
858.126	0.24
858.294	-2.15
858.462	0.85
858.629	0.75
858.797	0.73
858.965	-0.15
859.133	-0.2
859.301	-0.12
859.468	1.08
859.636	-0.52
859.804	1.19
859.971	0.49
860.139	-0.08
860.307	1.45
860.474	0.77
860.642	-1.44
860.81	-0.56
860.977	-0.58
861.145	0.79
861.313	-0.15
861.48	0.31
861.648	1.02
861.815	-0.38
861.983	-1.46
862.15	-0.11
862.318	0.69
862.485	0.66
862.653	-0.72
862.82	-1.27
862.988	1.39
863.155	-0.24
863.322	-0.76
863.49	-0.67
863.657	-0.74
863.824	2.51
863.992	1.62
864.159	-0.14
864.326	1.28
864.494	-1.02
864.661	2.87
864.828	-1.27
864.996	1.63
865.163	0.25
865.33	-0.4
865.497	-0.98
865.664	-0.64
865.832	-0.76
865.999	-0.59
866.166	-2.13
866.333	-0.5
866.5	-1.11
866.667	0.57
866.834	0.52
867.001	1.19
867.168	-3.66
867.335	0.71
867.502	-1.62
867.669	-1.09
867.836	2.6
868.003	1.12
868.17	0.38
868.337	-1.83
868.504	2.4
868.671	-1.72
868.838	-0.8
869.005	0.72
869.172	1.73
869.339	-0.35
869.505	0.91
869.672	0.34
869.839	1.22
870.006	0.58
870.173	-2.46
870.339	0.44
870.506	2.46
870.673	-1.11
870.84	-0.26
871.006	1.69
871.173	-1.1
871.34	0.91
871.506	-0.65
871.673	-0.25
871.839	-2.34
872.006	-0.53
872.173	0.23
872.339	-0.68
872.506	1.06
872.672	0.08
872.839	-2.37
873.005	-0.37
873.172	3.05
873.338	1.01
873.505	0.2
873.671	0.32
873.838	0.94
874.004	-1.88
874.171	-1.39
874.337	1.74
874.503	1.47
874.67	0.91
874.836	-0.47
875.002	1.78
875.169	-0.61
875.335	-0.21
875.501	-0.25
875.668	1.44
875.834	-0.94
876	-0.29
876.166	-0.54
876.332	1.23
876.499	3.12
876.665	-1.2
876.831	0.32
876.997	2.8
877.163	1.43
877.329	-2.13
877.495	0.97
877.662	0.22
877.828	0.76
877.994	0.92
878.16	-0.93
878.326	-1.7
878.492	-0.5
878.658	-1.36
878.824	0.78
878.99	2.88
879.156	0.2
879.322	3.79
879.487	-0.92
879.653	1.34
879.819	1.04
879.985	-2.05
880.151	1.32
880.317	0.67
880.483	1.4
880.648	2.12
880.814	-2.47
880.98	0.75
881.146	-2.67
881.312	-2.14
881.477	-0.83
881.643	1.41
881.809	0.52
881.974	1.16
882.14	-2.88
882.306	1.14
882.471	2.44
882.637	0.56
882.803	0.56
882.968	2.71
883.134	3.81
883.299	0.61
883.465	0.28
883.63	0.87
883.796	0.27
883.961	0.48
884.127	0.2
884.292	-2.88
884.458	-1.81
884.623	-1.81
