Data from Apollo_Calib_20240827__AbsoluteIrradiance__696__10-45-02-376.txt Node

Date: Wed Aug 28 10:45:02 BST 2024
User: biology
Spectrometer: FLMT08252
Trigger mode: 0
Integration Time (sec): 5.000000E-1
Scans to average: 5
Electric dark correction enabled: true
Nonlinearity correction enabled: false
Boxcar width: 0
XAxis mode: Wavelengths
Number of Pixels in Spectrum: 3648
>>>>>Begin Spectral Data<<<<<
179.588	-0
179.809	-0
180.03	-0
180.251	-0
180.473	-0
180.694	0
180.915	0
181.136	-0
181.357	0
181.578	-0
181.799	-0
182.02	-0
182.241	-0
182.462	-0
182.683	0
182.904	-0
183.125	-0
183.346	0
183.567	0
183.788	-0
184.009	-0
184.23	0
184.451	0
184.672	-0
184.892	-0
185.113	-0
185.334	0
185.555	-0
185.776	-0
185.996	0
186.217	-0
186.438	0
186.659	-0
186.879	0
187.1	0
187.321	-0
187.541	-0
187.762	-0
187.983	-0
188.203	-0
188.424	-0
188.644	-0
188.865	-0
189.086	-0
189.306	-0
189.527	-0
189.747	0
189.968	-0
190.188	0
190.409	-0
190.629	0
190.849	-0
191.07	-0
191.29	0
191.511	0
191.731	-0
191.951	-0
192.172	-0
192.392	-0
192.612	-0
192.833	-0
193.053	0
193.273	0
193.493	-0
193.714	-0
193.934	0
194.154	0
194.374	-0
194.594	0
194.815	0
195.035	-0
195.255	0
195.475	-0
195.695	0
195.915	-0
196.135	-0
196.355	0
196.575	0
196.795	-0
197.015	-0
197.235	-0
197.455	-0
197.675	0
197.895	-0
198.115	-0
198.335	0
198.555	-0
198.775	0
198.995	0
199.214	0
199.434	-0
199.654	-0
199.874	-0
200.094	0.38
200.313	-0.34
200.533	-0.8
200.753	-0.82
200.973	0.44
201.192	0.24
201.412	-1.02
201.632	-0.24
201.851	0.73
202.071	-0.19
202.291	-0.67
202.51	-0.7
202.73	0.05
202.95	-0.59
203.169	-0.57
203.389	-0.38
203.608	-0.06
203.828	-0.64
204.047	-0.71
204.267	0.35
204.486	0.24
204.706	0.05
204.925	-0.2
205.145	-0.33
205.364	0.27
205.583	0.55
205.803	-0.2
206.022	-0.57
206.242	-0.23
206.461	0.01
206.68	0.21
206.9	0.16
207.119	0.5
207.338	0.21
207.557	-0.61
207.777	-0.34
207.996	-0.09
208.215	0.24
208.434	-0.49
208.654	-0.36
208.873	-0.08
209.092	0.28
209.311	-0.11
209.53	-0.08
209.749	-0.15
209.968	-0.34
210.187	-0.12
210.407	-0.52
210.626	0.17
210.845	0.34
211.064	-0.27
211.283	-0.3
211.502	0.12
211.721	-0.11
211.94	-0.11
212.159	0.1
212.377	0.07
212.596	0.35
212.815	0.02
213.034	-0.07
213.253	0.01
213.472	0.13
213.691	-0.29
213.91	-0.12
214.128	-0.18
214.347	0
214.566	-0.32
214.785	-0.56
215.003	-0.04
215.222	0.04
215.441	0.01
215.66	-0.3
215.878	-0.09
216.097	0.25
216.316	-0.13
216.534	-0.12
216.753	-0.16
216.972	-0.35
217.19	-0.11
217.409	-0.13
217.627	0.09
217.846	-0.08
218.064	-0.12
218.283	-0.06
218.501	0.3
218.72	0.17
218.938	-0.2
219.157	-0.19
219.375	0.09
219.594	-0.04
219.812	-0.33
220.031	-0.25
220.249	0.26
220.467	0.23
220.686	-0.1
220.904	-0.32
221.122	-0.06
221.341	0.19
221.559	-0.02
221.777	-0.28
221.995	-0.2
222.214	0.04
222.432	-0.13
222.65	0.15
222.868	0.02
223.086	-0.01
223.305	0.04
223.523	-0.11
223.741	0.01
223.959	-0.18
224.177	-0.29
224.395	-0.27
224.613	0.01
224.831	0.14
225.049	-0.23
225.267	-0.21
225.485	0.05
225.703	0.04
225.921	-0.04
226.139	-0.05
226.357	0.12
226.575	0.16
226.793	-0.09
227.011	0.33
227.229	-0.01
227.447	0.1
227.665	-0.01
227.883	-0.22
228.1	0.01
228.318	0.03
228.536	-0.21
228.754	-0.13
228.972	-0.04
229.189	0.15
229.407	0.02
229.625	-0.09
229.843	0.06
230.06	0
230.278	-0.24
230.496	0.01
230.713	-0.11
230.931	0.18
231.149	-0.09
231.366	-0.29
231.584	-0.02
231.801	0.2
232.019	-0.02
232.236	-0.26
232.454	-0.17
232.671	0.02
232.889	0.01
233.106	-0.21
233.324	-0.02
233.541	-0.13
233.759	0.09
233.976	-0.16
234.194	-0.05
234.411	-0.04
234.628	-0.11
234.846	0
235.063	0.06
235.28	0.01
235.498	-0.09
235.715	-0.21
235.932	0.06
236.149	-0.1
236.367	-0.15
236.584	-0
236.801	-0.15
237.018	-0.01
237.236	-0.06
237.453	-0.18
237.67	0.14
237.887	-0.06
238.104	-0.11
238.321	-0.15
238.538	-0.05
238.755	0.04
238.973	-0.1
239.19	-0.02
239.407	0.06
239.624	-0.01
239.841	-0.27
240.058	-0.1
240.275	0.07
240.492	-0.05
240.709	-0.08
240.925	-0.17
241.142	-0.05
241.359	-0.04
241.576	-0.17
241.793	-0.06
242.01	-0.05
242.227	0.06
242.444	0.04
242.66	0.05
242.877	-0.01
243.094	-0.1
243.311	0
243.527	-0
243.744	0.02
243.961	0.04
244.178	-0.06
244.394	-0.07
244.611	0.12
244.828	0.08
245.044	-0.12
245.261	-0.08
245.477	0.06
245.694	0.08
245.911	-0.05
246.127	0
246.344	0.15
246.56	-0.02
246.777	-0.01
246.993	-0.04
247.21	0.02
247.426	0.02
247.643	-0.02
247.859	-0.18
248.076	-0.07
248.292	0.13
248.508	-0.05
248.725	0.04
248.941	-0.06
249.157	0.07
249.374	-0.07
249.59	-0.05
249.806	-0.02
250.023	0.02
250.239	-0.05
250.455	-0.16
250.671	0.02
250.888	0.02
251.104	-0.01
251.32	-0.03
251.536	-0.03
251.752	0.04
251.969	0.04
252.185	-0.03
252.401	0.09
252.617	0
252.833	-0.08
253.049	-0.03
253.265	-0.05
253.481	0.05
253.697	0.02
253.913	-0.12
254.129	-0
254.345	0
254.561	-0.11
254.777	-0.03
254.993	0.09
255.209	-0.05
255.425	-0.02
255.641	-0.11
255.857	0.08
256.073	-0.02
256.288	-0.09
256.504	-0.09
256.72	0.02
256.936	0.09
257.152	-0.02
257.367	-0.08
257.583	-0.07
257.799	0.09
258.015	-0.14
258.23	0
258.446	0.14
258.662	-0.01
258.877	-0.07
259.093	-0.04
259.309	-0.07
259.524	-0.01
259.74	-0.02
259.955	-0.17
260.171	0.04
260.387	0.01
260.602	0.07
260.818	0.01
261.033	-0.04
261.249	-0.03
261.464	-0.09
261.68	-0.1
261.895	0.03
262.11	-0.02
262.326	-0.06
262.541	-0.18
262.757	0.08
262.972	0.03
263.187	0.01
263.403	-0.07
263.618	0.08
263.833	-0.01
264.049	-0.09
264.264	-0.07
264.479	0.04
264.694	0.1
264.91	-0.07
265.125	-0.03
265.34	0.04
265.555	0.12
265.77	0.01
265.986	-0.07
266.201	-0.02
266.416	0.09
266.631	-0.05
266.846	0.01
267.061	0.07
267.276	-0
267.491	-0.14
267.706	-0.01
267.921	0.01
268.136	0.04
268.351	-0.01
268.566	-0.14
268.781	0.09
268.996	0.03
269.211	-0.04
269.426	-0.13
269.641	-0.01
269.856	0
270.071	-0.03
270.285	-0.07
270.5	0.06
270.715	0.05
270.93	-0.03
271.145	0.01
271.359	0.01
271.574	-0.11
271.789	0.01
272.004	-0.05
272.218	-0.1
272.433	0.02
272.648	-0.03
272.862	0.04
273.077	-0.01
273.292	-0
273.506	-0.11
273.721	-0.08
273.936	0.01
274.15	-0.03
274.365	-0.04
274.579	-0.01
274.794	0.01
275.008	0.03
275.223	-0.12
275.437	-0.02
275.652	0.07
275.866	0.03
276.081	-0.04
276.295	0.03
276.509	-0
276.724	-0.03
276.938	-0.03
277.153	-0.02
277.367	0.12
277.581	-0.08
277.796	-0.03
278.01	-0.1
278.224	0.06
278.438	0.16
278.653	-0.11
278.867	-0.07
279.081	-0.21
279.295	-0.04
279.51	0.06
279.724	-0.08
279.938	0
280.152	-0.04
280.366	-0.05
280.58	0
280.794	0.02
281.008	0.04
281.222	0.02
281.437	0.07
281.651	0.04
281.865	0.07
282.079	-0.08
282.293	-0.12
282.507	-0.07
282.721	-0
282.935	-0.02
283.148	-0.07
283.362	-0.04
283.576	-0.09
283.79	-0.03
284.004	-0.04
284.218	0.02
284.432	-0.07
284.646	0.02
284.859	-0.02
285.073	-0.05
285.287	0.05
285.501	0.06
285.714	0.01
285.928	0.03
286.142	0.01
286.356	-0.09
286.569	-0
286.783	0.1
286.997	0.02
287.21	0.02
287.424	-0.07
287.637	0.01
287.851	-0.08
288.065	-0.03
288.278	0
288.492	0.02
288.705	0.02
288.919	-0.01
289.132	-0.07
289.346	0.07
289.559	-0.09
289.773	-0.1
289.986	-0.02
290.2	-0.01
290.413	0.03
290.626	-0.03
290.84	-0.06
291.053	-0.02
291.267	0.09
291.48	0.01
291.693	-0.01
291.906	-0.03
292.12	-0.03
292.333	-0.02
292.546	-0.04
292.76	0.08
292.973	-0
293.186	0.01
293.399	-0.05
293.612	0.05
293.826	0.03
294.039	0.02
294.252	-0.02
294.465	0.06
294.678	0.07
294.891	0.03
295.104	-0.05
295.317	-0.01
295.53	0.01
295.743	-0.03
295.956	-0.01
296.169	0.05
296.382	0.07
296.595	0.01
296.808	-0.07
297.021	0.03
297.234	0.07
297.447	-0.05
297.66	0.01
297.873	0.05
298.086	0.05
298.299	-0.04
298.511	-0.07
298.724	-0.01
298.937	-0.07
299.15	-0.02
299.363	0.03
299.575	-0.02
299.788	0.02
300.001	-0.04
300.213	-0.09
300.426	-0.05
300.639	-0.05
300.852	-0.03
301.064	0.02
301.277	0.09
301.489	0.01
301.702	0.04
301.915	0.04
302.127	-0.01
302.34	0.03
302.552	0.02
302.765	-0.02
302.977	0.04
303.19	0
303.402	-0.03
303.615	-0.01
303.827	-0.07
304.04	0.02
304.252	-0
304.464	-0.02
304.677	0.09
304.889	0.02
305.102	-0.04
305.314	-0.02
305.526	0.03
305.739	0.02
305.951	-0.07
306.163	-0.01
306.375	0.08
306.588	-0.03
306.8	-0.02
307.012	-0.1
307.224	-0
307.436	0.03
307.649	-0.04
307.861	-0
308.073	-0.01
308.285	-0.06
308.497	-0.01
308.709	-0.02
308.921	-0
309.133	0.05
309.346	-0.02
309.558	-0
309.77	0.05
309.982	0.03
310.194	0.05
310.406	-0.02
310.617	0.07
310.829	-0.01
311.041	0.02
311.253	-0.06
311.465	-0.02
311.677	0.03
311.889	-0.02
312.101	-0.02
312.313	0.03
312.524	0.06
312.736	-0.03
312.948	-0.08
313.16	0.06
313.372	0.04
313.583	-0
313.795	-0.01
314.007	-0
314.218	0
314.43	-0.03
314.642	-0.01
314.853	-0.02
315.065	0.03
315.277	0.02
315.488	0.05
315.7	0
315.912	0.01
316.123	-0.03
316.335	-0
316.546	0.12
316.758	-0.03
316.969	-0.01
317.181	-0.03
317.392	-0.03
317.604	0.06
317.815	-0.03
318.026	-0.02
318.238	-0.03
318.449	-0.01
318.661	-0.06
318.872	-0.07
319.083	-0.06
319.295	0.03
319.506	-0.03
319.717	0.01
319.929	0.01
320.14	-0.05
320.351	0.02
320.562	-0.05
320.774	0.04
320.985	0.05
321.196	-0.05
321.407	-0.06
321.618	0.01
321.829	-0.05
322.041	0.05
322.252	-0.02
322.463	0.07
322.674	0.03
322.885	-0.03
323.096	-0.02
323.307	0
323.518	0.03
323.729	-0.04
323.94	-0.07
324.151	0
324.362	0.02
324.573	-0.03
324.784	-0.08
324.995	0.06
325.206	-0.01
325.417	-0.04
325.628	-0.02
325.838	0.01
326.049	0.02
326.26	0.01
326.471	-0.01
326.682	0.03
326.892	-0
327.103	-0.08
327.314	-0.07
327.525	0.05
327.735	0.01
327.946	0
328.157	-0.06
328.368	-0
328.578	-0.02
328.789	-0.01
328.999	-0
329.21	0.01
329.421	-0.04
329.631	-0.05
329.842	-0.06
330.052	0.03
330.263	0.01
330.473	0.03
330.684	-0.03
330.894	-0.02
331.105	0.02
331.315	-0
331.526	-0.08
331.736	0.07
331.947	0.04
332.157	-0.01
332.367	-0.04
332.578	0.01
332.788	0.01
332.999	0.02
333.209	0.03
333.419	-0.06
333.629	-0.05
333.84	0.06
334.05	-0.03
334.26	0.07
334.47	-0.02
334.681	0.06
334.891	0.04
335.101	0.05
335.311	0.09
335.521	-0.02
335.732	-0.03
335.942	0.04
336.152	0.01
336.362	0
336.572	-0.01
336.782	0.02
336.992	-0
337.202	-0.04
337.412	-0.07
337.622	0.02
337.832	0
338.042	-0.02
338.252	-0.02
338.462	-0.05
338.672	0.02
338.882	-0.01
339.092	-0
339.302	0.05
339.511	0.03
339.721	-0.05
339.931	-0.03
340.141	0.04
340.351	0.09
340.561	-0.01
340.77	-0.01
340.98	-0.01
341.19	0.01
341.4	-0.05
341.609	-0.05
341.819	0.01
342.029	-0.05
342.238	-0.02
342.448	-0.02
342.658	0.06
342.867	0.03
343.077	-0
343.286	0.02
343.496	0.02
343.706	0.07
343.915	-0.06
344.125	0.01
344.334	0.04
344.544	-0.06
344.753	-0.02
344.963	-0.01
345.172	-0.04
345.381	-0.02
345.591	-0.05
345.8	-0
346.01	0.02
346.219	0.01
346.428	-0.15
346.638	0
346.847	-0.03
347.056	0.03
347.266	-0.02
347.475	-0.04
347.684	0.03
347.893	0.01
348.103	0.01
348.312	-0.05
348.521	0
348.73	-0.03
348.94	-0.01
349.149	0
349.358	-0.04
349.567	-0.04
349.776	-0.08
349.985	-0.02
350.194	0
350.403	0.06
350.612	-0.06
350.821	-0.04
351.03	-0
351.239	-0.04
351.448	-0.01
351.657	-0.05
351.866	0.07
352.075	0.03
352.284	0.06
352.493	-0.07
352.702	0.04
352.911	0.01
353.12	-0.03
353.329	-0.01
353.538	-0.01
353.746	-0.02
353.955	-0.01
354.164	-0.01
354.373	0
354.582	0.02
354.79	0.03
354.999	0.02
355.208	-0.01
355.416	0.07
355.625	-0.05
355.834	-0.03
356.042	0.01
356.251	-0.01
356.46	-0.07
356.668	0.02
356.877	0.08
357.085	0.03
357.294	-0.06
357.503	0.02
357.711	0.01
357.92	0.1
358.128	0.01
358.337	-0.04
358.545	-0.01
358.754	-0.09
358.962	-0.01
359.17	-0.01
359.379	0.03
359.587	0.05
359.796	0
360.004	0.03
360.212	-0.01
360.421	0.03
360.629	-0.01
360.837	-0
361.046	-0
361.254	0.06
361.462	0.03
361.67	-0.01
361.879	-0.02
362.087	0.08
362.295	0.02
362.503	-0.02
362.711	-0.08
362.92	-0.01
363.128	-0.01
363.336	-0.04
363.544	-0.06
363.752	-0.03
363.96	-0.05
364.168	-0.03
364.376	-0.04
364.584	0.01
364.792	0.01
365	0.02
365.208	-0.01
365.416	0.01
365.624	0
365.832	0
366.04	0.04
366.248	-0.02
366.456	-0.03
366.664	-0
366.872	-0
367.079	0.01
367.287	0.01
367.495	0.01
367.703	-0.01
367.911	0.02
368.118	-0.02
368.326	0
368.534	-0.06
368.742	0.02
368.949	-0.04
369.157	-0.03
369.365	0.03
369.572	-0.04
369.78	-0.08
369.988	0.05
370.195	0.04
370.403	0.01
370.61	-0.01
370.818	-0.02
371.026	0.05
371.233	-0.03
371.441	0.06
371.648	-0.02
371.856	-0
372.063	0.01
372.271	-0.02
372.478	-0.03
372.685	-0.04
372.893	0.04
373.1	-0.03
373.308	-0.05
373.515	0.04
373.722	-0.02
373.93	-0.01
374.137	0.01
374.344	0.06
374.552	0.03
374.759	0.05
374.966	-0.01
375.173	0.02
375.381	0.04
375.588	-0.02
375.795	-0.07
376.002	-0.02
376.209	0
376.417	0
376.624	-0.05
376.831	0
377.038	-0.05
377.245	-0.07
377.452	-0.03
377.659	-0
377.866	-0.01
378.073	-0.01
378.28	0
378.487	0.07
378.694	0.01
378.901	-0.05
379.108	-0.04
379.315	0.04
379.522	0.11
379.729	-0.03
379.936	-0.06
380.143	0.02
380.35	-0.05
380.557	-0.01
380.763	-0
380.97	0.02
381.177	0.01
381.384	-0.02
381.591	-0.02
381.797	0.01
382.004	0.04
382.211	0
382.418	-0.05
382.624	0.05
382.831	0.02
383.038	-0.03
383.244	0.02
383.451	0.01
383.658	0.02
383.864	-0
384.071	-0.05
384.277	0.03
384.484	-0.02
384.69	0.01
384.897	-0.06
385.103	0
385.31	-0.02
385.516	-0.06
385.723	0.01
385.929	0.02
386.136	-0.02
386.342	-0.01
386.549	-0.05
386.755	0.06
386.961	-0.02
387.168	0.03
387.374	-0.03
387.58	0.03
387.787	-0.03
387.993	-0.01
388.199	-0.01
388.406	-0.09
388.612	-0.02
388.818	-0.04
389.024	-0.05
389.231	-0.02
389.437	0.04
389.643	0.01
389.849	-0.01
390.055	-0.02
390.261	0.03
390.467	-0.02
390.674	-0.03
390.88	-0.05
391.086	0.04
391.292	-0.04
391.498	0.01
391.704	-0.01
391.91	-0.05
392.116	-0.03
392.322	-0.12
392.528	0.03
392.734	-0.01
392.94	-0
393.146	-0
393.352	0.01
393.557	0.01
393.763	-0.07
393.969	-0.01
394.175	-0
394.381	0.02
394.587	-0.03
394.792	-0.05
394.998	0.03
395.204	0.04
395.41	-0.03
395.615	0.08
395.821	0.03
396.027	-0.01
396.233	-0.04
396.438	-0.01
396.644	-0.01
396.85	0.02
397.055	-0.07
397.261	0.03
397.466	0
397.672	0.02
397.878	0.04
398.083	0.01
398.289	-0.06
398.494	-0
398.7	-0.01
398.905	-0.05
399.111	0.03
399.316	-0.06
399.522	-0.02
399.727	-0.01
399.932	-0.04
400.138	-0.04
400.343	0.03
400.549	-0.02
400.754	-0.01
400.959	-0.01
401.165	-0.02
401.37	0.03
401.575	0.07
401.78	-0.03
401.986	-0.03
402.191	-0.04
402.396	-0
402.601	0.01
402.807	0
403.012	-0.02
403.217	0.05
403.422	-0.04
403.627	-0.02
403.832	-0.08
404.037	0.04
404.243	-0.01
404.448	-0.07
404.653	-0.04
404.858	0
405.063	0.05
405.268	-0.06
405.473	-0.04
405.678	-0.06
405.883	0.11
406.088	0.05
406.293	-0.05
406.498	-0.04
406.703	-0
406.907	-0.01
407.112	-0.06
407.317	-0.01
407.522	0.01
407.727	-0.11
407.932	0.01
408.136	0.03
408.341	-0.01
408.546	-0.03
408.751	0.02
408.956	-0.03
409.16	0.01
409.365	0.01
409.57	-0.04
409.774	-0.05
409.979	0.02
410.184	-0.02
410.388	-0.09
410.593	0.03
410.798	0.03
411.002	-0.03
411.207	0
411.411	0
411.616	-0.05
411.82	-0.01
412.025	0.01
412.229	-0.01
412.434	0.07
412.638	0
412.843	-0.03
413.047	0
413.252	-0.05
413.456	-0.04
413.66	0.02
413.865	-0.04
414.069	0.06
414.273	-0.04
414.478	-0.05
414.682	0.01
414.886	-0.01
415.091	-0.05
415.295	-0.06
415.499	-0
415.703	-0.03
415.908	0.02
416.112	-0.07
416.316	0.01
416.52	-0.02
416.724	-0.03
416.929	-0.05
417.133	0.07
417.337	-0.01
417.541	-0
417.745	-0.03
417.949	0.05
418.153	-0
418.357	-0.08
418.561	0.02
418.765	-0.02
418.969	0.07
419.173	-0
419.377	-0.03
419.581	0.03
419.785	-0.02
419.989	-0.06
420.193	-0.03
420.397	-0.03
420.601	0.02
420.804	0.02
421.008	-0
421.212	0.01
421.416	-0
421.62	-0.03
421.823	0
422.027	0.07
422.231	-0.03
422.435	-0.02
422.638	0
422.842	-0
423.046	-0.05
423.249	-0.01
423.453	0.07
423.657	-0.03
423.86	-0.05
424.064	-0.03
424.268	0.03
424.471	-0.01
424.675	0.08
424.878	0.04
425.082	-0.02
425.285	-0.01
425.489	-0.01
425.692	-0.01
425.896	-0.08
426.099	0
426.303	-0.08
426.506	-0.09
426.71	0.03
426.913	0.02
427.116	0.05
427.32	-0.03
427.523	0.02
427.726	0.06
427.93	-0.03
428.133	0.02
428.336	-0.02
428.54	-0.05
428.743	0.02
428.946	-0.02
429.149	-0.09
429.353	-0.03
429.556	-0.05
429.759	-0.02
429.962	-0.07
430.165	-0.04
430.368	-0.01
430.571	-0.02
430.775	-0.02
430.978	-0.04
431.181	0.03
431.384	-0.03
431.587	-0.04
431.79	-0.01
431.993	-0.06
432.196	-0.05
432.399	0.02
432.602	0.01
432.805	-0.06
433.008	-0.05
433.211	-0.1
433.414	0.01
433.616	0.01
433.819	-0.02
434.022	-0.09
434.225	0.05
434.428	0.02
434.631	0.06
434.833	-0.04
435.036	0.02
435.239	0.04
435.442	0.04
435.645	-0.02
435.847	0.03
436.05	-0.02
436.253	0.01
436.455	-0.06
436.658	-0.02
436.861	0.05
437.063	-0.02
437.266	-0.05
437.468	0.01
437.671	0.09
437.874	-0.02
438.076	-0.08
438.279	-0.08
438.481	-0.03
438.684	-0.04
438.886	0.05
439.089	-0.13
439.291	-0.03
439.494	0.01
439.696	-0.03
439.899	-0.04
440.101	-0.04
440.303	-0.07
440.506	0.01
440.708	-0
440.91	0.01
441.113	-0.04
441.315	0.01
441.517	-0.07
441.72	-0
441.922	-0.03
442.124	-0.08
442.326	0
442.529	0.06
442.731	-0.02
442.933	0.07
443.135	0.03
443.337	-0.06
443.539	0.02
443.742	0.01
443.944	-0.04
444.146	-0.07
444.348	-0.02
444.55	-0.01
444.752	-0.05
444.954	-0.07
445.156	-0
445.358	-0.06
445.56	0.02
445.762	-0.04
445.964	-0.02
446.166	-0.03
446.368	-0.03
446.57	-0.01
446.772	-0.02
446.974	-0.03
447.175	-0.02
447.377	-0
447.579	-0.05
447.781	-0.08
447.983	0.02
448.184	-0.02
448.386	0.01
448.588	-0.14
448.79	-0.05
448.991	-0.06
449.193	-0.04
449.395	-0.02
449.597	0.05
449.798	-0.02
450	0.04
450.202	-0.03
450.403	-0
450.605	0.03
450.806	-0.03
451.008	-0.11
451.21	-0
451.411	-0.03
451.613	-0.02
451.814	-0.03
452.016	0.02
452.217	-0.03
452.419	0.02
452.62	-0.01
452.821	-0
453.023	0.05
453.224	0.02
453.426	-0
453.627	-0
453.828	0.03
454.03	-0.01
454.231	-0.04
454.432	-0.07
454.634	0.08
454.835	-0.03
455.036	-0.1
455.238	0.05
455.439	0.08
455.64	-0.05
455.841	-0.03
456.042	0.15
456.244	0.02
456.445	-0.04
456.646	-0.12
456.847	-0.01
457.048	0.02
457.249	0.04
457.45	0.18
457.651	-0.03
457.852	0.03
458.054	0.02
458.255	-0.04
458.456	-0.01
458.657	-0.04
458.858	-0.05
459.058	-0.01
459.259	0.01
459.46	-0.05
459.661	-0.03
459.862	0.03
460.063	-0.03
460.264	0.05
460.465	-0.1
460.666	0.06
460.866	-0.02
461.067	0.04
461.268	-0.04
461.469	-0.02
461.67	-0.02
461.87	-0.01
462.071	-0.03
462.272	-0.07
462.473	-0.01
462.673	-0
462.874	-0.07
463.075	-0.05
463.275	-0.09
463.476	0
463.676	-0.03
463.877	-0.07
464.078	-0.06
464.278	0.06
464.479	-0.05
464.679	0
464.88	0.01
465.08	0.01
465.281	-0.05
465.481	-0.04
465.682	0.03
465.882	-0.01
466.083	0.03
466.283	-0.04
466.483	-0.03
466.684	-0.04
466.884	-0.02
467.085	-0.01
467.285	-0.02
467.485	-0.06
467.686	-0.04
467.886	-0.06
468.086	-0.01
468.286	-0.01
468.487	0.01
468.687	-0.06
468.887	-0
469.087	0.05
469.287	-0.03
469.488	-0.07
469.688	-0.01
469.888	0
470.088	0.04
470.288	0.07
470.488	0.02
470.688	-0.04
470.888	0
471.088	-0.03
471.288	-0.01
471.488	-0.02
471.688	0.04
471.888	-0.01
472.088	0.07
472.288	0.02
472.488	-0.06
472.688	-0.04
472.888	-0
473.088	-0.01
473.288	-0
473.488	0.01
473.688	0.07
473.887	0.01
474.087	-0.02
474.287	-0
474.487	-0.05
474.687	0.01
474.886	-0.04
475.086	-0.03
475.286	0.03
475.486	0.01
475.685	-0.01
475.885	-0
476.085	-0.02
476.284	0.02
476.484	-0.04
476.684	0
476.883	0.05
477.083	0.01
477.282	-0.03
477.482	0.06
477.681	0.06
477.881	0.02
478.08	0.02
478.28	-0.03
478.479	0.03
478.679	0.08
478.878	-0.04
479.078	-0.03
479.277	0
479.477	-0.01
479.676	0.04
479.875	-0.01
480.075	-0.06
480.274	-0.01
480.473	0.04
480.673	-0.05
480.872	0.02
481.071	0
481.271	0.01
481.47	-0.03
481.669	-0.01
481.868	-0.02
482.067	-0.05
482.267	-0.02
482.466	-0.03
482.665	-0.05
482.864	-0.04
483.063	-0.02
483.262	-0.01
483.461	0.04
483.661	-0.01
483.86	0.01
484.059	0
484.258	-0.01
484.457	-0.01
484.656	-0.01
484.855	0.01
485.054	-0.07
485.253	-0.05
485.452	-0.05
485.651	-0.01
485.849	-0.02
486.048	-0.03
486.247	-0.02
486.446	-0
486.645	-0.03
486.844	-0.01
487.043	-0.02
487.241	-0
487.44	-0.02
487.639	-0.01
487.838	0.01
488.037	-0.02
488.235	0
488.434	0.01
488.633	-0.01
488.831	0.01
489.03	0.03
489.229	0.01
489.427	-0.02
489.626	0.02
489.825	0.05
490.023	-0.01
490.222	-0.03
490.42	0.02
490.619	0.01
490.817	0.01
491.016	-0.02
491.214	0.02
491.413	0.01
491.611	-0.01
491.81	-0.02
492.008	0.01
492.207	0.01
492.405	0.01
492.604	-0.03
492.802	-0.02
493	-0.01
493.199	-0.01
493.397	0.01
493.595	-0.02
493.794	-0.02
493.992	0.03
494.19	-0.01
494.388	0.01
494.587	-0.01
494.785	-0.02
494.983	-0.04
495.181	-0.01
495.379	-0.02
495.578	-0.01
495.776	-0.01
495.974	-0
496.172	0
496.37	-0.02
496.568	-0.03
496.766	-0.02
496.964	0.02
497.162	0
497.36	-0.02
497.558	-0
497.756	0.01
497.954	-0.04
498.152	-0.03
498.35	0
498.548	-0.03
498.746	-0
498.944	-0.03
499.142	-0.03
499.34	-0.04
499.538	-0.02
499.736	-0.03
499.933	0.03
500.131	0.05
500.329	0
500.527	0.01
500.725	0.02
500.922	-0.01
501.12	-0
501.318	-0
501.516	-0.03
501.713	0.01
501.911	-0.05
502.109	-0.04
502.306	0.01
502.504	-0.01
502.701	-0.04
502.899	-0.01
503.097	0.06
503.294	0
503.492	0
503.689	-0.01
503.887	0.01
504.084	0.04
504.282	-0.01
504.479	-0.05
504.677	-0
504.874	-0.04
505.072	-0.01
505.269	-0
505.466	-0
505.664	0.05
505.861	-0.03
506.059	-0.06
506.256	0.01
506.453	-0.02
506.651	0.02
506.848	0.02
507.045	-0.02
507.242	-0
507.44	-0.03
507.637	-0.02
507.834	-0
508.031	0.01
508.229	-0.02
508.426	-0.01
508.623	-0
508.82	-0.03
509.017	-0.03
509.214	-0
509.411	-0.02
509.608	-0.03
509.805	0.01
510.003	-0.03
510.2	-0.02
510.397	0
510.594	-0.02
510.791	-0.03
510.988	-0
511.184	0.02
511.381	-0
511.578	-0.04
511.775	0.02
511.972	-0.01
512.169	-0.01
512.366	0
512.563	-0
512.76	-0.03
512.956	-0.01
513.153	-0.01
513.35	-0
513.547	-0.02
513.744	-0.03
513.94	-0.03
514.137	-0.01
514.334	0.01
514.53	-0.01
514.727	-0.01
514.924	0.06
515.12	-0.03
515.317	-0.03
515.514	-0.03
515.71	-0.01
515.907	-0.01
516.103	0.01
516.3	0.01
516.497	0.01
516.693	0.02
516.89	-0.01
517.086	-0.03
517.283	0.03
517.479	0
517.676	0.01
517.872	-0.02
518.068	-0
518.265	-0.04
518.461	-0.02
518.658	-0.03
518.854	-0.01
519.05	-0.02
519.247	-0.03
519.443	0
519.639	0.01
519.836	-0.01
520.032	-0.02
520.228	-0.01
520.424	0.01
520.621	0.01
520.817	-0.02
521.013	-0.01
521.209	-0
521.405	0.05
521.601	0
521.798	0.01
521.994	0.02
522.19	-0.02
522.386	-0.03
522.582	-0.01
522.778	-0.02
522.974	-0.01
523.17	0
523.366	-0.01
523.562	0
523.758	-0.02
523.954	-0.02
524.15	-0.01
524.346	-0
524.542	-0.03
524.738	-0.01
524.934	0
525.129	-0.01
525.325	0.01
525.521	0
525.717	0.02
525.913	-0.02
526.109	-0.01
526.304	-0.01
526.5	0.02
526.696	0.02
526.892	-0.01
527.087	0.02
527.283	-0.02
527.479	-0
527.674	-0.02
527.87	-0.01
528.066	-0.01
528.261	-0
528.457	0.01
528.653	-0.01
528.848	-0.01
529.044	-0
529.239	0
529.435	0.02
529.63	-0
529.826	0.04
530.021	0
530.217	0
530.412	-0.01
530.608	-0.02
530.803	0.01
530.999	-0.02
531.194	-0.03
531.389	-0.01
531.585	-0.05
531.78	-0.02
531.975	0
532.171	0.03
532.366	-0.02
532.561	-0.01
532.757	-0.01
532.952	-0.03
533.147	0.01
533.342	-0.02
533.538	-0.01
533.733	0.01
533.928	0.01
534.123	-0.01
534.318	-0.05
534.513	-0.01
534.709	0
534.904	-0
535.099	-0.02
535.294	-0.02
535.489	0.02
535.684	-0.02
535.879	-0.03
536.074	0.01
536.269	-0.03
536.464	0.01
536.659	0
536.854	-0.01
537.049	0
537.244	0.02
537.439	-0.01
537.634	0.03
537.828	0.02
538.023	-0.01
538.218	-0.03
538.413	-0
538.608	-0.03
538.803	0.02
538.997	-0.05
539.192	0.03
539.387	0
539.582	0.01
539.776	-0.01
539.971	-0.01
540.166	-0.03
540.36	-0.01
540.555	0
540.75	-0.02
540.944	-0.01
541.139	-0.03
541.334	-0.01
541.528	0
541.723	0
541.917	-0.03
542.112	-0.03
542.306	-0
542.501	-0.02
542.695	0
542.89	-0.02
543.084	-0.01
543.279	-0.02
543.473	-0
543.668	-0.02
543.862	-0.01
544.056	0.01
544.251	-0
544.445	0.01
544.64	-0.02
544.834	-0.03
545.028	0.01
545.222	-0.01
545.417	0.02
545.611	-0.01
545.805	0.01
546	-0.02
546.194	-0.01
546.388	-0.02
546.582	0.02
546.776	-0.01
546.97	-0.02
547.165	0
547.359	0.03
547.553	-0.03
547.747	0.01
547.941	-0
548.135	-0
548.329	-0.01
548.523	-0
548.717	-0.01
548.911	-0.03
549.105	-0.02
549.299	0
549.493	0.02
549.687	0.02
549.881	0
550.075	-0.01
550.269	-0.03
550.463	0
550.657	-0.02
550.85	0
551.044	-0.02
551.238	0
551.432	-0.01
551.626	-0.04
551.82	0
552.013	-0.03
552.207	0.01
552.401	0.02
552.594	0
552.788	-0
552.982	-0.01
553.176	-0.03
553.369	0
553.563	-0.01
553.756	-0.03
553.95	-0.02
554.144	-0.02
554.337	0.02
554.531	-0.01
554.724	0.01
554.918	-0.01
555.111	0.03
555.305	-0
555.498	0.04
555.692	0.01
555.885	-0.01
556.079	-0.01
556.272	-0.01
556.466	0.01
556.659	-0.02
556.852	-0.01
557.046	-0.02
557.239	0.02
557.432	-0.06
557.626	-0.02
557.819	0
558.012	-0
558.206	0
558.399	-0
558.592	-0.01
558.785	-0.01
558.979	0.01
559.172	-0.01
559.365	-0
559.558	-0.01
559.751	-0.01
559.944	0
560.138	-0.02
560.331	-0.01
560.524	-0.04
560.717	-0.01
560.91	-0.01
561.103	0.02
561.296	-0
561.489	-0.01
561.682	0.01
561.875	0.03
562.068	-0.01
562.261	0
562.454	0.04
562.647	0.01
562.84	0
563.032	-0.01
563.225	-0.01
563.418	0
563.611	-0.02
563.804	-0.01
563.997	-0.02
564.19	-0.04
564.382	-0.06
564.575	0
564.768	0
564.961	0
565.153	-0.05
565.346	0.02
565.539	0.02
565.731	0.02
565.924	0.04
566.117	0.01
566.309	0.01
566.502	-0
566.695	-0.01
566.887	-0
567.08	-0.02
567.272	-0.01
567.465	-0.02
567.657	-0.01
567.85	0.02
568.042	0.01
568.235	0.02
568.427	-0
568.62	-0.01
568.812	0.01
569.005	-0
569.197	-0.03
569.389	-0.01
569.582	-0
569.774	-0.02
569.966	-0.04
570.159	-0.03
570.351	0.02
570.543	-0.03
570.736	-0.01
570.928	-0.05
571.12	0.01
571.312	-0.03
571.505	-0.04
571.697	0.01
571.889	-0.02
572.081	-0.01
572.273	-0.04
572.465	0.03
572.658	-0.02
572.85	-0
573.042	-0.02
573.234	0.01
573.426	0.03
573.618	-0.05
573.81	0.01
574.002	0.03
574.194	0.04
574.386	-0.03
574.578	-0.07
574.77	-0.03
574.962	-0.02
575.154	-0.06
575.346	-0.01
575.538	0
575.729	-0.02
575.921	-0.01
576.113	-0.03
576.305	0.02
576.497	-0.02
576.689	0
576.88	-0.01
577.072	0.02
577.264	-0
577.456	-0.02
577.647	-0.08
577.839	-0.03
578.031	0.04
578.223	-0.03
578.414	-0.05
578.606	0.01
578.798	-0.01
578.989	-0.03
579.181	-0.01
579.372	-0.02
579.564	-0.01
579.755	-0.02
579.947	-0.02
580.139	-0.01
580.33	-0.04
580.522	-0.03
580.713	-0.06
580.905	-0.02
581.096	0.01
581.287	-0.02
581.479	-0
581.67	0.02
581.862	-0.01
582.053	-0.02
582.244	-0.05
582.436	-0.02
582.627	-0.01
582.818	-0.02
583.01	-0.04
583.201	0
583.392	0.01
583.583	0
583.775	-0.04
583.966	-0.02
584.157	-0.04
584.348	-0.02
584.54	-0.02
584.731	0.02
584.922	-0.03
585.113	-0.03
585.304	0
585.495	0.03
585.686	0
585.877	0
586.068	-0
586.259	0.01
586.45	0.01
586.641	-0.05
586.832	-0.06
587.023	-0
587.214	-0.02
587.405	0
587.596	-0.01
587.787	0.01
587.978	0
588.169	-0.01
588.36	-0.04
588.551	0
588.742	-0.02
588.932	-0.02
589.123	-0.02
589.314	0.01
589.505	0.01
589.696	0.01
589.886	-0.02
590.077	-0.05
590.268	-0.04
590.458	-0.03
590.649	-0.03
590.84	0.03
591.03	-0.03
591.221	-0.03
591.412	-0.03
591.602	0.01
591.793	0.01
591.984	-0.06
592.174	-0.01
592.365	0.05
592.555	-0.02
592.746	0
592.936	0.01
593.127	0.01
593.317	0.01
593.508	-0.03
593.698	-0
593.889	-0.01
594.079	0.01
594.269	-0.02
594.46	-0.02
594.65	-0
594.84	-0.02
595.031	-0.05
595.221	-0.04
595.411	-0.05
595.602	0.03
595.792	-0.03
595.982	-0.05
596.172	0.05
596.363	0
596.553	0
596.743	-0.02
596.933	-0.02
597.123	0.02
597.314	-0.03
597.504	-0.03
597.694	0.04
597.884	-0.01
598.074	0
598.264	-0.02
598.454	0.01
598.644	-0
598.834	-0.01
599.024	-0.09
599.214	-0.02
599.404	0.03
599.594	-0.02
599.784	-0
599.974	0.02
600.164	0.04
600.354	-0.05
600.544	-0.05
600.734	0
600.924	0.02
601.114	-0.03
601.303	0.01
601.493	0
601.683	-0
601.873	0.02
602.063	-0.06
602.252	0.01
602.442	-0.04
602.632	-0.03
602.821	-0.03
603.011	0.02
603.201	-0.03
603.39	-0.01
603.58	-0.04
603.77	-0.02
603.959	0.02
604.149	-0.01
604.339	-0.01
604.528	0.05
604.718	-0
604.907	-0.03
605.097	-0.02
605.286	-0.06
605.476	0.02
605.665	0.01
605.855	-0
606.044	0.03
606.234	0.01
606.423	-0.04
606.612	-0.05
606.802	-0.03
606.991	0.02
607.181	0.01
607.37	-0.05
607.559	-0
607.749	-0.04
607.938	-0.01
608.127	0.01
608.316	-0.04
608.506	0.03
608.695	-0
608.884	-0.04
609.073	-0.03
609.263	0
609.452	0.04
609.641	0.02
609.83	-0.04
610.019	0
610.208	-0.05
610.397	-0.01
610.586	0.01
610.775	-0.04
610.965	-0.05
611.154	-0.04
611.343	0.01
611.532	-0
611.721	-0.05
611.91	-0.04
612.099	-0.02
612.287	-0.04
612.476	-0.03
612.665	-0.04
612.854	-0.04
613.043	0.04
613.232	-0.04
613.421	-0.05
613.61	-0.02
613.798	-0.03
613.987	0
614.176	-0
614.365	0.02
614.554	-0.01
614.742	0.02
614.931	-0.03
615.12	0.02
615.309	-0.02
615.497	0
615.686	-0.04
615.875	-0.02
616.063	0
616.252	-0.06
616.44	-0.04
616.629	0.01
616.818	0.01
617.006	-0.02
617.195	-0.02
617.383	0
617.572	0.01
617.76	-0.03
617.949	-0.03
618.137	0.02
618.326	0.03
618.514	-0.01
618.703	-0.02
618.891	0.05
619.079	-0.06
619.268	0.02
619.456	-0.03
619.644	0.01
619.833	-0.02
620.021	-0.02
620.209	-0.06
620.398	0.02
620.586	-0.04
620.774	0.01
620.962	0.01
621.151	0.02
621.339	0.02
621.527	-0.06
621.715	-0.03
621.903	-0.03
622.092	-0.08
622.28	-0.03
622.468	-0.01
622.656	0
622.844	0
623.032	-0.03
623.22	-0.05
623.408	0.03
623.596	-0.01
623.784	0.05
623.972	-0.04
624.16	-0.01
624.348	0.03
624.536	-0.04
624.724	-0.05
624.912	0.05
625.1	0.03
625.288	-0.04
625.476	-0.05
625.664	0.01
625.851	-0.06
626.039	-0.04
626.227	-0.01
626.415	-0.03
626.603	-0.06
626.79	-0.01
626.978	0
627.166	0.02
627.354	-0.01
627.541	-0.05
627.729	-0.05
627.917	0.01
628.104	0.02
628.292	-0.01
628.48	0.02
628.667	-0.01
628.855	0
629.042	0
629.23	-0.02
629.418	-0.02
629.605	-0.01
629.793	-0.02
629.98	-0.03
630.168	-0.04
630.355	0.02
630.543	-0.02
630.73	-0.04
630.917	0.01
631.105	0.05
631.292	-0.03
631.48	-0.02
631.667	0.06
631.854	0.01
632.042	-0.03
632.229	-0.09
632.416	0.01
632.604	-0.03
632.791	-0.07
632.978	0.01
633.165	-0
633.353	0
633.54	0.05
633.727	-0.03
633.914	-0.04
634.101	-0.06
634.289	0.02
634.476	-0.05
634.663	-0.04
634.85	0.02
635.037	-0.03
635.224	-0.07
635.411	0.03
635.598	0.02
635.785	-0.02
635.972	0
636.159	0
636.346	-0.03
636.533	-0.02
636.72	-0.03
636.907	-0.06
637.094	0.01
637.281	-0.02
637.468	-0.01
637.655	-0.06
637.842	-0.02
638.029	-0.04
638.215	0.05
638.402	-0
638.589	-0.05
638.776	-0.02
638.963	-0.06
639.149	-0.01
639.336	0.01
639.523	-0.02
639.709	-0.02
639.896	-0.03
640.083	0.06
640.27	-0
640.456	-0.04
640.643	0.02
640.829	-0.08
641.016	-0.02
641.203	-0.03
641.389	0.01
641.576	0.05
641.762	0.01
641.949	-0.02
642.135	0.03
642.322	-0.04
642.508	-0.05
642.695	-0
642.881	-0.02
643.068	-0.02
643.254	-0.01
643.441	-0.01
643.627	-0.01
643.813	-0.04
644	0.04
644.186	-0.04
644.372	-0.05
644.559	0.03
644.745	-0.03
644.931	-0.04
645.118	-0.01
645.304	-0
645.49	-0.06
645.676	0
645.862	0.01
646.049	0.02
646.235	-0.02
646.421	0.05
646.607	0.07
646.793	-0.01
646.979	-0.05
647.165	-0.03
647.352	0
647.538	0.02
647.724	-0.03
647.91	0.01
648.096	0.05
648.282	0.03
648.468	0.01
648.654	0.02
648.84	0.02
649.026	0.02
649.212	-0.03
649.397	-0.04
649.583	-0.04
649.769	-0.01
649.955	0
650.141	-0.01
650.327	0.03
650.513	-0.05
650.698	0.01
650.884	-0.11
651.07	0.01
651.256	0.01
651.442	-0
651.627	-0.04
651.813	0.03
651.999	0
652.184	-0
652.37	-0.02
652.556	-0.06
652.741	0.03
652.927	-0.09
653.113	-0.02
653.298	-0.02
653.484	0
653.669	-0.07
653.855	-0.03
654.04	0.02
654.226	-0
654.412	-0.02
654.597	-0.04
654.782	-0
654.968	0.04
655.153	-0
655.339	-0.05
655.524	-0.06
655.71	0.03
655.895	-0.03
656.08	-0.04
656.266	0.05
656.451	-0
656.636	-0.06
656.822	-0.03
657.007	-0.04
657.192	-0.03
657.378	-0.06
657.563	-0.02
657.748	0.04
657.933	0.02
658.118	-0.03
658.304	-0.03
658.489	0.01
658.674	-0.02
658.859	-0.06
659.044	-0
659.229	0.03
659.414	-0.03
659.599	-0.01
659.785	-0.06
659.97	-0.05
660.155	0.03
660.34	-0.01
660.525	-0.03
660.71	0.01
660.895	0.05
661.08	-0.05
661.264	-0.05
661.449	0.05
661.634	0.02
661.819	0.02
662.004	0.05
662.189	-0.13
662.374	-0.02
662.559	-0.06
662.743	-0.07
662.928	-0.02
663.113	-0.05
663.298	-0.07
663.483	-0.04
663.667	0.03
663.852	-0.06
664.037	0.04
664.221	-0.06
664.406	0.02
664.591	-0.03
664.775	-0.02
664.96	-0.03
665.145	-0.03
665.329	-0.02
665.514	-0.01
665.698	-0.05
665.883	-0.08
666.068	0.05
666.252	-0.02
666.437	-0.06
666.621	-0.04
666.806	0.02
666.99	-0.05
667.174	-0.04
667.359	0.02
667.543	-0.05
667.728	-0.04
667.912	-0.1
668.096	0.04
668.281	-0.02
668.465	-0.04
668.649	-0.01
668.834	-0.05
669.018	-0.02
669.202	-0.05
669.387	-0.08
669.571	-0
669.755	-0.06
669.939	-0.03
670.124	-0.03
670.308	0.04
670.492	0.05
670.676	-0
670.86	-0
671.044	-0.05
671.228	-0
671.413	-0.04
671.597	-0.08
671.781	-0.07
671.965	0.01
672.149	-0.05
672.333	-0.01
672.517	-0.05
672.701	0
672.885	0.01
673.069	-0.08
673.253	0.05
673.437	-0.01
673.621	-0.05
673.804	-0.02
673.988	-0.01
674.172	-0.05
674.356	-0.05
674.54	-0
674.724	0.06
674.908	-0.01
675.091	0.01
675.275	-0.07
675.459	0
675.643	0.05
675.826	-0.02
676.01	-0.03
676.194	-0.01
676.377	0.05
676.561	0.01
676.745	-0.02
676.928	-0.02
677.112	0.04
677.296	-0.05
677.479	-0.05
677.663	-0.05
677.846	0
678.03	-0.01
678.213	-0.04
678.397	-0.03
678.58	-0.03
678.764	-0.04
678.947	-0.04
679.131	-0.11
679.314	0.01
679.498	0.04
679.681	-0.01
679.865	0.02
680.048	-0.04
680.231	-0.01
680.415	0.01
680.598	0.02
680.781	-0
680.965	-0.06
681.148	0.01
681.331	-0.05
681.514	-0.01
681.698	-0.07
681.881	0.01
682.064	-0.01
682.247	-0.02
682.43	-0.08
682.614	-0.01
682.797	0.05
682.98	0.02
683.163	-0.03
683.346	0
683.529	-0.04
683.712	-0.04
683.895	0.05
684.078	-0.07
684.261	-0.02
684.444	-0.01
684.627	-0.04
684.81	-0
684.993	-0.07
685.176	0.03
685.359	-0.03
685.542	-0.05
685.725	0.03
685.908	-0.02
686.091	0.01
686.274	0.05
686.457	0.01
686.639	0.01
686.822	-0.02
687.005	-0.01
687.188	0.01
687.371	0.11
687.553	0.01
687.736	0.04
687.919	0.1
688.102	0.07
688.284	-0.01
688.467	-0.05
688.65	-0.04
688.832	-0.05
689.015	-0.02
689.197	-0.05
689.38	0.14
689.563	0.02
689.745	-0.02
689.928	-0.04
690.11	-0.04
690.293	-0
690.475	-0.05
690.658	0.04
690.84	-0.05
691.023	-0.07
691.205	0
691.388	-0.01
691.57	0.01
691.752	0.01
691.935	-0.08
692.117	-0.05
692.3	0.06
692.482	-0.01
692.664	-0.03
692.847	-0.03
693.029	0.05
693.211	0.04
693.393	-0.04
693.576	-0.07
693.758	0
693.94	-0.04
694.122	-0.06
694.304	-0.04
694.487	-0.02
694.669	0.06
694.851	-0.05
695.033	0.03
695.215	-0.07
695.397	-0.05
695.579	-0.03
695.761	-0.08
695.943	-0.08
696.125	0.07
696.308	-0.02
696.49	-0.1
696.671	0.04
696.853	-0.05
697.035	0.08
697.217	-0.06
697.399	0.05
697.581	-0.04
697.763	0
697.945	-0.05
698.127	0.03
698.309	0.03
698.491	0.02
698.672	0.06
698.854	0.02
699.036	0.07
699.218	-0.04
699.399	0.05
699.581	0.03
699.763	-0
699.945	-0.06
700.126	-0.1
700.308	-0.05
700.49	0.03
700.671	-0.1
700.853	-0.07
701.035	-0.05
701.216	-0.03
701.398	-0.11
701.579	-0.06
701.761	0.04
701.943	-0.04
702.124	-0.09
702.306	-0.07
702.487	0.09
702.669	-0.01
702.85	-0.08
703.031	-0.1
703.213	0.08
703.394	0.01
703.576	-0.07
703.757	0.1
703.938	-0
704.12	0.12
704.301	-0.03
704.483	-0.06
704.664	-0.03
704.845	0.09
705.026	0.01
705.208	-0
705.389	-0.04
705.57	0.01
705.751	-0.05
705.933	-0.01
706.114	-0.03
706.295	-0.01
706.476	-0.07
706.657	0.08
706.838	-0.02
707.02	0.06
707.201	-0.04
707.382	-0.01
707.563	-0.04
707.744	-0.09
707.925	-0.05
708.106	-0.07
708.287	-0
708.468	0.08
708.649	-0.05
708.83	0.04
709.011	-0.04
709.192	0.03
709.373	-0.08
709.554	-0.01
709.734	0.01
709.915	0.03
710.096	-0.04
710.277	-0.11
710.458	0
710.639	-0.03
710.819	-0.11
711	-0.03
711.181	0.01
711.362	0.03
711.542	0.04
711.723	-0.05
711.904	0.03
712.085	0.03
712.265	-0.04
712.446	-0.07
712.627	0.03
712.807	0.03
712.988	-0.02
713.168	-0.09
713.349	0.05
713.53	-0.11
713.71	-0.03
713.891	-0.12
714.071	-0.03
714.252	-0.07
714.432	-0.03
714.613	-0.11
714.793	0.02
714.974	0.05
715.154	0.04
715.334	0.01
715.515	0.04
715.695	-0
715.876	-0.08
716.056	-0.01
716.236	-0.09
716.417	-0.09
716.597	-0.05
716.777	0.05
716.957	0.03
717.138	-0.05
717.318	0.02
717.498	-0.12
717.678	-0.07
717.859	0.01
718.039	-0.09
718.219	-0.05
718.399	0.02
718.579	-0.04
718.759	-0.09
718.939	0.03
719.12	-0.05
719.3	-0.04
719.48	-0.2
719.66	-0.09
719.84	0.07
720.02	0.05
720.2	-0.08
720.38	-0.03
720.56	0.12
720.74	-0.01
720.92	0.03
721.1	0.08
721.279	0.07
721.459	-0.02
721.639	-0.12
721.819	0.09
721.999	-0.09
722.179	0.07
722.359	-0.12
722.538	0.02
722.718	-0.06
722.898	-0.04
723.078	-0.09
723.257	-0.08
723.437	-0
723.617	-0.02
723.797	-0.05
723.976	0.02
724.156	0.07
724.336	0.1
724.515	0.07
724.695	-0.13
724.874	-0.02
725.054	0.05
725.234	-0.12
725.413	-0.02
725.593	-0.09
725.772	-0.04
725.952	-0.06
726.131	-0.02
726.311	0.03
726.49	-0.07
726.67	-0.12
726.849	-0.09
727.028	0.02
727.208	-0.12
727.387	0.02
727.567	-0.1
727.746	-0.04
727.925	-0.03
728.105	-0.18
728.284	-0.11
728.463	-0.14
728.643	0
728.822	-0.07
729.001	-0.15
729.18	-0.01
729.359	0.04
729.539	-0.09
729.718	-0.01
729.897	0.02
730.076	-0.11
730.255	-0.18
730.434	-0.07
730.614	-0.02
730.793	0.1
730.972	0.02
731.151	-0.06
731.33	0.13
731.509	-0.04
731.688	-0.06
731.867	-0.03
732.046	-0.05
732.225	0.19
732.404	-0.05
732.583	-0.06
732.762	-0.05
732.941	-0.01
733.12	0.01
733.298	-0.15
733.477	0.05
733.656	-0.09
733.835	-0.17
734.014	0.03
734.193	0
734.371	-0.01
734.55	0.03
734.729	-0.12
734.908	0.11
735.086	0
735.265	0.09
735.444	-0.11
735.623	-0.16
735.801	-0.12
735.98	-0.04
736.159	-0.09
736.337	-0.06
736.516	0.08
736.694	-0.03
736.873	0.03
737.052	0.02
737.23	0.09
737.409	-0.03
737.587	0.12
737.766	-0.2
737.944	0.05
738.123	0.07
738.301	0.06
738.479	0.01
738.658	-0.02
738.836	-0.2
739.015	0.05
739.193	-0.02
739.371	-0.04
739.55	-0.06
739.728	-0.13
739.906	0.18
740.085	0.08
740.263	0.08
740.441	-0.26
740.62	0.15
740.798	0.04
740.976	-0.14
741.154	-0.04
741.332	0.13
741.511	-0.09
741.689	0.01
741.867	0.03
742.045	-0.03
742.223	-0.09
742.401	-0.13
742.579	-0.06
742.757	0.09
742.935	-0.18
743.114	-0.11
743.292	-0.1
743.47	0.03
743.648	-0
743.826	-0.03
744.004	0.04
744.181	0.01
744.359	-0.16
744.537	-0.07
744.715	-0.09
744.893	-0.03
745.071	-0.06
745.249	-0.09
745.427	0
745.605	-0.02
745.782	0.1
745.96	-0.01
746.138	0
746.316	0.1
746.493	0
746.671	0.06
746.849	-0.2
747.027	0.05
747.204	-0.05
747.382	0
747.56	-0.18
747.737	0.04
747.915	-0.14
748.093	0.1
748.27	-0.1
748.448	-0.04
748.625	-0.12
748.803	-0.06
748.98	-0.2
749.158	-0.04
749.335	-0.03
749.513	-0.03
749.69	-0.04
749.868	-0.01
750.045	0.07
750.223	-0.09
750.4	-0.18
750.578	0.13
750.755	-0.09
750.932	-0.14
751.11	0.1
751.287	-0.2
751.464	0
751.642	-0.01
751.819	0.11
751.996	-0.06
752.173	-0
752.351	-0.14
752.528	-0.03
752.705	-0.02
752.882	-0.13
753.06	0.07
753.237	0.07
753.414	0.06
753.591	0.01
753.768	0.02
753.945	-0.08
754.122	-0.09
754.299	0.11
754.476	-0.14
754.654	-0.04
754.831	0.11
755.008	0
755.185	-0.05
755.362	-0.1
755.539	-0.12
755.716	-0.08
755.892	0.12
756.069	-0.09
756.246	0.06
756.423	-0.04
756.6	0.15
756.777	-0.09
756.954	0.19
757.131	-0.13
757.307	-0.15
757.484	-0.04
757.661	-0.05
757.838	0.07
758.015	-0.13
758.191	0.04
758.368	-0.05
758.545	0.16
758.721	0.01
758.898	-0.17
759.075	0.05
759.251	0.03
759.428	-0.03
759.605	-0.16
759.781	-0.05
759.958	-0.05
760.134	0.02
760.311	-0.11
760.488	0.18
760.664	0.17
760.841	-0.11
761.017	-0.12
761.194	0.06
761.37	0.13
761.547	-0.08
761.723	-0.07
761.899	0.21
762.076	-0.11
762.252	-0.13
762.429	-0.08
762.605	0.04
762.781	0.04
762.958	0.06
763.134	-0.09
763.31	-0.11
763.486	0.09
763.663	-0.16
763.839	-0
764.015	-0.17
764.191	-0.16
764.368	0.05
764.544	-0.04
764.72	-0.02
764.896	0.13
765.072	-0.01
765.248	-0.07
765.425	-0.04
765.601	0.03
765.777	0.03
765.953	-0.29
766.129	-0.04
766.305	-0.12
766.481	0.15
766.657	0.02
766.833	0.17
767.009	-0.22
767.185	-0.13
767.361	-0.01
767.537	-0.18
767.713	0.13
767.889	-0.14
768.065	-0.12
768.24	-0.04
768.416	0.07
768.592	-0.07
768.768	0.01
768.944	-0.06
769.12	-0.17
769.295	-0.04
769.471	-0
769.647	-0.06
769.823	0.07
769.998	-0.12
770.174	-0.17
770.35	0.29
770.525	0.21
770.701	0.08
770.877	-0.08
771.052	-0.08
771.228	0.01
771.403	0.02
771.579	0.1
771.755	0.13
771.93	-0.02
772.106	-0.24
772.281	-0.2
772.457	0.04
772.632	-0.02
772.808	-0.13
772.983	-0.07
773.159	-0.26
773.334	0.16
773.509	-0
773.685	-0.07
773.86	0.37
774.036	0.18
774.211	0.02
774.386	-0.18
774.562	-0.04
774.737	0
774.912	-0.16
775.087	0.17
775.263	-0.1
775.438	0.01
775.613	-0.13
775.788	-0.03
775.964	0.23
776.139	0.3
776.314	-0.13
776.489	0.01
776.664	-0.04
776.839	-0.2
777.014	0.14
777.19	0.1
777.365	0.15
777.54	0.15
777.715	-0.17
777.89	0.04
778.065	-0.08
778.24	-0.01
778.415	-0.08
778.59	-0.35
778.765	-0.08
778.94	-0.04
779.115	-0.09
779.289	-0.08
779.464	-0.02
779.639	-0.1
779.814	-0.11
779.989	-0.25
780.164	0.38
780.339	-0.06
780.513	-0.08
780.688	-0.29
780.863	-0.15
781.038	-0.02
781.212	-0.08
781.387	0.07
781.562	0.51
781.737	-0.26
781.911	0.06
782.086	-0.07
782.261	-0.03
782.435	0.1
782.61	-0.16
782.784	0
782.959	0.1
783.134	-0.27
783.308	-0.13
783.483	0.08
783.657	0.23
783.832	0.11
784.006	-0.39
784.181	-0.02
784.355	0.17
784.53	-0.27
784.704	-0.13
784.878	0.39
785.053	0.17
785.227	0.27
785.402	0.24
785.576	-0.37
785.75	-0.18
785.925	-0.04
786.099	-0.08
786.273	-0.06
786.448	0.33
786.622	0.13
786.796	-0.06
786.97	-0.04
787.145	0.35
787.319	-0.43
787.493	-0.11
787.667	-0.42
787.841	0.03
788.015	0.04
788.19	-0.21
788.364	-0.13
788.538	0.27
788.712	0.36
788.886	0.05
789.06	0.14
789.234	0.1
789.408	-0.23
789.582	-0.13
789.756	-0.06
789.93	-0.04
790.104	-0.14
790.278	-0.24
790.452	-0.16
790.626	0
790.8	-0.2
790.973	0.1
791.147	0.24
791.321	0.2
791.495	-0.04
791.669	0.04
791.843	0.27
792.016	0.13
792.19	0.21
792.364	-0.41
792.538	0.31
792.711	0.31
792.885	-0.09
793.059	-0.28
793.233	-0.58
793.406	0.21
793.58	0.05
793.754	0.16
793.927	-0.11
794.101	0.1
794.274	0.01
794.448	0.23
794.622	-0.31
794.795	0.11
794.969	-0.31
795.142	0.58
795.316	0
795.489	-0.17
795.663	0.36
795.836	-0.1
796.009	-0.2
796.183	0.39
796.356	0.02
796.53	-0.11
796.703	-0.32
796.876	0.41
797.05	-0.1
797.223	0.01
797.396	-0.01
797.57	0.03
797.743	0.25
797.916	-0.08
798.09	0.12
798.263	0.18
798.436	0.3
798.609	-0.29
798.782	-0.09
798.956	0.11
799.129	0.03
799.302	-0.19
799.475	-0.31
799.648	-0.38
799.821	0.14
799.994	-0.03
800.167	-0.39
800.34	0.11
800.514	0.07
800.687	-0.01
800.86	-0.14
801.033	-0.32
801.206	0.21
801.379	-0.25
801.551	0.28
801.724	0.29
801.897	0.24
802.07	-0.09
802.243	-0.44
802.416	0.04
802.589	-0.12
802.762	0.24
802.935	0.06
803.107	0.2
803.28	0.19
803.453	0.27
803.626	-0.07
803.798	0.08
803.971	-0.38
804.144	0.23
804.317	0.09
804.489	0.05
804.662	-0.07
804.835	0.11
805.007	-0.3
805.18	0.14
805.353	0.14
805.525	-0.23
805.698	-0.3
805.87	0.17
806.043	0.32
806.215	-0.18
806.388	-0.36
806.56	0.13
806.733	0.12
806.905	-0.1
807.078	-0.15
807.25	-0.32
807.423	0.15
807.595	-0.04
807.768	-0.08
807.94	0.19
808.112	0.23
808.285	0.21
808.457	-0.25
808.629	-0.26
808.802	0.22
808.974	0.07
809.146	-0.08
809.318	-0.27
809.491	0.13
809.663	0.24
809.835	-0.03
810.007	0.17
810.18	-0.13
810.352	-0.29
810.524	0.1
810.696	-0.04
810.868	0.2
811.04	-0.15
811.212	-0.22
811.384	0.17
811.556	0.19
811.728	-0.23
811.901	0.51
812.073	-0.05
812.245	0.05
812.417	-0.18
812.589	-0.49
812.76	0.14
812.932	-0.01
813.104	0.26
813.276	-0.24
813.448	0.57
813.62	0.3
813.792	0.32
813.964	-0
814.136	-0.02
814.307	-0.03
814.479	-0.59
814.651	-0.34
814.823	0.72
814.995	0.13
815.166	0.11
815.338	-0.32
815.51	-0.34
815.681	0.31
815.853	-0.09
816.025	-0.26
816.196	0.26
816.368	-0
816.54	-0.63
816.711	-0.61
816.883	0.23
817.054	0.7
817.226	-0.43
817.398	-0.02
817.569	-0.25
817.741	0.12
817.912	-0.32
818.084	-0.41
818.255	0.26
818.426	0.14
818.598	-0.33
818.769	-0.22
818.941	0.27
819.112	0.69
819.283	-0.37
819.455	-0.31
819.626	0.05
819.798	0.32
819.969	0.32
820.14	-0.16
820.311	-0.3
820.483	0.08
820.654	0.21
820.825	-0.3
820.996	-0.28
821.168	-0.54
821.339	-0.1
821.51	-0.15
821.681	0.7
821.852	0.08
822.023	-0.69
822.195	-0.78
822.366	0.16
822.537	0.27
822.708	0.14
822.879	0.02
823.05	0.99
823.221	-0.5
823.392	0.5
823.563	-0.09
823.734	0.13
823.905	0.32
824.076	-0.22
824.247	-0.15
824.418	-0.25
824.589	0.28
824.759	-0.27
824.93	-0.19
825.101	-0.28
825.272	0.26
825.443	0.59
825.614	0.07
825.784	-0.95
825.955	0.47
826.126	0.44
826.297	0.05
826.467	1.04
826.638	1.23
826.809	-0.89
826.98	0
827.15	0.37
827.321	-0.43
827.492	0.65
827.662	-0.32
827.833	0.89
828.003	0.31
828.174	-0.48
828.345	-1.05
828.515	0.75
828.686	0.56
828.856	0.1
829.027	-0.05
829.197	0.21
829.368	0.04
829.538	-0.34
829.709	-0.56
829.879	0.41
830.049	0
830.22	0.04
830.39	0.35
830.56	0.63
830.731	-0.21
830.901	-0.72
831.072	-0.18
831.242	0.01
831.412	-0.45
831.582	0.62
831.753	-0.29
831.923	0.63
832.093	-0.18
832.263	-0.36
832.434	-0.29
832.604	0.68
832.774	0.99
832.944	-0.73
833.114	-0.1
833.284	-0.04
833.454	-0.24
833.624	-0.74
833.795	-0.54
833.965	0.53
834.135	1.03
834.305	-1.02
834.475	-0.37
834.645	0.33
834.815	0.1
834.985	-0.53
835.155	0.13
835.325	0.26
835.494	0.29
835.664	-0.43
835.834	-0.48
836.004	-0.14
836.174	0.13
836.344	-0.31
836.514	-0.74
836.684	-0
836.853	-0.35
837.023	-0.56
837.193	-0.47
837.363	0.41
837.532	0.4
837.702	-0.39
837.872	-0.08
838.041	0.39
838.211	1.27
838.381	-0.88
838.55	-0.04
838.72	1.15
838.89	1.73
839.059	-0.02
839.229	-0.47
839.398	1.07
839.568	-0.32
839.738	-0.4
839.907	0.84
840.077	0.47
840.246	-0.73
840.416	-0.82
840.585	-0.61
840.755	1.33
840.924	0.39
841.093	-0.75
841.263	-0.42
841.432	0.26
841.602	-1.04
841.771	-0.38
841.94	-0.07
842.11	1.2
842.279	1.03
842.448	-0.75
842.617	-0.76
842.787	0.38
842.956	-1.47
843.125	0.02
843.294	0.41
843.464	0.89
843.633	-0.24
843.802	-0.7
843.971	-0.52
844.14	0.97
844.309	0.4
844.479	-1.58
844.648	-0.54
844.817	-0.46
844.986	0.2
845.155	-0.93
845.324	0.08
845.493	-0.3
845.662	-1.38
845.831	-0.09
846	0.36
846.169	-0.1
846.338	1.88
846.507	0.5
846.676	-0.57
846.844	-0.5
847.013	-0.28
847.182	0.37
847.351	-0.1
847.52	0.01
847.689	-0.13
847.858	-0.53
848.026	-1.06
848.195	-0.22
848.364	-0.84
848.533	-0.85
848.701	-0.33
848.87	0.61
849.039	1.17
849.207	0.46
849.376	0.98
849.545	2.14
849.713	-0.06
849.882	0.01
850.051	-0.64
850.219	-0.78
850.388	0.36
850.556	-0.34
850.725	-0.71
850.893	0.46
851.062	0.07
851.23	0.7
851.399	-0.8
851.567	-0.48
851.736	-0.73
851.904	-0.7
852.073	-0.03
852.241	1.2
852.41	-0.31
852.578	-0.21
852.746	-0.5
852.915	0.3
853.083	0.86
853.251	-1.02
853.42	-0.94
853.588	-0.42
853.756	1.38
853.924	-0.04
854.093	-0.35
854.261	-0.61
854.429	-0.66
854.597	0.14
854.765	-1.07
854.934	0.09
855.102	0.96
855.27	-1.48
855.438	0.71
855.606	0.88
855.774	1.01
855.942	-1.36
856.11	-1.92
856.278	0.65
856.446	0.93
856.614	-0.3
856.782	-0.45
856.95	0.35
857.118	-0.4
857.286	0.16
857.454	-0.67
857.622	1.1
857.79	1.13
857.958	-0.63
858.126	-1.1
858.294	-2.19
858.462	0.53
858.629	-0.47
858.797	-0.65
858.965	1.28
859.133	-0.65
859.301	-0.28
859.468	0.85
859.636	-0.88
859.804	1.76
859.971	1.28
860.139	-0.42
860.307	-0.03
860.474	-0.83
860.642	-1.03
860.81	-0.02
860.977	-0.87
861.145	2.02
861.313	-0.17
861.48	-0.63
861.648	0.74
861.815	-0.74
861.983	-1.51
862.15	-0.26
862.318	1.33
862.485	0.82
862.653	-1.02
862.82	-2.29
862.988	2.62
863.155	1.25
863.322	-1
863.49	-1.67
863.657	-0.47
863.824	1.35
863.992	0.38
864.159	-0.02
864.326	1.08
864.494	0.03
864.661	2.05
864.828	-0.65
864.996	2.54
865.163	1.29
865.33	-0.99
865.497	-1.4
865.664	-0.96
865.832	-1.46
865.999	-0.21
866.166	-2.43
866.333	-0.71
866.5	-0.23
866.667	-0.61
866.834	-0.11
867.001	0.54
867.168	-2.52
867.335	0.29
867.502	-2.42
867.669	-0.14
867.836	1.69
868.003	-0.66
868.17	1.31
868.337	2.53
868.504	2.32
868.671	-1.45
868.838	-2.04
869.005	0.68
869.172	1.91
869.339	0.37
869.505	-0.09
869.672	-1.32
869.839	2.38
870.006	0.57
870.173	-1.29
870.339	-0.26
870.506	1.22
870.673	-2.06
870.84	1.84
871.006	1.02
871.173	-0.52
871.34	0.79
871.506	-0.73
871.673	-0.97
871.839	-1.42
872.006	1.09
872.173	-1.24
872.339	-0.47
872.506	0.93
872.672	-0.98
872.839	-2.08
873.005	-0.63
873.172	3.36
873.338	1.49
873.505	0.86
873.671	0.83
873.838	1.11
874.004	-1.3
874.171	-2.22
874.337	0.76
874.503	0.07
874.67	-0.13
874.836	-0.05
875.002	3.39
875.169	0.89
875.335	-0.38
875.501	0.58
875.668	0.8
875.834	0.56
876	-0.37
876.166	1.1
876.332	0.72
876.499	3.81
876.665	-0.23
876.831	0.65
876.997	1.74
877.163	1.55
877.329	-0.93
877.495	-0.85
877.662	0.83
877.828	-1.24
877.994	1
878.16	-0.73
878.326	-0.49
878.492	0.56
878.658	-0.64
878.824	-0.92
878.99	0.19
879.156	-0.59
879.322	2.97
879.487	-0.82
879.653	1
879.819	-0.61
879.985	-0.37
880.151	0.58
880.317	-0.39
880.483	1.01
880.648	-0.46
880.814	-3.02
880.98	-0.35
881.146	-2.87
881.312	-1.87
881.477	1.06
881.643	1.43
881.809	1.93
881.974	-0.33
882.14	-1.97
882.306	0.42
882.471	2.46
882.637	-0.2
882.803	1.54
882.968	-0.14
883.134	1.11
883.299	-0.18
883.465	-0.68
883.63	2.3
883.796	0.29
883.961	-0.43
884.127	0.81
884.292	-4.36
884.458	-2.25
884.623	-2.24
