Data from Apollo_Calib_20240827__AbsoluteIrradiance__374__05-23-01-511.txt Node

Date: Wed Aug 28 05:23:01 BST 2024
User: biology
Spectrometer: FLMT08252
Trigger mode: 0
Integration Time (sec): 5.000000E-1
Scans to average: 5
Electric dark correction enabled: true
Nonlinearity correction enabled: false
Boxcar width: 0
XAxis mode: Wavelengths
Number of Pixels in Spectrum: 3648
>>>>>Begin Spectral Data<<<<<
179.588	-0
179.809	-0
180.03	-0
180.251	-0
180.473	-0
180.694	0
180.915	0
181.136	-0
181.357	0
181.578	-0
181.799	-0
182.02	-0
182.241	0
182.462	-0
182.683	0
182.904	-0
183.125	-0
183.346	-0
183.567	-0
183.788	-0
184.009	-0
184.23	-0
184.451	0
184.672	-0
184.892	-0
185.113	-0
185.334	0
185.555	-0
185.776	-0
185.996	0
186.217	-0
186.438	-0
186.659	-0
186.879	-0
187.1	-0
187.321	-0
187.541	-0
187.762	-0
187.983	-0
188.203	-0
188.424	-0
188.644	-0
188.865	-0
189.086	-0
189.306	-0
189.527	0
189.747	-0
189.968	-0
190.188	0
190.409	-0
190.629	0
190.849	-0
191.07	-0
191.29	0
191.511	-0
191.731	-0
191.951	-0
192.172	-0
192.392	-0
192.612	-0
192.833	-0
193.053	0
193.273	0
193.493	-0
193.714	-0
193.934	0
194.154	0
194.374	-0
194.594	0
194.815	-0
195.035	0
195.255	-0
195.475	-0
195.695	0
195.915	0
196.135	-0
196.355	0
196.575	0
196.795	0
197.015	-0
197.235	-0
197.455	-0
197.675	-0
197.895	-0
198.115	-0
198.335	0
198.555	-0
198.775	0
198.995	-0
199.214	0
199.434	-0
199.654	-0
199.874	-0
200.094	0.23
200.313	-0.62
200.533	-0.8
200.753	-0.78
200.973	0.86
201.192	0.07
201.412	-1.26
201.632	-0.49
201.851	0.59
202.071	-0.37
202.291	-0.93
202.51	-0.89
202.73	0.24
202.95	-0.3
203.169	-0.88
203.389	-0.18
203.608	-0.19
203.828	-0.6
204.047	-0.75
204.267	0.18
204.486	0.06
204.706	-0.13
204.925	-0.47
205.145	-0.51
205.364	-0.06
205.583	0.7
205.803	-0.51
206.022	-0.86
206.242	-0.21
206.461	-0.13
206.68	-0.63
206.9	-0.17
207.119	0.55
207.338	0.37
207.557	-0.63
207.777	-0.43
207.996	-0.35
208.215	-0.07
208.434	-0.3
208.654	-0.74
208.873	-0.13
209.092	0.33
209.311	-0.53
209.53	-0.27
209.749	-0.22
209.968	-0.16
210.187	-0.22
210.407	-0.71
210.626	-0.35
210.845	0.13
211.064	-0.17
211.283	-0.35
211.502	0.15
211.721	-0.06
211.94	-0.42
212.159	0.12
212.377	0.05
212.596	0.1
212.815	-0.16
213.034	-0.16
213.253	0.05
213.472	-0.08
213.691	-0.19
213.91	-0.37
214.128	-0.3
214.347	0.14
214.566	-0.47
214.785	-0.27
215.003	0.25
215.222	0.01
215.441	-0.14
215.66	-0.42
215.878	-0.25
216.097	-0.06
216.316	-0.3
216.534	-0.07
216.753	0.03
216.972	-0.37
217.19	-0.28
217.409	-0.3
217.627	-0.32
217.846	-0.19
218.064	-0.03
218.283	-0.39
218.501	0.2
218.72	0.19
218.938	-0.28
219.157	-0.35
219.375	0.23
219.594	0.04
219.812	-0.33
220.031	-0.3
220.249	0.26
220.467	0.26
220.686	-0.3
220.904	-0.41
221.122	-0.37
221.341	0.21
221.559	-0.11
221.777	-0.42
221.995	-0.23
222.214	-0.03
222.432	-0.21
222.65	0.04
222.868	-0.01
223.086	-0.09
223.305	0.16
223.523	-0.13
223.741	0.15
223.959	-0.07
224.177	-0.36
224.395	-0.14
224.613	-0.08
224.831	-0.07
225.049	-0.37
225.267	-0.16
225.485	-0.06
225.703	-0.14
225.921	-0.09
226.139	-0.11
226.357	0.17
226.575	-0.02
226.793	-0.2
227.011	0.32
227.229	0.05
227.447	0.17
227.665	-0.19
227.883	-0.17
228.1	-0.03
228.318	-0.04
228.536	-0.39
228.754	-0.22
228.972	0.09
229.189	0.05
229.407	-0.16
229.625	-0.2
229.843	0.07
230.06	0.11
230.278	-0.19
230.496	-0.07
230.713	-0.03
230.931	0.08
231.149	-0.26
231.366	-0.34
231.584	0.01
231.801	0.22
232.019	-0.09
232.236	-0.3
232.454	-0.16
232.671	-0.13
232.889	-0.1
233.106	-0.24
233.324	-0.01
233.541	-0.19
233.759	-0.04
233.976	-0.21
234.194	-0.06
234.411	-0.19
234.628	-0.24
234.846	-0.17
235.063	-0.09
235.28	-0.08
235.498	-0.04
235.715	-0.17
235.932	0.11
236.149	-0.15
236.367	-0.22
236.584	-0
236.801	-0.22
237.018	-0.04
237.236	-0.01
237.453	-0.32
237.67	0.12
237.887	0.01
238.104	-0.15
238.321	-0.14
238.538	-0.15
238.755	0.11
238.973	-0.28
239.19	-0.08
239.407	0.04
239.624	0.01
239.841	-0.17
240.058	-0.18
240.275	-0.1
240.492	-0.03
240.709	-0.12
240.925	-0.17
241.142	-0.09
241.359	-0.16
241.576	-0.21
241.793	-0.12
242.01	0.02
242.227	-0
242.444	-0.06
242.66	-0.05
242.877	-0.06
243.094	-0.08
243.311	0.02
243.527	-0.06
243.744	-0.01
243.961	0.04
244.178	-0.21
244.394	-0.16
244.611	0.07
244.828	0.16
245.044	-0.21
245.261	-0.09
245.477	0.01
245.694	-0.03
245.911	-0.14
246.127	-0.05
246.344	0.14
246.56	0.04
246.777	-0.07
246.993	-0
247.21	0.01
247.426	0.06
247.643	-0.14
247.859	-0.06
248.076	-0.1
248.292	0.18
248.508	-0.1
248.725	-0.07
248.941	0
249.157	0.14
249.374	-0.12
249.59	-0.12
249.806	0.02
250.023	-0.05
250.239	-0.12
250.455	-0.15
250.671	-0.07
250.888	-0.06
251.104	0.01
251.32	-0.16
251.536	-0.07
251.752	-0.11
251.969	-0.07
252.185	-0.06
252.401	0.15
252.617	-0.01
252.833	-0.1
253.049	-0.08
253.265	-0.1
253.481	-0
253.697	-0.09
253.913	-0.18
254.129	-0.03
254.345	0.02
254.561	-0.14
254.777	-0.12
254.993	-0.04
255.209	-0.07
255.425	0.01
255.641	-0.15
255.857	-0.01
256.073	-0.1
256.288	-0.11
256.504	-0.05
256.72	0.01
256.936	0.02
257.152	-0.04
257.367	-0.13
257.583	-0.09
257.799	-0.01
258.015	-0.12
258.23	-0.03
258.446	0.11
258.662	-0.05
258.877	-0.1
259.093	-0.1
259.309	-0.04
259.524	-0.06
259.74	-0.05
259.955	-0.13
260.171	0.05
260.387	-0.08
260.602	-0.01
260.818	-0
261.033	-0.11
261.249	-0.07
261.464	-0.12
261.68	-0.14
261.895	0.01
262.11	0.02
262.326	-0.07
262.541	-0.11
262.757	0.04
262.972	-0.04
263.187	-0.03
263.403	-0.05
263.618	-0
263.833	-0.05
264.049	-0.11
264.264	-0
264.479	-0.02
264.694	0.08
264.91	-0.2
265.125	-0.08
265.34	0.01
265.555	0.09
265.77	-0.01
265.986	-0.06
266.201	-0.02
266.416	0.08
266.631	-0.09
266.846	-0.08
267.061	0.04
267.276	-0.02
267.491	-0.14
267.706	0.01
267.921	0.06
268.136	-0.05
268.351	-0.06
268.566	-0.07
268.781	0.01
268.996	0.04
269.211	-0.04
269.426	-0.1
269.641	-0.04
269.856	0.05
270.071	-0.07
270.285	-0.1
270.5	0.08
270.715	-0.02
270.93	-0.05
271.145	-0.07
271.359	0.06
271.574	-0.09
271.789	-0.01
272.004	-0.02
272.218	-0.09
272.433	0.06
272.648	-0.14
272.862	0.03
273.077	-0.05
273.292	-0
273.506	-0.1
273.721	0.02
273.936	0.02
274.15	0.08
274.365	-0.07
274.579	-0.04
274.794	-0.01
275.008	0.11
275.223	-0.14
275.437	-0.01
275.652	0.01
275.866	-0.05
276.081	-0.04
276.295	0
276.509	0.01
276.724	-0.01
276.938	-0.06
277.153	0
277.367	0.05
277.581	-0.05
277.796	-0.08
278.01	-0.11
278.224	0.02
278.438	0.11
278.653	-0.1
278.867	-0.07
279.081	-0.24
279.295	-0.04
279.51	-0.05
279.724	-0.15
279.938	0.04
280.152	-0.03
280.366	-0.05
280.58	-0.06
280.794	0.03
281.008	-0.03
281.222	-0
281.437	0.11
281.651	0
281.865	0.05
282.079	-0.05
282.293	-0.17
282.507	-0.09
282.721	-0.03
282.935	-0.03
283.148	-0.07
283.362	-0.08
283.576	-0.12
283.79	-0.05
284.004	-0.11
284.218	0.07
284.432	-0.04
284.646	-0.06
284.859	-0.08
285.073	-0.03
285.287	-0.01
285.501	-0.05
285.714	-0.03
285.928	-0.02
286.142	-0.03
286.356	-0.07
286.569	-0.07
286.783	0.03
286.997	-0.01
287.21	-0.04
287.424	0.03
287.637	-0.04
287.851	-0.03
288.065	-0.01
288.278	-0.02
288.492	-0.03
288.705	-0.03
288.919	0.01
289.132	-0.09
289.346	0.04
289.559	-0.12
289.773	-0.03
289.986	-0.06
290.2	-0.01
290.413	0.03
290.626	-0.1
290.84	-0.02
291.053	-0.01
291.267	0.07
291.48	-0.02
291.693	-0.01
291.906	-0.08
292.12	-0.04
292.333	-0.07
292.546	-0.06
292.76	0.06
292.973	0.02
293.186	-0.01
293.399	-0.06
293.612	0.04
293.826	-0.01
294.039	-0.01
294.252	-0.07
294.465	-0.01
294.678	-0.02
294.891	-0.02
295.104	-0.12
295.317	-0.05
295.53	0.02
295.743	-0.02
295.956	-0.08
296.169	0.05
296.382	-0.01
296.595	-0.05
296.808	-0.07
297.021	0.05
297.234	0.01
297.447	-0.08
297.66	-0.02
297.873	0.02
298.086	-0
298.299	-0.07
298.511	-0.08
298.724	-0.05
298.937	-0.07
299.15	-0.08
299.363	-0.02
299.575	0.02
299.788	0.01
300.001	-0.01
300.213	-0.06
300.426	-0.08
300.639	-0.02
300.852	-0.08
301.064	0.01
301.277	0.06
301.489	0
301.702	0.05
301.915	-0.05
302.127	0.01
302.34	0.01
302.552	-0.01
302.765	-0.04
302.977	-0
303.19	-0.04
303.402	-0.06
303.615	-0.02
303.827	-0.05
304.04	-0.02
304.252	0.04
304.464	-0.04
304.677	0.08
304.889	0.01
305.102	-0.07
305.314	-0.07
305.526	-0.01
305.739	-0.02
305.951	-0.04
306.163	-0.01
306.375	0.03
306.588	-0.07
306.8	-0.06
307.012	-0.08
307.224	0.01
307.436	0.06
307.649	-0.11
307.861	-0.01
308.073	0.03
308.285	-0.04
308.497	-0.06
308.709	-0.05
308.921	-0
309.133	0.02
309.346	-0.02
309.558	-0.06
309.77	0.02
309.982	0.02
310.194	0.04
310.406	-0.07
310.617	0.09
310.829	-0.03
311.041	-0.03
311.253	-0.08
311.465	-0.04
311.677	0.01
311.889	0.02
312.101	-0.03
312.313	0.03
312.524	0.03
312.736	-0.09
312.948	-0.04
313.16	0.06
313.372	0.01
313.583	-0.03
313.795	-0.02
314.007	-0.03
314.218	0.03
314.43	-0.04
314.642	-0.04
314.853	-0.1
315.065	-0.03
315.277	-0.01
315.488	-0.03
315.7	0.01
315.912	0.01
316.123	-0.02
316.335	-0.09
316.546	0.09
316.758	-0.03
316.969	-0.03
317.181	-0.01
317.392	-0.07
317.604	0.08
317.815	-0.09
318.026	-0.06
318.238	-0.02
318.449	0.04
318.661	-0.1
318.872	-0.06
319.083	-0.06
319.295	-0.02
319.506	-0.03
319.717	0.01
319.929	-0.01
320.14	-0.01
320.351	-0.05
320.562	-0.05
320.774	-0.04
320.985	-0.03
321.196	-0.07
321.407	-0.09
321.618	0.02
321.829	0.02
322.041	-0
322.252	-0.03
322.463	-0.02
322.674	0.01
322.885	-0.11
323.096	-0.07
323.307	-0.03
323.518	-0.01
323.729	-0.06
323.94	-0.06
324.151	0.02
324.362	-0
324.573	-0.01
324.784	-0.06
324.995	0
325.206	0.02
325.417	-0.06
325.628	-0.04
325.838	-0.04
326.049	-0
326.26	-0.03
326.471	-0.02
326.682	-0.01
326.892	-0.04
327.103	-0.08
327.314	-0.08
327.525	0.04
327.735	0
327.946	-0.01
328.157	-0.01
328.368	0.01
328.578	-0.02
328.789	0.01
328.999	-0.02
329.21	-0.07
329.421	0.01
329.631	-0.03
329.842	-0.04
330.052	-0.01
330.263	0.01
330.473	0.03
330.684	-0.05
330.894	-0.04
331.105	0
331.315	-0.03
331.526	-0.13
331.736	0.07
331.947	-0.01
332.157	-0.04
332.367	-0.08
332.578	0.05
332.788	-0.03
332.999	-0.03
333.209	-0.04
333.419	-0.03
333.629	0.03
333.84	0
334.05	-0.04
334.26	0.04
334.47	-0.02
334.681	0.01
334.891	-0.08
335.101	-0.03
335.311	0.09
335.521	0.02
335.732	-0.08
335.942	0.04
336.152	0.01
336.362	-0.04
336.572	-0.03
336.782	0.03
336.992	-0.07
337.202	-0.02
337.412	-0.04
337.622	0.02
337.832	-0.05
338.042	-0.03
338.252	-0.05
338.462	-0.01
338.672	-0.01
338.882	-0.1
339.092	-0.03
339.302	0.06
339.511	0
339.721	-0.05
339.931	-0.04
340.141	0.05
340.351	0.06
340.561	-0.01
340.77	-0.03
340.98	-0.02
341.19	0.02
341.4	-0.04
341.609	-0.08
341.819	-0.04
342.029	-0.09
342.238	-0
342.448	-0.06
342.658	0
342.867	-0.04
343.077	-0.05
343.286	-0.03
343.496	-0.01
343.706	0.06
343.915	-0.09
344.125	-0.01
344.334	0.01
344.544	-0.06
344.753	-0.05
344.963	-0.06
345.172	-0.05
345.381	-0.02
345.591	-0.05
345.8	0.01
346.01	0.06
346.219	0.03
346.428	-0.16
346.638	-0.03
346.847	-0.01
347.056	0.01
347.266	-0.04
347.475	-0.04
347.684	0
347.893	-0.03
348.103	-0.01
348.312	0.02
348.521	-0.03
348.73	-0.02
348.94	-0.02
349.149	-0
349.358	-0.05
349.567	-0.06
349.776	-0.1
349.985	-0
350.194	0.02
350.403	-0
350.612	-0.08
350.821	-0.02
351.03	-0.01
351.239	-0.08
351.448	0.01
351.657	-0.07
351.866	-0
352.075	-0.01
352.284	-0.05
352.493	-0.1
352.702	0.01
352.911	-0.03
353.12	0.03
353.329	-0.04
353.538	0.03
353.746	-0.02
353.955	-0.04
354.164	-0.02
354.373	-0.04
354.582	0.01
354.79	-0
354.999	0.02
355.208	-0.03
355.416	0.03
355.625	-0.05
355.834	-0.04
356.042	-0.02
356.251	-0.03
356.46	-0.06
356.668	-0
356.877	0.04
357.085	-0
357.294	-0.11
357.503	-0.01
357.711	-0.02
357.92	0.09
358.128	0
358.337	-0.04
358.545	-0.02
358.754	0
358.962	-0
359.17	-0.03
359.379	-0.01
359.587	-0.01
359.796	-0.01
360.004	0.02
360.212	-0
360.421	0.02
360.629	-0.04
360.837	-0.02
361.046	0.01
361.254	0.06
361.462	-0
361.67	-0.04
361.879	-0
362.087	0.01
362.295	-0.02
362.503	-0.04
362.711	-0.08
362.92	-0.07
363.128	-0.01
363.336	-0.05
363.544	-0.05
363.752	-0.04
363.96	-0.07
364.168	-0.03
364.376	-0.02
364.584	-0.02
364.792	0.04
365	0
365.208	-0.04
365.416	0.06
365.624	0.03
365.832	-0.02
366.04	0.05
366.248	-0.01
366.456	-0.01
366.664	-0.03
366.872	-0
367.079	-0
367.287	-0.04
367.495	-0.02
367.703	-0.05
367.911	-0.02
368.118	-0
368.326	-0.01
368.534	-0.04
368.742	0.06
368.949	-0.08
369.157	-0.05
369.365	-0
369.572	-0.02
369.78	-0.07
369.988	-0.01
370.195	0
370.403	0.02
370.61	-0
370.818	0.03
371.026	0.02
371.233	-0.01
371.441	0.02
371.648	-0.05
371.856	0
372.063	-0.02
372.271	-0.02
372.478	-0.06
372.685	-0.04
372.893	-0.01
373.1	-0.04
373.308	-0.05
373.515	0.06
373.722	0.01
373.93	-0.06
374.137	-0
374.344	0.05
374.552	0.03
374.759	-0.02
374.966	-0.04
375.173	-0.04
375.381	0.03
375.588	0
375.795	-0.07
376.002	-0.04
376.209	-0.02
376.417	-0.02
376.624	-0.04
376.831	-0.01
377.038	-0.04
377.245	-0.07
377.452	-0.05
377.659	-0.06
377.866	-0.07
378.073	-0.01
378.28	-0.01
378.487	-0.01
378.694	0.01
378.901	-0.05
379.108	-0.04
379.315	0
379.522	0.02
379.729	-0
379.936	-0.03
380.143	-0.01
380.35	-0
380.557	-0.07
380.763	-0.04
380.97	-0
381.177	0.01
381.384	0.03
381.591	-0.09
381.797	0.01
382.004	0.03
382.211	0.01
382.418	-0
382.624	0.01
382.831	-0.01
383.038	-0.04
383.244	-0.03
383.451	-0.05
383.658	-0.01
383.864	-0.04
384.071	-0.03
384.277	0.03
384.484	-0.04
384.69	0.02
384.897	-0.08
385.103	-0.03
385.31	-0.05
385.516	-0.04
385.723	-0.07
385.929	-0.03
386.136	-0.02
386.342	-0.01
386.549	-0.07
386.755	0.01
386.961	0
387.168	-0.05
387.374	-0.03
387.58	0
387.787	-0.03
387.993	-0.01
388.199	-0.08
388.406	-0.04
388.612	-0.05
388.818	-0.04
389.024	-0.07
389.231	-0.02
389.437	0.07
389.643	0.01
389.849	-0.04
390.055	-0.03
390.261	-0.02
390.467	0.03
390.674	-0.08
390.88	-0.05
391.086	0.02
391.292	-0.07
391.498	0.01
391.704	0.01
391.91	-0.04
392.116	-0.02
392.322	-0.15
392.528	-0.06
392.734	0
392.94	-0.02
393.146	-0.05
393.352	-0.03
393.557	-0.07
393.763	-0.02
393.969	0.03
394.175	-0.04
394.381	-0.02
394.587	-0.05
394.792	0.01
394.998	0.02
395.204	0.01
395.41	-0.08
395.615	0.02
395.821	-0.03
396.027	-0.03
396.233	-0.05
396.438	-0.02
396.644	0.07
396.85	-0.02
397.055	-0.03
397.261	0.02
397.466	-0.09
397.672	-0.01
397.878	0.04
398.083	-0.04
398.289	-0.05
398.494	0.02
398.7	-0.04
398.905	-0.09
399.111	0.03
399.316	-0.08
399.522	-0.02
399.727	-0.04
399.932	-0.03
400.138	-0.03
400.343	0.02
400.549	-0.02
400.754	-0
400.959	0.02
401.165	-0.04
401.37	0.01
401.575	0.03
401.78	-0.02
401.986	-0.05
402.191	-0.07
402.396	-0.05
402.601	0.02
402.807	-0.07
403.012	-0.01
403.217	-0.01
403.422	0
403.627	-0.03
403.832	-0.06
404.037	-0.01
404.243	-0.06
404.448	-0.04
404.653	-0.06
404.858	-0.02
405.063	0.04
405.268	-0.04
405.473	-0.04
405.678	-0.06
405.883	0.09
406.088	-0.02
406.293	-0.04
406.498	-0.06
406.703	0.02
406.907	-0.01
407.112	-0.08
407.317	-0.01
407.522	0.04
407.727	-0.08
407.932	-0.01
408.136	0
408.341	-0.05
408.546	-0.01
408.751	-0.02
408.956	-0.08
409.16	-0.03
409.365	-0.04
409.57	-0.05
409.774	-0.03
409.979	0.02
410.184	-0.02
410.388	-0.08
410.593	-0
410.798	-0
411.002	-0.04
411.207	-0.01
411.411	-0.04
411.616	-0.06
411.82	-0.03
412.025	0
412.229	-0.03
412.434	0.06
412.638	-0.03
412.843	-0.03
413.047	-0.02
413.252	-0.06
413.456	-0.05
413.66	0.02
413.865	-0.07
414.069	0.07
414.273	-0.05
414.478	-0.06
414.682	-0.06
414.886	-0.01
415.091	-0.11
415.295	-0.09
415.499	0.01
415.703	-0.03
415.908	0.02
416.112	-0.17
416.316	-0.02
416.52	-0.01
416.724	-0.13
416.929	-0.06
417.133	0.09
417.337	-0.03
417.541	-0.04
417.745	-0.03
417.949	0.02
418.153	-0
418.357	-0.1
418.561	0.08
418.765	-0
418.969	0.09
419.173	0.01
419.377	-0.07
419.581	0.07
419.785	-0.06
419.989	-0.09
420.193	-0.04
420.397	-0.08
420.601	0.01
420.804	0.02
421.008	-0.03
421.212	-0.02
421.416	-0.01
421.62	-0.07
421.823	-0.03
422.027	0.09
422.231	-0.03
422.435	-0
422.638	-0.02
422.842	-0.06
423.046	-0.1
423.249	-0.02
423.453	0.04
423.657	-0.01
423.86	-0.04
424.064	-0.04
424.268	0.05
424.471	-0.03
424.675	0.01
424.878	0.03
425.082	-0.02
425.285	0
425.489	-0.04
425.692	-0
425.896	-0.08
426.099	0.01
426.303	-0.06
426.506	-0.1
426.71	-0.03
426.913	0.06
427.116	0.07
427.32	-0
427.523	-0.04
427.726	0.04
427.93	-0.03
428.133	-0.07
428.336	-0.09
428.54	-0.08
428.743	-0.02
428.946	-0.02
429.149	-0.07
429.353	-0.02
429.556	-0.05
429.759	-0.06
429.962	-0.07
430.165	-0.05
430.368	-0.06
430.571	-0.03
430.775	-0.02
430.978	-0.01
431.181	0.01
431.384	-0.03
431.587	-0.05
431.79	-0.01
431.993	-0.09
432.196	-0.01
432.399	-0.03
432.602	0.05
432.805	-0.03
433.008	-0.03
433.211	-0.07
433.414	0.01
433.616	-0.01
433.819	-0.06
434.022	-0.14
434.225	0.05
434.428	-0.04
434.631	0.06
434.833	-0.04
435.036	-0.01
435.239	0.03
435.442	-0.07
435.645	-0.09
435.847	-0.01
436.05	0.04
436.253	-0.04
436.455	-0.07
436.658	-0.07
436.861	0.04
437.063	-0.06
437.266	-0.05
437.468	0.02
437.671	0.11
437.874	0.01
438.076	-0.05
438.279	-0.1
438.481	-0.02
438.684	-0.03
438.886	0.02
439.089	-0.12
439.291	0.02
439.494	0.02
439.696	-0.07
439.899	-0.06
440.101	-0
440.303	-0.12
440.506	-0.07
440.708	-0.03
440.91	-0.03
441.113	-0.05
441.315	0.02
441.517	-0.06
441.72	0.01
441.922	-0.06
442.124	-0.08
442.326	-0.02
442.529	0.05
442.731	-0.07
442.933	0.04
443.135	-0.03
443.337	-0.07
443.539	-0.08
443.742	-0.01
443.944	0
444.146	-0.04
444.348	-0.02
444.55	-0.02
444.752	-0.07
444.954	-0.08
445.156	-0.06
445.358	-0.07
445.56	0.03
445.762	-0.03
445.964	-0.04
446.166	-0.05
446.368	-0.06
446.57	0.03
446.772	-0.05
446.974	-0.06
447.175	-0.01
447.377	-0.05
447.579	-0.01
447.781	-0.08
447.983	0.01
448.184	-0.03
448.386	-0
448.588	-0.08
448.79	-0.03
448.991	-0.07
449.193	-0.02
449.395	-0.06
449.597	-0
449.798	-0.02
450	-0.02
450.202	-0.03
450.403	-0.04
450.605	0.05
450.806	-0.03
451.008	-0.09
451.21	-0.02
451.411	-0.01
451.613	-0.02
451.814	0
452.016	-0.02
452.217	-0.01
452.419	0.02
452.62	-0.04
452.821	0.01
453.023	0.04
453.224	0.02
453.426	-0.01
453.627	-0.01
453.828	0.01
454.03	-0.02
454.231	-0.03
454.432	-0.08
454.634	0.07
454.835	-0.07
455.036	-0.18
455.238	0.02
455.439	0.03
455.64	-0.12
455.841	-0.08
456.042	0.11
456.244	-0.01
456.445	-0.06
456.646	-0.04
456.847	0.01
457.048	0.01
457.249	0.02
457.45	0.16
457.651	-0.12
457.852	0.07
458.054	-0.01
458.255	-0.06
458.456	-0.01
458.657	0.02
458.858	-0.07
459.058	-0.04
459.259	0.03
459.46	-0.03
459.661	-0.02
459.862	0.04
460.063	-0.04
460.264	0.08
460.465	-0.1
460.666	0.08
460.866	-0.01
461.067	-0.04
461.268	0.01
461.469	-0.05
461.67	-0.04
461.87	-0.06
462.071	-0.01
462.272	-0.03
462.473	-0.05
462.673	0.04
462.874	-0.03
463.075	-0.07
463.275	-0.06
463.476	0.02
463.676	-0.01
463.877	-0.02
464.078	-0.02
464.278	0.06
464.479	-0.07
464.679	-0.05
464.88	-0.01
465.08	0.01
465.281	-0.06
465.481	-0.05
465.682	-0.01
465.882	0.04
466.083	-0
466.283	-0.03
466.483	-0.02
466.684	-0.05
466.884	-0.08
467.085	-0.03
467.285	0.03
467.485	-0.08
467.686	-0.04
467.886	-0.06
468.086	-0
468.286	-0.02
468.487	0
468.687	-0.08
468.887	-0
469.087	0.01
469.287	-0.03
469.488	-0.11
469.688	-0.01
469.888	0.01
470.088	0.01
470.288	0.03
470.488	0.01
470.688	-0.04
470.888	-0.08
471.088	-0.06
471.288	0.02
471.488	0.05
471.688	-0.01
471.888	-0.04
472.088	0.02
472.288	-0.01
472.488	-0.07
472.688	-0.05
472.888	-0
473.088	-0.02
473.288	-0.03
473.488	-0.03
473.688	0.05
473.887	-0.03
474.087	-0.01
474.287	-0.07
474.487	-0.05
474.687	-0.01
474.886	-0.02
475.086	-0.04
475.286	-0
475.486	-0.02
475.685	-0.02
475.885	-0.06
476.085	-0.02
476.284	-0.01
476.484	-0.03
476.684	0.04
476.883	0.03
477.083	0.04
477.282	-0.01
477.482	0.03
477.681	0.05
477.881	-0.02
478.08	-0.1
478.28	-0.07
478.479	0.02
478.679	0.07
478.878	-0.04
479.078	-0.04
479.277	-0.03
479.477	-0.02
479.676	0.05
479.875	-0.01
480.075	-0.05
480.274	-0.02
480.473	0
480.673	-0.06
480.872	0.01
481.071	-0.03
481.271	0.01
481.47	-0.03
481.669	-0.04
481.868	-0.01
482.067	-0.04
482.267	-0.02
482.466	-0.05
482.665	-0.05
482.864	-0.03
483.063	-0.02
483.262	-0.01
483.461	0.03
483.661	-0.01
483.86	-0.01
484.059	-0.03
484.258	-0.01
484.457	-0.01
484.656	0
484.855	0.03
485.054	-0.08
485.253	-0.04
485.452	-0.04
485.651	-0.02
485.849	-0
486.048	-0.05
486.247	-0.04
486.446	0.02
486.645	-0.05
486.844	-0.05
487.043	-0.02
487.241	-0
487.44	-0.06
487.639	-0.02
487.838	-0.01
488.037	-0.01
488.235	0.06
488.434	0.01
488.633	-0.05
488.831	-0.01
489.03	0.01
489.229	-0.01
489.427	-0.02
489.626	0.02
489.825	0.04
490.023	-0.02
490.222	-0.01
490.42	0
490.619	0.02
490.817	-0.01
491.016	-0.02
491.214	0.02
491.413	-0.04
491.611	-0.01
491.81	-0.01
492.008	0
492.207	0.02
492.405	-0.01
492.604	-0.04
492.802	-0
493	-0.01
493.199	-0.01
493.397	-0.02
493.595	0
493.794	-0.01
493.992	0.05
494.19	-0.01
494.388	0.04
494.587	-0.05
494.785	-0.01
494.983	-0.05
495.181	-0.01
495.379	-0.02
495.578	-0.03
495.776	-0
495.974	-0.01
496.172	-0.02
496.37	-0.03
496.568	-0.05
496.766	-0.02
496.964	0.01
497.162	-0.01
497.36	-0.05
497.558	-0.01
497.756	0.02
497.954	-0.01
498.152	-0.06
498.35	-0.03
498.548	-0.01
498.746	0.01
498.944	-0.05
499.142	-0.02
499.34	-0.03
499.538	-0.03
499.736	-0.04
499.933	0.01
500.131	0.04
500.329	-0.02
500.527	0.01
500.725	0.05
500.922	-0.01
501.12	0
501.318	-0
501.516	-0.04
501.713	0
501.911	-0.02
502.109	-0.05
502.306	-0
502.504	-0.02
502.701	-0.03
502.899	-0.02
503.097	0.05
503.294	-0
503.492	-0.03
503.689	-0.01
503.887	-0
504.084	0.01
504.282	-0
504.479	-0.05
504.677	-0.01
504.874	-0.04
505.072	-0.01
505.269	-0.02
505.466	0
505.664	-0.01
505.861	-0.05
506.059	-0.03
506.256	0.02
506.453	-0.02
506.651	0.02
506.848	-0.01
507.045	0.01
507.242	-0.01
507.44	-0.03
507.637	-0.01
507.834	-0.02
508.031	0.01
508.229	-0.03
508.426	-0.02
508.623	-0
508.82	-0.02
509.017	-0.05
509.214	-0.03
509.411	-0.03
509.608	-0.03
509.805	-0.03
510.003	-0.03
510.2	-0.04
510.397	0.02
510.594	-0.02
510.791	-0.04
510.988	-0.02
511.184	0.01
511.381	-0.02
511.578	-0.03
511.775	0.02
511.972	-0.04
512.169	-0.01
512.366	-0.02
512.563	-0
512.76	-0.02
512.956	-0.03
513.153	-0.01
513.35	-0.01
513.547	-0.04
513.744	-0.02
513.94	-0.05
514.137	0
514.334	-0.01
514.53	-0.02
514.727	0
514.924	0.05
515.12	-0.02
515.317	-0.03
515.514	-0.04
515.71	-0.04
515.907	-0.03
516.103	-0
516.3	-0.01
516.497	-0.01
516.693	0.03
516.89	-0.01
517.086	-0.04
517.283	0.01
517.479	-0.02
517.676	-0.02
517.872	-0.03
518.068	-0
518.265	-0.03
518.461	-0.03
518.658	-0.03
518.854	-0
519.05	-0.04
519.247	-0.05
519.443	-0
519.639	0
519.836	-0
520.032	-0.04
520.228	-0.03
520.424	0.04
520.621	-0
520.817	-0
521.013	0
521.209	0.02
521.405	0.05
521.601	-0.02
521.798	0
521.994	0.02
522.19	-0.05
522.386	-0.02
522.582	-0.03
522.778	-0.03
522.974	-0.02
523.17	-0
523.366	0.01
523.562	0.02
523.758	-0.01
523.954	-0.06
524.15	-0.02
524.346	0.01
524.542	-0.02
524.738	-0.02
524.934	-0
525.129	-0.03
525.325	0.01
525.521	-0.03
525.717	0.02
525.913	-0.01
526.109	-0.02
526.304	-0.01
526.5	-0
526.696	0.04
526.892	-0.01
527.087	-0.01
527.283	-0.05
527.479	0.01
527.674	-0.02
527.87	-0.01
528.066	-0.03
528.261	-0
528.457	0
528.653	-0.02
528.848	-0.01
529.044	-0
529.239	-0.01
529.435	0.02
529.63	-0.03
529.826	0.03
530.021	0
530.217	0
530.412	-0.01
530.608	-0.05
530.803	-0.02
530.999	-0.02
531.194	-0.06
531.389	-0.02
531.585	-0.07
531.78	0.01
531.975	-0.01
532.171	-0
532.366	-0.03
532.561	-0.03
532.757	-0.04
532.952	-0
533.147	0.03
533.342	-0.01
533.538	-0.03
533.733	0.02
533.928	-0.03
534.123	-0.01
534.318	-0.04
534.513	-0.03
534.709	-0.01
534.904	-0.03
535.099	-0.02
535.294	0
535.489	-0.01
535.684	-0.04
535.879	-0.04
536.074	-0.02
536.269	-0.03
536.464	0
536.659	-0.04
536.854	-0.01
537.049	-0
537.244	-0.01
537.439	-0.03
537.634	0.01
537.828	-0.01
538.023	-0.02
538.218	-0.03
538.413	-0.02
538.608	-0.04
538.803	0
538.997	-0.05
539.192	0.01
539.387	0
539.582	-0.01
539.776	-0.01
539.971	-0.03
540.166	-0.03
540.36	-0.03
540.555	-0
540.75	-0.03
540.944	0
541.139	-0.06
541.334	-0.03
541.528	-0
541.723	0.01
541.917	-0.03
542.112	-0.05
542.306	-0.03
542.501	-0
542.695	-0.01
542.89	-0.01
543.084	-0.01
543.279	-0.02
543.473	-0.04
543.668	-0.02
543.862	-0.03
544.056	-0.02
544.251	-0.01
544.445	0
544.64	-0.05
544.834	-0.04
545.028	-0.01
545.222	-0
545.417	0.01
545.611	0.01
545.805	-0.01
546	-0.01
546.194	-0.02
546.388	-0.03
546.582	0.01
546.776	-0.02
546.97	-0
547.165	0
547.359	0.01
547.553	-0.03
547.747	-0.01
547.941	-0
548.135	-0.01
548.329	-0.02
548.523	0
548.717	-0.04
548.911	-0.04
549.105	0.01
549.299	-0.02
549.493	0.01
549.687	-0
549.881	0.01
550.075	-0.01
550.269	-0.05
550.463	-0
550.657	-0.03
550.85	-0.02
551.044	-0.04
551.238	-0.01
551.432	-0.02
551.626	-0.03
551.82	0.01
552.013	-0.03
552.207	-0.01
552.401	-0.01
552.594	-0
552.788	-0.04
552.982	-0.01
553.176	-0.04
553.369	0
553.563	-0.01
553.756	-0.04
553.95	-0.03
554.144	-0.03
554.337	0
554.531	-0.01
554.724	-0.04
554.918	-0.04
555.111	-0.02
555.305	-0.02
555.498	0.05
555.692	0.02
555.885	-0.02
556.079	-0
556.272	-0.03
556.466	0
556.659	-0.01
556.852	-0.02
557.046	-0.04
557.239	0.02
557.432	-0.03
557.626	-0.04
557.819	-0.01
558.012	-0
558.206	0.01
558.399	-0.01
558.592	0.01
558.785	-0.02
558.979	0.01
559.172	-0.02
559.365	0
559.558	-0
559.751	-0
559.944	0.02
560.138	-0.01
560.331	-0.02
560.524	-0.03
560.717	-0.01
560.91	-0.03
561.103	0.01
561.296	0.01
561.489	0
561.682	-0.01
561.875	0.01
562.068	-0
562.261	-0.01
562.454	0.03
562.647	0
562.84	0.01
563.032	-0.01
563.225	-0
563.418	-0.02
563.611	-0.01
563.804	-0.03
563.997	-0.04
564.19	-0.07
564.382	-0.02
564.575	-0.03
564.768	-0.02
564.961	-0.02
565.153	-0.04
565.346	0.01
565.539	0.01
565.731	0.01
565.924	0.01
566.117	0.01
566.309	-0.01
566.502	-0.03
566.695	0
566.887	-0.01
567.08	-0.03
567.272	-0.03
567.465	-0.02
567.657	-0.02
567.85	0
568.042	-0
568.235	-0
568.427	-0.02
568.62	-0.03
568.812	-0.01
569.005	-0.02
569.197	-0.07
569.389	-0.02
569.582	0
569.774	-0.02
569.966	-0.04
570.159	-0.04
570.351	-0.01
570.543	-0.04
570.736	-0.03
570.928	-0.03
571.12	-0.01
571.312	-0.01
571.505	-0.07
571.697	0.02
571.889	-0.03
572.081	-0.04
572.273	-0.03
572.465	0.02
572.658	-0.02
572.85	-0
573.042	-0.01
573.234	-0.02
573.426	0.01
573.618	-0.04
573.81	0
574.002	0.01
574.194	0.04
574.386	-0.05
574.578	-0.09
574.77	-0.04
574.962	-0.01
575.154	-0.07
575.346	-0.04
575.538	-0.01
575.729	-0.03
575.921	-0.02
576.113	-0.04
576.305	0.01
576.497	-0.03
576.689	-0.03
576.88	-0.05
577.072	0.04
577.264	-0.03
577.456	-0.01
577.647	-0.1
577.839	-0.03
578.031	0
578.223	-0.06
578.414	-0.05
578.606	-0
578.798	0.02
578.989	-0.03
579.181	-0.03
579.372	-0.01
579.564	-0.03
579.755	-0.01
579.947	-0
580.139	0.02
580.33	-0.07
580.522	-0.02
580.713	-0.1
580.905	-0.01
581.096	0.01
581.287	-0.01
581.479	-0.02
581.67	-0
581.862	-0.02
582.053	-0.05
582.244	-0.07
582.436	0.01
582.627	-0.02
582.818	-0.03
583.01	-0.05
583.201	0.01
583.392	0.02
583.583	-0.02
583.775	-0.03
583.966	-0.03
584.157	-0.03
584.348	-0.03
584.54	-0.07
584.731	-0
584.922	-0.01
585.113	-0.04
585.304	0.02
585.495	-0
585.686	-0
585.877	0.01
586.068	0
586.259	-0
586.45	0
586.641	-0.03
586.832	-0.08
587.023	-0
587.214	-0.03
587.405	-0.02
587.596	-0.04
587.787	0.02
587.978	-0.01
588.169	-0.04
588.36	-0.05
588.551	0.01
588.742	-0.02
588.932	-0.02
589.123	-0.04
589.314	-0.02
589.505	-0
589.696	0
589.886	-0.05
590.077	-0.06
590.268	-0.03
590.458	-0.06
590.649	-0.06
590.84	0.02
591.03	-0.03
591.221	-0.05
591.412	-0.04
591.602	0.01
591.793	0
591.984	-0.04
592.174	-0.04
592.365	0.05
592.555	-0.04
592.746	-0.02
592.936	0
593.127	-0.02
593.317	0.02
593.508	-0.05
593.698	-0.04
593.889	-0.02
594.079	-0.02
594.269	-0.05
594.46	-0.03
594.65	-0.02
594.84	-0.03
595.031	-0.06
595.221	-0.03
595.411	-0.06
595.602	0
595.792	-0.05
595.982	-0.04
596.172	0.04
596.363	-0.01
596.553	-0
596.743	-0.03
596.933	-0.03
597.123	0.02
597.314	-0.03
597.504	-0.04
597.694	-0
597.884	0
598.074	-0.04
598.264	-0.02
598.454	-0.01
598.644	-0.02
598.834	-0.02
599.024	-0.08
599.214	-0.02
599.404	0.02
599.594	-0.01
599.784	-0.02
599.974	0
600.164	-0
600.354	-0.06
600.544	-0.06
600.734	-0.01
600.924	0.04
601.114	-0.05
601.303	-0.02
601.493	-0
601.683	-0.03
601.873	-0.01
602.063	-0.07
602.252	0.01
602.442	-0.08
602.632	-0.02
602.821	-0.08
603.011	0.04
603.201	-0.04
603.39	-0.03
603.58	-0.04
603.77	0.01
603.959	0.03
604.149	-0.01
604.339	-0.06
604.528	-0
604.718	0.02
604.907	-0.04
605.097	-0.04
605.286	-0.06
605.476	-0
605.665	-0.02
605.855	-0.02
606.044	0.04
606.234	-0.01
606.423	-0.02
606.612	-0.04
606.802	-0.01
606.991	0.01
607.181	-0.02
607.37	-0.08
607.559	-0.03
607.749	-0.07
607.938	-0.01
608.127	-0.02
608.316	-0.06
608.506	0.01
608.695	-0.02
608.884	-0.02
609.073	-0.02
609.263	-0.03
609.452	-0.01
609.641	-0.02
609.83	-0.07
610.019	-0.01
610.208	-0.03
610.397	-0.03
610.586	0
610.775	-0.05
610.965	-0.02
611.154	-0.04
611.343	-0.04
611.532	-0.03
611.721	-0.05
611.91	-0.06
612.099	-0.01
612.287	-0.02
612.476	-0.06
612.665	-0.02
612.854	-0.02
613.043	0.03
613.232	-0.02
613.421	-0.05
613.61	-0.03
613.798	-0.03
613.987	0.02
614.176	-0.02
614.365	0.01
614.554	-0.01
614.742	0.01
614.931	-0.04
615.12	0.03
615.309	-0.03
615.497	0.01
615.686	-0.07
615.875	-0.06
616.063	-0
616.252	-0.05
616.44	-0.03
616.629	-0
616.818	0.01
617.006	-0.02
617.195	-0.01
617.383	0.01
617.572	-0.02
617.76	-0.07
617.949	-0.04
618.137	-0
618.326	0.04
618.514	-0.02
618.703	-0.06
618.891	0.04
619.079	-0.06
619.268	0
619.456	-0.06
619.644	0.03
619.833	-0.02
620.021	-0.03
620.209	-0.06
620.398	-0.01
620.586	-0.03
620.774	-0
620.962	-0.02
621.151	0.03
621.339	-0.02
621.527	-0.05
621.715	-0.06
621.903	-0.07
622.092	-0.08
622.28	-0.01
622.468	-0.05
622.656	-0.06
622.844	0
623.032	-0.05
623.22	-0.07
623.408	-0.01
623.596	0.02
623.784	0.02
623.972	-0.04
624.16	-0.04
624.348	0.04
624.536	-0.05
624.724	-0.06
624.912	0.02
625.1	0
625.288	-0.04
625.476	-0.03
625.664	-0.03
625.851	-0.06
626.039	-0.01
626.227	-0
626.415	-0.03
626.603	-0.08
626.79	-0.05
626.978	-0.07
627.166	-0.01
627.354	-0.03
627.541	-0.05
627.729	-0.09
627.917	0.02
628.104	-0
628.292	0.01
628.48	-0.03
628.667	0
628.855	-0.03
629.042	0
629.23	-0.06
629.418	0
629.605	0.01
629.793	-0.06
629.98	-0.04
630.168	-0.02
630.355	-0.01
630.543	-0
630.73	-0.07
630.917	0.03
631.105	0.04
631.292	-0.04
631.48	-0.03
631.667	0.08
631.854	-0.01
632.042	-0.05
632.229	-0.07
632.416	-0.02
632.604	-0.05
632.791	-0.08
632.978	-0.01
633.165	0.01
633.353	0.07
633.54	0
633.727	-0.07
633.914	-0.04
634.101	-0.08
634.289	0.02
634.476	-0.05
634.663	-0.05
634.85	-0.01
635.037	-0.03
635.224	-0.08
635.411	0.03
635.598	0.01
635.785	-0.02
635.972	-0.04
636.159	0.03
636.346	-0.06
636.533	-0.03
636.72	-0.01
636.907	-0.02
637.094	-0.02
637.281	-0.04
637.468	-0.02
637.655	-0.05
637.842	-0.01
638.029	-0.06
638.215	0.01
638.402	0.04
638.589	-0.06
638.776	-0.05
638.963	-0.08
639.149	0
639.336	0.03
639.523	-0.03
639.709	-0.02
639.896	-0.01
640.083	0.03
640.27	-0.02
640.456	-0.03
640.643	0.01
640.829	-0.05
641.016	-0.02
641.203	-0.06
641.389	0.03
641.576	-0
641.762	-0.02
641.949	-0.04
642.135	-0.01
642.322	-0.04
642.508	-0.09
642.695	-0.02
642.881	-0.02
643.068	-0.03
643.254	-0.03
643.441	0.01
643.627	-0.02
643.813	-0.07
644	-0
644.186	-0.01
644.372	0
644.559	0.05
644.745	-0.07
644.931	-0.04
645.118	-0.02
645.304	-0.05
645.49	-0.05
645.676	-0.05
645.862	-0.01
646.049	0.02
646.235	0.01
646.421	0.02
646.607	0.04
646.793	-0.03
646.979	-0.04
647.165	0.01
647.352	-0.05
647.538	0.03
647.724	-0.04
647.91	-0.03
648.096	-0.01
648.282	-0.03
648.468	-0.04
648.654	-0.02
648.84	-0.01
649.026	-0
649.212	-0.03
649.397	-0.05
649.583	-0.08
649.769	-0.03
649.955	-0.02
650.141	0.02
650.327	0.04
650.513	-0.02
650.698	-0.01
650.884	-0.09
651.07	-0.04
651.256	-0.05
651.442	-0.04
651.627	-0.06
651.813	-0.01
651.999	0
652.184	-0.04
652.37	-0.02
652.556	-0.04
652.741	0.05
652.927	-0.08
653.113	-0.04
653.298	-0.02
653.484	-0.02
653.669	-0.07
653.855	-0.04
654.04	0.01
654.226	-0.02
654.412	-0.06
654.597	-0.08
654.782	-0.03
654.968	0.02
655.153	-0.02
655.339	-0.06
655.524	-0.05
655.71	0.02
655.895	-0.06
656.08	-0.04
656.266	0.03
656.451	0.02
656.636	-0.04
656.822	-0.03
657.007	-0.09
657.192	-0.06
657.378	-0.11
657.563	-0.01
657.748	0.01
657.933	-0.03
658.118	-0.03
658.304	-0.03
658.489	-0.02
658.674	-0.02
658.859	-0.07
659.044	-0.01
659.229	-0.03
659.414	-0.02
659.599	-0.03
659.785	-0.07
659.97	-0.03
660.155	-0.05
660.34	-0.05
660.525	-0.02
660.71	-0.01
660.895	0.01
661.08	-0.07
661.264	-0.04
661.449	0.02
661.634	0.03
661.819	-0.03
662.004	0.01
662.189	-0.08
662.374	-0.07
662.559	-0.09
662.743	-0.1
662.928	-0
663.113	-0.05
663.298	-0.06
663.483	-0.06
663.667	-0.03
663.852	-0.08
664.037	0.01
664.221	-0.06
664.406	0.01
664.591	-0
664.775	-0.04
664.96	-0.05
665.145	-0.02
665.329	-0.01
665.514	-0
665.698	-0.04
665.883	-0.06
666.068	0.08
666.252	0.01
666.437	-0.1
666.621	-0.03
666.806	-0.07
666.99	-0.04
667.174	-0.07
667.359	0.07
667.543	-0.01
667.728	-0.05
667.912	-0.12
668.096	0
668.281	-0.06
668.465	-0.07
668.649	-0.05
668.834	-0.1
669.018	-0.04
669.202	-0.06
669.387	-0.07
669.571	0.04
669.755	-0.06
669.939	-0.05
670.124	-0.04
670.308	-0.01
670.492	0.03
670.676	-0.05
670.86	-0.03
671.044	-0.07
671.228	-0
671.413	-0.05
671.597	-0.1
671.781	-0.07
671.965	0.01
672.149	-0.03
672.333	-0.05
672.517	-0.06
672.701	0.01
672.885	-0.09
673.069	-0.1
673.253	0.03
673.437	-0.04
673.621	-0.08
673.804	-0.04
673.988	-0.07
674.172	-0.03
674.356	-0.09
674.54	-0.02
674.724	0.05
674.908	-0.07
675.091	0
675.275	-0.01
675.459	0.02
675.643	0.02
675.826	-0.03
676.01	-0.04
676.194	-0.02
676.377	0.04
676.561	-0.03
676.745	0.02
676.928	0.02
677.112	0.02
677.296	-0.08
677.479	-0.07
677.663	-0.06
677.846	0.02
678.03	-0.04
678.213	-0.09
678.397	0.03
678.58	-0.09
678.764	-0.01
678.947	-0.07
679.131	-0.01
679.314	0.05
679.498	-0.03
679.681	-0.02
679.865	-0.02
680.048	-0
680.231	-0
680.415	-0.03
680.598	-0.03
680.781	-0.05
680.965	-0.05
681.148	-0.02
681.331	-0.06
681.514	-0.03
681.698	-0.04
681.881	-0.02
682.064	0.01
682.247	-0.04
682.43	-0.08
682.614	-0.03
682.797	0.03
682.98	0.01
683.163	-0.08
683.346	-0.03
683.529	-0.09
683.712	-0.03
683.895	-0.05
684.078	-0.09
684.261	-0.03
684.444	0.01
684.627	-0.01
684.81	-0.06
684.993	-0.02
685.176	-0
685.359	-0.08
685.542	-0.07
685.725	0.02
685.908	-0.04
686.091	-0.07
686.274	0.02
686.457	-0.04
686.639	-0.02
686.822	-0.01
687.005	-0.04
687.188	-0.02
687.371	0.07
687.553	0.02
687.736	-0.01
687.919	0.11
688.102	0.03
688.284	-0.08
688.467	-0.03
688.65	-0.04
688.832	-0.07
689.015	-0.01
689.197	-0.09
689.38	0.07
689.563	0.07
689.745	-0.08
689.928	-0.06
690.11	-0.03
690.293	0.01
690.475	-0.12
690.658	-0
690.84	-0.01
691.023	-0.07
691.205	-0.04
691.388	-0.02
691.57	-0.03
691.752	0
691.935	-0.16
692.117	0.01
692.3	-0.03
692.482	-0.06
692.664	-0.07
692.847	-0.04
693.029	0.04
693.211	-0.02
693.393	-0.04
693.576	-0.04
693.758	-0.05
693.94	-0.03
694.122	-0
694.304	-0.03
694.487	-0.06
694.669	0.05
694.851	-0.04
695.033	-0.02
695.215	-0.07
695.397	-0.09
695.579	0
695.761	-0.09
695.943	-0.13
696.125	0.03
696.308	-0.04
696.49	-0.11
696.671	0.08
696.853	-0.03
697.035	0.09
697.217	-0.05
697.399	0.03
697.581	-0.05
697.763	-0.04
697.945	-0.07
698.127	-0.01
698.309	0.06
698.491	-0.01
698.672	0.04
698.854	0.06
699.036	0.02
699.218	-0.06
699.399	0.06
699.581	0
699.763	-0.04
699.945	-0.1
700.126	-0.13
700.308	-0.03
700.49	-0.06
700.671	-0.13
700.853	-0.06
701.035	-0.07
701.216	-0.04
701.398	-0.07
701.579	-0.01
701.761	0.01
701.943	-0.05
702.124	-0.11
702.306	-0.07
702.487	0.03
702.669	-0.07
702.85	-0.08
703.031	-0.07
703.213	0.07
703.394	0.06
703.576	-0.05
703.757	0.07
703.938	0.07
704.12	0.11
704.301	0.01
704.483	-0.12
704.664	-0.03
704.845	0.1
705.026	-0.04
705.208	-0.07
705.389	-0.06
705.57	-0.03
705.751	-0.04
705.933	-0.05
706.114	0.07
706.295	-0.06
706.476	-0.1
706.657	-0.01
706.838	0.02
707.02	0.03
707.201	-0.08
707.382	-0.05
707.563	0.02
707.744	-0.06
707.925	-0.08
708.106	-0.07
708.287	0.02
708.468	0.04
708.649	-0
708.83	0.04
709.011	-0.05
709.192	-0.02
709.373	-0.13
709.554	-0.06
709.734	0.07
709.915	0.03
710.096	-0.04
710.277	-0.19
710.458	-0
710.639	0.01
710.819	-0.15
711	-0.06
711.181	0.09
711.362	0.03
711.542	-0.05
711.723	-0.08
711.904	-0
712.085	-0
712.265	-0.02
712.446	-0.16
712.627	-0.03
712.807	-0
712.988	-0.08
713.168	-0.07
713.349	-0.02
713.53	-0.17
713.71	-0.07
713.891	-0.11
714.071	-0.04
714.252	-0.11
714.432	-0.13
714.613	-0.07
714.793	-0.07
714.974	0.03
715.154	0.03
715.334	0.01
715.515	0.02
715.695	-0.13
715.876	-0.05
716.056	-0.02
716.236	-0.09
716.417	-0.05
716.597	-0.14
716.777	0.1
716.957	-0.05
717.138	-0.03
717.318	-0.03
717.498	-0.08
717.678	-0.07
717.859	-0.01
718.039	-0.13
718.219	-0.04
718.399	0.02
718.579	-0.11
718.759	-0.12
718.939	-0.05
719.12	-0.05
719.3	-0.05
719.48	-0.13
719.66	-0.16
719.84	0.01
720.02	-0.03
720.2	-0.06
720.38	-0.03
720.56	0.02
720.74	-0.12
720.92	-0.04
721.1	0.01
721.279	0.03
721.459	0.03
721.639	-0.09
721.819	-0.03
721.999	-0.1
722.179	0.02
722.359	-0.16
722.538	-0.05
722.718	-0.08
722.898	-0.11
723.078	-0.04
723.257	-0.17
723.437	-0.02
723.617	-0.02
723.797	-0.13
723.976	-0.02
724.156	-0.03
724.336	0.04
724.515	0.1
724.695	-0.13
724.874	-0.06
725.054	0.07
725.234	-0.17
725.413	-0.02
725.593	-0.1
725.772	-0.1
725.952	-0.07
726.131	-0.06
726.311	-0.03
726.49	-0.01
726.67	-0.16
726.849	-0.1
727.028	-0.08
727.208	-0.09
727.387	-0.06
727.567	-0.13
727.746	-0.03
727.925	-0.11
728.105	-0.06
728.284	-0.11
728.463	-0.12
728.643	-0.01
728.822	-0.17
729.001	-0.11
729.18	-0.06
729.359	0.08
729.539	-0.05
729.718	-0.1
729.897	-0.02
730.076	-0.12
730.255	-0.13
730.434	-0
730.614	0.04
730.793	0.03
730.972	-0.02
731.151	-0.02
731.33	0.04
731.509	-0.04
731.688	-0.12
731.867	-0.04
732.046	-0.17
732.225	0.16
732.404	-0.05
732.583	-0.08
732.762	-0.08
732.941	0.06
733.12	-0.1
733.298	-0.13
733.477	0.08
733.656	-0.05
733.835	-0.2
734.014	-0.01
734.193	-0.03
734.371	0.02
734.55	0.02
734.729	-0.15
734.908	-0.01
735.086	-0.01
735.265	0.05
735.444	-0.22
735.623	-0.1
735.801	-0.18
735.98	-0.13
736.159	-0.01
736.337	0
736.516	-0.09
736.694	-0.02
736.873	-0.1
737.052	0.15
737.23	0.12
737.409	-0.21
737.587	0.09
737.766	-0.17
737.944	-0.11
738.123	-0.12
738.301	0.1
738.479	-0.03
738.658	0.01
738.836	-0.17
739.015	-0.1
739.193	0.03
739.371	-0.15
739.55	-0.03
739.728	-0.16
739.906	0.1
740.085	0.09
740.263	-0.02
740.441	-0.22
740.62	0.11
740.798	0.06
740.976	-0.16
741.154	-0.1
741.332	0.09
741.511	-0.08
741.689	0.01
741.867	0.04
742.045	-0.1
742.223	-0.03
742.401	-0.07
742.579	-0.14
742.757	-0.07
742.935	-0.17
743.114	-0.11
743.292	-0.13
743.47	-0.07
743.648	-0.01
743.826	-0.04
744.004	0.07
744.181	0.1
744.359	-0.16
744.537	0.02
744.715	-0.15
744.893	-0.1
745.071	-0.15
745.249	-0.07
745.427	-0.05
745.605	0.02
745.782	-0.1
745.96	0.06
746.138	-0.07
746.316	0.07
746.493	-0.07
746.671	-0.02
746.849	-0.08
747.027	0.09
747.204	-0.06
747.382	0.03
747.56	-0.24
747.737	-0.15
747.915	-0.02
748.093	0.04
748.27	-0.1
748.448	-0.08
748.625	-0.24
748.803	-0.17
748.98	-0.04
749.158	-0.09
749.335	0.01
749.513	-0.04
749.69	-0.1
749.868	-0.16
750.045	-0.05
750.223	-0.08
750.4	-0.2
750.578	0.01
750.755	-0.03
750.932	-0.2
751.11	0.17
751.287	-0.21
751.464	0.01
751.642	-0.21
751.819	-0.04
751.996	0.12
752.173	-0.13
752.351	-0.08
752.528	-0.02
752.705	0.02
752.882	-0.13
753.06	-0.04
753.237	0.07
753.414	0.08
753.591	0.05
753.768	-0.04
753.945	-0.05
754.122	-0.03
754.299	-0.07
754.476	-0.07
754.654	-0.03
754.831	0.03
755.008	-0.08
755.185	-0.14
755.362	-0.16
755.539	-0.02
755.716	-0.16
755.892	-0.11
756.069	0.05
756.246	-0.11
756.423	-0.12
756.6	0.21
756.777	-0.03
756.954	0
757.131	-0.13
757.307	-0.11
757.484	-0.19
757.661	0.01
757.838	0.01
758.015	-0.13
758.191	-0.02
758.368	-0.01
758.545	0.08
758.721	-0.07
758.898	-0.15
759.075	-0.06
759.251	-0.01
759.428	-0.06
759.605	-0.12
759.781	-0.05
759.958	-0.11
760.134	-0.09
760.311	-0.06
760.488	0.09
760.664	0.15
760.841	-0.1
761.017	-0.17
761.194	-0.05
761.37	0.01
761.547	-0.01
761.723	-0.12
761.899	0.06
762.076	-0.07
762.252	-0.19
762.429	-0.1
762.605	0.01
762.781	0.04
762.958	0.09
763.134	-0.17
763.31	-0.14
763.486	0.01
763.663	-0.23
763.839	0.03
764.015	-0.15
764.191	-0.1
764.368	-0.05
764.544	-0.18
764.72	-0.07
764.896	0.05
765.072	-0.07
765.248	-0.01
765.425	-0.14
765.601	-0.06
765.777	-0.07
765.953	-0.27
766.129	-0.06
766.305	-0.09
766.481	0.01
766.657	0.02
766.833	0.16
767.009	-0.18
767.185	0.02
767.361	-0.11
767.537	-0.06
767.713	0
767.889	-0.16
768.065	-0.11
768.24	-0.01
768.416	0.08
768.592	0.01
768.768	-0.02
768.944	0.03
769.12	-0.15
769.295	-0.15
769.471	-0.18
769.647	-0.12
769.823	0.13
769.998	-0.09
770.174	-0.1
770.35	0.27
770.525	0.11
770.701	-0.05
770.877	-0.15
771.052	-0.17
771.228	0.11
771.403	0.01
771.579	-0
771.755	0.25
771.93	-0.11
772.106	-0.18
772.281	-0.23
772.457	0.02
772.632	0.09
772.808	-0.21
772.983	-0.05
773.159	-0.27
773.334	0.02
773.509	-0.16
773.685	-0.25
773.86	0.3
774.036	-0.02
774.211	0.01
774.386	-0.1
774.562	-0.06
774.737	0.08
774.912	-0.27
775.087	-0.02
775.263	-0.17
775.438	0.01
775.613	-0.18
775.788	-0.09
775.964	0
776.139	0.33
776.314	-0.24
776.489	0.04
776.664	-0.02
776.839	-0.22
777.014	0.15
777.19	-0.03
777.365	0.15
777.54	0.11
777.715	-0.02
777.89	-0.08
778.065	-0.16
778.24	0.08
778.415	0.05
778.59	-0.16
778.765	0.05
778.94	-0.06
779.115	-0.09
779.289	-0.08
779.464	-0.06
779.639	-0.01
779.814	-0.27
779.989	-0.06
780.164	0.21
780.339	0.09
780.513	-0.07
780.688	-0.34
780.863	-0.14
781.038	0.01
781.212	-0.39
781.387	-0.02
781.562	0.36
781.737	-0.16
781.911	-0.03
782.086	-0.15
782.261	-0.08
782.435	0.08
782.61	-0.29
782.784	-0.17
782.959	0.18
783.134	-0.19
783.308	-0.44
783.483	-0.2
783.657	0.27
783.832	-0.24
784.006	-0.17
784.181	-0.15
784.355	0.03
784.53	-0.42
784.704	-0.2
784.878	0.22
785.053	0.05
785.227	0.1
785.402	0.25
785.576	-0.4
785.75	-0.1
785.925	-0.26
786.099	-0.19
786.273	-0.12
786.448	0.01
786.622	0.03
786.796	-0.14
786.97	-0.3
787.145	0.33
787.319	-0.5
787.493	-0.21
787.667	-0.52
787.841	-0.15
788.015	0.3
788.19	-0.24
788.364	-0.16
788.538	0.08
788.712	0.15
788.886	-0.15
789.06	-0
789.234	-0.09
789.408	-0.49
789.582	-0.06
789.756	-0.16
789.93	-0.24
790.104	-0.14
790.278	-0.3
790.452	-0.33
790.626	-0.15
790.8	-0.21
790.973	0.05
791.147	0.05
791.321	0.11
791.495	0.24
791.669	-0.08
791.843	0.04
792.016	0.02
792.19	0.36
792.364	-0.39
792.538	0.43
792.711	0.26
792.885	-0.21
793.059	-0.39
793.233	-0.59
793.406	-0.03
793.58	-0.03
793.754	0.06
793.927	-0.3
794.101	0.17
794.274	-0.11
794.448	-0.04
794.622	-0.28
794.795	0.25
794.969	-0.22
795.142	0.14
795.316	-0.12
795.489	-0.41
795.663	0.24
795.836	-0.15
796.009	-0.28
796.183	0.25
796.356	0.05
796.53	0.02
796.703	0.02
796.876	0.61
797.05	-0.01
797.223	-0.24
797.396	-0.03
797.57	-0.18
797.743	-0.02
797.916	-0.07
798.09	-0.03
798.263	0.04
798.436	-0.21
798.609	-0.24
798.782	-0.2
798.956	-0.11
799.129	-0.17
799.302	-0.2
799.475	-0.32
799.648	-0.36
799.821	-0.36
799.994	-0.41
800.167	-0.55
800.34	0.04
800.514	-0.09
800.687	-0.2
800.86	-0.41
801.033	0.06
801.206	-0.03
801.379	-0.46
801.551	0.08
801.724	0.27
801.897	0.22
802.07	-0.33
802.243	-0.55
802.416	-0.19
802.589	-0.19
802.762	-0.14
802.935	-0.22
803.107	-0.01
803.28	0.01
803.453	-0.18
803.626	-0.34
803.798	-0.34
803.971	-0.27
804.144	0.02
804.317	0.12
804.489	-0.3
804.662	0.08
804.835	-0.27
805.007	-0.36
805.18	0.08
805.353	-0.16
805.525	-0.49
805.698	-0.48
805.87	0.03
806.043	0.06
806.215	-0.11
806.388	-0.28
806.56	-0.23
806.733	-0.06
806.905	0.13
807.078	-0.34
807.25	-0.27
807.423	0.07
807.595	-0.06
807.768	-0.2
807.94	0.18
808.112	-0.24
808.285	-0.18
808.457	-0.03
808.629	-0.22
808.802	0.28
808.974	0.02
809.146	-0.68
809.318	-0.34
809.491	0.24
809.663	0.31
809.835	-0.22
810.007	-0.05
810.18	-0.22
810.352	-0.64
810.524	-0.51
810.696	0.06
810.868	0.27
811.04	-0.59
811.212	-0.33
811.384	0.31
811.556	0.02
811.728	0.2
811.901	0.76
812.073	-0.05
812.245	0.26
812.417	-0.17
812.589	-0.8
812.76	-0.21
812.932	0.1
813.104	0.1
813.276	-0.54
813.448	0.15
813.62	-0.06
813.792	0.01
813.964	-0.14
814.136	-0.13
814.307	-0.48
814.479	-0.36
814.651	-0.2
814.823	0.53
814.995	-0.27
815.166	-0.05
815.338	-0.28
815.51	-0.81
815.681	0.87
815.853	-0.39
816.025	-0.09
816.196	0.36
816.368	0.07
816.54	-1.05
816.711	-0.67
816.883	0.26
817.054	0.58
817.226	-1.02
817.398	0.09
817.569	-0.48
817.741	0.36
817.912	-0.5
818.084	0.03
818.255	-0.07
818.426	-0.68
818.598	-0.46
818.769	-0.75
818.941	0.27
819.112	0.45
819.283	0.27
819.455	-0.44
819.626	0.18
819.798	0.14
819.969	-0.38
820.14	-0.4
820.311	-0.59
820.483	-0.15
820.654	-0.01
820.825	-0.11
820.996	-0.22
821.168	-0.46
821.339	-0.17
821.51	-0.59
821.681	-0.82
821.852	-0.08
822.023	-0.6
822.195	-0.55
822.366	0.23
822.537	-0.19
822.708	-0.23
822.879	-0.71
823.05	0.27
823.221	-0.42
823.392	0.22
823.563	0.38
823.734	-0.22
823.905	-0.61
824.076	-0.15
824.247	-0.21
824.418	-0.73
824.589	0.62
824.759	-0.46
824.93	0.02
825.101	-0.82
825.272	-0.12
825.443	0.31
825.614	0.3
825.784	-1.48
825.955	0.31
826.126	0.22
826.297	-0.05
826.467	0.76
826.638	0.8
826.809	-1.11
826.98	-0.42
827.15	0.27
827.321	0.07
827.492	0.21
827.662	-0
827.833	0.5
828.003	0.04
828.174	-0.29
828.345	-1.14
828.515	0.59
828.686	-0.21
828.856	-0.5
829.027	-0.19
829.197	-0.14
829.368	-0.09
829.538	-0.49
829.709	-0.55
829.879	-0.55
830.049	-0.04
830.22	-0.71
830.39	-0.54
830.56	0.02
830.731	-0.15
830.901	-0.44
831.072	-1.08
831.242	-0.21
831.412	0.17
831.582	-0.11
831.753	-0.72
831.923	0.37
832.093	0.18
832.263	-0.13
832.434	-0.7
832.604	-1.2
832.774	0.26
832.944	-0.43
833.114	-0.85
833.284	-0.1
833.454	-0.78
833.624	-1.13
833.795	-0.5
833.965	0.46
834.135	0.4
834.305	-1.2
834.475	-1.07
834.645	-0.03
834.815	-0.46
834.985	-0.63
835.155	-0.84
835.325	0.31
835.494	-0.15
835.664	-0.57
835.834	-0.98
836.004	0.39
836.174	-0.24
836.344	0.24
836.514	-1.09
836.684	-0.72
836.853	0.19
837.023	-0.72
837.193	-0.33
837.363	-0.03
837.532	0.11
837.702	-0.17
837.872	-1.12
838.041	1.08
838.211	1.52
838.381	-1.85
838.55	0.36
838.72	1.83
838.89	0.37
839.059	-1.11
839.229	-0.39
839.398	0.73
839.568	-0.22
839.738	-0.26
839.907	0.98
840.077	0.39
840.246	-0.57
840.416	-1.46
840.585	-0.7
840.755	1.35
840.924	0.97
841.093	-0.82
841.263	-0.5
841.432	-0.13
841.602	-0.62
841.771	-0.86
841.94	-0.16
842.11	1.57
842.279	0.47
842.448	-1.01
842.617	-0.76
842.787	0.31
842.956	-0.99
843.125	-0.11
843.294	0.38
843.464	0.56
843.633	-0.11
843.802	-1.03
843.971	-0.93
844.14	0.29
844.309	0.37
844.479	-1.9
844.648	-1.02
844.817	-0.48
844.986	-0.4
845.155	-0.96
845.324	-0.77
845.493	-0.56
845.662	-1.5
845.831	-0.68
846	0.08
846.169	-0.56
846.338	0.77
846.507	-0.28
846.676	0.02
846.844	-0.98
847.013	-0.12
847.182	-0.53
847.351	-1.4
847.52	-0.13
847.689	-0.32
847.858	-0.8
848.026	-0.61
848.195	-0.76
848.364	-0.09
848.533	-0.29
848.701	-0.96
848.87	-0.33
849.039	0.89
849.207	-0.1
849.376	0.34
849.545	1.06
849.713	-1.08
849.882	-0.57
850.051	-0.78
850.219	0.25
850.388	0.19
850.556	-0.65
850.725	-1.66
850.893	0.5
851.062	-0.95
851.23	0.01
851.399	-1.86
851.567	-1.84
851.736	-0.63
851.904	-2.3
852.073	-0.08
852.241	0.8
852.41	-0.53
852.578	-0.39
852.746	-0.56
852.915	-0.07
853.083	-0.35
853.251	-2.46
853.42	-0.57
853.588	-0.64
853.756	1.43
853.924	-0.6
854.093	-0.47
854.261	-0.18
854.429	-2.22
854.597	-0.2
854.765	-1.63
854.934	1.14
855.102	-0.05
855.27	0.43
855.438	-0.25
855.606	1.99
855.774	0.77
855.942	-2.18
856.11	-1.2
856.278	-0.8
856.446	0.78
856.614	-0.06
856.782	-1.2
856.95	0.37
857.118	-0.86
857.286	-0.18
857.454	-0.78
857.622	1.58
857.79	0.62
857.958	-1
858.126	-1.06
858.294	-2.78
858.462	-0.84
858.629	-0.65
858.797	-1.61
858.965	-0.58
859.133	-0.83
859.301	-1.28
859.468	-1.04
859.636	-1.1
859.804	2.14
859.971	0.38
860.139	-1.39
860.307	1.05
860.474	-0.18
860.642	-1.23
860.81	-1.27
860.977	-0.15
861.145	1.16
861.313	-0.75
861.48	-0.04
861.648	0.28
861.815	-1.2
861.983	-0.49
862.15	-0.37
862.318	0.19
862.485	0.55
862.653	-1.84
862.82	-2.17
862.988	0.34
863.155	1.31
863.322	-2.36
863.49	-2.67
863.657	-2.23
863.824	1
863.992	-0.6
864.159	-0.86
864.326	0.19
864.494	-1.15
864.661	2.1
864.828	-1.42
864.996	-0.38
865.163	0.83
865.33	-0.9
865.497	-2.76
865.664	-0.62
865.832	-3.3
865.999	-2.05
866.166	-2.77
866.333	-0.5
866.5	-1.7
866.667	-0.68
866.834	-1.08
867.001	-0.02
867.168	-2.1
867.335	-0.61
867.502	-2.11
867.669	0.88
867.836	1.67
868.003	-0.49
868.17	0.68
868.337	-1.62
868.504	1.23
868.671	-0.76
868.838	-0.88
869.005	-1.04
869.172	1.37
869.339	-0.1
869.505	-0.08
869.672	0.11
869.839	0.81
870.006	-0.75
870.173	-2.54
870.339	-0.26
870.506	1.31
870.673	-0.35
870.84	-0.01
871.006	-0.94
871.173	-0.72
871.34	-0.6
871.506	-1.8
871.673	0.04
871.839	-2.75
872.006	-0.05
872.173	-1.73
872.339	0.26
872.506	0.47
872.672	-0.79
872.839	-3.5
873.005	-0.56
873.172	1.29
873.338	-0.29
873.505	-0.01
873.671	-0.85
873.838	1.52
874.004	-2.25
874.171	-1.68
874.337	0.35
874.503	-0.21
874.67	-2.97
874.836	-0.4
875.002	0.74
875.169	0.25
875.335	-0.04
875.501	-0.58
875.668	0.29
875.834	0.03
876	-0.61
876.166	0.07
876.332	2.04
876.499	2.45
876.665	-0.3
876.831	-1.01
876.997	1.59
877.163	-1.79
877.329	-2.93
877.495	-0.72
877.662	-0.48
877.828	0.51
877.994	-1.28
878.16	-2.19
878.326	-0.82
878.492	-0.6
878.658	-1.99
878.824	0.12
878.99	-0.88
879.156	-2.09
879.322	0.03
879.487	-2.62
879.653	-0.7
879.819	-0.14
879.985	-1.27
880.151	0.11
880.317	-0.87
880.483	-1.26
880.648	0.31
880.814	-2.71
880.98	-0.21
881.146	-4.25
881.312	-1.26
881.477	-0.95
881.643	-0.8
881.809	0.52
881.974	1.05
882.14	-2.65
882.306	-0.4
882.471	2.12
882.637	-2.09
882.803	0.54
882.968	2.78
883.134	2.85
883.299	-0.62
883.465	-1.29
883.63	0.52
883.796	-0.02
883.961	-0.25
884.127	1.46
884.292	-3.7
884.458	-2.54
884.623	-2.53
