Data from Apollo_Calib_20240827__AbsoluteIrradiance__576__08-45-02-648.txt Node

Date: Wed Aug 28 08:45:02 BST 2024
User: biology
Spectrometer: FLMT08252
Trigger mode: 0
Integration Time (sec): 5.000000E-1
Scans to average: 5
Electric dark correction enabled: true
Nonlinearity correction enabled: false
Boxcar width: 0
XAxis mode: Wavelengths
Number of Pixels in Spectrum: 3648
>>>>>Begin Spectral Data<<<<<
179.588	-0
179.809	-0
180.03	-0
180.251	-0
180.473	-0
180.694	0
180.915	0
181.136	-0
181.357	0
181.578	-0
181.799	-0
182.02	-0
182.241	0
182.462	-0
182.683	0
182.904	-0
183.125	-0
183.346	0
183.567	0
183.788	0
184.009	-0
184.23	0
184.451	0
184.672	-0
184.892	-0
185.113	0
185.334	0
185.555	-0
185.776	-0
185.996	0
186.217	0
186.438	0
186.659	-0
186.879	-0
187.1	0
187.321	-0
187.541	-0
187.762	0
187.983	0
188.203	0
188.424	0
188.644	0
188.865	0
189.086	0
189.306	0
189.527	0
189.747	0
189.968	-0
190.188	0
190.409	-0
190.629	0
190.849	-0
191.07	0
191.29	0
191.511	0
191.731	-0
191.951	-0
192.172	0
192.392	-0
192.612	-0
192.833	0
193.053	0
193.273	0
193.493	0
193.714	0
193.934	0
194.154	0
194.374	0
194.594	0
194.815	0
195.035	0
195.255	0
195.475	-0
195.695	0
195.915	0
196.135	-0
196.355	0
196.575	0
196.795	-0
197.015	-0
197.235	-0
197.455	0
197.675	0
197.895	-0
198.115	-0
198.335	0
198.555	0
198.775	0
198.995	0
199.214	0
199.434	0
199.654	0
199.874	0
200.094	1.12
200.313	0.34
200.533	0.39
200.753	-0.84
200.973	0.89
201.192	0.83
201.412	-0.62
201.632	-0.16
201.851	0.9
202.071	0.03
202.291	-0.35
202.51	0.06
202.73	0.91
202.95	0.06
203.169	-0.22
203.389	-0.06
203.608	0.67
203.828	-0.14
204.047	0.02
204.267	0.5
204.486	-0.01
204.706	0.12
204.925	0.45
205.145	-0.2
205.364	-0.01
205.583	0.67
205.803	0.1
206.022	-0.15
206.242	-0.23
206.461	0.05
206.68	-0.25
206.9	0.04
207.119	0.71
207.338	0.67
207.557	-0.18
207.777	0.25
207.996	-0.01
208.215	0.61
208.434	-0.22
208.654	-0.15
208.873	0.24
209.092	0.44
209.311	-0.02
209.53	0.12
209.749	-0.15
209.968	-0.04
210.187	0.01
210.407	-0.22
210.626	-0.09
210.845	0.18
211.064	0.23
211.283	0.03
211.502	0.42
211.721	0.07
211.94	-0.06
212.159	0.49
212.377	0.13
212.596	0.56
212.815	0.18
213.034	0.33
213.253	0.39
213.472	0.33
213.691	-0.13
213.91	-0.19
214.128	0.09
214.347	0.5
214.566	-0.26
214.785	-0.2
215.003	0.04
215.222	0.23
215.441	0.27
215.66	-0.08
215.878	0.18
216.097	0.32
216.316	-0.15
216.534	0.16
216.753	0.23
216.972	-0.08
217.19	0.27
217.409	-0.04
217.627	0.07
217.846	0.16
218.064	0
218.283	-0.31
218.501	0.53
218.72	0.3
218.938	-0.15
219.157	-0.1
219.375	0.26
219.594	0.26
219.812	-0.17
220.031	-0.01
220.249	0.39
220.467	0.25
220.686	0.13
220.904	-0.13
221.122	0.03
221.341	0.39
221.559	0.16
221.777	0.01
221.995	0.14
222.214	0.28
222.432	-0.04
222.65	0.19
222.868	0.17
223.086	0.18
223.305	0.26
223.523	0.04
223.741	0.38
223.959	-0.09
224.177	-0.14
224.395	-0.07
224.613	0.13
224.831	0.24
225.049	0.05
225.267	-0.03
225.485	0.12
225.703	-0.04
225.921	0.16
226.139	-0.06
226.357	0.1
226.575	0.01
226.793	-0.03
227.011	0.44
227.229	0.17
227.447	0.28
227.665	-0.05
227.883	-0.06
228.1	0.18
228.318	0.15
228.536	-0.33
228.754	-0.04
228.972	0.15
229.189	0.17
229.407	-0.06
229.625	0.04
229.843	0.16
230.06	0.13
230.278	0.01
230.496	0.03
230.713	0.2
230.931	0.18
231.149	-0.02
231.366	-0.03
231.584	0.02
231.801	0.4
232.019	0.07
232.236	-0.01
232.454	0.06
232.671	0.13
232.889	0.08
233.106	-0.03
233.324	0.1
233.541	0.09
233.759	0.08
233.976	0
234.194	0.1
234.411	0.11
234.628	0.04
234.846	0.04
235.063	0.05
235.28	-0
235.498	0.02
235.715	-0.07
235.932	0.16
236.149	0.02
236.367	-0.09
236.584	0.05
236.801	-0.1
237.018	0.17
237.236	0.04
237.453	-0.06
237.67	0.24
237.887	-0.03
238.104	0.02
238.321	-0.05
238.538	0.03
238.755	0.09
238.973	-0.15
239.19	0.04
239.407	0.03
239.624	0.14
239.841	-0.05
240.058	0.06
240.275	0.08
240.492	-0.02
240.709	0.01
240.925	-0.04
241.142	0.01
241.359	-0.07
241.576	-0.07
241.793	0.02
242.01	0.02
242.227	0.03
242.444	0.08
242.66	0.13
242.877	0.08
243.094	-0.04
243.311	0.03
243.527	0.03
243.744	0.14
243.961	0.16
244.178	0.06
244.394	0.01
244.611	0.22
244.828	0.21
245.044	-0.06
245.261	0.02
245.477	0.11
245.694	0.12
245.911	0.01
246.127	0.09
246.344	0.15
246.56	0.02
246.777	0.04
246.993	-0.04
247.21	0.08
247.426	-0.03
247.643	0.01
247.859	-0.12
248.076	0.01
248.292	0.22
248.508	-0.02
248.725	0.09
248.941	0.1
249.157	0.12
249.374	0
249.59	0.06
249.806	0.04
250.023	0.06
250.239	-0.01
250.455	-0.03
250.671	-0.01
250.888	0.1
251.104	0.04
251.32	0.03
251.536	0.04
251.752	0.02
251.969	0.07
252.185	0.05
252.401	0.14
252.617	0.07
252.833	-0.05
253.049	0.05
253.265	0.06
253.481	0.03
253.697	0.02
253.913	-0.08
254.129	0.13
254.345	0.07
254.561	0.02
254.777	0.01
254.993	0.1
255.209	0.09
255.425	0.05
255.641	0
255.857	0.14
256.073	0.03
256.288	-0.08
256.504	0.01
256.72	0.02
256.936	0.15
257.152	0.04
257.367	-0.07
257.583	0.12
257.799	0.08
258.015	0.01
258.23	0
258.446	0.18
258.662	0.08
258.877	-0.08
259.093	-0.06
259.309	0.1
259.524	0.02
259.74	-0.03
259.955	-0.03
260.171	-0
260.387	0.07
260.602	0.08
260.818	0.14
261.033	-0.01
261.249	-0.02
261.464	-0.01
261.68	-0.08
261.895	0.07
262.11	0.11
262.326	0
262.541	0.02
262.757	0.1
262.972	0.05
263.187	0.03
263.403	0.04
263.618	0.06
263.833	0.07
264.049	-0
264.264	0.04
264.479	0.11
264.694	0.15
264.91	-0.04
265.125	0.03
265.34	0.07
265.555	0.16
265.77	0.08
265.986	0.06
266.201	0.04
266.416	0.17
266.631	0
266.846	0.05
267.061	0.07
267.276	0.08
267.491	-0.05
267.706	0.12
267.921	0.08
268.136	0.06
268.351	0.03
268.566	-0.03
268.781	0.2
268.996	0.12
269.211	0.06
269.426	-0.08
269.641	0.01
269.856	0.04
270.071	0
270.285	-0.01
270.5	0.03
270.715	0.09
270.93	0.01
271.145	-0.02
271.359	0.08
271.574	-0.04
271.789	0.09
272.004	-0.02
272.218	0.02
272.433	0.08
272.648	0
272.862	0.07
273.077	0.03
273.292	0.01
273.506	-0.01
273.721	-0.04
273.936	0.07
274.15	0.11
274.365	0.07
274.579	0.12
274.794	0.05
275.008	0.08
275.223	-0.07
275.437	0.06
275.652	0.1
275.866	0.04
276.081	0.06
276.295	0.08
276.509	0.03
276.724	0.06
276.938	0.05
277.153	0.09
277.367	0.03
277.581	-0.03
277.796	0.08
278.01	-0.04
278.224	0.09
278.438	0.15
278.653	-0.06
278.867	-0.01
279.081	-0.14
279.295	0.04
279.51	0.03
279.724	-0.05
279.938	0.07
280.152	0.04
280.366	0.06
280.58	0.05
280.794	0.16
281.008	0.04
281.222	0.05
281.437	0.12
281.651	0.08
281.865	0.09
282.079	-0.01
282.293	-0.09
282.507	-0.02
282.721	0.06
282.935	0.02
283.148	-0.05
283.362	0
283.576	-0.02
283.79	0.04
284.004	-0.03
284.218	0.1
284.432	-0.02
284.646	0.04
284.859	0.03
285.073	0.02
285.287	0.03
285.501	0.01
285.714	0.05
285.928	0.06
286.142	0.03
286.356	-0.02
286.569	0
286.783	0.09
286.997	0.11
287.21	0.07
287.424	0.06
287.637	0.03
287.851	0.02
288.065	0.07
288.278	-0.03
288.492	0.08
288.705	0.05
288.919	0.09
289.132	-0.07
289.346	0.09
289.559	-0.03
289.773	-0.05
289.986	0
290.2	0.03
290.413	0.08
290.626	-0.03
290.84	-0
291.053	0.04
291.267	0.07
291.48	0.01
291.693	0.03
291.906	-0
292.12	0.02
292.333	-0.01
292.546	0.04
292.76	0.1
292.973	0.02
293.186	0.05
293.399	0.03
293.612	0.07
293.826	0.02
294.039	0.04
294.252	-0.01
294.465	0.05
294.678	0.05
294.891	0.07
295.104	-0
295.317	0.05
295.53	0.03
295.743	0.05
295.956	0.04
296.169	0.08
296.382	0.07
296.595	0.03
296.808	0.02
297.021	0.06
297.234	0.05
297.447	0.03
297.66	0.01
297.873	0.08
298.086	0.01
298.299	0
298.511	-0.01
298.724	-0.02
298.937	0.01
299.15	0
299.363	0.02
299.575	0.07
299.788	0.04
300.001	0.01
300.213	-0
300.426	-0.02
300.639	-0.02
300.852	0.02
301.064	0.07
301.277	0.06
301.489	0.05
301.702	0.07
301.915	0.06
302.127	0.02
302.34	0.03
302.552	0.06
302.765	-0
302.977	0.05
303.19	0.01
303.402	0.03
303.615	0.01
303.827	-0
304.04	0.04
304.252	0.07
304.464	0.04
304.677	0.14
304.889	0.1
305.102	0.04
305.314	0.02
305.526	0.11
305.739	0.05
305.951	-0.03
306.163	0.04
306.375	0.06
306.588	-0.03
306.8	-0.02
307.012	-0.02
307.224	0.05
307.436	0.1
307.649	-0.03
307.861	0.02
308.073	0.05
308.285	0.05
308.497	0.01
308.709	-0.01
308.921	0.06
309.133	0.06
309.346	-0.01
309.558	0.04
309.77	0.04
309.982	0.1
310.194	0.04
310.406	-0.03
310.617	0.08
310.829	0.06
311.041	0.06
311.253	-0.02
311.465	-0
311.677	0.04
311.889	0.03
312.101	-0.01
312.313	0.06
312.524	0.08
312.736	-0.04
312.948	0.02
313.16	0.09
313.372	0.05
313.583	0.03
313.795	0.01
314.007	-0
314.218	0.1
314.43	0.01
314.642	-0.01
314.853	0.01
315.065	0.1
315.277	0.04
315.488	0.03
315.7	0.1
315.912	0.1
316.123	-0.01
316.335	0.06
316.546	0.13
316.758	0.01
316.969	-0.04
317.181	0.08
317.392	-0
317.604	0.07
317.815	-0.02
318.026	0.04
318.238	-0.01
318.449	0.05
318.661	-0.01
318.872	-0.03
319.083	-0.04
319.295	0.06
319.506	0
319.717	0.03
319.929	0.05
320.14	0.02
320.351	0.05
320.562	-0.01
320.774	-0.01
320.985	0.04
321.196	-0.04
321.407	-0.03
321.618	0.08
321.829	0.02
322.041	0.07
322.252	-0.01
322.463	0.08
322.674	-0
322.885	-0.01
323.096	-0
323.307	0.02
323.518	0.02
323.729	0.02
323.94	0.01
324.151	0
324.362	0
324.573	0.07
324.784	-0.04
324.995	0.08
325.206	0.02
325.417	0.01
325.628	0.02
325.838	0.04
326.049	0.04
326.26	0.07
326.471	0.03
326.682	0.08
326.892	0.03
327.103	-0.02
327.314	-0.03
327.525	0.07
327.735	0.04
327.946	0.04
328.157	0
328.368	0.06
328.578	-0.02
328.789	0.08
328.999	0.01
329.21	0.02
329.421	0.04
329.631	0.01
329.842	-0.04
330.052	0.09
330.263	0.07
330.473	0.04
330.684	0.03
330.894	0.01
331.105	0.07
331.315	0.01
331.526	-0.03
331.736	0.09
331.947	0.11
332.157	0.05
332.367	0
332.578	0.04
332.788	0.05
332.999	0.03
333.209	0.03
333.419	-0.06
333.629	0.03
333.84	0.06
334.05	0.02
334.26	0.07
334.47	0.04
334.681	0.1
334.891	0.01
335.101	0.04
335.311	0.09
335.521	-0.03
335.732	0.01
335.942	0.09
336.152	0.05
336.362	0.03
336.572	0.04
336.782	0.04
336.992	0
337.202	-0.02
337.412	-0
337.622	0.05
337.832	0.02
338.042	0.03
338.252	-0
338.462	-0
338.672	0.01
338.882	0.05
339.092	0.02
339.302	0.09
339.511	0.04
339.721	0
339.931	0
340.141	0.08
340.351	0.09
340.561	0.01
340.77	0.06
340.98	0.05
341.19	0.05
341.4	0.03
341.609	-0.01
341.819	0.01
342.029	-0.03
342.238	0.03
342.448	-0
342.658	0.06
342.867	0.02
343.077	0.03
343.286	0.04
343.496	0.02
343.706	0.08
343.915	-0.03
344.125	0.02
344.334	0.04
344.544	-0.04
344.753	0.02
344.963	0.02
345.172	0.02
345.381	-0.03
345.591	-0.01
345.8	0.01
346.01	0.07
346.219	0.06
346.428	-0.13
346.638	0.01
346.847	0.03
347.056	0.08
347.266	-0.01
347.475	0
347.684	0.07
347.893	0.06
348.103	0.05
348.312	0.04
348.521	0.01
348.73	0.05
348.94	0.06
349.149	0.02
349.358	-0.01
349.567	-0.05
349.776	-0.01
349.985	0.01
350.194	0.08
350.403	0.07
350.612	-0.01
350.821	-0.01
351.03	0.03
351.239	0
351.448	0.04
351.657	-0.01
351.866	0.1
352.075	-0.05
352.284	0.06
352.493	-0.01
352.702	0.07
352.911	0.03
353.12	0.01
353.329	-0
353.538	0.04
353.746	0.01
353.955	-0
354.164	0.04
354.373	-0.03
354.582	0.05
354.79	0.06
354.999	0.05
355.208	0.01
355.416	0.11
355.625	-0.02
355.834	-0
356.042	-0.01
356.251	0.03
356.46	-0
356.668	0.06
356.877	0.13
357.085	0.06
357.294	-0.08
357.503	0.06
357.711	0.03
357.92	0.11
358.128	0.06
358.337	-0
358.545	0.05
358.754	-0.01
358.962	0.08
359.17	0.04
359.379	0.04
359.587	0.05
359.796	0.05
360.004	0.07
360.212	0.05
360.421	0.07
360.629	0.05
360.837	0.05
361.046	0.02
361.254	0.12
361.462	0.05
361.67	0.01
361.879	0.04
362.087	0.1
362.295	0.04
362.503	0.03
362.711	-0.04
362.92	0.01
363.128	0.03
363.336	0.01
363.544	-0.03
363.752	-0.01
363.96	-0.03
364.168	-0.01
364.376	-0.01
364.584	0.02
364.792	0.08
365	0.03
365.208	0.01
365.416	0.05
365.624	0.04
365.832	0.02
366.04	0.08
366.248	0.07
366.456	0.03
366.664	0.04
366.872	0.02
367.079	0.03
367.287	0.06
367.495	0.04
367.703	0.02
367.911	0.02
368.118	0.02
368.326	-0
368.534	-0.01
368.742	0.05
368.949	-0
369.157	-0.01
369.365	0.04
369.572	0.02
369.78	0.02
369.988	0.05
370.195	0.08
370.403	0.04
370.61	0.03
370.818	0.04
371.026	0.07
371.233	-0.02
371.441	0.03
371.648	0.05
371.856	0.03
372.063	0.05
372.271	-0
372.478	-0.02
372.685	-0
372.893	0.08
373.1	0.01
373.308	0.01
373.515	0.08
373.722	0.07
373.93	0
374.137	0.07
374.344	0.07
374.552	0.09
374.759	0.04
374.966	0.05
375.173	0.01
375.381	0.06
375.588	-0
375.795	-0.05
376.002	0.04
376.209	-0.03
376.417	0.01
376.624	0.02
376.831	0.01
377.038	0.02
377.245	-0.1
377.452	0.01
377.659	-0.01
377.866	0.01
378.073	0.02
378.28	0.06
378.487	0.03
378.694	0.05
378.901	0.04
379.108	0.03
379.315	0.05
379.522	0.11
379.729	0.06
379.936	-0.01
380.143	0
380.35	0.02
380.557	-0
380.763	0.01
380.97	0.03
381.177	-0.01
381.384	0.04
381.591	0.05
381.797	0.05
382.004	0.04
382.211	0.04
382.418	-0
382.624	0.06
382.831	0.06
383.038	-0.01
383.244	0.02
383.451	-0.01
383.658	0.03
383.864	-0
384.071	-0.03
384.277	0.06
384.484	0.03
384.69	0.04
384.897	0.02
385.103	0.02
385.31	-0.04
385.516	-0
385.723	-0.02
385.929	0.02
386.136	0
386.342	-0.01
386.549	0.01
386.755	0.08
386.961	0.02
387.168	-0
387.374	0.04
387.58	0.01
387.787	0.03
387.993	0.04
388.199	0.02
388.406	-0
388.612	0.03
388.818	-0.02
389.024	-0.02
389.231	0.04
389.437	0.08
389.643	0.03
389.849	0.03
390.055	0.01
390.261	0.02
390.467	0.03
390.674	-0.02
390.88	0.05
391.086	0.03
391.292	-0.03
391.498	0.07
391.704	0.06
391.91	0.01
392.116	0.01
392.322	-0.05
392.528	0.01
392.734	0.02
392.94	0.05
393.146	-0
393.352	0.03
393.557	0.01
393.763	-0.02
393.969	0.05
394.175	0.03
394.381	0.04
394.587	-0
394.792	0.01
394.998	0.05
395.204	0.04
395.41	0
395.615	0.03
395.821	0.02
396.027	0.05
396.233	0.02
396.438	0.01
396.644	0.05
396.85	0.06
397.055	0.03
397.261	0.02
397.466	0.1
397.672	0.01
397.878	0.04
398.083	0.03
398.289	-0.01
398.494	0.07
398.7	0.03
398.905	-0.03
399.111	0.08
399.316	-0.02
399.522	0.02
399.727	0.03
399.932	-0.01
400.138	-0.02
400.343	0.04
400.549	0.04
400.754	0.02
400.959	0.05
401.165	-0.01
401.37	0.08
401.575	0.15
401.78	0.02
401.986	-0.04
402.191	0.01
402.396	-0.02
402.601	0.08
402.807	0.04
403.012	0
403.217	0.09
403.422	0
403.627	-0.01
403.832	-0.02
404.037	0.06
404.243	0.01
404.448	-0.01
404.653	0.04
404.858	0.03
405.063	0.05
405.268	0.03
405.473	0
405.678	-0.03
405.883	0.1
406.088	0.06
406.293	-0.05
406.498	-0
406.703	0.07
406.907	0.01
407.112	-0.02
407.317	0.02
407.522	0.03
407.727	-0.02
407.932	0.05
408.136	0.1
408.341	-0.01
408.546	0.03
408.751	0.01
408.956	-0.01
409.16	0.09
409.365	0
409.57	-0
409.774	-0.02
409.979	0.11
410.184	0.02
410.388	-0.02
410.593	0.08
410.798	0.01
411.002	-0.03
411.207	0.03
411.411	0.02
411.616	-0.03
411.82	-0.03
412.025	0.07
412.229	-0.05
412.434	0.08
412.638	0.03
412.843	-0.02
413.047	0.05
413.252	-0.03
413.456	0.01
413.66	0.07
413.865	-0
414.069	0.09
414.273	-0.01
414.478	0
414.682	-0.01
414.886	0.01
415.091	-0.03
415.295	-0.07
415.499	0.01
415.703	-0
415.908	0.04
416.112	-0.07
416.316	0.04
416.52	-0.01
416.724	-0.03
416.929	-0.04
417.133	0.1
417.337	0.01
417.541	-0.04
417.745	-0.01
417.949	-0.01
418.153	0.06
418.357	-0.07
418.561	0.09
418.765	-0
418.969	0.15
419.173	0.02
419.377	-0.06
419.581	0.08
419.785	0
419.989	-0.06
420.193	-0.01
420.397	0.02
420.601	0.08
420.804	0.06
421.008	0.05
421.212	-0.02
421.416	0.02
421.62	-0.01
421.823	0.04
422.027	0.11
422.231	0.05
422.435	0.01
422.638	0.04
422.842	0.02
423.046	0.01
423.249	0.04
423.453	0.04
423.657	0.03
423.86	-0.03
424.064	-0.01
424.268	0.05
424.471	0
424.675	0.14
424.878	0.09
425.082	0.02
425.285	0.07
425.489	0.02
425.692	0
425.896	-0.03
426.099	0.1
426.303	0.03
426.506	-0.05
426.71	0.01
426.913	0.05
427.116	0.07
427.32	0.04
427.523	-0.02
427.726	0.1
427.93	-0.03
428.133	0.07
428.336	-0.01
428.54	-0.02
428.743	0.07
428.946	0.06
429.149	0.01
429.353	0.02
429.556	0.03
429.759	0.01
429.962	0.05
430.165	0.02
430.368	0.05
430.571	0.01
430.775	-0
430.978	-0
431.181	0.05
431.384	0.06
431.587	0.01
431.79	0.02
431.993	-0.05
432.196	-0.03
432.399	0.01
432.602	0.1
432.805	-0.01
433.008	0.03
433.211	-0.04
433.414	0.02
433.616	0.06
433.819	0.04
434.022	-0.07
434.225	0.07
434.428	0.02
434.631	0.09
434.833	0.02
435.036	0.03
435.239	0.07
435.442	0.01
435.645	-0.04
435.847	0.02
436.05	0.06
436.253	-0
436.455	0.04
436.658	0.04
436.861	0.04
437.063	-0
437.266	-0.02
437.468	0.03
437.671	0.15
437.874	0.01
438.076	-0.03
438.279	-0.05
438.481	0.01
438.684	-0.01
438.886	0.03
439.089	-0.03
439.291	0.01
439.494	0.01
439.696	-0.02
439.899	0.01
440.101	-0.02
440.303	-0.03
440.506	0.03
440.708	0.04
440.91	0.04
441.113	-0.04
441.315	0.01
441.517	-0.01
441.72	0.09
441.922	-0.01
442.124	-0.03
442.326	0.04
442.529	0.06
442.731	-0.03
442.933	0.12
443.135	0.02
443.337	0.01
443.539	0.01
443.742	0.03
443.944	0.03
444.146	-0
444.348	0.01
444.55	-0.03
444.752	0.05
444.954	-0.06
445.156	0
445.358	0.03
445.56	0.06
445.762	-0.01
445.964	-0
446.166	-0.03
446.368	-0.04
446.57	0.07
446.772	0.03
446.974	0.02
447.175	0.06
447.377	-0.03
447.579	-0.05
447.781	-0.08
447.983	0.08
448.184	0.02
448.386	0
448.588	-0.06
448.79	0.01
448.991	-0.02
449.193	-0.03
449.395	0.04
449.597	0.02
449.798	0.04
450	-0.01
450.202	0.01
450.403	0.02
450.605	0.07
450.806	0.02
451.008	-0.1
451.21	-0.01
451.411	0.03
451.613	-0.01
451.814	0.05
452.016	0.04
452.217	0.02
452.419	0.1
452.62	0.03
452.821	0.03
453.023	0.1
453.224	0.05
453.426	-0.03
453.627	0.03
453.828	0.06
454.03	0.04
454.231	0.03
454.432	-0.03
454.634	0.14
454.835	-0.02
455.036	-0.05
455.238	0.03
455.439	0.05
455.64	-0.02
455.841	-0.04
456.042	0.12
456.244	0.06
456.445	0
456.646	-0.06
456.847	0.03
457.048	0.04
457.249	0.09
457.45	0.19
457.651	-0.03
457.852	0.04
458.054	0.02
458.255	0.03
458.456	0.07
458.657	0.06
458.858	0.01
459.058	-0
459.259	0.07
459.46	-0.01
459.661	-0
459.862	0.12
460.063	0.03
460.264	0.08
460.465	-0.02
460.666	0.12
460.866	-0.01
461.067	0.02
461.268	0.01
461.469	0.04
461.67	0.06
461.87	0.01
462.071	-0.03
462.272	-0
462.473	0
462.673	0.08
462.874	-0.02
463.075	-0
463.275	-0.02
463.476	-0
463.676	0.06
463.877	0.05
464.078	0.01
464.278	0.06
464.479	-0.01
464.679	0.03
464.88	0.03
465.08	0.12
465.281	-0.02
465.481	-0.01
465.682	0.04
465.882	0.05
466.083	0.02
466.283	-0
466.483	-0.02
466.684	-0.03
466.884	-0
467.085	-0.01
467.285	0.05
467.485	-0.01
467.686	0.02
467.886	0
468.086	0
468.286	0.01
468.487	0.02
468.687	-0.04
468.887	-0.03
469.087	0.02
469.287	0.02
469.488	-0.04
469.688	0.04
469.888	0.05
470.088	0.06
470.288	0.07
470.488	0.06
470.688	0.02
470.888	0.03
471.088	-0.01
471.288	0.06
471.488	0.06
471.688	0.04
471.888	0.03
472.088	0.05
472.288	0.03
472.488	-0
472.688	-0.03
472.888	0.03
473.088	-0.02
473.288	0.03
473.488	0.04
473.688	0.09
473.887	0.03
474.087	-0
474.287	0.04
474.487	-0.02
474.687	0.06
474.886	0.04
475.086	-0
475.286	0.04
475.486	0.05
475.685	0.01
475.885	-0.01
476.085	0.02
476.284	0.05
476.484	0.01
476.684	0.05
476.883	0.07
477.083	0.08
477.282	0
477.482	0.05
477.681	0.06
477.881	0.01
478.08	-0.02
478.28	-0.04
478.479	0.03
478.679	0.08
478.878	0.01
479.078	-0.01
479.277	0.01
479.477	0
479.676	0.09
479.875	-0.01
480.075	-0.05
480.274	0.01
480.473	0.02
480.673	-0.01
480.872	0.03
481.071	0.04
481.271	-0.01
481.47	0.02
481.669	-0.01
481.868	-0.03
482.067	-0.01
482.267	-0
482.466	-0.01
482.665	-0.03
482.864	-0.02
483.063	-0.02
483.262	0.04
483.461	0.04
483.661	0.05
483.86	0.03
484.059	0.02
484.258	0.01
484.457	0
484.656	0.03
484.855	0.04
485.054	-0.02
485.253	-0.02
485.452	-0.01
485.651	-0
485.849	0
486.048	-0.01
486.247	-0.05
486.446	0
486.645	-0.01
486.844	-0.01
487.043	-0
487.241	0.03
487.44	-0.02
487.639	-0
487.838	0.04
488.037	0.01
488.235	0.06
488.434	0.02
488.633	-0.01
488.831	0.04
489.03	0.03
489.229	0.03
489.427	0
489.626	0.02
489.825	0.05
490.023	0
490.222	-0
490.42	0.03
490.619	0.05
490.817	0.02
491.016	0.01
491.214	0.03
491.413	0.02
491.611	-0
491.81	0
492.008	0.04
492.207	0.03
492.405	0.01
492.604	-0.02
492.802	-0
493	0.02
493.199	-0.02
493.397	0.01
493.595	0.01
493.794	-0.01
493.992	0.04
494.19	0.01
494.388	0.01
494.587	-0.02
494.785	0.02
494.983	-0.02
495.181	0.01
495.379	0.01
495.578	-0
495.776	0.03
495.974	0
496.172	0.02
496.37	-0.01
496.568	-0.03
496.766	-0.01
496.964	0.05
497.162	0.01
497.36	-0.01
497.558	0.04
497.756	0.03
497.954	-0
498.152	-0.01
498.35	-0.01
498.548	-0
498.746	0.02
498.944	-0.03
499.142	-0.03
499.34	-0.02
499.538	-0
499.736	-0.01
499.933	0.03
500.131	0.05
500.329	0.01
500.527	0.05
500.725	0.03
500.922	0.01
501.12	0.02
501.318	0.03
501.516	0.01
501.713	0.02
501.911	-0.01
502.109	-0.03
502.306	0.01
502.504	-0.02
502.701	-0.01
502.899	0
503.097	0.06
503.294	0.02
503.492	0.01
503.689	0.02
503.887	0.04
504.084	0.05
504.282	0.02
504.479	-0.02
504.677	-0
504.874	0
505.072	-0
505.269	0
505.466	0.06
505.664	0.02
505.861	-0.04
506.059	-0.02
506.256	0.03
506.453	-0.01
506.651	0.05
506.848	0.02
507.045	0.02
507.242	0.01
507.44	0
507.637	0
507.834	-0
508.031	0.03
508.229	-0.02
508.426	0.01
508.623	0.01
508.82	-0.02
509.017	-0
509.214	0.02
509.411	-0
509.608	0.01
509.805	-0.01
510.003	0
510.2	-0.02
510.397	0.02
510.594	-0
510.791	-0.01
510.988	0
511.184	0.02
511.381	0.03
511.578	-0
511.775	0.04
511.972	0
512.169	-0.01
512.366	0.02
512.563	0.02
512.76	0
512.956	0.03
513.153	0
513.35	0.03
513.547	-0.01
513.744	0.01
513.94	-0.03
514.137	0.01
514.334	0.01
514.53	0
514.727	0.01
514.924	0.06
515.12	0
515.317	-0.03
515.514	0.02
515.71	-0.03
515.907	0.02
516.103	0.02
516.3	0.02
516.497	0.03
516.693	0.04
516.89	-0
517.086	-0.01
517.283	0.02
517.479	0.01
517.676	0.01
517.872	0.01
518.068	0
518.265	-0.02
518.461	0.01
518.658	-0.02
518.854	0.03
519.05	0
519.247	0.01
519.443	0.03
519.639	0.03
519.836	0.02
520.032	0.02
520.228	0.02
520.424	0.06
520.621	-0
520.817	-0.01
521.013	0.04
521.209	0.01
521.405	0.04
521.601	0.01
521.798	0.02
521.994	0.03
522.19	-0.01
522.386	-0.01
522.582	0.03
522.778	0.02
522.974	-0.02
523.17	0.01
523.366	0
523.562	0.02
523.758	0.01
523.954	-0.01
524.15	-0
524.346	0.02
524.542	-0.01
524.738	-0.01
524.934	0.01
525.129	-0.01
525.325	0.03
525.521	0.01
525.717	0.04
525.913	0.02
526.109	0.01
526.304	-0.01
526.5	0.02
526.696	0.02
526.892	0.01
527.087	0.03
527.283	-0.02
527.479	0.03
527.674	-0
527.87	0.01
528.066	0
528.261	0.02
528.457	0.02
528.653	-0.02
528.848	0.01
529.044	0.03
529.239	-0.01
529.435	0.03
529.63	0.03
529.826	0.05
530.021	0.02
530.217	-0
530.412	-0
530.608	-0
530.803	-0
530.999	0
531.194	-0.03
531.389	0.03
531.585	-0
531.78	0.01
531.975	0
532.171	0.03
532.366	0.01
532.561	0.01
532.757	0
532.952	0.02
533.147	0.04
533.342	0.01
533.538	-0
533.733	0.04
533.928	-0
534.123	-0.01
534.318	-0.01
534.513	0
534.709	0.01
534.904	-0
535.099	0
535.294	0.01
535.489	-0
535.684	-0
535.879	-0.03
536.074	0
536.269	-0
536.464	-0
536.659	0
536.854	0.01
537.049	0.03
537.244	0.01
537.439	-0.02
537.634	0.02
537.828	0
538.023	0.02
538.218	-0.03
538.413	0.01
538.608	-0.02
538.803	0.04
538.997	-0.02
539.192	0.04
539.387	0.03
539.582	0.01
539.776	0.02
539.971	-0.01
540.166	0.02
540.36	-0.03
540.555	0.02
540.75	-0
540.944	0.01
541.139	0
541.334	0.01
541.528	0.03
541.723	0.03
541.917	0.01
542.112	-0.01
542.306	0.01
542.501	0
542.695	0.02
542.89	-0.01
543.084	0.01
543.279	0.02
543.473	0.01
543.668	0
543.862	0.01
544.056	0.03
544.251	0
544.445	0.02
544.64	0.01
544.834	-0.02
545.028	0.01
545.222	0.02
545.417	0.03
545.611	0.02
545.805	0.02
546	-0
546.194	0.02
546.388	0.01
546.582	0.04
546.776	-0.01
546.97	0.02
547.165	0.02
547.359	0.03
547.553	-0
547.747	0.01
547.941	0.01
548.135	0.02
548.329	0.02
548.523	0.04
548.717	-0.01
548.911	-0
549.105	0.04
549.299	-0
549.493	0.03
549.687	0.02
549.881	0.03
550.075	0.02
550.269	-0.01
550.463	0.02
550.657	0.01
550.85	0.01
551.044	-0.01
551.238	-0
551.432	-0.01
551.626	0
551.82	0.02
552.013	0
552.207	0.03
552.401	0.06
552.594	0.01
552.788	0.01
552.982	0.01
553.176	-0
553.369	0.02
553.563	0.04
553.756	-0.02
553.95	-0.01
554.144	0.03
554.337	0.04
554.531	0
554.724	0.03
554.918	-0
555.111	0.03
555.305	0.02
555.498	0.07
555.692	0.02
555.885	-0.02
556.079	0.02
556.272	0.01
556.466	0.03
556.659	0.01
556.852	0.02
557.046	0.02
557.239	0.03
557.432	-0.02
557.626	-0
557.819	0.03
558.012	0.03
558.206	0.04
558.399	0.02
558.592	0.01
558.785	-0.01
558.979	0.05
559.172	0
559.365	0.03
559.558	0.03
559.751	0.02
559.944	0.02
560.138	0.02
560.331	-0.01
560.524	-0.01
560.717	0.04
560.91	0.03
561.103	0.05
561.296	0.03
561.489	0.03
561.682	0.03
561.875	0.04
562.068	0.03
562.261	0.03
562.454	0.04
562.647	0.01
562.84	0.04
563.032	-0.01
563.225	0.03
563.418	0.03
563.611	0.03
563.804	0.02
563.997	-0.01
564.19	-0.02
564.382	-0.04
564.575	0.01
564.768	-0
564.961	-0.01
565.153	-0.02
565.346	0.04
565.539	0.03
565.731	0.03
565.924	0.04
566.117	0.06
566.309	0.02
566.502	-0.01
566.695	0
566.887	0.01
567.08	-0.01
567.272	-0.01
567.465	-0
567.657	0.03
567.85	0.03
568.042	0.03
568.235	0.04
568.427	0.04
568.62	0.04
568.812	0.02
569.005	0.01
569.197	-0.02
569.389	0.02
569.582	0.02
569.774	0.04
569.966	0.01
570.159	0
570.351	0.01
570.543	0.01
570.736	0
570.928	0.01
571.12	0.01
571.312	-0.01
571.505	-0.02
571.697	0.03
571.889	-0
572.081	0.01
572.273	0.01
572.465	0.06
572.658	0.01
572.85	0.05
573.042	0.03
573.234	0.02
573.426	0.05
573.618	-0
573.81	0.02
574.002	0.04
574.194	0.06
574.386	0.01
574.578	-0.05
574.77	0
574.962	0
575.154	-0.01
575.346	0.02
575.538	0.03
575.729	-0
575.921	0.01
576.113	0.01
576.305	0.04
576.497	0.01
576.689	0.03
576.88	0.01
577.072	0.03
577.264	0
577.456	0
577.647	-0.03
577.839	0.01
578.031	0.05
578.223	-0.01
578.414	0
578.606	0.03
578.798	0.03
578.989	-0.01
579.181	0.01
579.372	0.01
579.564	0.02
579.755	0.03
579.947	0.04
580.139	0.04
580.33	-0.05
580.522	0
580.713	-0.05
580.905	0.03
581.096	0.03
581.287	0.04
581.479	0.04
581.67	0.03
581.862	0.04
582.053	0.01
582.244	-0.01
582.436	0.02
582.627	-0.01
582.818	0.02
583.01	-0.02
583.201	0.07
583.392	0.06
583.583	0.03
583.775	0.02
583.966	0.03
584.157	0.01
584.348	0.03
584.54	-0.01
584.731	0.03
584.922	0.02
585.113	0.01
585.304	0.06
585.495	0.06
585.686	0.03
585.877	0.03
586.068	0.03
586.259	0.04
586.45	0.02
586.641	0.03
586.832	-0.03
587.023	0.02
587.214	0.02
587.405	0.04
587.596	0.02
587.787	0.07
587.978	0.05
588.169	0.02
588.36	0.01
588.551	0.05
588.742	0
588.932	0.04
589.123	0.02
589.314	0.06
589.505	0.05
589.696	0.05
589.886	0.01
590.077	0
590.268	0.04
590.458	-0.01
590.649	-0
590.84	0.09
591.03	0.01
591.221	0
591.412	0
591.602	0.06
591.793	0.08
591.984	0
592.174	0.03
592.365	0.12
592.555	0.01
592.746	0.04
592.936	0.06
593.127	0.06
593.317	0.06
593.508	0.04
593.698	0.02
593.889	0.04
594.079	0.03
594.269	0.04
594.46	0.03
594.65	0.04
594.84	0.04
595.031	0.03
595.221	0.04
595.411	0.01
595.602	0.09
595.792	0.03
595.982	0.03
596.172	0.12
596.363	0.07
596.553	0.06
596.743	0.05
596.933	0.06
597.123	0.09
597.314	0.03
597.504	0.05
597.694	0.08
597.884	0.09
598.074	0.03
598.264	0.05
598.454	0.07
598.644	0.05
598.834	0.04
599.024	0.04
599.214	0.04
599.404	0.07
599.594	0.06
599.784	0.04
599.974	0.08
600.164	0.08
600.354	0.06
600.544	0.02
600.734	0.09
600.924	0.1
601.114	0.06
601.303	0.09
601.493	0.07
601.683	0.08
601.873	0.09
602.063	0.05
602.252	0.11
602.442	0.04
602.632	0.06
602.821	0.03
603.011	0.09
603.201	0.06
603.39	0.07
603.58	0.06
603.77	0.09
603.959	0.09
604.149	0.11
604.339	0.06
604.528	0.13
604.718	0.12
604.907	0.07
605.097	0.08
605.286	0.09
605.476	0.15
605.665	0.11
605.855	0.1
606.044	0.15
606.234	0.14
606.423	0.1
606.612	0.08
606.802	0.13
606.991	0.13
607.181	0.14
607.37	0.09
607.559	0.1
607.749	0.13
607.938	0.14
608.127	0.14
608.316	0.14
608.506	0.14
608.695	0.15
608.884	0.1
609.073	0.15
609.263	0.16
609.452	0.19
609.641	0.18
609.83	0.16
610.019	0.15
610.208	0.14
610.397	0.16
610.586	0.21
610.775	0.14
610.965	0.16
611.154	0.16
611.343	0.16
611.532	0.2
611.721	0.18
611.91	0.18
612.099	0.19
612.287	0.18
612.476	0.16
612.665	0.22
612.854	0.17
613.043	0.23
613.232	0.21
613.421	0.19
613.61	0.23
613.798	0.22
613.987	0.28
614.176	0.26
614.365	0.28
614.554	0.24
614.742	0.27
614.931	0.23
615.12	0.31
615.309	0.25
615.497	0.28
615.686	0.25
615.875	0.29
616.063	0.3
616.252	0.29
616.44	0.29
616.629	0.29
616.818	0.34
617.006	0.32
617.195	0.3
617.383	0.35
617.572	0.36
617.76	0.36
617.949	0.35
618.137	0.36
618.326	0.37
618.514	0.36
618.703	0.33
618.891	0.43
619.079	0.35
619.268	0.44
619.456	0.4
619.644	0.45
619.833	0.41
620.021	0.43
620.209	0.41
620.398	0.49
620.586	0.46
620.774	0.52
620.962	0.49
621.151	0.54
621.339	0.52
621.527	0.5
621.715	0.5
621.903	0.51
622.092	0.51
622.28	0.59
622.468	0.57
622.656	0.56
622.844	0.62
623.032	0.6
623.22	0.54
623.408	0.67
623.596	0.68
623.784	0.68
623.972	0.66
624.16	0.67
624.348	0.7
624.536	0.72
624.724	0.7
624.912	0.78
625.1	0.74
625.288	0.75
625.476	0.76
625.664	0.79
625.851	0.78
626.039	0.82
626.227	0.84
626.415	0.83
626.603	0.78
626.79	0.93
626.978	0.92
627.166	0.96
627.354	0.91
627.541	0.91
627.729	0.9
627.917	1.03
628.104	1.06
628.292	1.02
628.48	1.07
628.667	1.09
628.855	1.13
629.042	1.17
629.23	1.12
629.418	1.17
629.605	1.17
629.793	1.19
629.98	1.19
630.168	1.21
630.355	1.27
630.543	1.34
630.73	1.27
630.917	1.35
631.105	1.4
631.292	1.38
631.48	1.42
631.667	1.45
631.854	1.47
632.042	1.47
632.229	1.51
632.416	1.57
632.604	1.56
632.791	1.55
632.978	1.66
633.165	1.64
633.353	1.76
633.54	1.8
633.727	1.68
633.914	1.72
634.101	1.67
634.289	1.9
634.476	1.82
634.663	1.86
634.85	1.92
635.037	1.88
635.224	1.91
635.411	2.04
635.598	2.02
635.785	2.08
635.972	2.12
636.159	2.17
636.346	2.19
636.533	2.21
636.72	2.28
636.907	2.25
637.094	2.27
637.281	2.3
637.468	2.4
637.655	2.42
637.842	2.51
638.029	2.51
638.215	2.55
638.402	2.61
638.589	2.63
638.776	2.65
638.963	2.69
639.149	2.85
639.336	2.85
639.523	2.88
639.709	2.91
639.896	2.94
640.083	3.03
640.27	3.11
640.456	3.06
640.643	3.18
640.829	3.11
641.016	3.24
641.203	3.26
641.389	3.37
641.576	3.4
641.762	3.5
641.949	3.47
642.135	3.6
642.322	3.67
642.508	3.64
642.695	3.83
642.881	3.84
643.068	3.89
643.254	4.02
643.441	4.05
643.627	4.18
643.813	4.09
644	4.33
644.186	4.34
644.372	4.47
644.559	4.54
644.745	4.58
644.931	4.64
645.118	4.81
645.304	4.77
645.49	4.91
645.676	5.03
645.862	5.08
646.049	5.29
646.235	5.22
646.421	5.58
646.607	5.56
646.793	5.57
646.979	5.63
647.165	5.81
647.352	5.82
647.538	5.91
647.724	6.06
647.91	6.19
648.096	6.27
648.282	6.46
648.468	6.51
648.654	6.68
648.84	6.76
649.026	6.86
649.212	6.93
649.397	7.02
649.583	7.14
649.769	7.39
649.955	7.41
650.141	7.66
650.327	7.6
650.513	7.81
650.698	8.04
650.884	7.95
651.07	8.24
651.256	8.32
651.442	8.51
651.627	8.43
651.813	8.8
651.999	8.81
652.184	8.94
652.37	9.15
652.556	9.22
652.741	9.31
652.927	9.27
653.113	9.6
653.298	9.61
653.484	9.78
653.669	10.03
653.855	10.11
654.04	10.25
654.226	10.36
654.412	10.36
654.597	10.48
654.782	10.78
654.968	10.76
655.153	10.99
655.339	11.04
655.524	11.22
655.71	11.39
655.895	11.52
656.08	11.5
656.266	11.91
656.451	11.68
656.636	11.81
656.822	11.98
657.007	12.06
657.192	12.1
657.378	12.06
657.563	12.05
657.748	12.22
657.933	12.36
658.118	12.1
658.304	12.51
658.489	12.44
658.674	12.36
658.859	12.27
659.044	12.28
659.229	12.26
659.414	12.38
659.599	12.26
659.785	11.91
659.97	11.94
660.155	11.85
660.34	11.73
660.525	11.53
660.71	11.28
660.895	11.2
661.08	11.08
661.264	10.6
661.449	10.55
661.634	10.17
661.819	10.15
662.004	9.65
662.189	9.55
662.374	9.4
662.559	9
662.743	8.71
662.928	8.59
663.113	8.24
663.298	8.03
663.483	7.74
663.667	7.49
663.852	7.29
664.037	7.09
664.221	6.82
664.406	6.58
664.591	6.42
664.775	6.2
664.96	5.85
665.145	5.59
665.329	5.49
665.514	5.26
665.698	5.06
665.883	4.74
666.068	4.77
666.252	4.55
666.437	4.44
666.621	4.15
666.806	4.02
666.99	3.85
667.174	3.73
667.359	3.67
667.543	3.45
667.728	3.36
667.912	3.18
668.096	3.11
668.281	2.91
668.465	2.93
668.649	2.8
668.834	2.61
669.018	2.61
669.202	2.49
669.387	2.44
669.571	2.36
669.755	2.2
669.939	2.15
670.124	2.17
670.308	2.06
670.492	2.02
670.676	1.89
670.86	1.78
671.044	1.74
671.228	1.77
671.413	1.65
671.597	1.55
671.781	1.53
671.965	1.48
672.149	1.44
672.333	1.38
672.517	1.35
672.701	1.29
672.885	1.25
673.069	1.14
673.253	1.24
673.437	1.15
673.621	1.09
673.804	1.09
673.988	1.04
674.172	1.01
674.356	0.91
674.54	0.94
674.724	0.96
674.908	0.85
675.091	0.9
675.275	0.84
675.459	0.83
675.643	0.75
675.826	0.78
676.01	0.76
676.194	0.71
676.377	0.73
676.561	0.7
676.745	0.62
676.928	0.66
677.112	0.64
677.296	0.55
677.479	0.54
677.663	0.5
677.846	0.5
678.03	0.5
678.213	0.45
678.397	0.5
678.58	0.46
678.764	0.44
678.947	0.39
679.131	0.38
679.314	0.43
679.498	0.38
679.681	0.42
679.865	0.42
680.048	0.34
680.231	0.33
680.415	0.34
680.598	0.34
680.781	0.33
680.965	0.32
681.148	0.31
681.331	0.3
681.514	0.3
681.698	0.26
681.881	0.28
682.064	0.29
682.247	0.31
682.43	0.23
682.614	0.24
682.797	0.31
682.98	0.24
683.163	0.15
683.346	0.25
683.529	0.21
683.712	0.2
683.895	0.25
684.078	0.16
684.261	0.17
684.444	0.22
684.627	0.28
684.81	0.18
684.993	0.2
685.176	0.2
685.359	0.19
685.542	0.13
685.725	0.26
685.908	0.2
686.091	0.17
686.274	0.22
686.457	0.16
686.639	0.16
686.822	0.16
687.005	0.15
687.188	0.16
687.371	0.22
687.553	0.19
687.736	0.2
687.919	0.22
688.102	0.15
688.284	0.14
688.467	0.14
688.65	0.09
688.832	0.1
689.015	0.13
689.197	0.12
689.38	0.18
689.563	0.21
689.745	0.06
689.928	0.11
690.11	0.15
690.293	0.1
690.475	0.08
690.658	0.13
690.84	0.07
691.023	0.08
691.205	0.1
691.388	0.1
691.57	0.14
691.752	0.16
691.935	0.03
692.117	0.08
692.3	0.1
692.482	0.09
692.664	0.1
692.847	0.15
693.029	0.14
693.211	0.1
693.393	0.11
693.576	0.03
693.758	0.09
693.94	0.03
694.122	0.09
694.304	0.06
694.487	0.08
694.669	0.12
694.851	0.01
695.033	0.12
695.215	0.1
695.397	0.02
695.579	0.07
695.761	-0
695.943	-0.07
696.125	0.13
696.308	0.12
696.49	0.01
696.671	0.15
696.853	0.08
697.035	0.17
697.217	0.06
697.399	0.09
697.581	0.05
697.763	0.11
697.945	0.02
698.127	0.06
698.309	0.18
698.491	0.04
698.672	0.07
698.854	0.06
699.036	0.1
699.218	0.02
699.399	0.13
699.581	0.13
699.763	0.06
699.945	0.06
700.126	0.04
700.308	0.05
700.49	0.06
700.671	0.03
700.853	-0.04
701.035	0.07
701.216	0.07
701.398	0.04
701.579	0.03
701.761	0.08
701.943	0.03
702.124	-0
702.306	0.07
702.487	0.17
702.669	0.06
702.85	0.02
703.031	-0
703.213	0.14
703.394	0.17
703.576	-0.01
703.757	0.19
703.938	0.11
704.12	0.18
704.301	0.08
704.483	0.03
704.664	0.1
704.845	0.12
705.026	0.06
705.208	0.12
705.389	0.06
705.57	0.05
705.751	0.06
705.933	0.06
706.114	0.09
706.295	0.09
706.476	-0.03
706.657	0.12
706.838	0.08
707.02	0.11
707.201	0.07
707.382	0.01
707.563	0.13
707.744	-0.01
707.925	0.02
708.106	0.03
708.287	-0
708.468	0.09
708.649	0.06
708.83	0.08
709.011	0.01
709.192	0.08
709.373	-0.07
709.554	0.04
709.734	0.1
709.915	0.07
710.096	0.07
710.277	-0.02
710.458	0.06
710.639	0.04
710.819	-0.05
711	0.04
711.181	0.06
711.362	0.04
711.542	-0
711.723	0.03
711.904	0.07
712.085	0.14
712.265	0.08
712.446	-0.02
712.627	0.04
712.807	0.04
712.988	-0.01
713.168	-0.05
713.349	0.05
713.53	-0.02
713.71	0.02
713.891	-0.01
714.071	0.04
714.252	0.01
714.432	-0.03
714.613	-0.02
714.793	0.07
714.974	0.12
715.154	0.1
715.334	0.14
715.515	0.12
715.695	-0.08
715.876	0.04
716.056	-0.01
716.236	0.07
716.417	0.04
716.597	-0.05
716.777	0.15
716.957	-0.02
717.138	0.07
717.318	0.08
717.498	-0.05
717.678	0.04
717.859	0.03
718.039	-0.04
718.219	0.05
718.399	0.06
718.579	-0.04
718.759	0.03
718.939	0.07
719.12	0.06
719.3	0.09
719.48	-0.03
719.66	-0.03
719.84	0.15
720.02	0.06
720.2	-0.04
720.38	0.03
720.56	0.04
720.74	0.08
720.92	0.02
721.1	0.17
721.279	0.13
721.459	0.03
721.639	-0.04
721.819	0.03
721.999	0.07
722.179	0.12
722.359	-0.08
722.538	0
722.718	-0
722.898	-0.03
723.078	0.01
723.257	0.05
723.437	0.06
723.617	0.04
723.797	0.03
723.976	0.05
724.156	0.11
724.336	0.14
724.515	0.23
724.695	-0.06
724.874	-0.03
725.054	0.05
725.234	0.02
725.413	0.13
725.593	0.02
725.772	-0.03
725.952	0.02
726.131	0.05
726.311	0.07
726.49	0.04
726.67	0.04
726.849	-0.03
727.028	0.06
727.208	0.01
727.387	0.07
727.567	-0.06
727.746	0.03
727.925	-0.03
728.105	-0.06
728.284	0
728.463	-0.04
728.643	0.01
728.822	0.01
729.001	-0.01
729.18	0.04
729.359	0.03
729.539	0.07
729.718	0.03
729.897	0.05
730.076	-0.02
730.255	-0.06
730.434	0.11
730.614	0.12
730.793	0.15
730.972	0.04
731.151	0.05
731.33	0.11
731.509	0.12
731.688	0.06
731.867	0.01
732.046	-0.11
732.225	0.21
732.404	-0.01
732.583	0.01
732.762	0.01
732.941	0.16
733.12	0.15
733.298	-0.05
733.477	0.12
733.656	0.07
733.835	-0.05
734.014	0.13
734.193	0.02
734.371	0.05
734.55	0.06
734.729	-0.07
734.908	0.14
735.086	0.05
735.265	0.1
735.444	-0.14
735.623	-0.13
735.801	-0.08
735.98	0.07
736.159	0.01
736.337	0.19
736.516	0.07
736.694	0.07
736.873	0.05
737.052	0.12
737.23	0.18
737.409	-0.01
737.587	0.16
737.766	-0.14
737.944	-0.04
738.123	0.16
738.301	0.03
738.479	-0.08
738.658	0.09
738.836	-0.05
739.015	0.02
739.193	0.11
739.371	-0.06
739.55	0.06
739.728	-0.01
739.906	0.19
740.085	0.22
740.263	0.04
740.441	-0.13
740.62	0.16
740.798	0.06
740.976	-0.09
741.154	-0.06
741.332	0.12
741.511	-0.04
741.689	0.11
741.867	0.09
742.045	0.02
742.223	-0.04
742.401	-0.07
742.579	-0.04
742.757	0
742.935	-0.12
743.114	-0.04
743.292	0.06
743.47	0.05
743.648	0.12
743.826	0.04
744.004	0.19
744.181	0.14
744.359	0.01
744.537	0.06
744.715	0.12
744.893	0.02
745.071	0.01
745.249	-0.02
745.427	-0.01
745.605	0.08
745.782	0.12
745.96	0.03
746.138	0.16
746.316	0.15
746.493	-0.01
746.671	0.11
746.849	0.08
747.027	0.15
747.204	-0.07
747.382	0.18
747.56	-0.1
747.737	0.02
747.915	-0.03
748.093	0.1
748.27	-0.01
748.448	0.01
748.625	-0.06
748.803	-0.03
748.98	0.01
749.158	0.06
749.335	0.12
749.513	-0.02
749.69	0.01
749.868	0.1
750.045	0.13
750.223	0.02
750.4	-0.13
750.578	0.21
750.755	0.11
750.932	-0.19
751.11	0.13
751.287	-0.05
751.464	0.19
751.642	-0.09
751.819	0.04
751.996	0.02
752.173	0.03
752.351	-0.06
752.528	0.09
752.705	0
752.882	-0.04
753.06	0.02
753.237	0.12
753.414	0.19
753.591	0.22
753.768	0.03
753.945	-0.04
754.122	-0
754.299	0.11
754.476	-0.03
754.654	0.04
754.831	0.1
755.008	0.09
755.185	-0.05
755.362	-0.06
755.539	-0.02
755.716	0.01
755.892	0.03
756.069	-0.05
756.246	-0.04
756.423	0.03
756.6	0.1
756.777	0
756.954	0.1
757.131	0.03
757.307	-0.13
757.484	-0.08
757.661	0.09
757.838	0.06
758.015	-0.07
758.191	0.08
758.368	0.14
758.545	0.16
758.721	0.03
758.898	-0.1
759.075	0.19
759.251	0.1
759.428	0.15
759.605	-0.15
759.781	0.05
759.958	0.14
760.134	0.03
760.311	0
760.488	0.07
760.664	0.13
760.841	-0
761.017	-0.03
761.194	0.08
761.37	0.1
761.547	0.08
761.723	0.04
761.899	0.17
762.076	-0.04
762.252	-0.1
762.429	0
762.605	0.08
762.781	-0.05
762.958	0.16
763.134	-0.04
763.31	-0.03
763.486	0.14
763.663	-0.03
763.839	0.13
764.015	-0.16
764.191	-0.17
764.368	0.02
764.544	-0.06
764.72	0.09
764.896	0.19
765.072	0.05
765.248	-0.07
765.425	0.05
765.601	-0.13
765.777	0
765.953	-0.1
766.129	-0.07
766.305	-0.01
766.481	0.03
766.657	0.05
766.833	0.14
767.009	-0.03
767.185	-0.02
767.361	-0.05
767.537	-0.14
767.713	0.1
767.889	-0.1
768.065	0.06
768.24	0.21
768.416	0.06
768.592	-0.01
768.768	-0.01
768.944	0.06
769.12	-0.19
769.295	0.05
769.471	0.03
769.647	-0.06
769.823	0.11
769.998	-0.01
770.174	-0.1
770.35	0.42
770.525	0.27
770.701	0.1
770.877	0.07
771.052	-0.08
771.228	0.12
771.403	0.1
771.579	0.1
771.755	0.33
771.93	0.1
772.106	-0.19
772.281	-0.26
772.457	0.02
772.632	0.07
772.808	-0.07
772.983	0
773.159	-0.16
773.334	0.28
773.509	-0.14
773.685	0.07
773.86	0.35
774.036	0.24
774.211	0.07
774.386	-0.01
774.562	-0.04
774.737	0.04
774.912	-0.06
775.087	0.13
775.263	0.02
775.438	0
775.613	-0.13
775.788	0.05
775.964	0.03
776.139	0.3
776.314	-0.21
776.489	0.22
776.664	0.19
776.839	-0.13
777.014	0.16
777.19	0.25
777.365	0.28
777.54	0.25
777.715	0.09
777.89	-0.09
778.065	0.03
778.24	0.12
778.415	0.11
778.59	-0.08
778.765	0.02
778.94	0.13
779.115	-0.04
779.289	-0.07
779.464	-0.04
779.639	0.06
779.814	-0.09
779.989	-0.05
780.164	0.29
780.339	0.29
780.513	0.01
780.688	-0.14
780.863	0.19
781.038	0.16
781.212	-0.07
781.387	-0.05
781.562	0.38
781.737	0.08
781.911	0.16
782.086	-0.04
782.261	0.07
782.435	0.27
782.61	-0.15
782.784	-0.05
782.959	0.26
783.134	-0.1
783.308	0.01
783.483	0.09
783.657	0.38
783.832	0.14
784.006	-0.46
784.181	0.13
784.355	0.19
784.53	-0.14
784.704	0.16
784.878	0.49
785.053	0.1
785.227	0.3
785.402	0.31
785.576	0.06
785.75	0.16
785.925	-0.01
786.099	0.05
786.273	0.17
786.448	0.19
786.622	0.11
786.796	-0.17
786.97	0.08
787.145	0.54
787.319	-0.31
787.493	-0.06
787.667	-0.15
787.841	-0.09
788.015	0.14
788.19	-0.04
788.364	0.24
788.538	0.31
788.712	0.23
788.886	-0.06
789.06	0.19
789.234	0.13
789.408	-0.19
789.582	-0.05
789.756	-0
789.93	-0.16
790.104	0.13
790.278	-0.02
790.452	-0.05
790.626	0.26
790.8	-0.15
790.973	0.18
791.147	0.5
791.321	0.18
791.495	0.07
791.669	0.06
791.843	0.26
792.016	0.22
792.19	0.43
792.364	-0.02
792.538	0.44
792.711	0.28
792.885	0.08
793.059	-0.06
793.233	-0.39
793.406	0.39
793.58	0.02
793.754	0.12
793.927	-0.04
794.101	0.36
794.274	-0.16
794.448	0.32
794.622	-0.22
794.795	0.46
794.969	-0.15
795.142	0.35
795.316	-0.26
795.489	0.01
795.663	0.37
795.836	0.19
796.009	-0.08
796.183	0.24
796.356	0.3
796.53	0.11
796.703	-0.01
796.876	0.67
797.05	-0.02
797.223	-0.05
797.396	0.16
797.57	0.23
797.743	0.45
797.916	0.11
798.09	0.18
798.263	0.28
798.436	0.02
798.609	-0.07
798.782	0.03
798.956	0.15
799.129	-0.04
799.302	0.06
799.475	0.08
799.648	0.19
799.821	-0.07
799.994	0.31
800.167	-0.12
800.34	0.03
800.514	0.31
800.687	0.03
800.86	-0.25
801.033	0.18
801.206	0.31
801.379	-0.13
801.551	0.48
801.724	0.15
801.897	0.36
802.07	-0.11
802.243	-0.5
802.416	-0.1
802.589	-0.07
802.762	0.17
802.935	-0.1
803.107	0.28
803.28	0.38
803.453	0.31
803.626	-0.15
803.798	0.06
803.971	-0.3
804.144	0.06
804.317	0.34
804.489	0.12
804.662	0
804.835	0.48
805.007	-0.14
805.18	0.49
805.353	0.31
805.525	-0.05
805.698	-0.07
805.87	0.32
806.043	0.36
806.215	-0.03
806.388	0.14
806.56	0.07
806.733	0.3
806.905	0.1
807.078	0.08
807.25	-0.31
807.423	0.28
807.595	0
807.768	0.22
807.94	0.58
808.112	0.22
808.285	-0.07
808.457	-0.03
808.629	0.38
808.802	0.21
808.974	0.11
809.146	0.22
809.318	-0.04
809.491	0.06
809.663	0.44
809.835	-0.39
810.007	0.25
810.18	0.18
810.352	0.1
810.524	-0.2
810.696	-0.1
810.868	0.37
811.04	-0.2
811.212	0.12
811.384	0.45
811.556	-0.05
811.728	0.04
811.901	0.95
812.073	0.09
812.245	0.5
812.417	0.32
812.589	-0.5
812.76	0.27
812.932	0.35
813.104	0.32
813.276	-0.05
813.448	0.51
813.62	-0.07
813.792	0.4
813.964	-0.04
814.136	0.08
814.307	-0.1
814.479	0.03
814.651	-0.07
814.823	0.64
814.995	-0.02
815.166	0.04
815.338	-0.23
815.51	-0.11
815.681	0.94
815.853	-0.01
816.025	-0.18
816.196	0.27
816.368	0.15
816.54	-0.54
816.711	-0.43
816.883	0.14
817.054	0.59
817.226	-0.04
817.398	0
817.569	-0.01
817.741	0.22
817.912	0.35
818.084	0.25
818.255	0.39
818.426	-0.02
818.598	0
818.769	0.07
818.941	0.34
819.112	0.54
819.283	0.31
819.455	-0.27
819.626	0.12
819.798	0.45
819.969	0.43
820.14	0.09
820.311	0.02
820.483	0.31
820.654	-0.06
820.825	0.27
820.996	-0.06
821.168	-0.3
821.339	-0.01
821.51	-0.35
821.681	0.02
821.852	0.13
822.023	-0.28
822.195	-0.14
822.366	0.55
822.537	0.29
822.708	0.08
822.879	-0.07
823.05	0.81
823.221	-0.08
823.392	-0.33
823.563	0.09
823.734	0.21
823.905	-0.06
824.076	0.11
824.247	-0.38
824.418	-0.3
824.589	0.44
824.759	-0.38
824.93	0.19
825.101	-0.35
825.272	0.73
825.443	0.33
825.614	0.71
825.784	-0.58
825.955	1.03
826.126	0.82
826.297	-0.04
826.467	0.78
826.638	0.73
826.809	-1.01
826.98	0.49
827.15	0.37
827.321	-0.28
827.492	0.51
827.662	0.04
827.833	1.68
828.003	0.19
828.174	-0.51
828.345	-0.3
828.515	0.34
828.686	0.5
828.856	0.06
829.027	-0
829.197	0.61
829.368	0.06
829.538	-0.04
829.709	0.27
829.879	0.47
830.049	0.34
830.22	-0.58
830.39	0.08
830.56	0.06
830.731	-0.07
830.901	0.19
831.072	0.05
831.242	0.38
831.412	0.05
831.582	0.27
831.753	-0.46
831.923	-0.16
832.093	0.6
832.263	-0.11
832.434	-0.59
832.604	-0.14
832.774	0.36
832.944	-0.29
833.114	-0.13
833.284	0.6
833.454	-0.55
833.624	-0.47
833.795	0.05
833.965	0.63
834.135	0.74
834.305	-0.85
834.475	-0.64
834.645	-0.15
834.815	-0.6
834.985	-0.25
835.155	-0.17
835.325	0.73
835.494	0.51
835.664	0.05
835.834	-0.64
836.004	0.02
836.174	0.84
836.344	0.17
836.514	-0.39
836.684	0.34
836.853	1.35
837.023	0.25
837.193	-0.22
837.363	1.02
837.532	0.87
837.702	-0.3
837.872	-0.35
838.041	0.83
838.211	1.25
838.381	-0.27
838.55	0.25
838.72	1.83
838.89	1.22
839.059	-0.45
839.229	-0.25
839.398	1.61
839.568	0.52
839.738	0.09
839.907	0.89
840.077	0.46
840.246	0.03
840.416	-0.36
840.585	-0.49
840.755	0.82
840.924	0.46
841.093	-0.43
841.263	0.1
841.432	0.85
841.602	-0.9
841.771	-1.02
841.94	0.52
842.11	1.88
842.279	1.01
842.448	-0.66
842.617	-0.35
842.787	1.48
842.956	-0.77
843.125	0.23
843.294	0.37
843.464	1.77
843.633	0.41
843.802	-0.59
843.971	0.55
844.14	1.32
844.309	0.84
844.479	-0.3
844.648	-0.35
844.817	0.18
844.986	-0.22
845.155	0.1
845.324	0.01
845.493	0.13
845.662	-0.91
845.831	1.03
846	1.21
846.169	0.03
846.338	1.7
846.507	0.49
846.676	0.7
846.844	-0.27
847.013	1.32
847.182	0.18
847.351	0.13
847.52	0.5
847.689	0.15
847.858	0.6
848.026	-0.6
848.195	-0.26
848.364	-0.14
848.533	-0.33
848.701	-0.38
848.87	0.14
849.039	1.62
849.207	0.94
849.376	1.23
849.545	1.71
849.713	-0.17
849.882	0.52
850.051	0.76
850.219	0.56
850.388	1.43
850.556	0.14
850.725	-0.31
850.893	0.53
851.062	0.49
851.23	1.16
851.399	-1.05
851.567	-0.92
851.736	-0.27
851.904	-1.16
852.073	0.07
852.241	1.56
852.41	0.76
852.578	0.7
852.746	-0.69
852.915	0.83
853.083	0.03
853.251	-0.75
853.42	-0.79
853.588	-0.13
853.756	1.63
853.924	0.41
854.093	-0.85
854.261	-1.13
854.429	-0.76
854.597	0.9
854.765	-0.48
854.934	0.12
855.102	1.58
855.27	0.28
855.438	0.64
855.606	1.41
855.774	1.06
855.942	-0.9
856.11	-1.62
856.278	0.58
856.446	-0.12
856.614	0.43
856.782	-1.09
856.95	0.85
857.118	0.24
857.286	1.1
857.454	-0.09
857.622	-0.18
857.79	0.49
857.958	-0.37
858.126	-0.57
858.294	-2.38
858.462	-0.35
858.629	0.19
858.797	-1.26
858.965	0.11
859.133	0.81
859.301	-0.75
859.468	0.43
859.636	-0.88
859.804	2.03
859.971	0.87
860.139	-0.95
860.307	0.57
860.474	0.97
860.642	-0.87
860.81	-0.39
860.977	-0.77
861.145	1.35
861.313	0.03
861.48	1.23
861.648	0.74
861.815	-0.19
861.983	-1.11
862.15	0.11
862.318	1.33
862.485	1.07
862.653	-0.51
862.82	-0.52
862.988	1.7
863.155	1.05
863.322	-0.42
863.49	-0.9
863.657	-0.04
863.824	3.02
863.992	0.91
864.159	0.19
864.326	1.63
864.494	-1.26
864.661	1.93
864.828	-1.99
864.996	1.13
865.163	1.6
865.33	-0.27
865.497	-1.79
865.664	0.13
865.832	-1.03
865.999	-0.41
866.166	-0.4
866.333	-0.85
866.5	1.38
866.667	1.02
866.834	1.3
867.001	1.32
867.168	-1.36
867.335	0.1
867.502	-1.31
867.669	0.78
867.836	2.19
868.003	-0.08
868.17	-0.36
868.337	-0.29
868.504	2.49
868.671	-0.9
868.838	0.44
869.005	0.32
869.172	0.92
869.339	-0.25
869.505	1.3
869.672	0.06
869.839	1.27
870.006	0.07
870.173	-0.46
870.339	-0.26
870.506	3.96
870.673	-2.41
870.84	2.24
871.006	1.44
871.173	-0.58
871.34	0.68
871.506	-1.06
871.673	0.32
871.839	-1.05
872.006	0.06
872.173	-0.43
872.339	0.19
872.506	2.89
872.672	0.26
872.839	-1.49
873.005	-1
873.172	2.68
873.338	2.26
873.505	-0.14
873.671	-0.12
873.838	0.03
874.004	-1.84
874.171	-0.47
874.337	0.71
874.503	1.28
874.67	0.63
874.836	-0.16
875.002	2.14
875.169	1.11
875.335	1.13
875.501	0.52
875.668	2.09
875.834	-0.13
876	-0.73
876.166	2.75
876.332	1.05
876.499	1.15
876.665	-0.26
876.831	-0.48
876.997	4.72
877.163	2.07
877.329	-0.83
877.495	0.64
877.662	-0.5
877.828	1.26
877.994	0.2
878.16	-3.26
878.326	1.34
878.492	0.85
878.658	0.74
878.824	-0
878.99	1.98
879.156	-0.4
879.322	2.01
879.487	-0.25
879.653	0.37
879.819	-1.61
879.985	-0.47
880.151	0.93
880.317	1.17
880.483	1.79
880.648	1.17
880.814	-2.39
880.98	2.84
881.146	-1.69
881.312	-0.7
881.477	-0.21
881.643	1.97
881.809	2.07
881.974	1.29
882.14	-1.88
882.306	2.99
882.471	2.71
882.637	0.26
882.803	2.43
882.968	2.3
883.134	5.03
883.299	-0.08
883.465	0.16
883.63	3.11
883.796	1.43
883.961	2.48
884.127	-0.45
884.292	-3.38
884.458	-2.59
884.623	-2.59
