Data from Apollo_Calib_20240827__AbsoluteIrradiance__638__09-47-00-907.txt Node

Date: Wed Aug 28 09:47:00 BST 2024
User: biology
Spectrometer: FLMT08252
Trigger mode: 0
Integration Time (sec): 5.000000E-1
Scans to average: 5
Electric dark correction enabled: true
Nonlinearity correction enabled: false
Boxcar width: 0
XAxis mode: Wavelengths
Number of Pixels in Spectrum: 3648
>>>>>Begin Spectral Data<<<<<
179.588	-0
179.809	-0
180.03	-0
180.251	-0
180.473	-0
180.694	0
180.915	0
181.136	-0
181.357	0
181.578	-0
181.799	-0
182.02	-0
182.241	-0
182.462	-0
182.683	0
182.904	-0
183.125	-0
183.346	-0
183.567	-0
183.788	-0
184.009	-0
184.23	-0
184.451	-0
184.672	-0
184.892	-0
185.113	0
185.334	0
185.555	-0
185.776	-0
185.996	0
186.217	-0
186.438	0
186.659	-0
186.879	0
187.1	-0
187.321	-0
187.541	-0
187.762	-0
187.983	-0
188.203	-0
188.424	-0
188.644	-0
188.865	0
189.086	-0
189.306	-0
189.527	0
189.747	0
189.968	-0
190.188	0
190.409	-0
190.629	0
190.849	-0
191.07	0
191.29	0
191.511	0
191.731	-0
191.951	-0
192.172	0
192.392	-0
192.612	-0
192.833	-0
193.053	-0
193.273	0
193.493	-0
193.714	0
193.934	0
194.154	0
194.374	0
194.594	0
194.815	-0
195.035	-0
195.255	0
195.475	-0
195.695	0
195.915	0
196.135	0
196.355	0
196.575	0
196.795	-0
197.015	-0
197.235	-0
197.455	-0
197.675	0
197.895	-0
198.115	-0
198.335	0
198.555	0
198.775	0
198.995	0
199.214	0
199.434	0
199.654	-0
199.874	0
200.094	0.98
200.313	-0.76
200.533	-0.55
200.753	-0.92
200.973	0.75
201.192	0.57
201.412	-1.12
201.632	-0.21
201.851	0.51
202.071	-0.58
202.291	-0.15
202.51	-1.32
202.73	0.22
202.95	-0.3
203.169	-0.48
203.389	-0.14
203.608	-0.09
203.828	-0.53
204.047	-0.31
204.267	0.26
204.486	0.31
204.706	0.03
204.925	-0.06
205.145	-0.24
205.364	0.29
205.583	0.56
205.803	-0.16
206.022	-0.32
206.242	-0.12
206.461	0.21
206.68	-0.32
206.9	0.02
207.119	0.45
207.338	0.42
207.557	-0.24
207.777	-0.16
207.996	-0.06
208.215	0.49
208.434	-0.3
208.654	-0.58
208.873	0.6
209.092	0.39
209.311	0.03
209.53	-0.01
209.749	-0.21
209.968	-0.35
210.187	0.08
210.407	-0.4
210.626	-0.07
210.845	0.23
211.064	-0.16
211.283	-0.4
211.502	0.35
211.721	-0.26
211.94	-0.03
212.159	0.01
212.377	0.12
212.596	0.2
212.815	0.01
213.034	0.15
213.253	0.16
213.472	0.2
213.691	0.01
213.91	-0.31
214.128	-0.15
214.347	0.52
214.566	-0.48
214.785	-0.42
215.003	0.21
215.222	0.08
215.441	0.11
215.66	-0.36
215.878	-0.09
216.097	0.06
216.316	-0.2
216.534	-0.03
216.753	-0
216.972	-0.15
217.19	-0.14
217.409	-0.13
217.627	-0.25
217.846	-0.09
218.064	0.09
218.283	-0.13
218.501	0.37
218.72	0.02
218.938	-0.11
219.157	-0.07
219.375	0.14
219.594	0.13
219.812	-0.26
220.031	0
220.249	0.24
220.467	0.22
220.686	-0.12
220.904	-0.27
221.122	-0.18
221.341	0.35
221.559	-0.02
221.777	-0.2
221.995	-0.01
222.214	0.24
222.432	-0.2
222.65	0.06
222.868	0.11
223.086	0.11
223.305	0.19
223.523	-0.09
223.741	0.24
223.959	-0.04
224.177	-0.25
224.395	-0.13
224.613	-0.07
224.831	0.04
225.049	-0.24
225.267	0.03
225.485	0.13
225.703	-0.12
225.921	-0.02
226.139	-0.15
226.357	0.07
226.575	-0.04
226.793	-0.06
227.011	0.39
227.229	0.08
227.447	0.15
227.665	-0.09
227.883	-0.24
228.1	-0.02
228.318	0.01
228.536	-0.23
228.754	-0.2
228.972	0.11
229.189	-0.03
229.407	-0.08
229.625	-0.08
229.843	0.17
230.06	-0.08
230.278	-0.08
230.496	-0.06
230.713	0
230.931	0.1
231.149	-0.06
231.366	-0.29
231.584	-0
231.801	0.28
232.019	-0.12
232.236	-0.18
232.454	-0.1
232.671	0.06
232.889	-0.05
233.106	-0.11
233.324	0.05
233.541	-0.14
233.759	0.05
233.976	-0.08
234.194	-0.02
234.411	-0.04
234.628	-0.1
234.846	0.01
235.063	-0.1
235.28	-0.08
235.498	-0.01
235.715	-0.13
235.932	0.13
236.149	0.02
236.367	-0.14
236.584	-0.03
236.801	-0.17
237.018	0.05
237.236	-0.02
237.453	-0.18
237.67	0.07
237.887	-0.05
238.104	-0.06
238.321	-0.09
238.538	-0.18
238.755	0.11
238.973	-0.13
239.19	-0.05
239.407	-0.01
239.624	0.01
239.841	-0.1
240.058	-0.06
240.275	0.03
240.492	-0.01
240.709	-0.01
240.925	0.01
241.142	-0.04
241.359	-0.08
241.576	-0.1
241.793	-0.09
242.01	0.04
242.227	0.11
242.444	0.03
242.66	-0.01
242.877	0.04
243.094	-0.04
243.311	-0.05
243.527	0.03
243.744	-0.01
243.961	0.07
244.178	-0.12
244.394	-0.02
244.611	0.11
244.828	0.12
245.044	-0.07
245.261	0.02
245.477	-0.07
245.694	0.02
245.911	-0.09
246.127	-0.01
246.344	0.09
246.56	0.04
246.777	-0.05
246.993	0
247.21	0.05
247.426	-0.01
247.643	-0.05
247.859	-0.12
248.076	-0.05
248.292	0.14
248.508	-0.02
248.725	0.02
248.941	0.04
249.157	0.11
249.374	-0.06
249.59	-0.06
249.806	-0.01
250.023	0.07
250.239	-0.08
250.455	-0.11
250.671	0
250.888	-0
251.104	0.01
251.32	-0.05
251.536	-0.04
251.752	-0.06
251.969	0
252.185	0.02
252.401	0.16
252.617	0.09
252.833	-0.03
253.049	0.01
253.265	0.14
253.481	-0.02
253.697	-0.1
253.913	-0.08
254.129	-0.01
254.345	-0.02
254.561	0.02
254.777	0
254.993	0.01
255.209	0.05
255.425	-0.01
255.641	-0.03
255.857	0.04
256.073	0.04
256.288	-0.17
256.504	-0
256.72	0.04
256.936	0.07
257.152	-0.01
257.367	-0.08
257.583	0
257.799	0.1
258.015	-0.14
258.23	-0.05
258.446	0.04
258.662	0.02
258.877	-0.05
259.093	-0.09
259.309	-0.02
259.524	-0
259.74	-0.03
259.955	-0.06
260.171	-0.02
260.387	-0.02
260.602	0.01
260.818	0.04
261.033	-0.05
261.249	-0.03
261.464	-0.01
261.68	-0.13
261.895	-0
262.11	0.02
262.326	-0.02
262.541	-0.14
262.757	0.06
262.972	-0.02
263.187	0.02
263.403	-0.05
263.618	0.01
263.833	-0.06
264.049	-0.07
264.264	-0.03
264.479	0.04
264.694	0.13
264.91	-0.12
265.125	-0.06
265.34	0.03
265.555	0.13
265.77	-0.02
265.986	0.02
266.201	0.05
266.416	0.07
266.631	0
266.846	0.02
267.061	-0.02
267.276	0.08
267.491	-0.1
267.706	0.03
267.921	-0.03
268.136	-0.02
268.351	-0.02
268.566	-0.08
268.781	0.02
268.996	0.06
269.211	0.01
269.426	-0.05
269.641	-0.01
269.856	0.04
270.071	-0.11
270.285	-0.05
270.5	0.01
270.715	0.01
270.93	-0.02
271.145	0
271.359	0.05
271.574	-0.11
271.789	-0.03
272.004	-0.09
272.218	-0.01
272.433	0.02
272.648	-0.07
272.862	0.03
273.077	0.03
273.292	-0.02
273.506	-0.03
273.721	-0.07
273.936	-0.04
274.15	0.05
274.365	-0.05
274.579	0.02
274.794	0.06
275.008	0.04
275.223	-0.09
275.437	-0.05
275.652	0.08
275.866	0
276.081	-0.05
276.295	0.08
276.509	-0
276.724	0
276.938	-0.03
277.153	0.01
277.367	0.03
277.581	-0.02
277.796	-0.03
278.01	-0.05
278.224	0.06
278.438	0.15
278.653	-0.09
278.867	-0.03
279.081	-0.17
279.295	-0.04
279.51	0.01
279.724	-0.07
279.938	0.03
280.152	0.02
280.366	-0.04
280.58	0.05
280.794	0.07
281.008	0.02
281.222	0.05
281.437	0.09
281.651	0.02
281.865	0.07
282.079	-0.01
282.293	-0.11
282.507	-0.09
282.721	0.02
282.935	0.01
283.148	-0.11
283.362	-0.06
283.576	-0.03
283.79	-0.02
284.004	-0.06
284.218	0.04
284.432	-0.05
284.646	-0.01
284.859	-0.02
285.073	-0.03
285.287	0.03
285.501	-0.04
285.714	-0.04
285.928	0.03
286.142	-0.01
286.356	-0.05
286.569	-0.05
286.783	0.04
286.997	0.06
287.21	-0.03
287.424	0.03
287.637	0.01
287.851	-0.08
288.065	0.05
288.278	0
288.492	0.02
288.705	0.02
288.919	0
289.132	-0.06
289.346	0.03
289.559	-0.11
289.773	-0.07
289.986	0.04
290.2	-0.01
290.413	0.11
290.626	-0.08
290.84	0.01
291.053	-0.01
291.267	0.04
291.48	0.05
291.693	-0
291.906	-0.04
292.12	0.01
292.333	-0.06
292.546	-0.03
292.76	0.07
292.973	-0.01
293.186	0.01
293.399	-0.05
293.612	0.02
293.826	0.02
294.039	0
294.252	-0.03
294.465	0.08
294.678	0.01
294.891	-0
295.104	-0.08
295.317	-0.05
295.53	-0.02
295.743	-0.03
295.956	0.02
296.169	0.05
296.382	0.05
296.595	-0.01
296.808	-0.07
297.021	0.03
297.234	0.06
297.447	0.03
297.66	0.03
297.873	0.04
298.086	0.03
298.299	-0.05
298.511	-0.05
298.724	-0.05
298.937	-0.02
299.15	-0.03
299.363	0.01
299.575	0.01
299.788	0.01
300.001	-0.04
300.213	-0.05
300.426	-0.03
300.639	0.01
300.852	-0.04
301.064	0.02
301.277	0.06
301.489	0.06
301.702	0.05
301.915	0.03
302.127	-0.03
302.34	0.05
302.552	0.04
302.765	-0.03
302.977	-0
303.19	0.01
303.402	-0.05
303.615	-0.02
303.827	-0.03
304.04	-0.01
304.252	0.03
304.464	-0.01
304.677	0.1
304.889	0.06
305.102	-0.08
305.314	-0.02
305.526	0.05
305.739	0.04
305.951	-0.03
306.163	-0.05
306.375	0.06
306.588	-0.02
306.8	-0.02
307.012	-0.08
307.224	0.04
307.436	0.07
307.649	-0.06
307.861	0.03
308.073	0.01
308.285	-0.02
308.497	-0.03
308.709	-0.01
308.921	-0.01
309.133	0.06
309.346	0
309.558	0.02
309.77	0.04
309.982	0.03
310.194	0.04
310.406	-0.03
310.617	0.07
310.829	0.01
311.041	0
311.253	-0.05
311.465	-0.03
311.677	0.02
311.889	0.03
312.101	-0.02
312.313	0.03
312.524	0.03
312.736	-0.04
312.948	0
313.16	0.03
313.372	0.01
313.583	0.04
313.795	0.01
314.007	-0.07
314.218	0.01
314.43	-0.02
314.642	-0.02
314.853	-0.05
315.065	-0
315.277	-0.01
315.488	0.01
315.7	0.04
315.912	-0
316.123	-0.02
316.335	-0
316.546	0.11
316.758	0
316.969	-0.05
317.181	0.03
317.392	-0
317.604	0.04
317.815	-0.04
318.026	-0.01
318.238	0.06
318.449	-0.01
318.661	-0.06
318.872	-0.05
319.083	-0.09
319.295	0.04
319.506	-0.02
319.717	0.02
319.929	0.01
320.14	-0.02
320.351	-0.01
320.562	-0.05
320.774	0.04
320.985	-0.01
321.196	-0.05
321.407	-0.05
321.618	0.04
321.829	0
322.041	0.02
322.252	0.02
322.463	-0
322.674	-0.01
322.885	-0.07
323.096	-0.01
323.307	-0.02
323.518	0
323.729	-0.05
323.94	-0
324.151	-0.03
324.362	-0.01
324.573	-0.01
324.784	-0.04
324.995	0.05
325.206	0.01
325.417	-0.02
325.628	-0.01
325.838	-0.05
326.049	0.01
326.26	0.03
326.471	-0.01
326.682	-0.01
326.892	-0.02
327.103	-0.06
327.314	-0.05
327.525	0.04
327.735	-0.01
327.946	-0.01
328.157	-0.07
328.368	0.02
328.578	-0.07
328.789	0.01
328.999	0
329.21	-0.04
329.421	0.01
329.631	-0.04
329.842	-0.06
330.052	0.05
330.263	0.04
330.473	0.02
330.684	-0.03
330.894	0.02
331.105	-0.02
331.315	-0.01
331.526	-0.09
331.736	0.06
331.947	-0.07
332.157	0.01
332.367	-0.02
332.578	0.04
332.788	0.03
332.999	0
333.209	-0.02
333.419	-0.03
333.629	0.04
333.84	0.03
334.05	-0.02
334.26	0.02
334.47	0.01
334.681	0.09
334.891	-0.01
335.101	0.04
335.311	0.1
335.521	0
335.732	-0.04
335.942	0.05
336.152	0.05
336.362	-0.01
336.572	0.04
336.782	0.01
336.992	-0.02
337.202	-0.02
337.412	-0.01
337.622	0.03
337.832	0.02
338.042	-0
338.252	-0.02
338.462	-0.01
338.672	-0.01
338.882	-0.04
339.092	-0.06
339.302	0.1
339.511	-0
339.721	-0.03
339.931	-0.04
340.141	0.06
340.351	0.02
340.561	-0
340.77	0.02
340.98	-0.03
341.19	-0.01
341.4	-0.04
341.609	-0.01
341.819	-0.02
342.029	-0.08
342.238	0.01
342.448	-0.03
342.658	0.04
342.867	0.02
343.077	0.01
343.286	0.02
343.496	-0.01
343.706	0.08
343.915	-0.06
344.125	-0.01
344.334	0.01
344.544	-0.06
344.753	-0.01
344.963	0.02
345.172	-0.03
345.381	-0.01
345.591	-0.06
345.8	0.03
346.01	0.08
346.219	0.06
346.428	-0.15
346.638	-0.02
346.847	0.02
347.056	0.04
347.266	-0.03
347.475	-0.01
347.684	-0.01
347.893	0.05
348.103	0.02
348.312	-0.03
348.521	0
348.73	-0.02
348.94	0.03
349.149	-0.05
349.358	0
349.567	-0.04
349.776	-0.05
349.985	-0
350.194	0.01
350.403	0
350.612	-0.05
350.821	-0.01
351.03	-0.04
351.239	-0.05
351.448	-0.01
351.657	-0.02
351.866	0.06
352.075	0.03
352.284	-0
352.493	-0.03
352.702	0.01
352.911	0.02
353.12	-0.01
353.329	-0.02
353.538	0.04
353.746	-0.02
353.955	-0.04
354.164	0.01
354.373	-0.03
354.582	0.06
354.79	0.01
354.999	0.03
355.208	0.01
355.416	0.06
355.625	-0.03
355.834	0.01
356.042	-0.01
356.251	-0.02
356.46	-0.02
356.668	-0
356.877	0.07
357.085	0.01
357.294	-0.08
357.503	0
357.711	0.01
357.92	0.06
358.128	0.02
358.337	-0.03
358.545	0.01
358.754	-0.03
358.962	0.03
359.17	-0.02
359.379	0.03
359.587	0.05
359.796	-0.01
360.004	0.05
360.212	-0.01
360.421	0.01
360.629	-0.05
360.837	-0.01
361.046	0.04
361.254	0.1
361.462	-0.01
361.67	-0.03
361.879	-0.02
362.087	0.02
362.295	-0.01
362.503	-0.03
362.711	-0.05
362.92	-0.04
363.128	-0.02
363.336	-0.06
363.544	-0.04
363.752	-0.05
363.96	-0.05
364.168	-0.02
364.376	-0.02
364.584	-0.01
364.792	0.03
365	-0.01
365.208	0.02
365.416	0.04
365.624	0.04
365.832	0.01
366.04	0.06
366.248	-0.02
366.456	0.03
366.664	0.03
366.872	0.02
367.079	0.01
367.287	0.02
367.495	-0.02
367.703	0.04
367.911	-0.01
368.118	0.01
368.326	-0.05
368.534	-0.01
368.742	0.06
368.949	-0.05
369.157	-0.01
369.365	0.01
369.572	-0.03
369.78	-0.04
369.988	0.04
370.195	-0.01
370.403	-0
370.61	-0.02
370.818	0.02
371.026	0.03
371.233	-0
371.441	-0.01
371.648	-0.02
371.856	-0.03
372.063	-0.04
372.271	-0.01
372.478	0.02
372.685	-0.06
372.893	0.09
373.1	-0.01
373.308	0
373.515	0.05
373.722	0.01
373.93	0
374.137	0.04
374.344	0.1
374.552	-0
374.759	0.04
374.966	0.02
375.173	0.02
375.381	0.02
375.588	-0.04
375.795	-0.07
376.002	-0.02
376.209	-0.06
376.417	-0.02
376.624	-0.02
376.831	-0.02
377.038	-0.06
377.245	-0.09
377.452	-0.05
377.659	0.03
377.866	-0.03
378.073	-0.02
378.28	0.01
378.487	0.03
378.694	0.02
378.901	-0
379.108	-0
379.315	0.01
379.522	0.03
379.729	0.01
379.936	-0.03
380.143	-0
380.35	-0.01
380.557	0.01
380.763	-0.01
380.97	-0.02
381.177	0.03
381.384	0.01
381.591	-0.06
381.797	0
382.004	0.01
382.211	0
382.418	-0.03
382.624	0.03
382.831	0.06
383.038	-0.03
383.244	0.01
383.451	-0.02
383.658	0.05
383.864	0
384.071	-0.05
384.277	0.06
384.484	-0.02
384.69	0.03
384.897	-0.02
385.103	0.02
385.31	-0.06
385.516	-0.03
385.723	-0.02
385.929	-0.03
386.136	-0.04
386.342	0.02
386.549	0.01
386.755	0.05
386.961	0.02
387.168	-0.07
387.374	0.01
387.58	-0.01
387.787	0.02
387.993	0.01
388.199	-0.03
388.406	-0.03
388.612	0.01
388.818	-0.05
389.024	-0.04
389.231	0
389.437	0.03
389.643	0.03
389.849	0
390.055	-0.02
390.261	-0.02
390.467	0.04
390.674	-0.05
390.88	-0.01
391.086	-0.01
391.292	-0.02
391.498	0.01
391.704	0.01
391.91	-0.01
392.116	0
392.322	-0.1
392.528	0.02
392.734	-0.04
392.94	-0
393.146	-0.01
393.352	-0.01
393.557	0.01
393.763	-0.03
393.969	-0.01
394.175	0.01
394.381	0
394.587	-0.05
394.792	-0.01
394.998	0.01
395.204	0.02
395.41	-0
395.615	0.02
395.821	0.03
396.027	0.04
396.233	-0.09
396.438	-0.04
396.644	0.07
396.85	0.02
397.055	-0.01
397.261	-0.03
397.466	0.09
397.672	-0.05
397.878	0.01
398.083	0.03
398.289	-0.07
398.494	0.04
398.7	-0
398.905	-0.07
399.111	0.14
399.316	-0.04
399.522	-0.06
399.727	-0.04
399.932	-0
400.138	-0.01
400.343	0.04
400.549	0
400.754	-0
400.959	0.02
401.165	-0.02
401.37	-0.04
401.575	-0.01
401.78	-0
401.986	-0.06
402.191	0.01
402.396	-0.02
402.601	0.03
402.807	0
403.012	-0.02
403.217	0.05
403.422	0.02
403.627	-0
403.832	-0.04
404.037	-0
404.243	0.03
404.448	-0.02
404.653	-0.01
404.858	0
405.063	0.02
405.268	-0.04
405.473	-0.05
405.678	-0.05
405.883	0.1
406.088	0.05
406.293	-0.04
406.498	-0.04
406.703	0.04
406.907	-0.03
407.112	-0
407.317	0.05
407.522	0.01
407.727	-0.05
407.932	-0.03
408.136	0.11
408.341	-0.01
408.546	0.01
408.751	0.01
408.956	0
409.16	0.01
409.365	-0.02
409.57	-0
409.774	-0.03
409.979	0.02
410.184	0.01
410.388	-0.04
410.593	0.02
410.798	-0
411.002	0.01
411.207	0.02
411.411	0.01
411.616	-0.04
411.82	-0.01
412.025	-0
412.229	-0.05
412.434	0.07
412.638	-0.01
412.843	0.01
413.047	0.01
413.252	-0.03
413.456	-0.02
413.66	0.04
413.865	-0.05
414.069	0.03
414.273	-0.04
414.478	-0.03
414.682	-0.02
414.886	-0.04
415.091	-0.02
415.295	-0.09
415.499	0.02
415.703	-0.03
415.908	0
416.112	-0.12
416.316	-0.02
416.52	-0.02
416.724	-0.03
416.929	-0.01
417.133	0.12
417.337	-0.03
417.541	-0.01
417.745	-0.02
417.949	0.03
418.153	-0.01
418.357	-0.01
418.561	0.03
418.765	-0.04
418.969	0.08
419.173	0.03
419.377	-0.04
419.581	0.1
419.785	-0.02
419.989	-0.06
420.193	-0.06
420.397	-0.04
420.601	0.04
420.804	0.03
421.008	0.01
421.212	0
421.416	-0.01
421.62	-0.02
421.823	-0.01
422.027	0.07
422.231	-0.03
422.435	-0.03
422.638	-0
422.842	-0.04
423.046	-0.06
423.249	0.03
423.453	0.04
423.657	0
423.86	0.03
424.064	-0.01
424.268	0.06
424.471	-0.03
424.675	0.1
424.878	0.01
425.082	-0
425.285	0.03
425.489	-0.04
425.692	-0.01
425.896	-0.08
426.099	0.02
426.303	-0.07
426.506	-0.06
426.71	0.02
426.913	0.01
427.116	0.05
427.32	-0
427.523	0.01
427.726	0.08
427.93	-0.06
428.133	0
428.336	-0.1
428.54	-0.01
428.743	0.03
428.946	-0.02
429.149	-0.06
429.353	0
429.556	-0.01
429.759	-0.06
429.962	-0.01
430.165	-0.02
430.368	0.04
430.571	0.01
430.775	0.03
430.978	-0.03
431.181	0.05
431.384	0.01
431.587	-0.02
431.79	0.01
431.993	0.05
432.196	-0
432.399	-0.02
432.602	0.07
432.805	-0.05
433.008	-0.03
433.211	-0.08
433.414	0.05
433.616	0.01
433.819	-0.02
434.022	-0.12
434.225	0.03
434.428	0.02
434.631	0.11
434.833	-0.01
435.036	-0.07
435.239	0.04
435.442	-0
435.645	-0.06
435.847	-0
436.05	0.03
436.253	0.01
436.455	-0.03
436.658	-0.05
436.861	0.08
437.063	-0.02
437.266	-0.02
437.468	-0.03
437.671	0.08
437.874	-0.02
438.076	-0.07
438.279	-0.08
438.481	-0.04
438.684	-0.06
438.886	0.02
439.089	-0.05
439.291	-0.06
439.494	0.04
439.696	-0.04
439.899	-0.05
440.101	0.03
440.303	-0.12
440.506	0.06
440.708	0
440.91	0.01
441.113	-0.06
441.315	0.03
441.517	-0.08
441.72	0.05
441.922	-0.02
442.124	-0.06
442.326	0.02
442.529	0.08
442.731	-0.07
442.933	0.06
443.135	-0.02
443.337	-0.06
443.539	-0.05
443.742	-0.01
443.944	0.01
444.146	-0.04
444.348	-0.01
444.55	-0.05
444.752	-0.01
444.954	-0.07
445.156	0.04
445.358	-0.04
445.56	0.03
445.762	-0.02
445.964	0.01
446.166	-0.04
446.368	-0.05
446.57	0.04
446.772	0.01
446.974	-0.05
447.175	-0.02
447.377	-0.03
447.579	-0.02
447.781	-0.07
447.983	0.06
448.184	0.03
448.386	-0
448.588	-0.06
448.79	0.01
448.991	-0.06
449.193	-0.06
449.395	0.01
449.597	-0.01
449.798	-0.01
450	0.02
450.202	-0.03
450.403	-0.01
450.605	0.03
450.806	0.02
451.008	-0.06
451.21	0.02
451.411	-0.02
451.613	0
451.814	-0.02
452.016	0.04
452.217	0.02
452.419	0.03
452.62	0.01
452.821	0.04
453.023	0.03
453.224	0.05
453.426	-0.07
453.627	0.01
453.828	0.02
454.03	-0.02
454.231	0.01
454.432	-0.06
454.634	0.09
454.835	-0.04
455.036	-0.08
455.238	0.03
455.439	0.03
455.64	-0.09
455.841	-0.04
456.042	0.02
456.244	0.03
456.445	-0.05
456.646	-0.04
456.847	-0.02
457.048	0.08
457.249	0.01
457.45	0.15
457.651	-0.09
457.852	0.08
458.054	0.02
458.255	-0.08
458.456	0.02
458.657	0.02
458.858	-0.09
459.058	-0
459.259	0.02
459.46	-0.01
459.661	-0.04
459.862	0.05
460.063	-0.03
460.264	0.04
460.465	-0.08
460.666	0.07
460.866	-0.01
461.067	0.04
461.268	-0.05
461.469	-0.01
461.67	-0.05
461.87	-0.02
462.071	-0.09
462.272	-0.03
462.473	-0.04
462.673	-0.01
462.874	-0.05
463.075	-0.01
463.275	-0.05
463.476	-0.02
463.676	0.02
463.877	-0
464.078	0.01
464.278	0.04
464.479	-0.01
464.679	-0.04
464.88	-0.04
465.08	0.07
465.281	-0.06
465.481	-0.02
465.682	-0.01
465.882	0.02
466.083	0.03
466.283	0.02
466.483	-0.02
466.684	-0.02
466.884	-0.03
467.085	-0.01
467.285	0.08
467.485	-0.03
467.686	-0.03
467.886	-0.08
468.086	-0.02
468.286	0.01
468.487	-0.01
468.687	-0.03
468.887	-0.04
469.087	-0
469.287	-0.01
469.488	-0.09
469.688	0.01
469.888	0.04
470.088	0.04
470.288	0.08
470.488	0.05
470.688	-0.08
470.888	0
471.088	-0.04
471.288	0.04
471.488	0.03
471.688	-0.01
471.888	-0.03
472.088	0.08
472.288	0.02
472.488	-0.05
472.688	-0.03
472.888	-0.01
473.088	0.05
473.288	-0
473.488	-0.03
473.688	0.05
473.887	0.03
474.087	-0.01
474.287	0.01
474.487	-0.04
474.687	0.03
474.886	0
475.086	-0.01
475.286	0.03
475.486	-0.01
475.685	-0
475.885	-0.04
476.085	-0.01
476.284	0
476.484	-0.01
476.684	0.01
476.883	0.1
477.083	-0
477.282	-0.01
477.482	0.03
477.681	0.06
477.881	0
478.08	-0.05
478.28	-0.02
478.479	0.03
478.679	0.09
478.878	0.01
479.078	-0.02
479.277	-0.01
479.477	-0.02
479.676	0.01
479.875	0
480.075	-0.04
480.274	0.03
480.473	0.02
480.673	-0.05
480.872	0.05
481.071	-0
481.271	0.03
481.47	-0
481.669	0.01
481.868	-0.02
482.067	-0.03
482.267	-0.03
482.466	-0.04
482.665	-0.04
482.864	-0.02
483.063	-0.04
483.262	0
483.461	0.06
483.661	0.01
483.86	0
484.059	0.01
484.258	-0
484.457	-0.02
484.656	-0.01
484.855	0.03
485.054	-0.05
485.253	-0.03
485.452	-0.04
485.651	-0.02
485.849	0.03
486.048	-0.03
486.247	-0.02
486.446	-0.01
486.645	-0.05
486.844	0.01
487.043	-0.02
487.241	-0
487.44	-0.02
487.639	-0.01
487.838	0.02
488.037	0.01
488.235	0.04
488.434	-0.03
488.633	-0.01
488.831	0.01
489.03	0.02
489.229	-0
489.427	-0.01
489.626	-0
489.825	0.06
490.023	-0.01
490.222	-0.03
490.42	0.03
490.619	0.02
490.817	-0
491.016	-0.02
491.214	0.03
491.413	-0.01
491.611	-0.02
491.81	-0.02
492.008	0.02
492.207	0.03
492.405	0.03
492.604	-0.02
492.802	-0.03
493	-0
493.199	-0.02
493.397	0.03
493.595	0
493.794	-0.02
493.992	0.04
494.19	0
494.388	-0.01
494.587	-0.02
494.785	0.02
494.983	-0.03
495.181	0
495.379	-0
495.578	-0.04
495.776	0.01
495.974	-0
496.172	-0.01
496.37	-0.02
496.568	-0.02
496.766	-0.01
496.964	0.01
497.162	0.01
497.36	-0.04
497.558	0.01
497.756	0.02
497.954	-0.01
498.152	-0.02
498.35	-0.01
498.548	-0.02
498.746	0
498.944	-0.03
499.142	-0.02
499.34	-0.04
499.538	0
499.736	-0.02
499.933	0.02
500.131	0.01
500.329	-0.01
500.527	0.02
500.725	0.02
500.922	0.03
501.12	0.02
501.318	0
501.516	-0.02
501.713	-0.01
501.911	-0.01
502.109	-0.04
502.306	0
502.504	-0
502.701	-0.02
502.899	-0.01
503.097	0.04
503.294	-0
503.492	-0.02
503.689	-0
503.887	-0
504.084	0.02
504.282	-0
504.479	-0.03
504.677	0.01
504.874	-0.02
505.072	-0.01
505.269	-0.03
505.466	0
505.664	0.01
505.861	-0.05
506.059	-0.05
506.256	0.01
506.453	-0.02
506.651	0.04
506.848	0.01
507.045	-0.01
507.242	0.02
507.44	-0.01
507.637	-0
507.834	-0.01
508.031	0.01
508.229	-0.03
508.426	-0.01
508.623	0.01
508.82	-0.02
509.017	-0.04
509.214	-0.01
509.411	-0
509.608	-0.02
509.805	-0.01
510.003	-0.02
510.2	-0.01
510.397	0.03
510.594	-0.01
510.791	-0.03
510.988	-0.02
511.184	0
511.381	0
511.578	-0.01
511.775	0.02
511.972	-0.03
512.169	-0.03
512.366	-0
512.563	0.02
512.76	-0.01
512.956	0.02
513.153	-0.01
513.35	0.03
513.547	-0.03
513.744	-0.02
513.94	-0.05
514.137	0.01
514.334	-0.01
514.53	-0.02
514.727	0.02
514.924	0.02
515.12	-0.01
515.317	-0.03
515.514	-0.01
515.71	-0.06
515.907	-0.01
516.103	0
516.3	-0
516.497	0.02
516.693	0.02
516.89	-0.01
517.086	-0.02
517.283	0.02
517.479	0.01
517.676	-0.01
517.872	-0.01
518.068	-0.03
518.265	-0.02
518.461	-0.02
518.658	-0.02
518.854	-0
519.05	0
519.247	-0.01
519.443	0.02
519.639	-0
519.836	0.01
520.032	-0.01
520.228	-0.01
520.424	0.05
520.621	0.02
520.817	-0
521.013	-0.02
521.209	0
521.405	0.06
521.601	-0
521.798	0.01
521.994	0.02
522.19	-0.03
522.386	-0.05
522.582	-0.01
522.778	-0.01
522.974	-0.01
523.17	-0
523.366	-0.02
523.562	0
523.758	0
523.954	-0.02
524.15	-0.02
524.346	0.03
524.542	-0.02
524.738	-0.01
524.934	-0.01
525.129	-0.02
525.325	0.02
525.521	-0.01
525.717	0.01
525.913	-0
526.109	0.01
526.304	-0.01
526.5	-0.01
526.696	0.01
526.892	-0.01
527.087	-0.01
527.283	-0.04
527.479	0
527.674	-0.02
527.87	-0.02
528.066	-0.01
528.261	0.01
528.457	0.02
528.653	0
528.848	-0.01
529.044	-0.01
529.239	-0
529.435	0.01
529.63	0.01
529.826	0.04
530.021	0.01
530.217	0.01
530.412	-0.01
530.608	-0.03
530.803	-0.01
530.999	0
531.194	-0.02
531.389	0.01
531.585	-0.03
531.78	-0.01
531.975	-0
532.171	0.01
532.366	-0.02
532.561	-0.01
532.757	-0.04
532.952	-0.01
533.147	0.02
533.342	-0.02
533.538	-0.01
533.733	0.02
533.928	-0
534.123	-0.01
534.318	-0.04
534.513	-0.01
534.709	0.02
534.904	-0.02
535.099	-0.02
535.294	0.01
535.489	-0.01
535.684	-0.01
535.879	-0.03
536.074	-0.01
536.269	-0.01
536.464	0
536.659	-0.02
536.854	-0.01
537.049	0.01
537.244	-0.01
537.439	-0.02
537.634	0
537.828	0
538.023	0
538.218	-0.04
538.413	-0.01
538.608	-0.03
538.803	0.02
538.997	-0.03
539.192	0.02
539.387	-0
539.582	-0
539.776	0
539.971	-0
540.166	-0.03
540.36	-0.04
540.555	-0
540.75	-0.02
540.944	0.01
541.139	-0.04
541.334	-0.02
541.528	-0.02
541.723	0.02
541.917	0
542.112	-0.03
542.306	-0.01
542.501	-0.01
542.695	0
542.89	-0.02
543.084	-0.01
543.279	-0.02
543.473	-0.02
543.668	-0.01
543.862	-0
544.056	0.02
544.251	0
544.445	0
544.64	-0.01
544.834	-0.03
545.028	-0.01
545.222	-0
545.417	0.01
545.611	0.01
545.805	0
546	-0.02
546.194	-0.01
546.388	-0.02
546.582	-0
546.776	0.01
546.97	0
547.165	0.03
547.359	0.02
547.553	-0.02
547.747	-0.01
547.941	-0.01
548.135	-0.03
548.329	0.02
548.523	0
548.717	-0.01
548.911	-0.02
549.105	-0.01
549.299	-0.01
549.493	0.03
549.687	0.02
549.881	0.02
550.075	-0.03
550.269	-0.04
550.463	0
550.657	-0.02
550.85	0.01
551.044	-0.01
551.238	0
551.432	-0.01
551.626	-0.02
551.82	0.01
552.013	-0.02
552.207	-0.01
552.401	-0.01
552.594	-0.02
552.788	-0.01
552.982	0
553.176	-0.02
553.369	0.02
553.563	0.02
553.756	-0.04
553.95	-0.04
554.144	-0
554.337	0.02
554.531	-0
554.724	0
554.918	-0.02
555.111	0.01
555.305	-0.03
555.498	0.04
555.692	0.01
555.885	-0.02
556.079	-0
556.272	-0.02
556.466	0.03
556.659	0.01
556.852	-0.03
557.046	-0
557.239	0.01
557.432	-0.04
557.626	-0.02
557.819	-0.01
558.012	0.01
558.206	0.01
558.399	0.01
558.592	-0.01
558.785	-0.03
558.979	-0
559.172	-0
559.365	0.01
559.558	-0.01
559.751	-0
559.944	-0.01
560.138	-0.01
560.331	-0.02
560.524	-0.03
560.717	0
560.91	-0.01
561.103	0.01
561.296	0.01
561.489	-0.01
561.682	0.01
561.875	0.01
562.068	0.01
562.261	-0.01
562.454	0.03
562.647	0
562.84	-0.01
563.032	-0.02
563.225	0.01
563.418	-0
563.611	-0.02
563.804	0.01
563.997	-0.01
564.19	-0.05
564.382	-0.05
564.575	-0.02
564.768	-0.02
564.961	-0.02
565.153	-0.02
565.346	0.03
565.539	0
565.731	0.01
565.924	0.02
566.117	0.01
566.309	-0.01
566.502	-0.03
566.695	-0.01
566.887	0.01
567.08	-0.03
567.272	-0.03
567.465	-0.03
567.657	0
567.85	0.01
568.042	0.01
568.235	0.03
568.427	-0.01
568.62	-0.01
568.812	-0.01
569.005	0.01
569.197	-0.04
569.389	0.01
569.582	0.02
569.774	-0
569.966	-0.03
570.159	-0.04
570.351	-0
570.543	-0.03
570.736	0.01
570.928	-0.01
571.12	0.03
571.312	-0.03
571.505	-0.03
571.697	0.01
571.889	-0.03
572.081	0.01
572.273	-0.03
572.465	0.02
572.658	-0.02
572.85	-0.01
573.042	-0.01
573.234	-0.01
573.426	0.01
573.618	-0.02
573.81	0
574.002	0.02
574.194	0.01
574.386	-0.03
574.578	-0.07
574.77	-0.03
574.962	-0
575.154	-0.02
575.346	-0.02
575.538	0.01
575.729	-0.02
575.921	-0.02
576.113	-0.02
576.305	0.02
576.497	-0.01
576.689	-0.02
576.88	-0.03
577.072	0.02
577.264	-0.01
577.456	0.01
577.647	-0.08
577.839	-0.02
578.031	0.02
578.223	-0.05
578.414	-0.04
578.606	0.03
578.798	-0
578.989	-0.03
579.181	-0.02
579.372	-0.01
579.564	-0.02
579.755	-0
579.947	0
580.139	0.01
580.33	-0.06
580.522	-0.03
580.713	-0.07
580.905	-0.02
581.096	0.01
581.287	-0.01
581.479	0
581.67	-0
581.862	-0.02
582.053	-0.03
582.244	-0.05
582.436	0
582.627	0.02
582.818	-0.02
583.01	-0.04
583.201	0.01
583.392	0.01
583.583	-0.02
583.775	-0.03
583.966	-0.01
584.157	-0.01
584.348	-0.02
584.54	-0.03
584.731	0.01
584.922	-0.02
585.113	-0.01
585.304	-0.01
585.495	0.02
585.686	0
585.877	0.01
586.068	-0.01
586.259	0.01
586.45	0
586.641	-0.04
586.832	-0.06
587.023	0.02
587.214	-0
587.405	0
587.596	-0.06
587.787	0.04
587.978	0.01
588.169	-0.03
588.36	-0.03
588.551	0.03
588.742	-0.03
588.932	-0.01
589.123	0.02
589.314	-0.01
589.505	0.03
589.696	-0
589.886	-0.03
590.077	-0.04
590.268	0
590.458	-0.03
590.649	-0.06
590.84	-0.01
591.03	-0.01
591.221	-0.03
591.412	-0.05
591.602	0.01
591.793	0.02
591.984	-0.03
592.174	-0.04
592.365	0.05
592.555	-0.03
592.746	0.02
592.936	0.01
593.127	0.01
593.317	0.02
593.508	-0.01
593.698	-0.01
593.889	-0.02
594.079	-0.02
594.269	-0.02
594.46	-0.01
594.65	-0.01
594.84	-0.01
595.031	-0.03
595.221	-0.01
595.411	-0.05
595.602	0.01
595.792	-0.02
595.982	-0.01
596.172	0.03
596.363	-0
596.553	-0.03
596.743	0.01
596.933	0.01
597.123	0.02
597.314	-0.04
597.504	-0.03
597.694	0.05
597.884	0
598.074	0
598.264	-0.01
598.454	0.03
598.644	0
598.834	-0.01
599.024	-0.04
599.214	-0.04
599.404	0.03
599.594	-0.03
599.784	-0.01
599.974	0.04
600.164	0.03
600.354	-0.03
600.544	-0.06
600.734	-0
600.924	0.03
601.114	-0.01
601.303	-0.01
601.493	-0.02
601.683	-0
601.873	0.01
602.063	-0.07
602.252	0.04
602.442	-0.05
602.632	-0.03
602.821	-0.04
603.011	-0
603.201	-0.02
603.39	-0.01
603.58	-0.05
603.77	0.02
603.959	0
604.149	0.02
604.339	-0.04
604.528	0.02
604.718	0.02
604.907	-0.03
605.097	-0.01
605.286	-0.04
605.476	0.03
605.665	0
605.855	-0.02
606.044	0.03
606.234	-0.02
606.423	-0.02
606.612	-0.06
606.802	-0.02
606.991	0.02
607.181	0.01
607.37	-0.05
607.559	0
607.749	-0.05
607.938	-0.02
608.127	-0.02
608.316	-0.05
608.506	-0.01
608.695	-0.01
608.884	-0.03
609.073	-0.01
609.263	0.01
609.452	0.04
609.641	-0.01
609.83	-0.04
610.019	0
610.208	-0.04
610.397	-0.01
610.586	-0
610.775	-0.04
610.965	-0.02
611.154	-0.01
611.343	0
611.532	-0
611.721	-0.02
611.91	-0.03
612.099	0.01
612.287	-0.03
612.476	-0.04
612.665	-0
612.854	-0.05
613.043	0.05
613.232	-0.01
613.421	-0.07
613.61	0.02
613.798	-0.04
613.987	0.03
614.176	-0.02
614.365	0.03
614.554	-0
614.742	0.02
614.931	-0.05
615.12	0.03
615.309	-0.01
615.497	-0.01
615.686	-0.03
615.875	-0
616.063	-0.03
616.252	-0.03
616.44	-0.04
616.629	-0.03
616.818	0.03
617.006	-0.02
617.195	-0.01
617.383	0.01
617.572	-0.01
617.76	-0.04
617.949	-0.02
618.137	-0.01
618.326	0.05
618.514	-0.08
618.703	-0.04
618.891	0.05
619.079	-0.04
619.268	0
619.456	-0.03
619.644	0.01
619.833	-0.02
620.021	-0.02
620.209	-0.04
620.398	-0
620.586	0
620.774	0.01
620.962	-0.01
621.151	0.05
621.339	-0.01
621.527	-0.06
621.715	-0.02
621.903	-0.04
622.092	-0.05
622.28	0.01
622.468	-0.01
622.656	-0.02
622.844	0
623.032	-0.03
623.22	-0.06
623.408	0
623.596	0.01
623.784	-0
623.972	-0.04
624.16	-0
624.348	0.04
624.536	-0.02
624.724	-0.01
624.912	0.04
625.1	0.06
625.288	-0.03
625.476	-0.07
625.664	0.01
625.851	-0.05
626.039	-0.01
626.227	-0.02
626.415	-0.03
626.603	-0.09
626.79	-0
626.978	-0.01
627.166	-0.02
627.354	-0.01
627.541	-0.03
627.729	-0.05
627.917	0.01
628.104	0.03
628.292	0.01
628.48	-0.03
628.667	-0.01
628.855	-0.02
629.042	-0.02
629.23	-0.04
629.418	-0.02
629.605	-0.03
629.793	0.01
629.98	0.01
630.168	-0.02
630.355	0.01
630.543	-0.01
630.73	-0
630.917	0.01
631.105	0.06
631.292	-0.02
631.48	-0.01
631.667	0.05
631.854	0.01
632.042	-0.03
632.229	-0.07
632.416	-0.02
632.604	-0
632.791	-0.04
632.978	0.01
633.165	0.02
633.353	0.03
633.54	0.02
633.727	-0.07
633.914	-0.04
634.101	-0.07
634.289	0.03
634.476	-0.04
634.663	-0.04
634.85	0.02
635.037	-0.03
635.224	-0.04
635.411	0.01
635.598	0.01
635.785	-0.02
635.972	-0.05
636.159	0.02
636.346	-0.05
636.533	-0.02
636.72	-0.02
636.907	-0.03
637.094	0.01
637.281	-0.02
637.468	-0.05
637.655	-0.02
637.842	-0.03
638.029	-0.05
638.215	-0.02
638.402	-0
638.589	-0.04
638.776	-0.04
638.963	-0.02
639.149	0.03
639.336	0.04
639.523	-0.02
639.709	-0.02
639.896	-0
640.083	0.05
640.27	0.01
640.456	-0.04
640.643	0
640.829	-0.08
641.016	0.01
641.203	-0.07
641.389	0.04
641.576	0.01
641.762	-0.04
641.949	-0.06
642.135	0.03
642.322	-0
642.508	-0.06
642.695	0.02
642.881	-0.06
643.068	-0.03
643.254	-0.02
643.441	0.03
643.627	-0.02
643.813	-0.05
644	0.01
644.186	-0.04
644.372	-0.04
644.559	0.03
644.745	-0.01
644.931	-0.05
645.118	-0.05
645.304	-0.02
645.49	-0.02
645.676	-0.02
645.862	-0
646.049	0.05
646.235	-0.02
646.421	0.06
646.607	0.07
646.793	-0.03
646.979	-0.06
647.165	0.01
647.352	0.01
647.538	0.01
647.724	-0.01
647.91	0.01
648.096	-0
648.282	0.02
648.468	-0.01
648.654	0.01
648.84	0.01
649.026	-0.03
649.212	-0
649.397	-0.03
649.583	-0.04
649.769	0.03
649.955	-0
650.141	-0.02
650.327	0.04
650.513	-0.03
650.698	0.02
650.884	-0.09
651.07	-0.02
651.256	0.03
651.442	-0.03
651.627	-0.01
651.813	0.01
651.999	-0
652.184	-0.04
652.37	-0.01
652.556	-0.05
652.741	0.05
652.927	-0.04
653.113	-0.03
653.298	0.02
653.484	0.01
653.669	-0.03
653.855	-0.02
654.04	-0
654.226	-0.02
654.412	-0
654.597	-0.04
654.782	-0.01
654.968	0.01
655.153	-0.02
655.339	-0.01
655.524	-0.04
655.71	0.04
655.895	-0.01
656.08	-0
656.266	-0
656.451	-0.02
656.636	-0.04
656.822	-0.01
657.007	-0.03
657.192	-0
657.378	-0.07
657.563	-0.01
657.748	0.02
657.933	0.04
658.118	-0.04
658.304	-0.03
658.489	0.03
658.674	-0.01
658.859	-0.03
659.044	0.03
659.229	0.03
659.414	0
659.599	-0.04
659.785	-0.06
659.97	-0.04
660.155	0.01
660.34	-0
660.525	-0
660.71	-0.01
660.895	0.03
661.08	-0.06
661.264	-0.03
661.449	0.04
661.634	0
661.819	-0
662.004	0.02
662.189	-0.07
662.374	-0.06
662.559	-0.05
662.743	-0.06
662.928	-0.02
663.113	-0.08
663.298	-0.08
663.483	-0.01
663.667	0.01
663.852	-0.04
664.037	0.04
664.221	-0.04
664.406	0.02
664.591	0.01
664.775	0.01
664.96	-0.02
665.145	0.01
665.329	-0
665.514	-0.02
665.698	0
665.883	-0.08
666.068	0.09
666.252	0
666.437	-0.05
666.621	-0.04
666.806	0.04
666.99	-0.02
667.174	-0.06
667.359	0.08
667.543	-0.01
667.728	-0.01
667.912	-0.08
668.096	0.04
668.281	-0.01
668.465	-0.01
668.649	0.01
668.834	-0.07
669.018	-0.03
669.202	-0.01
669.387	-0.04
669.571	0.05
669.755	-0.05
669.939	-0
670.124	-0.04
670.308	0.06
670.492	0.01
670.676	-0.01
670.86	-0
671.044	-0.08
671.228	0.01
671.413	-0.03
671.597	-0.03
671.781	-0.05
671.965	0.07
672.149	-0.03
672.333	0
672.517	-0.02
672.701	0.02
672.885	-0.04
673.069	-0.06
673.253	0.04
673.437	-0
673.621	-0.03
673.804	-0.02
673.988	0.01
674.172	-0
674.356	-0.08
674.54	0.01
674.724	0.06
674.908	0.01
675.091	0.04
675.275	0.03
675.459	0.05
675.643	0.02
675.826	-0.02
676.01	-0.01
676.194	0
676.377	0.03
676.561	0.02
676.745	0.05
676.928	0.04
677.112	0.02
677.296	-0
677.479	-0.03
677.663	-0.06
677.846	0.04
678.03	0.02
678.213	0.02
678.397	-0
678.58	0.01
678.764	-0
678.947	-0.06
679.131	-0.07
679.314	0.04
679.498	-0.02
679.681	0.04
679.865	0.05
680.048	0.01
680.231	0.03
680.415	0.01
680.598	-0.04
680.781	-0.01
680.965	0
681.148	0.01
681.331	-0
681.514	0.06
681.698	0.01
681.881	0.03
682.064	0.03
682.247	0.07
682.43	-0.03
682.614	0.07
682.797	0.1
682.98	0.07
683.163	-0.04
683.346	0.08
683.529	0.03
683.712	0
683.895	-0
684.078	-0.04
684.261	0.02
684.444	0.06
684.627	0.07
684.81	0
684.993	0.03
685.176	0.09
685.359	0.01
685.542	0
685.725	0.1
685.908	0.06
686.091	0.03
686.274	0.02
686.457	0.05
686.639	0.04
686.822	0.08
687.005	0.07
687.188	0.05
687.371	0.12
687.553	0.14
687.736	0.06
687.919	0.14
688.102	0.1
688.284	0.02
688.467	0.02
688.65	0.04
688.832	0.04
689.015	0.08
689.197	0.01
689.38	0.13
689.563	0.1
689.745	-0.01
689.928	0.01
690.11	0.07
690.293	0.04
690.475	-0.03
690.658	0.08
690.84	0.09
691.023	0.01
691.205	0.06
691.388	0.06
691.57	0.06
691.752	0.05
691.935	-0.01
692.117	0.06
692.3	0.07
692.482	0.05
692.664	0.01
692.847	0.05
693.029	0.15
693.211	0.09
693.393	0.07
693.576	0.02
693.758	0.1
693.94	0.07
694.122	0.06
694.304	0.07
694.487	0.07
694.669	0.15
694.851	0.04
695.033	0.09
695.215	0.03
695.397	0.06
695.579	0.1
695.761	0.1
695.943	0.01
696.125	0.17
696.308	0.12
696.49	-0.02
696.671	0.22
696.853	0.03
697.035	0.16
697.217	0.09
697.399	0.18
697.581	0.09
697.763	0.12
697.945	0.07
698.127	0.12
698.309	0.18
698.491	0.17
698.672	0.17
698.854	0.16
699.036	0.15
699.218	0.13
699.399	0.23
699.581	0.19
699.763	0.13
699.945	0.07
700.126	0.05
700.308	0.13
700.49	0.17
700.671	0.09
700.853	0.13
701.035	0.13
701.216	0.16
701.398	0.12
701.579	0.14
701.761	0.27
701.943	0.11
702.124	0.18
702.306	0.16
702.487	0.27
702.669	0.17
702.85	0.11
703.031	0.09
703.213	0.32
703.394	0.25
703.576	0.15
703.757	0.22
703.938	0.26
704.12	0.33
704.301	0.22
704.483	0.17
704.664	0.25
704.845	0.29
705.026	0.27
705.208	0.22
705.389	0.22
705.57	0.29
705.751	0.27
705.933	0.27
706.114	0.28
706.295	0.23
706.476	0.12
706.657	0.36
706.838	0.34
707.02	0.29
707.201	0.26
707.382	0.28
707.563	0.32
707.744	0.27
707.925	0.23
708.106	0.28
708.287	0.3
708.468	0.28
708.649	0.35
708.83	0.33
709.011	0.3
709.192	0.32
709.373	0.25
709.554	0.33
709.734	0.34
709.915	0.34
710.096	0.37
710.277	0.34
710.458	0.43
710.639	0.35
710.819	0.28
711	0.38
711.181	0.49
711.362	0.45
711.542	0.4
711.723	0.41
711.904	0.51
712.085	0.45
712.265	0.45
712.446	0.35
712.627	0.46
712.807	0.5
712.988	0.46
713.168	0.36
713.349	0.57
713.53	0.35
713.71	0.47
713.891	0.43
714.071	0.53
714.252	0.46
714.432	0.47
714.613	0.45
714.793	0.52
714.974	0.61
715.154	0.62
715.334	0.63
715.515	0.65
715.695	0.52
715.876	0.57
716.056	0.6
716.236	0.64
716.417	0.62
716.597	0.62
716.777	0.74
716.957	0.66
717.138	0.67
717.318	0.68
717.498	0.63
717.678	0.76
717.859	0.7
718.039	0.69
718.219	0.82
718.399	0.8
718.579	0.67
718.759	0.81
718.939	0.8
719.12	0.8
719.3	0.87
719.48	0.74
719.66	0.73
719.84	0.95
720.02	0.89
720.2	0.8
720.38	0.89
720.56	1.07
720.74	0.88
720.92	0.99
721.1	1.1
721.279	1.1
721.459	1
721.639	0.92
721.819	1.04
721.999	1.07
722.179	1.12
722.359	0.93
722.538	1.11
722.718	1.18
722.898	1.16
723.078	1.17
723.257	1.16
723.437	1.17
723.617	1.25
723.797	1.23
723.976	1.22
724.156	1.35
724.336	1.4
724.515	1.42
724.695	1.16
724.874	1.31
725.054	1.39
725.234	1.3
725.413	1.37
725.593	1.45
725.772	1.41
725.952	1.42
726.131	1.41
726.311	1.5
726.49	1.54
726.67	1.54
726.849	1.47
727.028	1.61
727.208	1.48
727.387	1.64
727.567	1.62
727.746	1.59
727.925	1.58
728.105	1.63
728.284	1.7
728.463	1.65
728.643	1.84
728.822	1.74
729.001	1.75
729.18	1.85
729.359	1.86
729.539	1.85
729.718	1.86
729.897	2.03
730.076	1.83
730.255	1.88
730.434	2.07
730.614	2.13
730.793	2.15
730.972	2.06
731.151	2.03
731.33	2.19
731.509	2.23
731.688	2.11
731.867	2.15
732.046	2.07
732.225	2.44
732.404	2.12
732.583	2.18
732.762	2.31
732.941	2.35
733.12	2.47
733.298	2.39
733.477	2.48
733.656	2.34
733.835	2.42
734.014	2.52
734.193	2.44
734.371	2.67
734.55	2.73
734.729	2.3
734.908	2.59
735.086	2.62
735.265	2.73
735.444	2.45
735.623	2.48
735.801	2.58
735.98	2.53
736.159	2.5
736.337	2.58
736.516	2.62
736.694	2.56
736.873	2.44
737.052	2.75
737.23	2.48
737.409	2.33
737.587	2.53
737.766	2.22
737.944	2.26
738.123	2.47
738.301	2.36
738.479	2.3
738.658	2.23
738.836	2.19
739.015	2.21
739.193	2.24
739.371	1.97
739.55	2.03
739.728	1.8
739.906	2.22
740.085	2.08
740.263	1.94
740.441	1.62
740.62	1.93
740.798	1.82
740.976	1.66
741.154	1.53
741.332	1.74
741.511	1.41
741.689	1.5
741.867	1.41
742.045	1.42
742.223	1.27
742.401	1.17
742.579	1.21
742.757	1.22
742.935	0.93
743.114	0.93
743.292	1.03
743.47	1.09
743.648	1.07
743.826	0.84
744.004	1.01
744.181	0.96
744.359	0.91
744.537	0.99
744.715	0.83
744.893	0.73
745.071	0.74
745.249	0.77
745.427	0.7
745.605	0.69
745.782	0.68
745.96	0.68
746.138	0.72
746.316	0.72
746.493	0.66
746.671	0.54
746.849	0.52
747.027	0.57
747.204	0.51
747.382	0.55
747.56	0.38
747.737	0.44
747.915	0.33
748.093	0.49
748.27	0.31
748.448	0.35
748.625	0.29
748.803	0.2
748.98	0.28
749.158	0.27
749.335	0.39
749.513	0.23
749.69	0.34
749.868	0.29
750.045	0.36
750.223	0.3
750.4	0.11
750.578	0.49
750.755	0.29
750.932	0.09
751.11	0.36
751.287	0.13
751.464	0.34
751.642	0.09
751.819	0.2
751.996	0.15
752.173	0.27
752.351	0.18
752.528	0.21
752.705	0.24
752.882	0.13
753.06	0.21
753.237	0.23
753.414	0.33
753.591	0.26
753.768	0.26
753.945	0.1
754.122	0.06
754.299	0.18
754.476	0.07
754.654	0.24
754.831	0.12
755.008	0.18
755.185	0
755.362	0.02
755.539	0.16
755.716	0.07
755.892	0.1
756.069	0.05
756.246	0.01
756.423	-0.05
756.6	0.27
756.777	0.14
756.954	0.25
757.131	0.11
757.307	-0
757.484	0.01
757.661	0.06
757.838	0.07
758.015	-0.11
758.191	0.19
758.368	0.15
758.545	0.18
758.721	0.13
758.898	-0.02
759.075	0.11
759.251	0.11
759.428	0.09
759.605	0.04
759.781	-0.01
759.958	0.12
760.134	0.1
760.311	-0.07
760.488	0.16
760.664	0.23
760.841	-0.04
761.017	-0.05
761.194	0.1
761.37	0.12
761.547	0.17
761.723	-0.02
761.899	0.24
762.076	-0.05
762.252	-0.12
762.429	-0.14
762.605	0.14
762.781	0.06
762.958	0.08
763.134	-0.14
763.31	-0.01
763.486	0.2
763.663	-0.26
763.839	0.08
764.015	-0.16
764.191	0.03
764.368	-0.02
764.544	-0.06
764.72	-0.02
764.896	0.16
765.072	0.07
765.248	0.05
765.425	-0.06
765.601	0.05
765.777	-0.02
765.953	-0.18
766.129	-0.01
766.305	-0.22
766.481	0.13
766.657	0.06
766.833	0.21
767.009	-0.24
767.185	-0.17
767.361	-0.02
767.537	-0.09
767.713	0.13
767.889	0.02
768.065	0.21
768.24	0.13
768.416	-0.03
768.592	-0.2
768.768	-0.1
768.944	0.02
769.12	-0.03
769.295	-0.07
769.471	-0.02
769.647	0.08
769.823	0.12
769.998	-0.08
770.174	-0.17
770.35	0.33
770.525	0.27
770.701	0.04
770.877	0
771.052	-0.04
771.228	0.05
771.403	0.04
771.579	0.06
771.755	0.26
771.93	-0.06
772.106	-0.08
772.281	-0.14
772.457	-0.09
772.632	0.07
772.808	-0.13
772.983	0.04
773.159	-0.07
773.334	0.03
773.509	-0.04
773.685	-0.06
773.86	0.24
774.036	0.23
774.211	-0.01
774.386	-0.16
774.562	-0
774.737	0.05
774.912	-0.11
775.087	0.12
775.263	-0.01
775.438	-0.06
775.613	-0.12
775.788	-0.06
775.964	0.25
776.139	0.4
776.314	-0.26
776.489	0.02
776.664	0.08
776.839	-0
777.014	0.05
777.19	0.12
777.365	0.27
777.54	0.19
777.715	-0
777.89	-0.02
778.065	-0.04
778.24	-0.04
778.415	0.22
778.59	-0.02
778.765	-0.13
778.94	-0.09
779.115	-0.18
779.289	-0.04
779.464	0.08
779.639	0.05
779.814	-0.21
779.989	-0.2
780.164	0.05
780.339	0.07
780.513	-0.02
780.688	-0.16
780.863	0.06
781.038	0.19
781.212	-0.25
781.387	-0.06
781.562	0.23
781.737	-0.12
781.911	0.23
782.086	-0.08
782.261	0.03
782.435	0.3
782.61	-0.1
782.784	-0.16
782.959	0.14
783.134	-0.12
783.308	-0.24
783.483	-0.06
783.657	0.28
783.832	0.26
784.006	-0.43
784.181	-0.15
784.355	0.08
784.53	-0.31
784.704	-0.15
784.878	0.14
785.053	-0.09
785.227	0.12
785.402	0.25
785.576	-0.15
785.75	-0.03
785.925	-0.27
786.099	-0.04
786.273	0.19
786.448	0.19
786.622	0.23
786.796	-0.03
786.97	0.01
787.145	0.42
787.319	-0.26
787.493	-0.35
787.667	-0.36
787.841	-0.28
788.015	0.15
788.19	-0.25
788.364	-0.05
788.538	0.1
788.712	0.06
788.886	0.15
789.06	0.23
789.234	0.19
789.408	-0.23
789.582	0.06
789.756	0.06
789.93	-0.26
790.104	-0.14
790.278	-0.16
790.452	-0.18
790.626	-0.06
790.8	0.05
790.973	0.29
791.147	0.19
791.321	0.48
791.495	0
791.669	0.22
791.843	0.15
792.016	0.23
792.19	0.23
792.364	-0.21
792.538	0.44
792.711	0.11
792.885	-0.09
793.059	-0.2
793.233	-0.36
793.406	0.34
793.58	0.13
793.754	0.15
793.927	0.14
794.101	0.29
794.274	0.08
794.448	0.19
794.622	-0.18
794.795	0.29
794.969	-0.26
795.142	0.37
795.316	-0.04
795.489	-0.25
795.663	0.26
795.836	-0.19
796.009	-0.24
796.183	0.41
796.356	0.22
796.53	0.24
796.703	-0.03
796.876	0.35
797.05	-0.21
797.223	0.03
797.396	0.04
797.57	0.11
797.743	0.32
797.916	0.21
798.09	0.18
798.263	0.08
798.436	-0.18
798.609	-0.08
798.782	-0.04
798.956	0.29
799.129	-0.06
799.302	-0.14
799.475	-0.27
799.648	-0.06
799.821	-0.21
799.994	0.07
800.167	-0.14
800.34	-0.02
800.514	-0.06
800.687	-0.14
800.86	-0.2
801.033	-0.15
801.206	-0.05
801.379	-0.39
801.551	0.21
801.724	0.28
801.897	0.37
802.07	-0.03
802.243	-0.42
802.416	-0.12
802.589	-0.17
802.762	-0.17
802.935	-0.09
803.107	-0.07
803.28	0.14
803.453	0.2
803.626	-0.06
803.798	0.14
803.971	-0.42
804.144	0.11
804.317	0.45
804.489	-0.1
804.662	-0.11
804.835	0.13
805.007	-0.33
805.18	0.45
805.353	-0.23
805.525	-0.06
805.698	-0.29
805.87	0.52
806.043	0.48
806.215	-0.26
806.388	-0.2
806.56	0.1
806.733	0.32
806.905	-0.05
807.078	-0.14
807.25	-0.28
807.423	0.27
807.595	-0.02
807.768	-0.08
807.94	0.46
808.112	0.16
808.285	-0.12
808.457	-0.3
808.629	0.08
808.802	0.32
808.974	0.19
809.146	-0.07
809.318	-0.33
809.491	-0.21
809.663	0.17
809.835	-0.22
810.007	-0.07
810.18	0.05
810.352	-0.11
810.524	0.18
810.696	0.18
810.868	0.38
811.04	-0.02
811.212	0.01
811.384	0.18
811.556	-0.21
811.728	0.19
811.901	0.26
812.073	-0.31
812.245	-0.05
812.417	0.2
812.589	-0.75
812.76	0.05
812.932	0.08
813.104	0.15
813.276	-0.04
813.448	0.06
813.62	0
813.792	0.02
813.964	-0.07
814.136	0.27
814.307	-0.35
814.479	-0.04
814.651	-0.18
814.823	0.5
814.995	-0.32
815.166	-0.16
815.338	-0.63
815.51	-0.4
815.681	0.93
815.853	-0.31
816.025	-0.22
816.196	0.22
816.368	0.46
816.54	-0.81
816.711	-0.3
816.883	0.59
817.054	0.82
817.226	-0.49
817.398	-0.2
817.569	-0.23
817.741	0.24
817.912	0.21
818.084	-0.33
818.255	-0.25
818.426	-0.43
818.598	-0.11
818.769	-0.19
818.941	-0
819.112	0.38
819.283	0.32
819.455	-0.32
819.626	0.36
819.798	0.13
819.969	0.07
820.14	-0.16
820.311	0.03
820.483	-0.25
820.654	-0.22
820.825	0.07
820.996	-0.17
821.168	-0.52
821.339	-0.07
821.51	-0.64
821.681	-0.54
821.852	0.26
822.023	-0.33
822.195	-0.64
822.366	0.35
822.537	-0.55
822.708	0.36
822.879	0.16
823.05	0.79
823.221	0
823.392	0.16
823.563	0.11
823.734	0.11
823.905	0.23
824.076	-0.62
824.247	-0.45
824.418	-0.53
824.589	0.46
824.759	-0.25
824.93	-0.34
825.101	-0.5
825.272	0.35
825.443	0.73
825.614	0.67
825.784	-1.05
825.955	0.91
826.126	0.16
826.297	-0.2
826.467	0.06
826.638	0.6
826.809	-0.98
826.98	-0.28
827.15	0.59
827.321	0.13
827.492	0.68
827.662	0.05
827.833	0.98
828.003	0.2
828.174	-0.19
828.345	-0.38
828.515	0.5
828.686	0.17
828.856	-0.19
829.027	-0.08
829.197	0.05
829.368	0.41
829.538	-0.2
829.709	-0.46
829.879	0.12
830.049	-0.18
830.22	0.16
830.39	-0.03
830.56	0.88
830.731	-0.23
830.901	0.24
831.072	-0.13
831.242	-0.66
831.412	0.12
831.582	-0.04
831.753	-0.98
831.923	0.93
832.093	0.18
832.263	-0.06
832.434	-0.36
832.604	-0.24
832.774	0.46
832.944	0.21
833.114	-0.84
833.284	0.7
833.454	-0.25
833.624	-0.47
833.795	-0.23
833.965	0.21
834.135	0.51
834.305	-0.69
834.475	-0.42
834.645	-0.25
834.815	-0.38
834.985	-0.03
835.155	-0.13
835.325	0.59
835.494	-0.06
835.664	0.09
835.834	-0.71
836.004	-0.04
836.174	0.09
836.344	-0.03
836.514	-1.05
836.684	-0.36
836.853	0.12
837.023	0.02
837.193	-0.4
837.363	0.5
837.532	0.54
837.702	-0.04
837.872	-0.47
838.041	0.14
838.211	1.12
838.381	-1.44
838.55	-0.18
838.72	1.79
838.89	0.6
839.059	-0.71
839.229	-0.96
839.398	1.23
839.568	-0.07
839.738	-0.28
839.907	0.28
840.077	0.21
840.246	-0.69
840.416	-0.9
840.585	-0.52
840.755	1.03
840.924	0.98
841.093	-0.75
841.263	-0.12
841.432	-0.07
841.602	0.08
841.771	-1.53
841.94	0.21
842.11	1.89
842.279	1.13
842.448	-1.23
842.617	-0.61
842.787	1.76
842.956	-1.1
843.125	0.56
843.294	-0.23
843.464	0.82
843.633	-0.1
843.802	-1.02
843.971	-0.59
844.14	0.43
844.309	0.94
844.479	-0.85
844.648	-0.5
844.817	-0.72
844.986	0.11
845.155	-0.39
845.324	-0.18
845.493	-0.15
845.662	-0.83
845.831	0.06
846	0.59
846.169	0.1
846.338	0.89
846.507	0.35
846.676	0.36
846.844	-0.5
847.013	1.29
847.182	0.18
847.351	-0.18
847.52	0.17
847.689	0.37
847.858	-0.09
848.026	-0.38
848.195	-0.24
848.364	0.05
848.533	-0.34
848.701	-0.26
848.87	-0.7
849.039	0.8
849.207	0.76
849.376	0.84
849.545	0.84
849.713	-0.64
849.882	-0.6
850.051	-0.15
850.219	-0.81
850.388	1.05
850.556	-0.74
850.725	-0.32
850.893	0.03
851.062	-0.71
851.23	0.25
851.399	-0.84
851.567	0.04
851.736	-0.4
851.904	-0.89
852.073	0.27
852.241	0.83
852.41	0.14
852.578	0.43
852.746	-0.56
852.915	0.59
853.083	-0.87
853.251	-0.51
853.42	-1.06
853.588	1.31
853.756	0.45
853.924	-0.24
854.093	-0.59
854.261	-0.44
854.429	-0.86
854.597	1.29
854.765	-0.25
854.934	0.28
855.102	1.48
855.27	-0.09
855.438	0.68
855.606	1.7
855.774	0.57
855.942	-0.61
856.11	-1.19
856.278	0.21
856.446	0.43
856.614	-0.28
856.782	0.12
856.95	0.79
857.118	1.15
857.286	0.22
857.454	-0.06
857.622	0.78
857.79	0.83
857.958	-1.13
858.126	0.13
858.294	-2.17
858.462	0.92
858.629	-0.19
858.797	-0.28
858.965	0.1
859.133	-0.16
859.301	0.03
859.468	0.94
859.636	-0.56
859.804	0.83
859.971	-0.01
860.139	-0.2
860.307	0.8
860.474	-0.13
860.642	-0.55
860.81	-0.19
860.977	-0.19
861.145	1.93
861.313	0.4
861.48	1.44
861.648	1.92
861.815	-0.54
861.983	-1.16
862.15	-0.52
862.318	0.3
862.485	0.93
862.653	-1.08
862.82	-1.79
862.988	2.09
863.155	-1.87
863.322	-0.51
863.49	-0.5
863.657	0.34
863.824	2.27
863.992	1.05
864.159	0.18
864.326	1.79
864.494	0
864.661	2.99
864.828	-1.23
864.996	2.62
865.163	2.01
865.33	-1.17
865.497	-1.6
865.664	-1.2
865.832	-2.47
865.999	-0.1
866.166	-0.41
866.333	-1.32
866.5	0.51
866.667	-0.97
866.834	-1.16
867.001	1.45
867.168	-1.65
867.335	0.21
867.502	-1
867.669	0.42
867.836	1.86
868.003	-0.16
868.17	0.46
868.337	2.01
868.504	3.06
868.671	-1.3
868.838	-1.11
869.005	-0.32
869.172	0.38
869.339	-0.07
869.505	-0.64
869.672	0.73
869.839	1.81
870.006	-0.17
870.173	-2.01
870.339	1.27
870.506	3.04
870.673	-2.4
870.84	0.81
871.006	0.18
871.173	-0.22
871.34	0.52
871.506	-1.89
871.673	1.08
871.839	-1.6
872.006	0.14
872.173	-2.18
872.339	1.09
872.506	1.46
872.672	-0.64
872.839	-1.31
873.005	-0.41
873.172	1.92
873.338	0.35
873.505	0.89
873.671	-1.63
873.838	0.06
874.004	-1.39
874.171	-0.37
874.337	1.15
874.503	1.48
874.67	0.25
874.836	-1.91
875.002	1.35
875.169	2.05
875.335	1.03
875.501	-1.38
875.668	-1
875.834	0.25
876	-0.4
876.166	0.59
876.332	0.2
876.499	2.57
876.665	-0.39
876.831	0.42
876.997	2.26
877.163	2.04
877.329	-1.08
877.495	0.21
877.662	1.54
877.828	1.95
877.994	-0.53
878.16	-2.71
878.326	-1.64
878.492	0.43
878.658	-2.5
878.824	1.1
878.99	-0.39
879.156	-0.93
879.322	0.49
879.487	0.53
879.653	0.32
879.819	-0.16
879.985	-1.07
880.151	0
880.317	0.08
880.483	-0.05
880.648	0.27
880.814	-1.45
880.98	0.44
881.146	-1.4
881.312	-0.11
881.477	-1.05
881.643	1.23
881.809	1.55
881.974	1.77
882.14	-3.06
882.306	1
882.471	0.55
882.637	1.41
882.803	1.43
882.968	3.52
883.134	1.91
883.299	-0.56
883.465	-0.63
883.63	0.06
883.796	1.65
883.961	0.42
884.127	1.27
884.292	-4.02
884.458	-2.6
884.623	-2.59
