Data from Apollo_Calib_20240827__AbsoluteIrradiance__68__00-17-00-116.txt Node

Date: Wed Aug 28 00:17:00 BST 2024
User: biology
Spectrometer: FLMT08252
Trigger mode: 0
Integration Time (sec): 5.000000E-1
Scans to average: 5
Electric dark correction enabled: true
Nonlinearity correction enabled: false
Boxcar width: 0
XAxis mode: Wavelengths
Number of Pixels in Spectrum: 3648
>>>>>Begin Spectral Data<<<<<
179.588	-0
179.809	-0
180.03	-0
180.251	-0
180.473	-0
180.694	0
180.915	0
181.136	-0
181.357	0
181.578	-0
181.799	-0
182.02	-0
182.241	-0
182.462	-0
182.683	0
182.904	-0
183.125	0
183.346	0
183.567	0
183.788	-0
184.009	-0
184.23	0
184.451	0
184.672	-0
184.892	-0
185.113	-0
185.334	0
185.555	-0
185.776	-0
185.996	0
186.217	-0
186.438	-0
186.659	-0
186.879	0
187.1	-0
187.321	-0
187.541	-0
187.762	-0
187.983	-0
188.203	-0
188.424	-0
188.644	-0
188.865	-0
189.086	-0
189.306	0
189.527	-0
189.747	-0
189.968	-0
190.188	-0
190.409	-0
190.629	0
190.849	-0
191.07	-0
191.29	0
191.511	0
191.731	-0
191.951	-0
192.172	-0
192.392	-0
192.612	-0
192.833	-0
193.053	0
193.273	0
193.493	-0
193.714	-0
193.934	0
194.154	0
194.374	0
194.594	-0
194.815	-0
195.035	-0
195.255	0
195.475	-0
195.695	0
195.915	0
196.135	-0
196.355	0
196.575	0
196.795	-0
197.015	-0
197.235	-0
197.455	-0
197.675	0
197.895	-0
198.115	-0
198.335	-0
198.555	-0
198.775	-0
198.995	-0
199.214	0
199.434	-0
199.654	-0
199.874	-0
200.094	0.92
200.313	-0.38
200.533	-0.18
200.753	-1.37
200.973	0.22
201.192	0.3
201.412	-1
201.632	-0.82
201.851	0.5
202.071	-0.68
202.291	-0.89
202.51	-0.63
202.73	0.22
202.95	-0.67
203.169	-0.78
203.389	-0.29
203.608	0.3
203.828	-1.15
204.047	-0.28
204.267	0.24
204.486	-0.07
204.706	-0.12
204.925	-0.33
205.145	-0.42
205.364	0.17
205.583	0.24
205.803	-0.36
206.022	-0.3
206.242	-0.34
206.461	-0.29
206.68	-0.42
206.9	0.06
207.119	0.11
207.338	0.44
207.557	-0.51
207.777	-0.39
207.996	-0.29
208.215	0.53
208.434	-0.67
208.654	-0.73
208.873	-0.04
209.092	0.23
209.311	-0.17
209.53	-0.4
209.749	-0.08
209.968	-0.3
210.187	-0.55
210.407	-0.48
210.626	-0.29
210.845	0.11
211.064	-0.4
211.283	-0.48
211.502	0.33
211.721	0.11
211.94	-0.2
212.159	0.01
212.377	0.01
212.596	0.21
212.815	-0.03
213.034	-0.11
213.253	0.21
213.472	0.12
213.691	-0.08
213.91	-0.3
214.128	-0.32
214.347	0.19
214.566	-0.55
214.785	-0.52
215.003	-0.08
215.222	-0.16
215.441	-0.01
215.66	-0.34
215.878	-0.11
216.097	0.21
216.316	-0.34
216.534	-0.21
216.753	0.04
216.972	-0.17
217.19	-0.18
217.409	-0.35
217.627	-0.33
217.846	-0.28
218.064	-0.12
218.283	-0.34
218.501	0.2
218.72	0.09
218.938	-0.35
219.157	-0.23
219.375	-0.02
219.594	-0.02
219.812	-0.42
220.031	-0.24
220.249	0.17
220.467	0.04
220.686	-0.22
220.904	-0.35
221.122	-0.37
221.341	0.1
221.559	-0.01
221.777	-0.24
221.995	-0.06
222.214	0.07
222.432	-0.18
222.65	0.02
222.868	-0.06
223.086	-0.07
223.305	-0.11
223.523	-0.2
223.741	0.13
223.959	-0.16
224.177	-0.3
224.395	-0.18
224.613	-0.05
224.831	-0.03
225.049	-0.29
225.267	-0.02
225.485	0
225.703	-0.18
225.921	-0.04
226.139	-0.16
226.357	0.1
226.575	-0.06
226.793	-0.17
227.011	0.52
227.229	-0.09
227.447	0.11
227.665	-0.2
227.883	-0.21
228.1	0.05
228.318	0.03
228.536	-0.33
228.754	-0.3
228.972	-0.18
229.189	-0.06
229.407	-0.09
229.625	-0.09
229.843	0.06
230.06	-0.02
230.278	-0.08
230.496	-0.16
230.713	0.01
230.931	0.15
231.149	-0.16
231.366	-0.28
231.584	-0.18
231.801	0.24
232.019	-0.11
232.236	-0.2
232.454	-0.19
232.671	0.03
232.889	-0.19
233.106	-0.19
233.324	-0.01
233.541	-0.01
233.759	-0.07
233.976	-0.19
234.194	-0.01
234.411	0.02
234.628	-0.15
234.846	-0.05
235.063	-0.11
235.28	0.01
235.498	-0.1
235.715	-0.14
235.932	0.14
236.149	-0.16
236.367	-0.24
236.584	0.04
236.801	-0.15
237.018	0
237.236	-0.03
237.453	-0.21
237.67	0.1
237.887	-0.11
238.104	-0.15
238.321	-0.14
238.538	-0.11
238.755	0.06
238.973	-0.2
239.19	-0.11
239.407	0.05
239.624	-0.07
239.841	-0.2
240.058	-0.15
240.275	-0.02
240.492	-0.1
240.709	-0.06
240.925	-0.1
241.142	-0.03
241.359	-0.17
241.576	-0.1
241.793	-0.2
242.01	-0.08
242.227	0.06
242.444	0.01
242.66	0.02
242.877	0.01
243.094	-0.13
243.311	-0.03
243.527	-0.07
243.744	-0.07
243.961	0.03
244.178	-0.12
244.394	-0.05
244.611	0.16
244.828	0.16
245.044	-0.09
245.261	-0
245.477	-0.06
245.694	0.03
245.911	-0.09
246.127	0.02
246.344	0.08
246.56	-0.01
246.777	-0.12
246.993	0.01
247.21	0.08
247.426	0.03
247.643	-0.17
247.859	-0.04
248.076	0.01
248.292	0.16
248.508	0
248.725	0.04
248.941	0.01
249.157	0.07
249.374	-0.04
249.59	-0.05
249.806	-0.07
250.023	0.05
250.239	-0.11
250.455	-0.15
250.671	-0.06
250.888	0.03
251.104	0.07
251.32	-0.05
251.536	-0.1
251.752	-0.12
251.969	-0.08
252.185	0.02
252.401	0.09
252.617	-0
252.833	-0.09
253.049	0.05
253.265	-0.03
253.481	-0.02
253.697	-0.07
253.913	-0.15
254.129	-0.06
254.345	-0.09
254.561	-0.01
254.777	-0.05
254.993	0.02
255.209	-0.01
255.425	-0.09
255.641	-0.02
255.857	0.04
256.073	-0.09
256.288	-0.1
256.504	-0.08
256.72	-0
256.936	0.1
257.152	-0.01
257.367	-0.08
257.583	0
257.799	-0
258.015	-0.08
258.23	-0.15
258.446	0.05
258.662	0.01
258.877	-0.06
259.093	-0.08
259.309	-0.04
259.524	0.02
259.74	-0.07
259.955	-0.19
260.171	-0.05
260.387	-0.04
260.602	0.01
260.818	-0.02
261.033	-0.17
261.249	-0.07
261.464	-0.12
261.68	-0.16
261.895	0.01
262.11	0.02
262.326	-0.1
262.541	-0.18
262.757	0.03
262.972	-0.01
263.187	-0.02
263.403	-0.06
263.618	-0.01
263.833	-0.05
264.049	-0.13
264.264	-0
264.479	-0.02
264.694	0.02
264.91	-0.13
265.125	-0.08
265.34	0.01
265.555	0.11
265.77	-0.04
265.986	-0.13
266.201	0.02
266.416	0.02
266.631	-0.07
266.846	-0.03
267.061	0.01
267.276	0.03
267.491	-0.11
267.706	0.01
267.921	0.02
268.136	0.06
268.351	-0.04
268.566	-0.1
268.781	0.01
268.996	0.04
269.211	-0.05
269.426	-0.07
269.641	-0.11
269.856	0.01
270.071	-0.09
270.285	-0.12
270.5	-0.01
270.715	-0.02
270.93	-0.03
271.145	0.02
271.359	0
271.574	-0.12
271.789	-0.1
272.004	-0
272.218	-0.04
272.433	0.06
272.648	-0.04
272.862	0.03
273.077	-0.05
273.292	-0.01
273.506	-0.05
273.721	-0.07
273.936	-0.02
274.15	0.02
274.365	-0.06
274.579	0.02
274.794	0
275.008	0.01
275.223	-0.09
275.437	-0.05
275.652	0.01
275.866	-0.06
276.081	-0.04
276.295	0.03
276.509	-0.02
276.724	-0
276.938	-0.07
277.153	0.01
277.367	0.03
277.581	-0.09
277.796	-0.08
278.01	-0.05
278.224	0.02
278.438	0.09
278.653	-0.12
278.867	-0.07
279.081	0.01
279.295	-0.05
279.51	0
279.724	-0.09
279.938	0.01
280.152	0.02
280.366	-0.04
280.58	0.03
280.794	0.04
281.008	-0.06
281.222	0.07
281.437	0.04
281.651	-0.04
281.865	0.04
282.079	-0.03
282.293	-0.11
282.507	-0.1
282.721	-0.04
282.935	-0.05
283.148	-0.09
283.362	-0.05
283.576	-0.11
283.79	-0
284.004	-0.09
284.218	0.02
284.432	-0.12
284.646	-0.02
284.859	-0.07
285.073	-0.06
285.287	-0.01
285.501	-0.04
285.714	-0.04
285.928	-0.01
286.142	-0.03
286.356	-0.08
286.569	-0.02
286.783	0.03
286.997	-0.01
287.21	-0.02
287.424	0.01
287.637	-0.06
287.851	-0.03
288.065	0.02
288.278	-0.04
288.492	-0
288.705	-0.03
288.919	0.02
289.132	-0.09
289.346	0.02
289.559	-0.07
289.773	-0.12
289.986	-0.04
290.2	-0.06
290.413	-0.01
290.626	-0.09
290.84	-0.02
291.053	-0.03
291.267	0.05
291.48	-0.02
291.693	0.01
291.906	-0.06
292.12	-0.08
292.333	-0.09
292.546	-0.02
292.76	0.09
292.973	0.01
293.186	0
293.399	-0.06
293.612	0.02
293.826	-0.02
294.039	-0.04
294.252	-0.01
294.465	-0.02
294.678	0.02
294.891	-0.03
295.104	-0.09
295.317	0.01
295.53	0
295.743	-0.04
295.956	-0.03
296.169	0.01
296.382	-0.01
296.595	-0.08
296.808	-0.09
297.021	0.03
297.234	0.05
297.447	-0.01
297.66	0.04
297.873	0.06
298.086	0.02
298.299	-0.05
298.511	-0.08
298.724	-0.07
298.937	-0.08
299.15	-0.06
299.363	0.02
299.575	0.04
299.788	-0.01
300.001	-0.06
300.213	-0.04
300.426	-0.05
300.639	-0.04
300.852	-0.05
301.064	0.04
301.277	0.06
301.489	0.07
301.702	0.02
301.915	-0
302.127	-0.05
302.34	0
302.552	0.01
302.765	-0.03
302.977	0.03
303.19	-0.03
303.402	-0.04
303.615	-0.02
303.827	-0.04
304.04	-0.04
304.252	-0
304.464	-0.01
304.677	0.1
304.889	0.05
305.102	-0.06
305.314	-0.04
305.526	0.02
305.739	0.04
305.951	-0.03
306.163	-0.03
306.375	0.13
306.588	-0.06
306.8	-0.02
307.012	-0.06
307.224	0.02
307.436	0.06
307.649	-0.11
307.861	0.03
308.073	0.01
308.285	-0.05
308.497	-0.03
308.709	-0.02
308.921	0.01
309.133	0.06
309.346	-0.05
309.558	-0.02
309.77	0.02
309.982	0.04
310.194	0
310.406	-0.06
310.617	0.03
310.829	0.05
311.041	0.01
311.253	-0.11
311.465	-0.02
311.677	0.01
311.889	-0.01
312.101	-0.04
312.313	0.03
312.524	-0
312.736	-0.04
312.948	-0
313.16	0.08
313.372	0.02
313.583	0
313.795	-0.05
314.007	-0.04
314.218	0.02
314.43	-0.02
314.642	-0.04
314.853	-0.07
315.065	0.02
315.277	-0.01
315.488	-0.02
315.7	0.04
315.912	-0.01
316.123	-0.02
316.335	-0.04
316.546	0.07
316.758	0
316.969	-0.05
317.181	-0.05
317.392	-0.04
317.604	0.05
317.815	-0.08
318.026	-0.07
318.238	-0.03
318.449	-0
318.661	-0.09
318.872	-0.1
319.083	-0.06
319.295	-0.01
319.506	-0.07
319.717	-0.03
319.929	0
320.14	-0.04
320.351	-0.01
320.562	-0.05
320.774	0.01
320.985	-0.02
321.196	-0.03
321.407	-0.08
321.618	0.04
321.829	0
322.041	0
322.252	-0.03
322.463	0.03
322.674	0.02
322.885	-0.09
323.096	0
323.307	-0.06
323.518	0.02
323.729	-0.08
323.94	-0.02
324.151	-0.01
324.362	0.02
324.573	0.01
324.784	-0.05
324.995	0.02
325.206	0.03
325.417	-0.06
325.628	-0.01
325.838	-0.01
326.049	0.03
326.26	0
326.471	-0.03
326.682	0.04
326.892	0.01
327.103	-0.08
327.314	-0.11
327.525	0.05
327.735	0.01
327.946	-0.03
328.157	-0.04
328.368	-0.01
328.578	0.01
328.789	0.02
328.999	0.02
329.21	-0.02
329.421	0.03
329.631	-0.08
329.842	-0.01
330.052	-0.04
330.263	0.01
330.473	0.04
330.684	-0.05
330.894	-0.06
331.105	-0.01
331.315	-0.05
331.526	-0.08
331.736	0.05
331.947	-0.01
332.157	-0
332.367	-0.07
332.578	-0.01
332.788	0.01
332.999	-0.02
333.209	-0.04
333.419	-0.08
333.629	-0.03
333.84	-0.02
334.05	-0.03
334.26	0.05
334.47	-0.03
334.681	0.01
334.891	-0.05
335.101	0
335.311	0.06
335.521	-0.01
335.732	-0.06
335.942	0.03
336.152	0.02
336.362	0
336.572	-0.03
336.782	0.03
336.992	-0.03
337.202	-0.06
337.412	-0.04
337.622	-0.02
337.832	-0.03
338.042	-0.03
338.252	-0.04
338.462	-0.06
338.672	-0.03
338.882	-0.02
339.092	0
339.302	0.05
339.511	0.02
339.721	-0.04
339.931	-0.05
340.141	-0
340.351	0.02
340.561	0
340.77	0.01
340.98	-0.04
341.19	-0.02
341.4	-0.01
341.609	-0.04
341.819	-0
342.029	-0.07
342.238	-0.04
342.448	-0.05
342.658	0.04
342.867	-0.04
343.077	-0.01
343.286	-0
343.496	-0.01
343.706	0.05
343.915	-0.07
344.125	-0.01
344.334	0.01
344.544	-0.06
344.753	-0.03
344.963	-0.04
345.172	-0.04
345.381	-0.04
345.591	-0.02
345.8	-0
346.01	0.04
346.219	0.04
346.428	-0.18
346.638	-0.04
346.847	0
347.056	0.05
347.266	-0.08
347.475	0
347.684	0.01
347.893	0
348.103	0.02
348.312	-0.02
348.521	-0.03
348.73	-0.02
348.94	-0.03
349.149	-0.06
349.358	-0.04
349.567	-0.08
349.776	-0.06
349.985	-0.07
350.194	0.01
350.403	0.02
350.612	-0.06
350.821	-0.05
351.03	-0.02
351.239	-0.06
351.448	0.01
351.657	-0.03
351.866	0.03
352.075	-0.02
352.284	0.05
352.493	-0.1
352.702	0.01
352.911	-0
353.12	-0.04
353.329	-0.05
353.538	-0.02
353.746	-0.02
353.955	-0.03
354.164	0.02
354.373	-0.02
354.582	0.03
354.79	-0
354.999	0.01
355.208	-0.04
355.416	0.08
355.625	-0.09
355.834	-0.04
356.042	0
356.251	-0.05
356.46	-0.06
356.668	0.02
356.877	0.08
357.085	0.01
357.294	-0.1
357.503	0.03
357.711	-0.02
357.92	0.1
358.128	-0.03
358.337	-0.03
358.545	0.02
358.754	-0.03
358.962	-0.03
359.17	-0.01
359.379	-0.03
359.587	0.01
359.796	0
360.004	0.03
360.212	-0.02
360.421	0.02
360.629	-0.04
360.837	-0.03
361.046	-0.01
361.254	0.06
361.462	-0.06
361.67	0.04
361.879	-0.02
362.087	0.03
362.295	-0.02
362.503	-0.05
362.711	-0.08
362.92	-0.05
363.128	-0.02
363.336	-0.06
363.544	-0.09
363.752	-0.06
363.96	-0.06
364.168	-0.02
364.376	-0.01
364.584	-0.01
364.792	0.02
365	-0
365.208	-0.02
365.416	-0.01
365.624	0.01
365.832	-0.03
366.04	0.01
366.248	0
366.456	0.02
366.664	0
366.872	0.01
367.079	-0.03
367.287	-0
367.495	-0.04
367.703	0.01
367.911	-0.02
368.118	0.03
368.326	-0.03
368.534	-0.07
368.742	0.03
368.949	-0.05
369.157	-0.03
369.365	0.05
369.572	-0.05
369.78	-0.03
369.988	0.03
370.195	0.04
370.403	0.04
370.61	-0.03
370.818	-0.01
371.026	0.03
371.233	-0.01
371.441	0.05
371.648	0
371.856	0.01
372.063	0.01
372.271	0
372.478	-0.02
372.685	-0.04
372.893	0.03
373.1	-0.01
373.308	-0.01
373.515	0.06
373.722	0.01
373.93	0.03
374.137	0.02
374.344	0.09
374.552	0.01
374.759	0.01
374.966	0
375.173	0.01
375.381	0.07
375.588	-0
375.795	-0.01
376.002	-0.01
376.209	0.01
376.417	0.01
376.624	0.01
376.831	0.03
377.038	0.04
377.245	0.02
377.452	0.02
377.659	0.06
377.866	0.02
378.073	0.04
378.28	0.04
378.487	0.11
378.694	0.03
378.901	0.06
379.108	0.07
379.315	0.13
379.522	0.17
379.729	0.08
379.936	0.08
380.143	0.07
380.35	0.13
380.557	0.11
380.763	0.07
380.97	0.11
381.177	0.12
381.384	0.08
381.591	0.12
381.797	0.12
382.004	0.12
382.211	0.14
382.418	0.08
382.624	0.13
382.831	0.14
383.038	0.07
383.244	0.06
383.451	0.09
383.658	0.12
383.864	0.05
384.071	0.03
384.277	0.13
384.484	0.06
384.69	0.1
384.897	0.03
385.103	0.08
385.31	0.01
385.516	0.06
385.723	0.06
385.929	0.02
386.136	0.01
386.342	0.06
386.549	0.02
386.755	0.1
386.961	0.04
387.168	-0
387.374	0.04
387.58	0.06
387.787	0.03
387.993	0.06
388.199	-0.03
388.406	0.01
388.612	0.05
388.818	-0.01
389.024	0
389.231	-0.01
389.437	0.1
389.643	0.04
389.849	0.01
390.055	0.03
390.261	0
390.467	0.03
390.674	-0.06
390.88	0.01
391.086	-0.01
391.292	-0.05
391.498	0.04
391.704	0.03
391.91	0.04
392.116	-0.03
392.322	-0.08
392.528	0.02
392.734	-0.02
392.94	-0.02
393.146	-0.03
393.352	0.03
393.557	-0.04
393.763	-0.02
393.969	0
394.175	0.01
394.381	-0.01
394.587	-0.02
394.792	-0
394.998	0.01
395.204	0.06
395.41	-0.01
395.615	0.02
395.821	0.01
396.027	0.02
396.233	-0.05
396.438	0.01
396.644	0.05
396.85	-0.02
397.055	-0.04
397.261	0
397.466	-0.03
397.672	-0.02
397.878	0.03
398.083	0
398.289	-0.03
398.494	-0.02
398.7	0.01
398.905	-0.08
399.111	0.05
399.316	-0.1
399.522	-0.03
399.727	-0.02
399.932	-0.05
400.138	0.02
400.343	0.03
400.549	0.01
400.754	-0
400.959	0.01
401.165	-0.02
401.37	0
401.575	0.13
401.78	-0.03
401.986	-0.03
402.191	-0.03
402.396	-0.06
402.601	0.05
402.807	0
403.012	0.02
403.217	0.02
403.422	-0.04
403.627	-0.03
403.832	-0.02
404.037	0
404.243	-0.03
404.448	-0.05
404.653	-0.04
404.858	-0.01
405.063	0.04
405.268	-0.07
405.473	-0.06
405.678	-0.06
405.883	0.09
406.088	0.01
406.293	-0.07
406.498	-0.06
406.703	0.02
406.907	-0.01
407.112	-0.06
407.317	-0.01
407.522	-0
407.727	-0.08
407.932	-0.05
408.136	0.04
408.341	0.02
408.546	0
408.751	-0.01
408.956	-0.05
409.16	-0.04
409.365	0.01
409.57	-0.01
409.774	-0.05
409.979	0.02
410.184	-0.01
410.388	-0.03
410.593	0.03
410.798	-0.03
411.002	-0.05
411.207	-0.03
411.411	-0.03
411.616	-0.03
411.82	-0.03
412.025	-0
412.229	-0.06
412.434	0.02
412.638	0.01
412.843	-0.02
413.047	0
413.252	-0.05
413.456	-0.01
413.66	-0
413.865	-0.09
414.069	0.04
414.273	-0.06
414.478	-0.1
414.682	-0.02
414.886	-0.03
415.091	-0.03
415.295	-0.1
415.499	0
415.703	-0
415.908	0.01
416.112	-0.15
416.316	0.01
416.52	-0.03
416.724	-0.08
416.929	-0.06
417.133	0.06
417.337	-0.05
417.541	-0.04
417.745	-0.04
417.949	0
418.153	-0.03
418.357	-0.06
418.561	0.04
418.765	-0.05
418.969	0.08
419.173	0.07
419.377	-0.04
419.581	0.02
419.785	-0.06
419.989	-0.06
420.193	-0.09
420.397	-0.08
420.601	0.04
420.804	0.01
421.008	-0.06
421.212	0.01
421.416	-0.01
421.62	-0.05
421.823	0.03
422.027	0.06
422.231	0
422.435	-0.01
422.638	-0.07
422.842	-0
423.046	-0.08
423.249	0.01
423.453	0
423.657	-0
423.86	0.02
424.064	-0.02
424.268	0.05
424.471	0
424.675	0.06
424.878	0.04
425.082	-0.05
425.285	0.02
425.489	-0.05
425.692	-0.03
425.896	-0.06
426.099	0.02
426.303	-0.06
426.506	-0.06
426.71	0.03
426.913	0.02
427.116	0.08
427.32	-0.02
427.523	-0.03
427.726	0.1
427.93	-0.05
428.133	-0.05
428.336	-0.07
428.54	-0.05
428.743	0.03
428.946	0.01
429.149	-0.01
429.353	-0.01
429.556	-0.05
429.759	-0.05
429.962	-0.05
430.165	-0.03
430.368	0
430.571	-0.04
430.775	0
430.978	-0.04
431.181	0.02
431.384	-0.01
431.587	-0.01
431.79	-0.01
431.993	-0.07
432.196	-0.03
432.399	-0.04
432.602	0.1
432.805	-0.04
433.008	-0.02
433.211	-0.11
433.414	0.03
433.616	0
433.819	-0.02
434.022	-0.09
434.225	0.08
434.428	0.01
434.631	0.07
434.833	0.01
435.036	-0.05
435.239	0.01
435.442	-0.03
435.645	-0.04
435.847	-0.01
436.05	0.06
436.253	0.01
436.455	-0.04
436.658	-0.03
436.861	0.08
437.063	-0.01
437.266	0
437.468	0.03
437.671	0.16
437.874	-0.02
438.076	-0.07
438.279	-0.07
438.481	-0.01
438.684	-0.02
438.886	0.04
439.089	-0.11
439.291	-0.01
439.494	0.01
439.696	-0.06
439.899	-0
440.101	0.08
440.303	-0.03
440.506	0.08
440.708	-0.02
440.91	0.09
441.113	0
441.315	0.08
441.517	-0.03
441.72	0.06
441.922	-0.02
442.124	-0.1
442.326	0.02
442.529	0.06
442.731	-0.04
442.933	0.08
443.135	0.02
443.337	0.01
443.539	0.03
443.742	0.01
443.944	0.02
444.146	0.01
444.348	-0.01
444.55	0.01
444.752	0.05
444.954	0.01
445.156	0.03
445.358	0.04
445.56	0.06
445.762	0.09
445.964	0.02
446.166	0.01
446.368	0.03
446.57	0.04
446.772	0.06
446.974	0.01
447.175	0.04
447.377	0.02
447.579	0.06
447.781	-0.02
447.983	0.1
448.184	0.01
448.386	0.06
448.588	-0.03
448.79	0.1
448.991	0.03
449.193	0.05
449.395	0.01
449.597	0.03
449.798	0.06
450	0.05
450.202	0.05
450.403	0.01
450.605	0.08
450.806	0.04
451.008	-0.03
451.21	0.01
451.411	0.05
451.613	0.02
451.814	0.04
452.016	0.08
452.217	0.04
452.419	0.13
452.62	0
452.821	0.08
453.023	0.1
453.224	0.09
453.426	0.03
453.627	0.07
453.828	0.05
454.03	0.04
454.231	0.06
454.432	-0.04
454.634	0.09
454.835	-0.01
455.036	-0.01
455.238	0.03
455.439	0.1
455.64	-0.04
455.841	-0.02
456.042	0.11
456.244	0.03
456.445	-0.03
456.646	-0.04
456.847	-0.03
457.048	0.02
457.249	0.05
457.45	0.19
457.651	-0.03
457.852	0.07
458.054	0.04
458.255	0
458.456	0.1
458.657	-0
458.858	-0.04
459.058	-0.02
459.259	0.1
459.46	-0.01
459.661	-0.03
459.862	0.11
460.063	-0.02
460.264	0.06
460.465	-0.07
460.666	0.13
460.866	-0.02
461.067	-0.01
461.268	-0.03
461.469	0.01
461.67	-0.01
461.87	0.01
462.071	0.01
462.272	-0.02
462.473	0
462.673	0.01
462.874	-0.01
463.075	-0
463.275	-0.04
463.476	0.03
463.676	-0
463.877	0.04
464.078	0.06
464.278	0.03
464.479	-0.01
464.679	-0.01
464.88	-0
465.08	0.02
465.281	-0.03
465.481	-0.04
465.682	-0.03
465.882	0.01
466.083	-0.02
466.283	-0.04
466.483	0.03
466.684	-0.03
466.884	-0.04
467.085	-0
467.285	0.06
467.485	-0.07
467.686	-0.01
467.886	-0.06
468.086	-0.03
468.286	-0.02
468.487	0.01
468.687	-0.07
468.887	-0.02
469.087	0
469.287	-0.04
469.488	-0.07
469.688	0.01
469.888	0.01
470.088	0.03
470.288	0.02
470.488	0.01
470.688	-0.06
470.888	-0.06
471.088	-0.01
471.288	0.04
471.488	-0.01
471.688	0.02
471.888	-0.05
472.088	0.05
472.288	0.03
472.488	-0.06
472.688	-0.02
472.888	-0.01
473.088	0
473.288	-0.02
473.488	-0.06
473.688	0.06
473.887	0.02
474.087	-0.06
474.287	-0.02
474.487	-0.05
474.687	0
474.886	-0.01
475.086	-0.01
475.286	0.04
475.486	-0.04
475.685	-0.01
475.885	-0.02
476.085	0.02
476.284	-0.02
476.484	-0.03
476.684	0.02
476.883	0.04
477.083	-0.03
477.282	-0.02
477.482	0.01
477.681	0.08
477.881	-0.01
478.08	-0.06
478.28	-0.06
478.479	0
478.679	0.07
478.878	-0.04
479.078	-0.02
479.277	-0
479.477	0
479.676	0.03
479.875	-0.01
480.075	-0.06
480.274	0.02
480.473	0.01
480.673	-0.02
480.872	0.04
481.071	0.03
481.271	-0.03
481.47	-0.04
481.669	-0.02
481.868	-0
482.067	-0.05
482.267	-0.02
482.466	-0.01
482.665	-0.04
482.864	-0.07
483.063	-0.04
483.262	0
483.461	0.02
483.661	0.02
483.86	-0.03
484.059	-0
484.258	-0.02
484.457	-0.02
484.656	-0.02
484.855	0.01
485.054	-0.06
485.253	-0.01
485.452	-0.03
485.651	-0.03
485.849	0.01
486.048	-0.04
486.247	-0.07
486.446	0.02
486.645	-0.04
486.844	-0.05
487.043	-0.02
487.241	-0.03
487.44	-0.03
487.639	-0.03
487.838	-0
488.037	0.01
488.235	0
488.434	-0.02
488.633	-0.02
488.831	-0.01
489.03	0.04
489.229	-0.02
489.427	-0.01
489.626	0.02
489.825	0.04
490.023	-0.02
490.222	-0.03
490.42	0.01
490.619	0.02
490.817	0.01
491.016	-0.02
491.214	0.02
491.413	-0.02
491.611	-0
491.81	0
492.008	-0
492.207	0.01
492.405	0.01
492.604	-0.07
492.802	-0.01
493	-0
493.199	-0.02
493.397	-0.02
493.595	0.01
493.794	-0.03
493.992	0.04
494.19	-0
494.388	0
494.587	-0.02
494.785	0
494.983	-0.05
495.181	-0
495.379	-0.01
495.578	-0.03
495.776	0.01
495.974	-0
496.172	-0.03
496.37	-0.04
496.568	-0.05
496.766	-0.04
496.964	0.02
497.162	0
497.36	-0.04
497.558	0.03
497.756	-0
497.954	-0.01
498.152	-0.03
498.35	-0.02
498.548	-0.01
498.746	-0.04
498.944	-0.02
499.142	-0
499.34	-0.03
499.538	-0.02
499.736	-0.02
499.933	0.02
500.131	0.01
500.329	0
500.527	0.01
500.725	0.02
500.922	-0
501.12	-0.01
501.318	-0.02
501.516	-0.03
501.713	0.01
501.911	-0.01
502.109	-0.04
502.306	-0.01
502.504	-0.02
502.701	-0.01
502.899	-0.03
503.097	0.04
503.294	-0
503.492	-0.03
503.689	-0.02
503.887	0.01
504.084	0.03
504.282	0
504.479	-0.04
504.677	-0.01
504.874	-0.02
505.072	-0.02
505.269	-0
505.466	0
505.664	0
505.861	-0.05
506.059	-0.02
506.256	0.02
506.453	-0.04
506.651	0.04
506.848	0.01
507.045	-0.01
507.242	0.01
507.44	-0.02
507.637	0.01
507.834	-0
508.031	-0.01
508.229	-0.03
508.426	-0.01
508.623	0.01
508.82	-0.03
509.017	-0.04
509.214	-0.03
509.411	-0.02
509.608	-0.03
509.805	-0.01
510.003	-0.02
510.2	-0.05
510.397	-0.01
510.594	-0.03
510.791	-0.04
510.988	-0.01
511.184	0.02
511.381	-0.01
511.578	-0.02
511.775	0
511.972	-0.01
512.169	-0.01
512.366	-0.02
512.563	0
512.76	-0.02
512.956	0.01
513.153	-0.02
513.35	0.01
513.547	-0.02
513.744	-0.02
513.94	-0.03
514.137	0.01
514.334	-0.02
514.53	-0.02
514.727	0
514.924	0.04
515.12	-0.04
515.317	-0.06
515.514	-0.02
515.71	-0.04
515.907	-0.01
516.103	-0.01
516.3	0
516.497	0.01
516.693	0.01
516.89	-0.01
517.086	-0.04
517.283	0.05
517.479	-0
517.676	-0.02
517.872	-0.01
518.068	-0.02
518.265	-0.03
518.461	-0.02
518.658	-0.05
518.854	-0
519.05	-0.02
519.247	-0.03
519.443	-0
519.639	-0.02
519.836	-0.02
520.032	-0.02
520.228	-0.02
520.424	0.02
520.621	0.02
520.817	-0.01
521.013	0
521.209	-0.01
521.405	0.06
521.601	0.01
521.798	0.01
521.994	0.01
522.19	-0.02
522.386	-0.03
522.582	0.01
522.778	-0
522.974	-0.02
523.17	-0.02
523.366	-0.01
523.562	0.02
523.758	-0.02
523.954	-0.04
524.15	-0.02
524.346	-0
524.542	-0.02
524.738	-0.03
524.934	-0.03
525.129	-0.01
525.325	0
525.521	-0.01
525.717	0.03
525.913	-0.02
526.109	-0.02
526.304	-0.03
526.5	0.02
526.696	0.01
526.892	-0.02
527.087	-0.02
527.283	-0.05
527.479	0
527.674	-0.02
527.87	-0.01
528.066	-0
528.261	0.02
528.457	-0
528.653	-0.01
528.848	-0.02
529.044	-0.02
529.239	-0.02
529.435	0.02
529.63	0
529.826	0.03
530.021	-0.01
530.217	-0
530.412	-0.03
530.608	-0.03
530.803	-0.03
530.999	-0.01
531.194	-0.05
531.389	-0.02
531.585	-0.06
531.78	-0.02
531.975	-0.02
532.171	-0.01
532.366	-0
532.561	-0.01
532.757	-0.03
532.952	-0.03
533.147	-0.01
533.342	-0.03
533.538	-0.01
533.733	0.01
533.928	0
534.123	-0.02
534.318	-0.04
534.513	-0.01
534.709	-0.02
534.904	-0.02
535.099	-0.03
535.294	-0.01
535.489	-0.01
535.684	-0.01
535.879	-0.04
536.074	-0.02
536.269	-0.03
536.464	-0.01
536.659	-0.01
536.854	0
537.049	-0.01
537.244	-0
537.439	-0.02
537.634	0.02
537.828	-0.02
538.023	-0.01
538.218	-0.05
538.413	0
538.608	-0.04
538.803	0.01
538.997	-0.06
539.192	0.02
539.387	0.02
539.582	0.01
539.776	-0.02
539.971	-0.02
540.166	-0.03
540.36	-0.04
540.555	-0.01
540.75	-0.01
540.944	-0.01
541.139	-0.04
541.334	-0.01
541.528	-0.01
541.723	0.01
541.917	-0.04
542.112	-0.04
542.306	-0.02
542.501	-0.04
542.695	-0.01
542.89	-0.03
543.084	-0.01
543.279	-0.02
543.473	-0.01
543.668	-0.02
543.862	-0.01
544.056	0.01
544.251	-0.04
544.445	0
544.64	-0.03
544.834	-0.03
545.028	-0.02
545.222	-0.01
545.417	-0.01
545.611	-0.01
545.805	-0
546	-0.03
546.194	-0.02
546.388	-0.03
546.582	0
546.776	-0.03
546.97	-0.01
547.165	0
547.359	-0.01
547.553	-0.03
547.747	-0
547.941	0
548.135	-0.02
548.329	0.01
548.523	0.03
548.717	-0.01
548.911	-0.04
549.105	-0.02
549.299	-0.01
549.493	0
549.687	0
549.881	-0.01
550.075	-0.02
550.269	-0.04
550.463	0.01
550.657	-0.03
550.85	-0.02
551.044	-0.03
551.238	-0.01
551.432	-0.04
551.626	-0.04
551.82	-0
552.013	-0.03
552.207	0
552.401	-0.01
552.594	-0
552.788	-0.02
552.982	-0
553.176	-0.04
553.369	-0
553.563	0.01
553.756	-0.04
553.95	-0.04
554.144	-0.04
554.337	0.02
554.531	0
554.724	-0.01
554.918	-0.01
555.111	0.01
555.305	-0
555.498	0.01
555.692	0.02
555.885	-0.02
556.079	0
556.272	-0.02
556.466	-0
556.659	0
556.852	-0.03
557.046	-0.01
557.239	0
557.432	-0.04
557.626	-0.03
557.819	-0.01
558.012	0.01
558.206	-0
558.399	-0
558.592	-0.01
558.785	-0.01
558.979	0.02
559.172	0
559.365	0.03
559.558	-0
559.751	-0.01
559.944	-0.01
560.138	-0
560.331	-0.01
560.524	-0
560.717	-0.02
560.91	-0.01
561.103	0.01
561.296	-0.01
561.489	0.02
561.682	-0.02
561.875	0.03
562.068	-0.01
562.261	-0
562.454	0.01
562.647	0.02
562.84	0
563.032	-0.03
563.225	0
563.418	-0.01
563.611	-0.01
563.804	-0.02
563.997	-0.03
564.19	-0.03
564.382	-0.02
564.575	-0.01
564.768	-0.04
564.961	-0.02
565.153	-0.03
565.346	0.02
565.539	-0
565.731	-0
565.924	0.01
566.117	-0.01
566.309	0
566.502	-0.03
566.695	-0.02
566.887	-0
567.08	-0.03
567.272	-0.03
567.465	-0.02
567.657	-0.02
567.85	0
568.042	-0.01
568.235	0.02
568.427	-0.01
568.62	-0.01
568.812	-0.01
569.005	-0.01
569.197	-0.06
569.389	0.01
569.582	0
569.774	-0
569.966	-0.06
570.159	-0.06
570.351	-0.01
570.543	-0.03
570.736	-0.01
570.928	-0.05
571.12	-0.01
571.312	-0.01
571.505	-0.03
571.697	0.03
571.889	-0.03
572.081	-0
572.273	-0.03
572.465	0.02
572.658	-0.02
572.85	-0.01
573.042	-0.02
573.234	-0.03
573.426	-0.02
573.618	-0.05
573.81	0.01
574.002	0.02
574.194	0.03
574.386	-0.05
574.578	-0.06
574.77	-0.04
574.962	-0
575.154	-0.05
575.346	-0.02
575.538	-0.01
575.729	-0.02
575.921	-0.04
576.113	-0.03
576.305	0.02
576.497	-0.01
576.689	-0.03
576.88	-0.04
577.072	0.01
577.264	-0.01
577.456	-0.02
577.647	-0.1
577.839	-0.03
578.031	0.03
578.223	-0.04
578.414	-0.05
578.606	0.01
578.798	-0
578.989	-0.05
579.181	-0.02
579.372	-0.02
579.564	-0.01
579.755	-0.01
579.947	0.01
580.139	-0.01
580.33	-0.05
580.522	-0.03
580.713	-0.08
580.905	-0.04
581.096	0.02
581.287	-0.01
581.479	-0.01
581.67	-0.01
581.862	-0.02
582.053	-0.04
582.244	-0.04
582.436	-0.03
582.627	-0
582.818	-0.02
583.01	-0.05
583.201	0.04
583.392	0.01
583.583	-0.02
583.775	-0.06
583.966	-0.04
584.157	-0.04
584.348	-0.02
584.54	-0.04
584.731	-0.01
584.922	-0.02
585.113	-0.06
585.304	0.01
585.495	0.01
585.686	-0.01
585.877	0
586.068	-0
586.259	-0.01
586.45	-0.01
586.641	-0.04
586.832	-0.04
587.023	-0.02
587.214	-0
587.405	-0.02
587.596	-0.06
587.787	0.03
587.978	-0.01
588.169	-0.04
588.36	-0.05
588.551	0.01
588.742	-0.03
588.932	0.01
589.123	-0.02
589.314	-0
589.505	-0
589.696	-0.01
589.886	-0.04
590.077	-0.07
590.268	-0.02
590.458	-0.03
590.649	-0.05
590.84	0.02
591.03	-0.03
591.221	-0.04
591.412	-0.06
591.602	0.01
591.793	0
591.984	-0.04
592.174	-0.04
592.365	0.04
592.555	-0.05
592.746	0.01
592.936	-0.01
593.127	-0.02
593.317	0.02
593.508	-0.03
593.698	-0.03
593.889	-0.02
594.079	-0.01
594.269	-0.03
594.46	-0.02
594.65	-0.01
594.84	-0.02
595.031	-0.06
595.221	-0.05
595.411	-0.05
595.602	0
595.792	-0.03
595.982	-0.03
596.172	0.05
596.363	-0.02
596.553	0.01
596.743	-0.01
596.933	-0.02
597.123	0.02
597.314	-0.06
597.504	-0.03
597.694	0.03
597.884	0.01
598.074	-0.02
598.264	-0.01
598.454	-0
598.644	-0.01
598.834	-0.01
599.024	-0.05
599.214	-0.03
599.404	0.02
599.594	-0.04
599.784	-0.06
599.974	0.04
600.164	0.02
600.354	-0.04
600.544	-0.05
600.734	-0.01
600.924	0.02
601.114	-0.02
601.303	-0.01
601.493	-0.02
601.683	-0.03
601.873	0.01
602.063	-0.03
602.252	0.01
602.442	-0.07
602.632	-0.04
602.821	-0.05
603.011	-0.02
603.201	-0.05
603.39	-0.06
603.58	-0.04
603.77	-0.01
603.959	0.03
604.149	-0.01
604.339	-0.04
604.528	0.02
604.718	0.04
604.907	-0.03
605.097	-0.03
605.286	-0.02
605.476	-0.03
605.665	-0.01
605.855	-0.03
606.044	0.03
606.234	0.01
606.423	-0.01
606.612	-0.05
606.802	-0.01
606.991	0.02
607.181	-0.01
607.37	-0.06
607.559	-0.01
607.749	-0.07
607.938	-0.03
608.127	-0.03
608.316	-0.06
608.506	-0.01
608.695	-0.01
608.884	-0.03
609.073	-0.02
609.263	0.01
609.452	0
609.641	0
609.83	-0.04
610.019	-0.04
610.208	-0.03
610.397	-0.01
610.586	0.02
610.775	-0.05
610.965	-0.02
611.154	-0.04
611.343	-0.02
611.532	0
611.721	-0.06
611.91	-0.03
612.099	-0
612.287	-0.02
612.476	-0.03
612.665	-0.02
612.854	-0.04
613.043	0.01
613.232	-0.02
613.421	-0.04
613.61	0
613.798	-0.02
613.987	-0.03
614.176	-0.04
614.365	0.02
614.554	-0.02
614.742	-0.01
614.931	-0.02
615.12	0.03
615.309	-0.01
615.497	-0.02
615.686	-0.02
615.875	-0.03
616.063	-0
616.252	-0.05
616.44	-0.04
616.629	0.01
616.818	-0
617.006	-0.01
617.195	-0.05
617.383	-0
617.572	-0.02
617.76	-0.02
617.949	-0.03
618.137	0.02
618.326	-0.01
618.514	-0.04
618.703	-0.02
618.891	-0
619.079	-0.05
619.268	0.01
619.456	-0.07
619.644	0.04
619.833	-0.03
620.021	-0.05
620.209	-0.05
620.398	0.01
620.586	-0.02
620.774	0.03
620.962	-0.05
621.151	0.03
621.339	0.02
621.527	-0.05
621.715	-0.03
621.903	-0.04
622.092	-0.05
622.28	-0.02
622.468	-0.03
622.656	-0.01
622.844	-0.01
623.032	-0.03
623.22	-0.07
623.408	0.01
623.596	0.01
623.784	0.03
623.972	-0.02
624.16	-0.03
624.348	0.06
624.536	-0.02
624.724	-0.05
624.912	0.03
625.1	0.02
625.288	-0.05
625.476	-0.04
625.664	-0.02
625.851	-0.06
626.039	-0.04
626.227	-0.01
626.415	-0.02
626.603	-0.09
626.79	-0
626.978	-0.02
627.166	0.04
627.354	-0.02
627.541	-0.04
627.729	-0.08
627.917	0.04
628.104	0.01
628.292	-0.02
628.48	-0
628.667	-0
628.855	-0.01
629.042	0.02
629.23	-0.05
629.418	0
629.605	-0.02
629.793	-0.03
629.98	-0.01
630.168	-0.01
630.355	0
630.543	0
630.73	-0.03
630.917	0.02
631.105	0.04
631.292	-0.03
631.48	-0.02
631.667	0.08
631.854	-0
632.042	-0.03
632.229	-0.05
632.416	0.02
632.604	-0.01
632.791	-0.05
632.978	0.01
633.165	0.01
633.353	0.05
633.54	0.07
633.727	-0.05
633.914	0
634.101	-0.11
634.289	0.04
634.476	-0.03
634.663	-0.03
634.85	-0
635.037	-0.04
635.224	-0.06
635.411	0.01
635.598	0.05
635.785	-0.01
635.972	-0.02
636.159	0.04
636.346	-0.02
636.533	-0.04
636.72	-0.01
636.907	-0.02
637.094	0.04
637.281	-0.02
637.468	0.02
637.655	0.02
637.842	-0
638.029	-0.06
638.215	0.02
638.402	0.02
638.589	-0.06
638.776	-0.01
638.963	-0.01
639.149	0.04
639.336	0.07
639.523	-0.01
639.709	-0.02
639.896	-0.02
640.083	0.07
640.27	0.01
640.456	-0
640.643	0.01
640.829	-0.05
641.016	0.01
641.203	-0.05
641.389	0.02
641.576	0.02
641.762	-0
641.949	-0
642.135	0.06
642.322	0
642.508	-0.03
642.695	0.01
642.881	-0.01
643.068	-0
643.254	0.03
643.441	0.05
643.627	0
643.813	-0
644	0.06
644.186	-0
644.372	0.05
644.559	0.04
644.745	0.01
644.931	-0.01
645.118	0.04
645.304	0.01
645.49	0.02
645.676	-0.02
645.862	0.04
646.049	0.07
646.235	0.01
646.421	0.09
646.607	0.1
646.793	0.01
646.979	-0.02
647.165	-0
647.352	0.04
647.538	0.09
647.724	0.01
647.91	0.02
648.096	0.04
648.282	0.07
648.468	0.02
648.654	0.07
648.84	0.04
649.026	0.07
649.212	0.03
649.397	0
649.583	-0.03
649.769	0.1
649.955	0.02
650.141	0.07
650.327	0.05
650.513	0.03
650.698	0.06
650.884	-0.01
651.07	0.05
651.256	0.05
651.442	0.03
651.627	0.02
651.813	0.05
651.999	0.08
652.184	0.1
652.37	0.04
652.556	0.02
652.741	0.11
652.927	-0.03
653.113	0.05
653.298	0.07
653.484	0.06
653.669	0.04
653.855	0.05
654.04	0.09
654.226	0.1
654.412	0.05
654.597	0.03
654.782	0.08
654.968	0.09
655.153	0.08
655.339	0.07
655.524	0.05
655.71	0.12
655.895	0.05
656.08	0.07
656.266	0.12
656.451	0.07
656.636	0.03
656.822	0.08
657.007	0.04
657.192	0.09
657.378	0.04
657.563	0.07
657.748	0.1
657.933	0.08
658.118	0.06
658.304	0.08
658.489	0.13
658.674	0.1
658.859	0.08
659.044	0.09
659.229	0.13
659.414	0.07
659.599	0.06
659.785	0.07
659.97	0.11
660.155	0.08
660.34	0.07
660.525	0.07
660.71	0.07
660.895	0.12
661.08	0.06
661.264	0.05
661.449	0.12
661.634	0.14
661.819	0.12
662.004	0.07
662.189	-0.02
662.374	0.08
662.559	0.02
662.743	0.01
662.928	0.06
663.113	0.02
663.298	0.02
663.483	0.05
663.667	0.07
663.852	0.01
664.037	0.1
664.221	0.03
664.406	0.1
664.591	0.04
664.775	0.04
664.96	-0.03
665.145	0.05
665.329	0.08
665.514	0.04
665.698	0.02
665.883	-0.02
666.068	0.08
666.252	0.02
666.437	-0.03
666.621	0
666.806	0.02
666.99	0.01
667.174	-0.04
667.359	0.07
667.543	0.02
667.728	-0.01
667.912	-0.06
668.096	0.01
668.281	0
668.465	-0
668.649	0.02
668.834	-0.01
669.018	-0.02
669.202	-0.02
669.387	-0.06
669.571	0.03
669.755	-0.02
669.939	-0.02
670.124	0.02
670.308	0.01
670.492	-0.01
670.676	0.02
670.86	-0
671.044	-0.04
671.228	0.05
671.413	-0.05
671.597	-0.03
671.781	-0.04
671.965	0.02
672.149	-0.02
672.333	-0.03
672.517	-0.07
672.701	0.05
672.885	-0.02
673.069	-0.06
673.253	0.02
673.437	-0.03
673.621	-0.04
673.804	-0.02
673.988	-0.02
674.172	0
674.356	-0.08
674.54	-0.04
674.724	0.05
674.908	0.02
675.091	0.02
675.275	-0.03
675.459	0
675.643	0.05
675.826	0
676.01	-0.03
676.194	-0.03
676.377	0
676.561	0.03
676.745	-0.01
676.928	-0.01
677.112	-0.01
677.296	-0.03
677.479	-0.05
677.663	-0.04
677.846	0
678.03	-0.04
678.213	-0.04
678.397	-0.01
678.58	-0.04
678.764	-0.08
678.947	-0.04
679.131	-0.08
679.314	-0.03
679.498	-0.06
679.681	0
679.865	0.08
680.048	-0.03
680.231	-0.01
680.415	-0.03
680.598	-0.04
680.781	-0.02
680.965	-0.01
681.148	0.01
681.331	-0.03
681.514	0
681.698	-0.03
681.881	0.01
682.064	-0.05
682.247	-0.01
682.43	-0.09
682.614	-0.05
682.797	0.02
682.98	0.02
683.163	-0.07
683.346	0
683.529	-0.04
683.712	-0.05
683.895	0.06
684.078	-0.05
684.261	-0.01
684.444	-0.02
684.627	-0.01
684.81	-0.05
684.993	-0.04
685.176	-0.04
685.359	-0.06
685.542	-0.02
685.725	0.01
685.908	0
686.091	-0.07
686.274	0.03
686.457	-0.01
686.639	-0.03
686.822	0.01
687.005	-0.04
687.188	-0.04
687.371	0.01
687.553	-0.04
687.736	-0.03
687.919	0.03
688.102	0.02
688.284	-0.03
688.467	-0.02
688.65	-0.02
688.832	-0.05
689.015	-0.03
689.197	-0.05
689.38	0.06
689.563	0.07
689.745	-0.07
689.928	-0.08
690.11	-0.01
690.293	0.03
690.475	-0.09
690.658	-0.01
690.84	-0.05
691.023	-0.02
691.205	-0.04
691.388	-0
691.57	-0.01
691.752	-0.04
691.935	-0.12
692.117	-0.09
692.3	-0.07
692.482	0
692.664	-0
692.847	0.01
693.029	0.01
693.211	-0.01
693.393	-0
693.576	-0.07
693.758	0.02
693.94	-0.05
694.122	-0.08
694.304	-0.04
694.487	-0.04
694.669	0.03
694.851	-0.1
695.033	-0.04
695.215	-0.06
695.397	-0.09
695.579	-0.03
695.761	-0.04
695.943	-0.11
696.125	-0.01
696.308	-0.03
696.49	-0.07
696.671	0.07
696.853	-0.05
697.035	0.09
697.217	-0.02
697.399	-0.01
697.581	-0.01
697.763	-0
697.945	-0.06
698.127	-0.03
698.309	0.02
698.491	-0.06
698.672	-0.02
698.854	0.01
699.036	0.05
699.218	-0.09
699.399	-0.01
699.581	0.01
699.763	-0.02
699.945	-0.1
700.126	-0.04
700.308	0.02
700.49	0
700.671	-0.12
700.853	-0.06
701.035	-0.02
701.216	-0.02
701.398	-0.06
701.579	-0.07
701.761	0.03
701.943	-0.07
702.124	-0.05
702.306	-0.06
702.487	0.05
702.669	-0.04
702.85	-0.05
703.031	-0.02
703.213	0.06
703.394	-0.01
703.576	-0.09
703.757	0.06
703.938	0
704.12	0.17
704.301	0
704.483	-0.05
704.664	0.02
704.845	0.05
705.026	-0.02
705.208	-0.05
705.389	-0.02
705.57	-0.01
705.751	-0.03
705.933	-0.01
706.114	0.04
706.295	-0.04
706.476	-0.11
706.657	0.05
706.838	-0.01
707.02	0.01
707.201	0
707.382	-0.09
707.563	-0.05
707.744	-0.03
707.925	-0.08
708.106	-0.08
708.287	0.01
708.468	0.09
708.649	0.04
708.83	0.04
709.011	-0.06
709.192	0.06
709.373	-0.11
709.554	0.02
709.734	0.05
709.915	-0.01
710.096	-0.02
710.277	-0.1
710.458	0.03
710.639	0.04
710.819	-0.07
711	-0.01
711.181	0.03
711.362	0.06
711.542	0.05
711.723	-0.05
711.904	0.07
712.085	-0
712.265	0.06
712.446	-0.06
712.627	-0.06
712.807	-0.07
712.988	-0.03
713.168	-0.13
713.349	-0.01
713.53	-0.13
713.71	-0.03
713.891	-0.01
714.071	-0.05
714.252	-0.02
714.432	0.02
714.613	-0.11
714.793	0.01
714.974	0.02
715.154	0.05
715.334	0.05
715.515	0.1
715.695	-0.04
715.876	-0.02
716.056	-0.02
716.236	-0.03
716.417	-0.04
716.597	-0.04
716.777	0.11
716.957	-0.04
717.138	0.02
717.318	0.04
717.498	-0.14
717.678	-0.03
717.859	0.02
718.039	-0.08
718.219	0
718.399	0.07
718.579	-0.03
718.759	-0.03
718.939	0.04
719.12	-0.01
719.3	0.04
719.48	-0.11
719.66	-0.12
719.84	0.08
720.02	-0.03
720.2	0.01
720.38	0.06
720.56	0.1
720.74	0.06
720.92	0
721.1	0.08
721.279	0.11
721.459	-0.01
721.639	-0.09
721.819	0
721.999	-0.01
722.179	-0
722.359	-0.04
722.538	0.02
722.718	-0.04
722.898	-0.1
723.078	-0.02
723.257	-0.02
723.437	0.03
723.617	0.04
723.797	-0.03
723.976	-0.04
724.156	0.09
724.336	0.08
724.515	0.24
724.695	-0.13
724.874	0.03
725.054	0.05
725.234	-0.06
725.413	0.03
725.593	-0
725.772	-0.03
725.952	-0.01
726.131	-0.01
726.311	0.06
726.49	0.01
726.67	-0.13
726.849	-0.07
727.028	0.01
727.208	-0.04
727.387	0.09
727.567	-0.14
727.746	0.09
727.925	-0.02
728.105	-0.01
728.284	0.03
728.463	-0.1
728.643	0.08
728.822	0
729.001	-0.08
729.18	0.09
729.359	0.06
729.539	0.01
729.718	0.13
729.897	0.07
730.076	0.01
730.255	-0.07
730.434	0.1
730.614	0
730.793	0.1
730.972	-0.04
731.151	0.01
731.33	0.08
731.509	0.05
731.688	0.12
731.867	0.08
732.046	-0.03
732.225	0.13
732.404	-0.1
732.583	-0.05
732.762	0.03
732.941	0.09
733.12	0.02
733.298	-0.06
733.477	0.08
733.656	0.03
733.835	-0.13
734.014	0.05
734.193	0.08
734.371	0.09
734.55	0.11
734.729	-0.08
734.908	0.12
735.086	0.02
735.265	0.1
735.444	-0.16
735.623	-0.12
735.801	0.03
735.98	-0.01
736.159	0.08
736.337	0.09
736.516	0.07
736.694	0.07
736.873	-0.01
737.052	0.14
737.23	0.28
737.409	-0.02
737.587	0.21
737.766	-0.08
737.944	0.06
738.123	0.14
738.301	0.1
738.479	0.09
738.658	-0.01
738.836	-0.11
739.015	0.06
739.193	0.14
739.371	-0.04
739.55	-0.01
739.728	-0.08
739.906	0.13
740.085	0.12
740.263	0.08
740.441	-0.12
740.62	0.32
740.798	0.17
740.976	-0.01
741.154	-0.04
741.332	0.2
741.511	0.01
741.689	0.15
741.867	0.07
742.045	-0.02
742.223	0.03
742.401	-0.12
742.579	-0.06
742.757	0.07
742.935	-0.11
743.114	-0.07
743.292	-0.12
743.47	-0.01
743.648	0.09
743.826	-0.11
744.004	0.05
744.181	0.14
744.359	-0.11
744.537	0.03
744.715	-0.01
744.893	0
745.071	0.04
745.249	-0.11
745.427	-0.11
745.605	-0.01
745.782	0.03
745.96	-0
746.138	0.01
746.316	0.08
746.493	-0.08
746.671	-0.06
746.849	-0.07
747.027	0.16
747.204	-0.07
747.382	0.04
747.56	-0.19
747.737	-0.07
747.915	-0.14
748.093	0.05
748.27	0.01
748.448	-0.02
748.625	-0.11
748.803	-0.16
748.98	-0.01
749.158	0.02
749.335	0.08
749.513	-0.09
749.69	-0.07
749.868	-0.01
750.045	0.07
750.223	-0.05
750.4	-0.27
750.578	0.21
750.755	-0.08
750.932	-0.12
751.11	0.01
751.287	-0.32
751.464	0.13
751.642	-0.13
751.819	-0.04
751.996	-0.02
752.173	-0.04
752.351	-0.16
752.528	0.04
752.705	-0.12
752.882	-0.08
753.06	-0.05
753.237	-0.01
753.414	0.09
753.591	0.13
753.768	-0.07
753.945	-0.09
754.122	-0.19
754.299	-0.01
754.476	-0.13
754.654	-0
754.831	0.07
755.008	-0.11
755.185	-0.05
755.362	-0.1
755.539	0.09
755.716	-0.15
755.892	-0.1
756.069	-0.1
756.246	-0.08
756.423	-0.11
756.6	0.08
756.777	-0.06
756.954	0.16
757.131	-0.02
757.307	-0.09
757.484	-0.14
757.661	-0
757.838	-0.04
758.015	-0.19
758.191	0.06
758.368	-0.06
758.545	0.1
758.721	-0.02
758.898	-0.01
759.075	0.04
759.251	0
759.428	0.01
759.605	-0.21
759.781	-0.03
759.958	-0.05
760.134	-0.04
760.311	-0.11
760.488	0.09
760.664	0.13
760.841	-0.11
761.017	-0.07
761.194	0.04
761.37	0
761.547	-0.07
761.723	-0.03
761.899	0.14
762.076	-0.18
762.252	-0.16
762.429	-0.15
762.605	0.08
762.781	-0.1
762.958	-0.07
763.134	-0.09
763.31	-0.1
763.486	0.1
763.663	-0.14
763.839	0.06
764.015	-0.18
764.191	-0.13
764.368	-0.09
764.544	-0.15
764.72	-0.03
764.896	0.17
765.072	-0.05
765.248	-0.08
765.425	-0.07
765.601	-0.04
765.777	-0.13
765.953	-0.27
766.129	-0.15
766.305	-0.18
766.481	-0.01
766.657	-0.05
766.833	0.11
767.009	-0.12
767.185	-0.09
767.361	-0.08
767.537	-0.16
767.713	0.11
767.889	-0.15
768.065	-0.09
768.24	-0.23
768.416	-0.03
768.592	-0.19
768.768	-0.12
768.944	-0.07
769.12	-0.18
769.295	-0.09
769.471	-0.09
769.647	-0.14
769.823	0.06
769.998	-0.11
770.174	-0.14
770.35	0.24
770.525	0.22
770.701	0.03
770.877	-0.07
771.052	-0.11
771.228	0.09
771.403	-0.06
771.579	0.07
771.755	0.23
771.93	-0.18
772.106	-0.21
772.281	-0.19
772.457	-0.01
772.632	-0.03
772.808	-0.36
772.983	-0.21
773.159	-0.2
773.334	0.07
773.509	-0.07
773.685	-0.15
773.86	0.22
774.036	-0.03
774.211	-0.09
774.386	-0.15
774.562	0.02
774.737	0.13
774.912	-0.19
775.087	0
775.263	-0.05
775.438	-0.06
775.613	-0.13
775.788	-0.04
775.964	0.1
776.139	0.32
776.314	-0.29
776.489	-0.07
776.664	0.01
776.839	-0.3
777.014	0.08
777.19	0.03
777.365	0
777.54	0.11
777.715	-0.18
777.89	0.02
778.065	-0.08
778.24	-0.04
778.415	0.16
778.59	-0.27
778.765	-0.28
778.94	-0.17
779.115	-0.33
779.289	-0.14
779.464	0.1
779.639	-0.11
779.814	-0.26
779.989	-0.11
780.164	0.1
780.339	0.08
780.513	-0.24
780.688	-0.1
780.863	-0.01
781.038	0.11
781.212	-0.16
781.387	-0.07
781.562	0.07
781.737	0.01
781.911	0.1
782.086	-0.29
782.261	-0.12
782.435	0.27
782.61	0
782.784	-0.09
782.959	0.07
783.134	-0.27
783.308	-0.21
783.483	-0.31
783.657	0.17
783.832	0.12
784.006	-0.2
784.181	-0.17
784.355	0.03
784.53	0.02
784.704	-0.34
784.878	0.04
785.053	-0.21
785.227	0.1
785.402	0.2
785.576	-0.31
785.75	-0.13
785.925	-0.12
786.099	-0.08
786.273	-0.08
786.448	0.24
786.622	-0.1
786.796	-0.19
786.97	-0.05
787.145	0.45
787.319	-0.44
787.493	-0.21
787.667	-0.32
787.841	-0.27
788.015	0.11
788.19	-0.11
788.364	-0.06
788.538	0.04
788.712	0.09
788.886	-0.06
789.06	0.03
789.234	0.01
789.408	-0.26
789.582	-0.15
789.756	-0.12
789.93	-0.26
790.104	-0.03
790.278	-0.24
790.452	-0.25
790.626	0.19
790.8	-0.2
790.973	0.12
791.147	0.23
791.321	0.19
791.495	0.12
791.669	0.04
791.843	-0.04
792.016	0.06
792.19	0.39
792.364	-0.27
792.538	0.11
792.711	0.05
792.885	-0.31
793.059	-0.17
793.233	-0.52
793.406	0.07
793.58	-0.14
793.754	-0.1
793.927	-0.17
794.101	0.27
794.274	0.08
794.448	0.11
794.622	-0.29
794.795	0.15
794.969	0.01
795.142	0.43
795.316	-0.02
795.489	-0.14
795.663	0.27
795.836	0
796.009	-0.2
796.183	0.35
796.356	-0
796.53	0.1
796.703	-0.04
796.876	0.5
797.05	-0.05
797.223	-0.19
797.396	0.13
797.57	-0.27
797.743	0.04
797.916	-0.1
798.09	-0.13
798.263	-0.21
798.436	0.05
798.609	-0.44
798.782	0.05
798.956	-0.25
799.129	0.08
799.302	-0.09
799.475	-0.33
799.648	-0.19
799.821	-0.18
799.994	-0.22
800.167	-0.52
800.34	-0.18
800.514	0.07
800.687	-0.16
800.86	-0.13
801.033	-0.29
801.206	-0.23
801.379	-0.28
801.551	0.1
801.724	0.05
801.897	0.08
802.07	-0.28
802.243	-0.64
802.416	-0.13
802.589	-0.16
802.762	-0.04
802.935	-0.09
803.107	-0.17
803.28	0.3
803.453	0.03
803.626	-0.4
803.798	0.04
803.971	-0.03
804.144	-0.06
804.317	0.01
804.489	0.13
804.662	0.02
804.835	0.07
805.007	-0.53
805.18	0.53
805.353	-0.02
805.525	-0.24
805.698	-0.21
805.87	0.02
806.043	0.24
806.215	-0.6
806.388	-0.42
806.56	0.01
806.733	-0.13
806.905	0.12
807.078	-0.18
807.25	-0.3
807.423	-0.16
807.595	-0.24
807.768	-0.11
807.94	0.14
808.112	-0.07
808.285	-0.19
808.457	0.03
808.629	-0.15
808.802	0.2
808.974	-0.03
809.146	-0.2
809.318	-0.37
809.491	0.04
809.663	0.29
809.835	-0.05
810.007	0.2
810.18	-0.18
810.352	-0.54
810.524	-0.17
810.696	0.04
810.868	0.11
811.04	-0.27
811.212	-0.32
811.384	0.4
811.556	0.08
811.728	0.17
811.901	0.47
812.073	-0.12
812.245	0.03
812.417	0.02
812.589	-0.7
812.76	-0.3
812.932	0.11
813.104	0.29
813.276	-0.1
813.448	0.26
813.62	-0.19
813.792	0.23
813.964	-0.06
814.136	0.02
814.307	-0.22
814.479	-0.44
814.651	-0.36
814.823	0.56
814.995	-0.25
815.166	0.32
815.338	-0.44
815.51	-0.66
815.681	0.86
815.853	-0.06
816.025	-0.37
816.196	0.54
816.368	0.02
816.54	-0.44
816.711	-0.85
816.883	0.11
817.054	0.53
817.226	-0.78
817.398	-0.04
817.569	-0.15
817.741	-0.14
817.912	-0.49
818.084	-0.35
818.255	0.11
818.426	-0.42
818.598	-0.26
818.769	-0.76
818.941	0.32
819.112	0.11
819.283	0.17
819.455	-0.64
819.626	-0.3
819.798	-0.07
819.969	-0.07
820.14	-0.43
820.311	-0.34
820.483	-0.37
820.654	0.01
820.825	-0.05
820.996	-0.46
821.168	-0.54
821.339	-0.42
821.51	-0.82
821.681	-0.46
821.852	0.05
822.023	-0.65
822.195	-1.05
822.366	0.58
822.537	-0.4
822.708	0.06
822.879	-0.52
823.05	0.49
823.221	-0.13
823.392	-0.28
823.563	-0.62
823.734	-0.04
823.905	-0.11
824.076	-0.32
824.247	-0.69
824.418	-1.03
824.589	0.64
824.759	-0.47
824.93	-0.54
825.101	-0.62
825.272	0.06
825.443	0.21
825.614	0.27
825.784	-1.03
825.955	0.6
826.126	0.5
826.297	-0.67
826.467	0.93
826.638	0.62
826.809	-0.88
826.98	-0.24
827.15	0.11
827.321	-0.48
827.492	0.62
827.662	-0.22
827.833	1.04
828.003	0.36
828.174	-0.52
828.345	-0.69
828.515	0.16
828.686	0.16
828.856	-0.44
829.027	0
829.197	-0.71
829.368	0.58
829.538	-0.52
829.709	-0.53
829.879	-0.43
830.049	-0.22
830.22	-0.86
830.39	-0.11
830.56	0.3
830.731	-0.14
830.901	-1.48
831.072	-0.38
831.242	-0.54
831.412	-0.36
831.582	-0.34
831.753	-0.88
831.923	0.05
832.093	-0.16
832.263	-0.55
832.434	-0.61
832.604	-0.12
832.774	-0.03
832.944	-0.33
833.114	-0.27
833.284	0.07
833.454	-0.79
833.624	-0.96
833.795	-0.97
833.965	0.22
834.135	0.18
834.305	-1.12
834.475	-1
834.645	-0.71
834.815	-0.17
834.985	-0.49
835.155	-0.83
835.325	0.43
835.494	-0.04
835.664	-0.18
835.834	-0.54
836.004	0.08
836.174	0.55
836.344	-0.21
836.514	-0.81
836.684	-0.58
836.853	-0.05
837.023	0.42
837.193	-0.69
837.363	-0.04
837.532	-0.42
837.702	0.25
837.872	-0.38
838.041	0.15
838.211	0.7
838.381	-1.05
838.55	-0.54
838.72	1.74
838.89	0.73
839.059	-0.68
839.229	-1.05
839.398	1.41
839.568	-0.04
839.738	0.16
839.907	0.41
840.077	0.84
840.246	-0.62
840.416	-0.89
840.585	-0.72
840.755	1.55
840.924	0.64
841.093	-1.17
841.263	-0.34
841.432	0.13
841.602	-0.6
841.771	-0.43
841.94	-0.69
842.11	1.37
842.279	1.15
842.448	-0.84
842.617	0.34
842.787	0.34
842.956	-0.76
843.125	-0.11
843.294	-0.75
843.464	0.47
843.633	-0.42
843.802	-1.35
843.971	-0.93
844.14	-0.07
844.309	0.55
844.479	-1.59
844.648	-1.33
844.817	-0.44
844.986	-0.02
845.155	-0.75
845.324	-0.63
845.493	-0.69
845.662	-0.76
845.831	0.12
846	0.57
846.169	-0.25
846.338	0.65
846.507	0.37
846.676	0.2
846.844	-0.32
847.013	0.33
847.182	-1.09
847.351	-0.45
847.52	-0.69
847.689	0.02
847.858	-0.46
848.026	-0.91
848.195	-1.26
848.364	-0.92
848.533	-0.38
848.701	-0.48
848.87	0.97
849.039	-0.11
849.207	0.06
849.376	0.69
849.545	0.55
849.713	-0.77
849.882	-1.4
850.051	-0.38
850.219	-0.44
850.388	0.06
850.556	-1.16
850.725	-1.06
850.893	-0.53
851.062	-0.74
851.23	0.05
851.399	-1.49
851.567	-0.5
851.736	-0.3
851.904	-1.22
852.073	-0.81
852.241	-0.11
852.41	-0.03
852.578	-0.14
852.746	-0.81
852.915	-0.03
853.083	-0.31
853.251	-1.32
853.42	-0.67
853.588	-0.1
853.756	1.71
853.924	-0.61
854.093	-1.48
854.261	-0.22
854.429	-0.05
854.597	-0.59
854.765	-1.16
854.934	0.42
855.102	1.03
855.27	-0.64
855.438	0.78
855.606	0.59
855.774	0.1
855.942	-1.85
856.11	-2.26
856.278	-0.5
856.446	0.34
856.614	-0.35
856.782	-0.7
856.95	0.77
857.118	1.2
857.286	-0.22
857.454	-1.54
857.622	0.26
857.79	-0.01
857.958	-1.8
858.126	-0.44
858.294	-2.19
858.462	-0.56
858.629	-1.31
858.797	-1.45
858.965	0.31
859.133	-0.14
859.301	-1.51
859.468	0.74
859.636	-0.22
859.804	0.75
859.971	1.02
860.139	-0.53
860.307	0.53
860.474	-0.77
860.642	-0.94
860.81	-1.66
860.977	-1.17
861.145	1.35
861.313	-0.51
861.48	-0.5
861.648	0.09
861.815	-0.77
861.983	-1.57
862.15	-1.34
862.318	-0.64
862.485	-0.7
862.653	-1.57
862.82	-1.62
862.988	1.2
863.155	1.38
863.322	-1.26
863.49	-1.44
863.657	-0.23
863.824	0.83
863.992	-0.71
864.159	-0.69
864.326	0.06
864.494	-1.5
864.661	1.65
864.828	-1.02
864.996	0.97
865.163	1.22
865.33	-1.08
865.497	-2.58
865.664	-1.1
865.832	-2.88
865.999	-1.37
866.166	-1.05
866.333	0.15
866.5	-2.06
866.667	-1.09
866.834	-1.4
867.001	0.72
867.168	-2.73
867.335	-0.01
867.502	-3.03
867.669	-0.5
867.836	2.52
868.003	-1.31
868.17	-0.15
868.337	-0.39
868.504	2.73
868.671	-1.25
868.838	-0.67
869.005	1.32
869.172	1.11
869.339	-1.12
869.505	-1.57
869.672	-0.66
869.839	2
870.006	-0.91
870.173	-1.65
870.339	-0.64
870.506	2.23
870.673	-3.01
870.84	-1.32
871.006	0.1
871.173	0.32
871.34	-0.2
871.506	-1.73
871.673	0.31
871.839	-2.1
872.006	-0.99
872.173	-1.1
872.339	-0.72
872.506	0.82
872.672	-1.48
872.839	-2.04
873.005	0.29
873.172	4.51
873.338	0.87
873.505	-0.26
873.671	-0.62
873.838	0.28
874.004	-1.2
874.171	-0.23
874.337	0.02
874.503	2.34
874.67	-0.17
874.836	0.45
875.002	0.83
875.169	0.68
875.335	-0.2
875.501	-0.82
875.668	-0.28
875.834	0.38
876	-1.17
876.166	0.34
876.332	-0.41
876.499	2.31
876.665	-2.15
876.831	-1.89
876.997	1.98
877.163	-0.14
877.329	-2.92
877.495	-0.31
877.662	0.22
877.828	0.22
877.994	-0.14
878.16	-2.14
878.326	-0.09
878.492	-0.81
878.658	-0.16
878.824	-0.78
878.99	0.47
879.156	-1.15
879.322	2.73
879.487	-1.6
879.653	-0.14
879.819	-1.6
879.985	-1.5
880.151	0.77
880.317	0.4
880.483	0
880.648	1.63
880.814	-3.84
880.98	0.74
881.146	-2.44
881.312	-2.79
881.477	-0.77
881.643	0.49
881.809	2.13
881.974	1.43
882.14	-3.32
882.306	-0.03
882.471	3.06
882.637	-0.82
882.803	1.92
882.968	0.58
883.134	3.07
883.299	0.29
883.465	-0.24
883.63	1.87
883.796	0.79
883.961	-1.58
884.127	0.41
884.292	-3.73
884.458	-2.76
884.623	-2.76
