Data from Apollo_Calib_20240827__AbsoluteIrradiance__677__10-26-00-018.txt Node

Date: Wed Aug 28 10:26:00 BST 2024
User: biology
Spectrometer: FLMT08252
Trigger mode: 0
Integration Time (sec): 5.000000E-1
Scans to average: 5
Electric dark correction enabled: true
Nonlinearity correction enabled: false
Boxcar width: 0
XAxis mode: Wavelengths
Number of Pixels in Spectrum: 3648
>>>>>Begin Spectral Data<<<<<
179.588	-0
179.809	-0
180.03	-0
180.251	-0
180.473	-0
180.694	0
180.915	0
181.136	-0
181.357	-0
181.578	0
181.799	0
182.02	-0
182.241	-0
182.462	-0
182.683	0
182.904	-0
183.125	0
183.346	0
183.567	0
183.788	0
184.009	-0
184.23	0
184.451	0
184.672	-0
184.892	-0
185.113	0
185.334	0
185.555	0
185.776	0
185.996	0
186.217	0
186.438	0
186.659	0
186.879	0
187.1	0
187.321	0
187.541	-0
187.762	0
187.983	0
188.203	0
188.424	0
188.644	0
188.865	0
189.086	0
189.306	0
189.527	0
189.747	0
189.968	0
190.188	0
190.409	0
190.629	0
190.849	-0
191.07	0
191.29	0
191.511	0
191.731	-0
191.951	0
192.172	0
192.392	0
192.612	0
192.833	0
193.053	0
193.273	0
193.493	0
193.714	0
193.934	0
194.154	0
194.374	0
194.594	0
194.815	0
195.035	0
195.255	0
195.475	-0
195.695	0
195.915	0
196.135	0
196.355	0
196.575	0
196.795	0
197.015	-0
197.235	0
197.455	-0
197.675	0
197.895	-0
198.115	-0
198.335	0
198.555	0
198.775	0
198.995	0
199.214	0
199.434	0
199.654	0
199.874	0
200.094	1.77
200.313	1
200.533	0.11
200.753	-0.28
200.973	1.7
201.192	1.2
201.412	-0.38
201.632	0.6
201.851	0.72
202.071	0.21
202.291	0.15
202.51	-0.03
202.73	0.77
202.95	0.12
203.169	-0.43
203.389	0.43
203.608	0.4
203.828	0.13
204.047	-0.06
204.267	0.53
204.486	0.53
204.706	0.72
204.925	0.05
205.145	0.46
205.364	0.43
205.583	1.33
205.803	0.08
206.022	-0.28
206.242	0.51
206.461	0.24
206.68	0.05
206.9	0.35
207.119	0.9
207.338	0.93
207.557	0.09
207.777	0.27
207.996	0.3
208.215	0.7
208.434	0.21
208.654	-0.21
208.873	0.42
209.092	0.92
209.311	0.02
209.53	0.23
209.749	0.31
209.968	0.11
210.187	0.12
210.407	-0.08
210.626	0.2
210.845	0.43
211.064	0.4
211.283	0.04
211.502	0.45
211.721	0.27
211.94	0.07
212.159	0.37
212.377	0.38
212.596	0.5
212.815	0.42
213.034	0.49
213.253	0.38
213.472	0.54
213.691	0.13
213.91	-0.09
214.128	0.15
214.347	0.62
214.566	-0.08
214.785	-0.18
215.003	0.28
215.222	0.33
215.441	0.22
215.66	-0.11
215.878	0.27
216.097	0.44
216.316	-0.04
216.534	0.08
216.753	0.3
216.972	0.16
217.19	0.29
217.409	-0.04
217.627	0.2
217.846	0.09
218.064	0.34
218.283	-0.04
218.501	0.57
218.72	0.46
218.938	0.02
219.157	0.11
219.375	0.35
219.594	0.39
219.812	-0.1
220.031	-0.04
220.249	0.61
220.467	0.51
220.686	0.09
220.904	0.01
221.122	-0.05
221.341	0.5
221.559	0.36
221.777	0.09
221.995	0.13
222.214	0.3
222.432	0.06
222.65	0.29
222.868	0.33
223.086	0.29
223.305	0.4
223.523	0.1
223.741	0.39
223.959	0.18
224.177	-0.07
224.395	0.06
224.613	0.12
224.831	0.27
225.049	0.1
225.267	0.23
225.485	0.24
225.703	0.25
225.921	0.07
226.139	0.15
226.357	0.29
226.575	0.24
226.793	0.05
227.011	0.52
227.229	0.23
227.447	0.38
227.665	-0.02
227.883	0.13
228.1	0.05
228.318	0.24
228.536	-0.11
228.754	0.04
228.972	0.14
229.189	0.34
229.407	0.08
229.625	0.07
229.843	0.33
230.06	0.13
230.278	0.14
230.496	0.14
230.713	0.2
230.931	0.34
231.149	0.03
231.366	-0.05
231.584	0.2
231.801	0.47
232.019	0.05
232.236	-0.02
232.454	0.09
232.671	0.23
232.889	0.09
233.106	-0.02
233.324	0.14
233.541	0.07
233.759	0.16
233.976	0.04
234.194	0.13
234.411	0.16
234.628	-0.05
234.846	0.03
235.063	0.11
235.28	0.09
235.498	0.08
235.715	0.01
235.932	0.23
236.149	0.14
236.367	0.01
236.584	0.19
236.801	0.11
237.018	0.16
237.236	0.03
237.453	-0.01
237.67	0.24
237.887	0.1
238.104	-0.01
238.321	0.07
238.538	0.08
238.755	0.25
238.973	-0.01
239.19	0.08
239.407	0.15
239.624	0.12
239.841	-0.11
240.058	-0.03
240.275	0.12
240.492	0.09
240.709	0.17
240.925	0.07
241.142	0.16
241.359	-0.01
241.576	0.08
241.793	0.1
242.01	0.02
242.227	0.2
242.444	0.18
242.66	0.17
242.877	0.2
243.094	0.06
243.311	0.19
243.527	0.07
243.744	0.07
243.961	0.16
244.178	0.06
244.394	0.07
244.611	0.2
244.828	0.21
245.044	-0.03
245.261	0.07
245.477	0.07
245.694	0.13
245.911	0.06
246.127	0.12
246.344	0.28
246.56	0.21
246.777	0.1
246.993	0.07
247.21	0.13
247.426	0.19
247.643	0.11
247.859	-0.04
248.076	0.04
248.292	0.33
248.508	0.12
248.725	0.06
248.941	0.17
249.157	0.16
249.374	0.07
249.59	0.08
249.806	-0
250.023	0.17
250.239	-0.01
250.455	-0.02
250.671	0.09
250.888	0.19
251.104	0.15
251.32	0.1
251.536	0.17
251.752	0.13
251.969	0.05
252.185	0.09
252.401	0.31
252.617	0.07
252.833	0.03
253.049	0.13
253.265	0.01
253.481	0.14
253.697	0.09
253.913	-0.07
254.129	0.12
254.345	0.14
254.561	0.01
254.777	0.06
254.993	0.2
255.209	0.12
255.425	0.02
255.641	0.02
255.857	0.19
256.073	0.09
256.288	-0.06
256.504	0.09
256.72	0.1
256.936	0.23
257.152	0.04
257.367	0.02
257.583	0.06
257.799	0.16
258.015	0.04
258.23	0.04
258.446	0.19
258.662	0.03
258.877	-0.01
259.093	-0
259.309	0.1
259.524	0.18
259.74	0.01
259.955	-0.07
260.171	0.12
260.387	0.08
260.602	0.16
260.818	0.1
261.033	0.03
261.249	0.09
261.464	0.03
261.68	-0.02
261.895	0.12
262.11	0.15
262.326	0.03
262.541	0.06
262.757	0.14
262.972	0.07
263.187	0.11
263.403	0.05
263.618	0.18
263.833	0.06
264.049	0.06
264.264	0.1
264.479	0.17
264.694	0.17
264.91	0.06
265.125	0.09
265.34	0.16
265.555	0.2
265.77	0.08
265.986	0.02
266.201	0.09
266.416	0.14
266.631	0.03
266.846	0.07
267.061	0.11
267.276	0.09
267.491	-0.05
267.706	0.1
267.921	0.09
268.136	0.11
268.351	0.07
268.566	0.02
268.781	0.17
268.996	0.08
269.211	0.06
269.426	0.04
269.641	0.06
269.856	0.14
270.071	0.11
270.285	0.02
270.5	0.17
270.715	0.14
270.93	0.04
271.145	0.09
271.359	0.17
271.574	0.07
271.789	0.07
272.004	0.03
272.218	0.05
272.433	0.11
272.648	-0.03
272.862	0.13
273.077	0
273.292	0.09
273.506	0.04
273.721	0.08
273.936	0.09
274.15	0.11
274.365	0.06
274.579	0.06
274.794	0.12
275.008	0.11
275.223	-0.02
275.437	0.07
275.652	0.06
275.866	0.14
276.081	0.12
276.295	0.11
276.509	0.08
276.724	0.01
276.938	0.07
277.153	0.07
277.367	0.11
277.581	0.05
277.796	-0.01
278.01	0.01
278.224	0.16
278.438	0.16
278.653	-0.03
278.867	0.03
279.081	-0.03
279.295	-0.01
279.51	0.08
279.724	-0.01
279.938	0.13
280.152	0.07
280.366	-0.02
280.58	0.1
280.794	0.17
281.008	0.07
281.222	0.1
281.437	0.12
281.651	0.05
281.865	0.15
282.079	0.06
282.293	-0.02
282.507	0.01
282.721	0.04
282.935	0.09
283.148	-0.01
283.362	-0
283.576	0.01
283.79	0.07
284.004	0.02
284.218	0.07
284.432	0.01
284.646	0.08
284.859	0.05
285.073	0.01
285.287	0.07
285.501	-0.01
285.714	0.04
285.928	0.11
286.142	0.06
286.356	0.01
286.569	0.08
286.783	0.17
286.997	0.07
287.21	0.07
287.424	0.09
287.637	0.06
287.851	0.06
288.065	0.06
288.278	0.03
288.492	0.08
288.705	0.05
288.919	0.09
289.132	0.01
289.346	0.11
289.559	-0.04
289.773	0.01
289.986	0.04
290.2	0.07
290.413	0.09
290.626	0.02
290.84	0.04
291.053	0.06
291.267	0.08
291.48	0.06
291.693	0.07
291.906	0.02
292.12	0
292.333	0.01
292.546	0.03
292.76	0.16
292.973	0.05
293.186	0.13
293.399	0.06
293.612	0.11
293.826	0.09
294.039	0.04
294.252	0.08
294.465	0.08
294.678	0.04
294.891	0.05
295.104	0.02
295.317	0.03
295.53	0.1
295.743	0.02
295.956	0.05
296.169	0.12
296.382	0.09
296.595	0.04
296.808	-0
297.021	0.12
297.234	0.07
297.447	0.04
297.66	0.12
297.873	0.12
298.086	0.05
298.299	0.02
298.511	0.01
298.724	0.06
298.937	0
299.15	0.06
299.363	0.02
299.575	0.09
299.788	0.03
300.001	0.03
300.213	0.01
300.426	0.04
300.639	0.03
300.852	0.05
301.064	0.09
301.277	0.12
301.489	0.1
301.702	0.1
301.915	0.08
302.127	0.09
302.34	0.06
302.552	0.08
302.765	0
302.977	0.09
303.19	0.03
303.402	-0
303.615	-0.01
303.827	0.01
304.04	0.05
304.252	0.07
304.464	0.04
304.677	0.15
304.889	0.07
305.102	0.05
305.314	0.02
305.526	0.11
305.739	0.08
305.951	0.04
306.163	0.05
306.375	0.12
306.588	0.03
306.8	0.02
307.012	-0
307.224	0.07
307.436	0.1
307.649	-0.03
307.861	0.1
308.073	0.09
308.285	-0
308.497	-0.02
308.709	0.01
308.921	0.04
309.133	0.14
309.346	0.02
309.558	0.03
309.77	0.08
309.982	0.08
310.194	0.09
310.406	0.01
310.617	0.12
310.829	0.07
311.041	0.09
311.253	-0
311.465	0.07
311.677	0.08
311.889	0.04
312.101	0.02
312.313	0.06
312.524	0.06
312.736	-0
312.948	0.04
313.16	0.12
313.372	0.05
313.583	0.06
313.795	0.03
314.007	-0.02
314.218	0.06
314.43	0.07
314.642	0.05
314.853	0.04
315.065	0.1
315.277	0.01
315.488	0.07
315.7	0.07
315.912	0.07
316.123	0.07
316.335	0.06
316.546	0.13
316.758	0.05
316.969	0.01
317.181	0.03
317.392	0.05
317.604	0.07
317.815	0.02
318.026	0.04
318.238	0.01
318.449	0.04
318.661	0.01
318.872	0.01
319.083	0
319.295	0.11
319.506	0.01
319.717	0.06
319.929	0.08
320.14	0.06
320.351	0.03
320.562	0.03
320.774	0.09
320.985	0.1
321.196	-0.01
321.407	-0.01
321.618	0.08
321.829	0.08
322.041	0.08
322.252	0.03
322.463	0.06
322.674	0.07
322.885	-0
323.096	0.02
323.307	0.04
323.518	0.05
323.729	0.02
323.94	0
324.151	0.03
324.362	0.05
324.573	0.09
324.784	0.02
324.995	0.07
325.206	0.04
325.417	0.06
325.628	0.01
325.838	0.03
326.049	0.04
326.26	0.09
326.471	0.02
326.682	0.08
326.892	0.06
327.103	-0.06
327.314	-0.01
327.525	0.08
327.735	0.1
327.946	0.07
328.157	-0.02
328.368	0.04
328.578	0.03
328.789	0.07
328.999	0.06
329.21	0.03
329.421	0.05
329.631	0.05
329.842	0.01
330.052	0.09
330.263	0.09
330.473	0.11
330.684	0.06
330.894	0.06
331.105	0.05
331.315	0.03
331.526	-0.04
331.736	0.11
331.947	0.08
332.157	0.06
332.367	-0
332.578	0.06
332.788	0.11
332.999	0.07
333.209	0.04
333.419	-0
333.629	0.11
333.84	0.1
334.05	0.02
334.26	0.09
334.47	0.08
334.681	0.1
334.891	0.05
335.101	0.06
335.311	0.08
335.521	0.05
335.732	-0.03
335.942	0.1
336.152	0.08
336.362	0.06
336.572	0.07
336.782	0.06
336.992	0.02
337.202	0.05
337.412	-0.01
337.622	0.06
337.832	0.05
338.042	0.06
338.252	0.05
338.462	0.02
338.672	0.03
338.882	0.08
339.092	0.05
339.302	0.1
339.511	0.12
339.721	0.02
339.931	0.02
340.141	0.07
340.351	0.1
340.561	0.05
340.77	0.09
340.98	0.05
341.19	0.09
341.4	-0
341.609	-0.02
341.819	-0
342.029	-0.01
342.238	0.08
342.448	0.01
342.658	0.09
342.867	0.07
343.077	0.07
343.286	0.07
343.496	0.05
343.706	0.07
343.915	0.02
344.125	0.05
344.334	0.07
344.544	0.05
344.753	0.04
344.963	-0.02
345.172	-0
345.381	0.01
345.591	0.02
345.8	0.08
346.01	0.13
346.219	0.1
346.428	-0.08
346.638	0.05
346.847	0.05
347.056	0.11
347.266	-0
347.475	0.06
347.684	0.08
347.893	0.12
348.103	0.06
348.312	0.02
348.521	0.03
348.73	0.04
348.94	0.08
349.149	-0.01
349.358	0.01
349.567	-0
349.776	-0
349.985	0.03
350.194	0.05
350.403	0.1
350.612	0.02
350.821	0.03
351.03	0.01
351.239	0.01
351.448	0.04
351.657	-0.01
351.866	0.11
352.075	0.01
352.284	0.08
352.493	-0.02
352.702	0.09
352.911	0.05
353.12	0.09
353.329	0.04
353.538	0.07
353.746	0.06
353.955	0.03
354.164	0.05
354.373	0.03
354.582	0.1
354.79	0.04
354.999	0.07
355.208	0.05
355.416	0.13
355.625	-0.02
355.834	0.04
356.042	0.05
356.251	0.02
356.46	0.04
356.668	0.03
356.877	0.09
357.085	0.12
357.294	-0
357.503	0.07
357.711	0.04
357.92	0.14
358.128	0.07
358.337	0.02
358.545	0.05
358.754	0.01
358.962	0.05
359.17	0.04
359.379	0.07
359.587	0.07
359.796	0.02
360.004	0.09
360.212	0.06
360.421	0.09
360.629	0.06
360.837	0.03
361.046	0.07
361.254	0.13
361.462	0.05
361.67	0.04
361.879	0.03
362.087	0.1
362.295	0.06
362.503	0
362.711	0.05
362.92	0.03
363.128	0.01
363.336	0.01
363.544	0.03
363.752	0.05
363.96	0.01
364.168	0.06
364.376	0.04
364.584	0.04
364.792	0.04
365	0.11
365.208	0.05
365.416	0.05
365.624	0.06
365.832	0.02
366.04	0.1
366.248	0.04
366.456	0.07
366.664	0.05
366.872	0.03
367.079	0.06
367.287	0.01
367.495	0.02
367.703	0.02
367.911	0
368.118	0.04
368.326	0.05
368.534	-0.02
368.742	0.1
368.949	0.01
369.157	-0.02
369.365	0.04
369.572	0.05
369.78	-0.01
369.988	0.09
370.195	0.06
370.403	0.05
370.61	0.01
370.818	0.04
371.026	0.06
371.233	0.03
371.441	0.05
371.648	0.02
371.856	0.08
372.063	0.02
372.271	0.03
372.478	0.02
372.685	0.02
372.893	0.11
373.1	0.06
373.308	0.07
373.515	0.11
373.722	0.1
373.93	0.02
374.137	0.07
374.344	0.1
374.552	0.09
374.759	0.07
374.966	0.1
375.173	0.01
375.381	0.1
375.588	0.03
375.795	-0.02
376.002	0.01
376.209	0.02
376.417	0.02
376.624	0.05
376.831	0.05
377.038	0.01
377.245	-0.06
377.452	0.06
377.659	0.02
377.866	0.01
378.073	0.02
378.28	0.02
378.487	0.05
378.694	0.1
378.901	0.03
379.108	0.05
379.315	0.04
379.522	0.09
379.729	0.04
379.936	0.02
380.143	0.04
380.35	0.02
380.557	0.04
380.763	0.04
380.97	0.04
381.177	0.04
381.384	0.06
381.591	0.03
381.797	0.01
382.004	0.07
382.211	0.07
382.418	-0.02
382.624	0.09
382.831	0.07
383.038	0.04
383.244	0.05
383.451	0.03
383.658	0.08
383.864	-0
384.071	-0.01
384.277	0.11
384.484	0.02
384.69	0.09
384.897	0.02
385.103	0.02
385.31	0
385.516	0.06
385.723	0.01
385.929	0.05
386.136	0.02
386.342	0.04
386.549	0.04
386.755	0.08
386.961	0.04
387.168	0.06
387.374	0.07
387.58	0.04
387.787	0.06
387.993	0.05
388.199	0.03
388.406	-0
388.612	0.01
388.818	0.01
389.024	0.03
389.231	0.1
389.437	0.12
389.643	0.11
389.849	0.05
390.055	-0
390.261	0.04
390.467	0.06
390.674	-0
390.88	0.08
391.086	0.06
391.292	-0.01
391.498	0.05
391.704	0.09
391.91	0.05
392.116	0.05
392.322	-0.02
392.528	0.04
392.734	0
392.94	0.02
393.146	0.03
393.352	0.04
393.557	0.05
393.763	0.05
393.969	0.05
394.175	0.06
394.381	0.05
394.587	-0
394.792	0.03
394.998	0.11
395.204	0.05
395.41	0.01
395.615	0.05
395.821	0.06
396.027	0.07
396.233	0.01
396.438	0.04
396.644	0.05
396.85	0.06
397.055	-0.01
397.261	0.03
397.466	0.12
397.672	0.05
397.878	0.11
398.083	0.08
398.289	0.05
398.494	0.09
398.7	0.05
398.905	-0.02
399.111	0.05
399.316	-0.01
399.522	-0.01
399.727	0.04
399.932	0.02
400.138	0.02
400.343	0.07
400.549	0.05
400.754	0.07
400.959	0.03
401.165	0.02
401.37	0.03
401.575	0.01
401.78	0.03
401.986	-0
402.191	-0.03
402.396	0.02
402.601	0.07
402.807	0.06
403.012	0.05
403.217	0.03
403.422	0.05
403.627	0.05
403.832	0
404.037	0.1
404.243	0.06
404.448	0.01
404.653	0.04
404.858	0.05
405.063	0.03
405.268	0.03
405.473	0.01
405.678	0.01
405.883	0.13
406.088	0.05
406.293	-0.02
406.498	0.01
406.703	0.06
406.907	0.02
407.112	0.01
407.317	0.05
407.522	0.05
407.727	0.01
407.932	0.03
408.136	0.12
408.341	0.08
408.546	0.07
408.751	0.06
408.956	0.07
409.16	0.06
409.365	0.03
409.57	0.04
409.774	0.09
409.979	0.07
410.184	0.04
410.388	0.02
410.593	0.13
410.798	0.02
411.002	-0.02
411.207	0.06
411.411	0.02
411.616	0.02
411.82	0.01
412.025	0.05
412.229	-0.03
412.434	0.12
412.638	0.1
412.843	0.01
413.047	0
413.252	-0.01
413.456	0.03
413.66	0.13
413.865	-0.01
414.069	0.14
414.273	0.05
414.478	0.01
414.682	0.06
414.886	-0.04
415.091	-0.01
415.295	-0.02
415.499	0.06
415.703	0.05
415.908	0.02
416.112	-0.03
416.316	0.06
416.52	0.01
416.724	-0.02
416.929	0.03
417.133	0.11
417.337	0.07
417.541	-0.01
417.745	0.04
417.949	0.09
418.153	0.04
418.357	-0.04
418.561	0.09
418.765	0.06
418.969	0.14
419.173	0.16
419.377	0.01
419.581	0.11
419.785	0.01
419.989	0
420.193	0.01
420.397	0.02
420.601	0.06
420.804	0.06
421.008	0.02
421.212	0.03
421.416	0.08
421.62	-0.04
421.823	0.06
422.027	0.1
422.231	0.03
422.435	-0
422.638	0.07
422.842	0.02
423.046	0.03
423.249	0.11
423.453	0.1
423.657	0.05
423.86	-0.01
424.064	0
424.268	0.03
424.471	0.04
424.675	0.12
424.878	0.09
425.082	0.04
425.285	0.06
425.489	0.01
425.692	0.07
425.896	-0.03
426.099	0.04
426.303	-0.02
426.506	-0.03
426.71	0.08
426.913	0.06
427.116	0.12
427.32	0.02
427.523	0.03
427.726	0.1
427.93	-0.03
428.133	0.04
428.336	-0.03
428.54	-0.01
428.743	0.04
428.946	0.12
429.149	-0.02
429.353	0.05
429.556	0.06
429.759	0.04
429.962	-0.02
430.165	0.02
430.368	0.01
430.571	0.04
430.775	0.03
430.978	-0
431.181	0.07
431.384	0.04
431.587	0.04
431.79	0.01
431.993	-0.03
432.196	-0
432.399	0.01
432.602	0.07
432.805	-0.02
433.008	-0
433.211	-0.01
433.414	0.06
433.616	0.07
433.819	0.01
434.022	-0.08
434.225	0.14
434.428	0.04
434.631	0.12
434.833	0.04
435.036	-0.02
435.239	0.07
435.442	-0.01
435.645	0.02
435.847	0.07
436.05	0.1
436.253	0.05
436.455	0
436.658	0.02
436.861	0.04
437.063	0.05
437.266	0.04
437.468	0.03
437.671	0.19
437.874	0
438.076	-0.03
438.279	-0.04
438.481	0.04
438.684	-0.01
438.886	0.08
439.089	-0.05
439.291	-0.01
439.494	0.05
439.696	-0.01
439.899	0.01
440.101	0.05
440.303	-0.01
440.506	0.06
440.708	0.06
440.91	0.07
441.113	-0.01
441.315	0.09
441.517	-0.03
441.72	0.1
441.922	0.01
442.124	-0.01
442.326	0.09
442.529	0.08
442.731	0
442.933	0.08
443.135	0.01
443.337	0.05
443.539	-0.03
443.742	0.01
443.944	-0.01
444.146	0.02
444.348	0.03
444.55	0.01
444.752	0.03
444.954	0.02
445.156	0.02
445.358	0.02
445.56	0.06
445.762	-0
445.964	0.03
446.166	0.05
446.368	0
446.57	0.07
446.772	0.03
446.974	0.03
447.175	0.06
447.377	-0.04
447.579	0.03
447.781	-0.06
447.983	0.1
448.184	0.04
448.386	0.05
448.588	0
448.79	0.04
448.991	0.01
449.193	0.01
449.395	0.04
449.597	0.07
449.798	0.07
450	0.09
450.202	0.02
450.403	0.05
450.605	0.03
450.806	0.06
451.008	-0.01
451.21	0.06
451.411	0.05
451.613	0.02
451.814	0.06
452.016	0.05
452.217	-0
452.419	0.06
452.62	0.04
452.821	0.07
453.023	0.07
453.224	0.09
453.426	0.05
453.627	0.06
453.828	0.04
454.03	0.01
454.231	0.02
454.432	-0.01
454.634	0.11
454.835	0.05
455.036	-0.06
455.238	0.07
455.439	0.14
455.64	-0.03
455.841	0.02
456.042	0.1
456.244	0.02
456.445	0.03
456.646	-0.03
456.847	0
457.048	0.06
457.249	0.12
457.45	0.25
457.651	-0
457.852	0.08
458.054	0.06
458.255	0.03
458.456	0.03
458.657	0.05
458.858	0.01
459.058	0.08
459.259	0.05
459.46	-0.02
459.661	0.03
459.862	0.1
460.063	0.03
460.264	0.07
460.465	0
460.666	0.14
460.866	0.01
461.067	0.1
461.268	0.05
461.469	0.02
461.67	0.02
461.87	0
462.071	0
462.272	0.01
462.473	0.06
462.673	0.06
462.874	-0.02
463.075	0.05
463.275	0.01
463.476	0.03
463.676	0.02
463.877	0.04
464.078	0.03
464.278	0.09
464.479	0.03
464.679	-0.01
464.88	0.03
465.08	0.11
465.281	-0.02
465.481	-0
465.682	0.02
465.882	0.05
466.083	0.04
466.283	0.02
466.483	0.06
466.684	-0.05
466.884	0.01
467.085	-0
467.285	0.03
467.485	-0.01
467.686	0.05
467.886	-0.02
468.086	0.04
468.286	0
468.487	0.04
468.687	-0.02
468.887	-0.01
469.087	0.07
469.287	0.03
469.488	0
469.688	0.02
469.888	0.05
470.088	0.07
470.288	0.07
470.488	0.05
470.688	-0.01
470.888	0.01
471.088	0.01
471.288	0.09
471.488	0.09
471.688	0.06
471.888	0.01
472.088	0.09
472.288	0.05
472.488	0.01
472.688	0.01
472.888	0.04
473.088	-0
473.288	0.04
473.488	0.05
473.688	0.1
473.887	0.04
474.087	-0.02
474.287	0.04
474.487	0
474.687	0.05
474.886	0.02
475.086	0.04
475.286	0.02
475.486	0.06
475.685	0.02
475.885	0.01
476.085	0.04
476.284	0.08
476.484	0.04
476.684	0.05
476.883	0.09
477.083	0.07
477.282	-0.04
477.482	0.08
477.681	0.09
477.881	-0.01
478.08	-0.05
478.28	-0
478.479	0.05
478.679	0.09
478.878	-0.02
479.078	-0.01
479.277	-0
479.477	0.03
479.676	0.07
479.875	0.04
480.075	-0.04
480.274	0.05
480.473	0.05
480.673	-0.01
480.872	0.07
481.071	0.05
481.271	0.04
481.47	0.01
481.669	0.03
481.868	-0.02
482.067	-0
482.267	-0.03
482.466	0
482.665	0
482.864	-0.02
483.063	-0.03
483.262	0.02
483.461	0.06
483.661	0.05
483.86	0.03
484.059	0.05
484.258	0.01
484.457	0.03
484.656	0.02
484.855	0.03
485.054	-0.05
485.253	0
485.452	-0.02
485.651	0.05
485.849	-0
486.048	-0.02
486.247	-0.02
486.446	0.02
486.645	-0.01
486.844	-0.02
487.043	0.03
487.241	0.05
487.44	-0.01
487.639	0.01
487.838	0.05
488.037	-0.01
488.235	0.07
488.434	0.03
488.633	0
488.831	0.04
489.03	0.05
489.229	0.04
489.427	0.01
489.626	0.05
489.825	0.08
490.023	-0
490.222	-0
490.42	0.04
490.619	0.05
490.817	0.03
491.016	0.01
491.214	0.06
491.413	0.03
491.611	0.01
491.81	0.02
492.008	0.04
492.207	0.03
492.405	0.02
492.604	0.01
492.802	0.03
493	0.01
493.199	0.01
493.397	0.01
493.595	0.02
493.794	0
493.992	0.06
494.19	0.01
494.388	0.02
494.587	0
494.785	0.01
494.983	-0.02
495.181	0.01
495.379	0.03
495.578	-0.01
495.776	0.02
495.974	0.06
496.172	0.03
496.37	-0
496.568	-0.03
496.766	-0.01
496.964	0.03
497.162	0.03
497.36	-0.01
497.558	0.04
497.756	0.03
497.954	0.02
498.152	0.02
498.35	0.02
498.548	0.01
498.746	0.02
498.944	0
499.142	0.02
499.34	-0.01
499.538	0.01
499.736	-0.01
499.933	0.04
500.131	0.04
500.329	0.04
500.527	0.02
500.725	0.05
500.922	0.02
501.12	0.01
501.318	0.02
501.516	-0.02
501.713	0.03
501.911	0.01
502.109	-0.02
502.306	0.02
502.504	0
502.701	0.01
502.899	-0
503.097	0.06
503.294	0.02
503.492	0.01
503.689	0.01
503.887	0.03
504.084	0.06
504.282	0.03
504.479	-0.02
504.677	0.02
504.874	-0
505.072	0.02
505.269	0.01
505.466	0.03
505.664	0.02
505.861	-0.03
506.059	-0.01
506.256	0.03
506.453	0.01
506.651	0.06
506.848	0.03
507.045	0.04
507.242	0.01
507.44	0.03
507.637	0.03
507.834	0.02
508.031	0.03
508.229	-0.02
508.426	0.04
508.623	0.03
508.82	-0
509.017	-0.02
509.214	-0.01
509.411	0.03
509.608	0
509.805	0.02
510.003	-0.01
510.2	-0
510.397	0.05
510.594	0.01
510.791	0
510.988	-0
511.184	0.03
511.381	0.01
511.578	-0.03
511.775	0.04
511.972	-0.01
512.169	0.02
512.366	0.02
512.563	0.04
512.76	0.01
512.956	0.01
513.153	0.01
513.35	0.03
513.547	0.01
513.744	-0.01
513.94	-0.01
514.137	0.02
514.334	0.02
514.53	0
514.727	0.02
514.924	0.04
515.12	-0
515.317	-0.02
515.514	0
515.71	-0.02
515.907	0.01
516.103	0.02
516.3	0.04
516.497	0.03
516.693	0.04
516.89	0.01
517.086	-0.01
517.283	0.06
517.479	0.03
517.676	0.01
517.872	0
518.068	0
518.265	0
518.461	-0.01
518.658	-0
518.854	0.03
519.05	0
519.247	0.01
519.443	0.02
519.639	0.04
519.836	0.02
520.032	0.03
520.228	0.01
520.424	0.06
520.621	0.02
520.817	0.01
521.013	0.02
521.209	0.03
521.405	0.04
521.601	0.02
521.798	0.02
521.994	0.07
522.19	-0.02
522.386	-0.01
522.582	0.01
522.778	0.04
522.974	-0.01
523.17	0.02
523.366	-0
523.562	0.05
523.758	0.02
523.954	0.01
524.15	-0.01
524.346	0.03
524.542	0.01
524.738	-0.01
524.934	0.02
525.129	0.01
525.325	0.02
525.521	0
525.717	0.05
525.913	0.02
526.109	0.01
526.304	0.02
526.5	0.03
526.696	0.04
526.892	0.03
527.087	0.02
527.283	-0.02
527.479	0.03
527.674	-0.02
527.87	0.02
528.066	0.01
528.261	0.03
528.457	0.03
528.653	0
528.848	0
529.044	0
529.239	0.02
529.435	0.04
529.63	0.03
529.826	0.06
530.021	0.03
530.217	0.04
530.412	-0.01
530.608	-0.01
530.803	0.02
530.999	0.01
531.194	-0.04
531.389	0.02
531.585	-0.01
531.78	0.01
531.975	0.01
532.171	0.03
532.366	-0.01
532.561	0.01
532.757	0.01
532.952	-0.01
533.147	0.01
533.342	0.01
533.538	0.02
533.733	0.06
533.928	0.02
534.123	-0.02
534.318	-0.01
534.513	-0
534.709	0.03
534.904	0.01
535.099	-0.01
535.294	0.02
535.489	0.01
535.684	0.02
535.879	-0.02
536.074	-0.01
536.269	-0
536.464	0.01
536.659	0.04
536.854	0.01
537.049	0.02
537.244	0.01
537.439	0.01
537.634	0.04
537.828	0.02
538.023	0
538.218	-0.01
538.413	0.02
538.608	-0.03
538.803	0.02
538.997	-0.04
539.192	0.04
539.387	0.03
539.582	0.02
539.776	0.01
539.971	-0
540.166	0.01
540.36	-0
540.555	0.02
540.75	0.01
540.944	0.01
541.139	-0.02
541.334	-0
541.528	0.03
541.723	0.04
541.917	0
542.112	-0.03
542.306	-0.01
542.501	0
542.695	0
542.89	-0.01
543.084	0.01
543.279	0.02
543.473	0.02
543.668	0.03
543.862	0.02
544.056	0.02
544.251	0.02
544.445	0.03
544.64	0.01
544.834	-0.01
545.028	0.01
545.222	0.01
545.417	0.03
545.611	0.03
545.805	0.01
546	-0
546.194	0
546.388	-0.03
546.582	0.03
546.776	0.01
546.97	0.03
547.165	0.02
547.359	0.02
547.553	-0.03
547.747	0.03
547.941	0.02
548.135	0.03
548.329	0.03
548.523	0.01
548.717	0.02
548.911	-0.01
549.105	0.02
549.299	0.01
549.493	0.03
549.687	0.03
549.881	-0
550.075	0.02
550.269	-0.01
550.463	0.04
550.657	0.01
550.85	0.01
551.044	-0.01
551.238	0.02
551.432	-0
551.626	-0.01
551.82	0.01
552.013	-0
552.207	0.02
552.401	0.04
552.594	0.03
552.788	0.01
552.982	0.01
553.176	0.01
553.369	0.03
553.563	-0
553.756	-0.03
553.95	-0
554.144	0.03
554.337	0.03
554.531	0.03
554.724	0.05
554.918	-0.01
555.111	0.02
555.305	0.04
555.498	0.06
555.692	0.04
555.885	0
556.079	0.03
556.272	0.01
556.466	0.04
556.659	0.02
556.852	-0
557.046	-0
557.239	0.04
557.432	-0.01
557.626	-0
557.819	0.02
558.012	0.02
558.206	0.02
558.399	0.02
558.592	0.01
558.785	-0
558.979	0.03
559.172	0.01
559.365	0.03
559.558	0.01
559.751	0.02
559.944	0.01
560.138	0.01
560.331	0.03
560.524	0.01
560.717	0.01
560.91	0
561.103	0.03
561.296	0.03
561.489	0.02
561.682	-0.01
561.875	0.04
562.068	0.01
562.261	0
562.454	0.04
562.647	0.01
562.84	0
563.032	0.01
563.225	0.04
563.418	0.02
563.611	0.01
563.804	-0.01
563.997	0
564.19	-0.01
564.382	-0
564.575	0.01
564.768	0.03
564.961	0.02
565.153	-0.01
565.346	0.06
565.539	0.03
565.731	0.02
565.924	0.03
566.117	0.04
566.309	0.02
566.502	0
566.695	0.02
566.887	0.03
567.08	-0.01
567.272	0.03
567.465	0.01
567.657	0.03
567.85	0.02
568.042	0.04
568.235	0.05
568.427	0.01
568.62	0.03
568.812	0.02
569.005	0.02
569.197	-0.02
569.389	0.03
569.582	0.03
569.774	0.02
569.966	-0.02
570.159	0
570.351	0.02
570.543	-0.01
570.736	0.01
570.928	-0.01
571.12	0.02
571.312	0.01
571.505	-0.02
571.697	0.03
571.889	-0.01
572.081	0
572.273	-0.03
572.465	0.05
572.658	-0.01
572.85	0.03
573.042	0.01
573.234	-0
573.426	0.04
573.618	-0.02
573.81	0.01
574.002	0.03
574.194	0.05
574.386	-0.03
574.578	-0.04
574.77	-0.03
574.962	0
575.154	-0.03
575.346	-0
575.538	0.03
575.729	0.01
575.921	-0.01
576.113	-0
576.305	0.03
576.497	-0.01
576.689	0.01
576.88	-0
577.072	0.02
577.264	0.03
577.456	0.01
577.647	-0.03
577.839	0.02
578.031	0.07
578.223	-0.03
578.414	-0.02
578.606	0.02
578.798	0.03
578.989	-0.01
579.181	0.01
579.372	0.02
579.564	0.01
579.755	0.04
579.947	0.01
580.139	0.04
580.33	-0.04
580.522	-0.01
580.713	-0.06
580.905	-0
581.096	0.02
581.287	0.01
581.479	0.03
581.67	0.05
581.862	0.02
582.053	-0.01
582.244	-0.03
582.436	0.01
582.627	0.01
582.818	-0.02
583.01	-0.02
583.201	0.04
583.392	0.05
583.583	0.05
583.775	-0
583.966	-0.02
584.157	0.01
584.348	0.01
584.54	-0.03
584.731	0.02
584.922	0.01
585.113	-0.01
585.304	0.02
585.495	0.03
585.686	0.01
585.877	0.03
586.068	0.02
586.259	0.05
586.45	-0.01
586.641	-0.01
586.832	-0.04
587.023	0.02
587.214	-0.01
587.405	0.04
587.596	-0.01
587.787	0.04
587.978	0.03
588.169	-0.01
588.36	-0.01
588.551	0.04
588.742	0.01
588.932	0.02
589.123	-0.01
589.314	0.05
589.505	0.03
589.696	0.03
589.886	0
590.077	-0.03
590.268	0.02
590.458	-0.01
590.649	-0.02
590.84	0.04
591.03	-0.01
591.221	-0.03
591.412	-0.05
591.602	0.02
591.793	0.04
591.984	-0.02
592.174	-0
592.365	0.06
592.555	-0.02
592.746	0.04
592.936	0
593.127	0.03
593.317	0.07
593.508	-0.01
593.698	-0.01
593.889	0.02
594.079	0.01
594.269	-0.01
594.46	0.01
594.65	0.01
594.84	-0.02
595.031	-0
595.221	0.01
595.411	-0.03
595.602	0.02
595.792	0.02
595.982	0.01
596.172	0.06
596.363	0.02
596.553	0.02
596.743	0.02
596.933	0.03
597.123	0.06
597.314	0.01
597.504	-0.02
597.694	0.03
597.884	-0.01
598.074	0
598.264	-0.01
598.454	0.01
598.644	-0.02
598.834	0
599.024	-0.05
599.214	0.04
599.404	0.03
599.594	0.02
599.784	-0.01
599.974	0.05
600.164	0.01
600.354	-0.02
600.544	-0.03
600.734	0
600.924	0.05
601.114	-0.01
601.303	-0
601.493	0.01
601.683	-0.01
601.873	0.02
602.063	-0.03
602.252	0.05
602.442	-0.04
602.632	-0.01
602.821	-0.02
603.011	0.04
603.201	-0
603.39	0.01
603.58	0
603.77	0.01
603.959	0.05
604.149	0.01
604.339	-0.01
604.528	0.02
604.718	0.05
604.907	0.01
605.097	0.03
605.286	-0.02
605.476	0.02
605.665	0.06
605.855	0.02
606.044	0.07
606.234	0.03
606.423	-0
606.612	0.01
606.802	0.04
606.991	0.02
607.181	0.01
607.37	-0.04
607.559	0.01
607.749	-0.03
607.938	-0.01
608.127	-0
608.316	-0
608.506	0.03
608.695	-0
608.884	-0.02
609.073	0.02
609.263	0.05
609.452	0.02
609.641	0.02
609.83	-0.02
610.019	0.01
610.208	-0.01
610.397	0.02
610.586	0.04
610.775	-0
610.965	0.01
611.154	-0.01
611.343	0.03
611.532	0.03
611.721	-0.02
611.91	-0.02
612.099	0.02
612.287	0.01
612.476	-0.02
612.665	0.03
612.854	-0
613.043	0.01
613.232	0.01
613.421	-0.01
613.61	0.02
613.798	-0.01
613.987	0.05
614.176	0.02
614.365	0.03
614.554	0.03
614.742	0.04
614.931	-0.03
615.12	0.07
615.309	0.03
615.497	0.05
615.686	-0.01
615.875	0.02
616.063	0.02
616.252	0
616.44	-0.02
616.629	0.04
616.818	0.01
617.006	0.01
617.195	0.02
617.383	0.04
617.572	-0.01
617.76	0
617.949	-0.01
618.137	0.02
618.326	0.03
618.514	0.01
618.703	0
618.891	0.07
619.079	-0.04
619.268	0.04
619.456	-0.01
619.644	0.05
619.833	0.03
620.021	-0
620.209	-0.01
620.398	0.01
620.586	0.02
620.774	0.03
620.962	0.01
621.151	0.06
621.339	0.04
621.527	-0.02
621.715	0.01
621.903	-0.02
622.092	-0.03
622.28	0.02
622.468	0.02
622.656	0.02
622.844	0.06
623.032	0.01
623.22	-0.06
623.408	0.03
623.596	0.03
623.784	0.02
623.972	-0
624.16	0.02
624.348	0.07
624.536	-0.01
624.724	-0.01
624.912	0.08
625.1	0.04
625.288	-0.03
625.476	0
625.664	0.06
625.851	-0.01
626.039	0
626.227	0.05
626.415	0.02
626.603	-0.01
626.79	0.03
626.978	0.03
627.166	0.02
627.354	0.01
627.541	0
627.729	-0.03
627.917	0.05
628.104	0.05
628.292	0.01
628.48	0.04
628.667	0.03
628.855	0.06
629.042	0.06
629.23	0.01
629.418	0.02
629.605	-0.01
629.793	0
629.98	-0.01
630.168	0.01
630.355	0.02
630.543	0.05
630.73	-0
630.917	0.06
631.105	0.07
631.292	-0
631.48	0.01
631.667	0.08
631.854	0.02
632.042	0.03
632.229	-0.01
632.416	-0.01
632.604	0.04
632.791	-0.03
632.978	0.04
633.165	0.03
633.353	0.04
633.54	0.04
633.727	-0.02
633.914	-0.02
634.101	-0.06
634.289	0.07
634.476	-0.02
634.663	-0.02
634.85	0.02
635.037	-0.02
635.224	-0.03
635.411	0.04
635.598	0.07
635.785	0.02
635.972	-0
636.159	0.07
636.346	-0
636.533	0.02
636.72	-0.02
636.907	0.03
637.094	0.06
637.281	0
637.468	0.01
637.655	0.04
637.842	0.03
638.029	-0.03
638.215	0.04
638.402	0.04
638.589	0.01
638.776	0.01
638.963	0.01
639.149	0.06
639.336	0.08
639.523	0.01
639.709	0.05
639.896	0.01
640.083	0.07
640.27	0.06
640.456	0.02
640.643	0.03
640.829	-0.01
641.016	0.02
641.203	-0.01
641.389	0.04
641.576	0.05
641.762	0.02
641.949	-0.03
642.135	0.05
642.322	0.03
642.508	-0.01
642.695	0.01
642.881	-0.01
643.068	0.02
643.254	0.01
643.441	0.03
643.627	0.01
643.813	-0
644	0.07
644.186	0
644.372	0.01
644.559	0.04
644.745	0.01
644.931	0
645.118	0.05
645.304	0.01
645.49	-0.02
645.676	0
645.862	0.02
646.049	0.07
646.235	0.02
646.421	0.06
646.607	0.07
646.793	0.01
646.979	0
647.165	0.02
647.352	0.06
647.538	0.02
647.724	0.04
647.91	0.02
648.096	0.04
648.282	0.05
648.468	0.02
648.654	0.01
648.84	0.06
649.026	-0.02
649.212	0.05
649.397	0.03
649.583	-0
649.769	0.01
649.955	-0
650.141	0.05
650.327	0.08
650.513	0.02
650.698	0.05
650.884	-0.03
651.07	0.04
651.256	0.04
651.442	0.02
651.627	0.02
651.813	0.03
651.999	0.04
652.184	0.07
652.37	0.05
652.556	0
652.741	0.08
652.927	-0.01
653.113	0.01
653.298	0.03
653.484	0.03
653.669	-0.02
653.855	0.02
654.04	0.06
654.226	0.03
654.412	0.03
654.597	0
654.782	0.04
654.968	0.08
655.153	0.06
655.339	0.03
655.524	0.01
655.71	0.06
655.895	0.04
656.08	0.03
656.266	0.06
656.451	0.06
656.636	0.03
656.822	0.05
657.007	0.01
657.192	0.01
657.378	-0.01
657.563	0.07
657.748	0.05
657.933	0.04
658.118	0.04
658.304	0.05
658.489	0.06
658.674	0.08
658.859	-0
659.044	0.05
659.229	0.06
659.414	0.04
659.599	0.03
659.785	0
659.97	0.03
660.155	0.08
660.34	0.07
660.525	0.05
660.71	0.03
660.895	0.07
661.08	0.02
661.264	0.04
661.449	0.06
661.634	0.07
661.819	0.09
662.004	0.04
662.189	0.01
662.374	0.03
662.559	0
662.743	-0.01
662.928	0.05
663.113	0
663.298	0.01
663.483	0.02
663.667	0.05
663.852	0.03
664.037	0.08
664.221	0.04
664.406	0.09
664.591	0.08
664.775	0.1
664.96	0.04
665.145	0.1
665.329	0.07
665.514	0.07
665.698	0.05
665.883	-0
666.068	0.13
666.252	0.05
666.437	0.03
666.621	0.08
666.806	0.08
666.99	0.03
667.174	0.06
667.359	0.14
667.543	0.05
667.728	0.07
667.912	0.04
668.096	0.09
668.281	0.06
668.465	0.07
668.649	0.06
668.834	0.05
669.018	0.05
669.202	0.05
669.387	0.05
669.571	0.12
669.755	0.05
669.939	0.08
670.124	0.07
670.308	0.13
670.492	0.09
670.676	0.14
670.86	0.09
671.044	0.06
671.228	0.14
671.413	0.07
671.597	0.1
671.781	0.07
671.965	0.17
672.149	0.11
672.333	0.08
672.517	0.06
672.701	0.13
672.885	0.1
673.069	0.05
673.253	0.18
673.437	0.1
673.621	0.09
673.804	0.1
673.988	0.1
674.172	0.09
674.356	0.04
674.54	0.12
674.724	0.2
674.908	0.11
675.091	0.18
675.275	0.16
675.459	0.19
675.643	0.12
675.826	0.14
676.01	0.11
676.194	0.12
676.377	0.13
676.561	0.19
676.745	0.14
676.928	0.19
677.112	0.19
677.296	0.12
677.479	0.17
677.663	0.11
677.846	0.18
678.03	0.15
678.213	0.15
678.397	0.18
678.58	0.18
678.764	0.15
678.947	0.17
679.131	0.07
679.314	0.18
679.498	0.16
679.681	0.17
679.865	0.25
680.048	0.19
680.231	0.19
680.415	0.18
680.598	0.19
680.781	0.15
680.965	0.18
681.148	0.22
681.331	0.16
681.514	0.24
681.698	0.16
681.881	0.23
682.064	0.2
682.247	0.23
682.43	0.15
682.614	0.26
682.797	0.28
682.98	0.2
683.163	0.2
683.346	0.27
683.529	0.23
683.712	0.22
683.895	0.26
684.078	0.24
684.261	0.23
684.444	0.28
684.627	0.27
684.81	0.2
684.993	0.25
685.176	0.29
685.359	0.26
685.542	0.26
685.725	0.35
685.908	0.29
686.091	0.33
686.274	0.33
686.457	0.3
686.639	0.29
686.822	0.36
687.005	0.32
687.188	0.37
687.371	0.44
687.553	0.36
687.736	0.35
687.919	0.42
688.102	0.4
688.284	0.35
688.467	0.34
688.65	0.32
688.832	0.37
689.015	0.35
689.197	0.3
689.38	0.41
689.563	0.41
689.745	0.33
689.928	0.35
690.11	0.38
690.293	0.39
690.475	0.38
690.658	0.41
690.84	0.42
691.023	0.39
691.205	0.43
691.388	0.44
691.57	0.5
691.752	0.53
691.935	0.44
692.117	0.46
692.3	0.51
692.482	0.47
692.664	0.48
692.847	0.52
693.029	0.5
693.211	0.55
693.393	0.55
693.576	0.46
693.758	0.52
693.94	0.51
694.122	0.52
694.304	0.59
694.487	0.57
694.669	0.59
694.851	0.55
695.033	0.62
695.215	0.65
695.397	0.61
695.579	0.68
695.761	0.58
695.943	0.61
696.125	0.74
696.308	0.68
696.49	0.59
696.671	0.73
696.853	0.71
697.035	0.87
697.217	0.76
697.399	0.78
697.581	0.78
697.763	0.77
697.945	0.73
698.127	0.81
698.309	0.8
698.491	0.81
698.672	0.93
698.854	0.9
699.036	0.85
699.218	0.87
699.399	0.99
699.581	0.94
699.763	0.9
699.945	0.81
700.126	0.86
700.308	0.93
700.49	0.9
700.671	0.94
700.853	1
701.035	1.02
701.216	1.04
701.398	0.97
701.579	1.1
701.761	1.12
701.943	1.03
702.124	1.08
702.306	1.1
702.487	1.28
702.669	1.15
702.85	1.19
703.031	1.15
703.213	1.34
703.394	1.22
703.576	1.22
703.757	1.47
703.938	1.36
704.12	1.43
704.301	1.33
704.483	1.32
704.664	1.43
704.845	1.65
705.026	1.52
705.208	1.48
705.389	1.48
705.57	1.53
705.751	1.51
705.933	1.57
706.114	1.68
706.295	1.59
706.476	1.53
706.657	1.76
706.838	1.74
707.02	1.8
707.201	1.72
707.382	1.69
707.563	1.8
707.744	1.82
707.925	1.77
708.106	1.84
708.287	1.92
708.468	2.02
708.649	2.02
708.83	2
709.011	1.98
709.192	2.1
709.373	1.99
709.554	2.11
709.734	2.11
709.915	2.14
710.096	2.24
710.277	2.13
710.458	2.28
710.639	2.43
710.819	2.24
711	2.32
711.181	2.5
711.362	2.52
711.542	2.56
711.723	2.59
711.904	2.64
712.085	2.64
712.265	2.61
712.446	2.61
712.627	2.72
712.807	2.8
712.988	2.9
713.168	2.75
713.349	2.97
713.53	2.87
713.71	2.95
713.891	2.93
714.071	3.1
714.252	3.17
714.432	3.23
714.613	3.09
714.793	3.36
714.974	3.45
715.154	3.53
715.334	3.54
715.515	3.54
715.695	3.44
715.876	3.61
716.056	3.59
716.236	3.64
716.417	3.86
716.597	3.84
716.777	4.02
716.957	4
717.138	4.06
717.318	4.07
717.498	4.05
717.678	4.23
717.859	4.28
718.039	4.29
718.219	4.39
718.399	4.51
718.579	4.44
718.759	4.55
718.939	4.75
719.12	4.77
719.3	4.78
719.48	4.71
719.66	4.83
719.84	5.25
720.02	5.17
720.2	5.14
720.38	5.4
720.56	5.43
720.74	5.37
720.92	5.57
721.1	5.75
721.279	5.75
721.459	5.74
721.639	5.76
721.819	5.88
721.999	6.19
722.179	6.14
722.359	5.94
722.538	6.25
722.718	6.43
722.898	6.48
723.078	6.6
723.257	6.65
723.437	6.82
723.617	6.84
723.797	6.81
723.976	6.99
724.156	7.22
724.336	7.34
724.515	7.51
724.695	7.38
724.874	7.55
725.054	7.6
725.234	7.73
725.413	7.88
725.593	7.88
725.772	8
725.952	8.24
726.131	8.28
726.311	8.39
726.49	8.41
726.67	8.57
726.849	8.57
727.028	8.71
727.208	8.76
727.387	8.96
727.567	9.07
727.746	9.11
727.925	9.33
728.105	9.16
728.284	9.44
728.463	9.31
728.643	9.69
728.822	9.67
729.001	9.82
729.18	10.06
729.359	10.19
729.539	10.33
729.718	10.35
729.897	10.47
730.076	10.67
730.255	10.38
730.434	10.76
730.614	11.06
730.793	11.09
730.972	11.25
731.151	11.19
731.33	11.22
731.509	11.46
731.688	11.68
731.867	11.67
732.046	11.62
732.225	12.05
732.404	11.9
732.583	12.16
732.762	12.17
732.941	12.41
733.12	12.59
733.298	12.6
733.477	12.77
733.656	12.85
733.835	12.95
734.014	13.26
734.193	13.31
734.371	13.38
734.55	13.44
734.729	13.49
734.908	13.58
735.086	13.76
735.265	13.96
735.444	13.64
735.623	14.15
735.801	14.22
735.98	14.54
736.159	14.17
736.337	14.5
736.516	14.43
736.694	14.17
736.873	14.43
737.052	15.07
737.23	14.48
737.409	14.1
737.587	14.68
737.766	14.65
737.944	14.73
738.123	14.91
738.301	14.58
738.479	14.86
738.658	14.62
738.836	14.48
739.015	14.55
739.193	14.37
739.371	14.16
739.55	14
739.728	13.85
739.906	14.09
740.085	13.97
740.263	13.94
740.441	13.39
740.62	13.81
740.798	13.2
740.976	12.91
741.154	12.73
741.332	12.84
741.511	12.4
741.689	12.18
741.867	12.21
742.045	11.58
742.223	11.42
742.401	11.18
742.579	10.83
742.757	10.78
742.935	10.49
743.114	10.31
743.292	10.16
743.47	9.94
743.648	9.65
743.826	9.4
744.004	9.51
744.181	9.06
744.359	8.58
744.537	8.5
744.715	8.15
744.893	7.99
745.071	7.79
745.249	7.6
745.427	7.31
745.605	7.29
745.782	6.9
745.96	6.9
746.138	6.68
746.316	6.39
746.493	6.04
746.671	5.97
746.849	5.76
747.027	5.77
747.204	5.2
747.382	5.42
747.56	4.96
747.737	4.95
747.915	4.69
748.093	4.76
748.27	4.47
748.448	4.31
748.625	4
748.803	4.02
748.98	3.93
749.158	3.85
749.335	3.85
749.513	3.55
749.69	3.45
749.868	3.34
750.045	3.41
750.223	3.27
750.4	3.01
750.578	3.3
750.755	3.08
750.932	2.77
751.11	2.88
751.287	2.62
751.464	2.81
751.642	2.58
751.819	2.5
751.996	2.36
752.173	2.38
752.351	2.24
752.528	2.27
752.705	2.22
752.882	2.16
753.06	2.08
753.237	1.99
753.414	2.26
753.591	1.99
753.768	1.89
753.945	1.64
754.122	1.51
754.299	1.55
754.476	1.53
754.654	1.59
754.831	1.48
755.008	1.44
755.185	1.4
755.362	1.45
755.539	1.23
755.716	1.24
755.892	1.24
756.069	1.28
756.246	1.16
756.423	1.21
756.6	1.32
756.777	1.08
756.954	1.23
757.131	1.05
757.307	0.81
757.484	0.95
757.661	1.03
757.838	1.06
758.015	0.9
758.191	1.02
758.368	1.08
758.545	1.06
758.721	1
758.898	0.77
759.075	0.95
759.251	0.77
759.428	0.85
759.605	0.69
759.781	0.75
759.958	0.66
760.134	0.72
760.311	0.56
760.488	0.74
760.664	0.8
760.841	0.64
761.017	0.58
761.194	0.64
761.37	0.6
761.547	0.48
761.723	0.68
761.899	0.73
762.076	0.43
762.252	0.49
762.429	0.45
762.605	0.65
762.781	0.51
762.958	0.51
763.134	0.58
763.31	0.37
763.486	0.58
763.663	0.28
763.839	0.47
764.015	0.32
764.191	0.31
764.368	0.4
764.544	0.33
764.72	0.42
764.896	0.43
765.072	0.42
765.248	0.36
765.425	0.4
765.601	0.42
765.777	0.34
765.953	0.15
766.129	0.33
766.305	0.31
766.481	0.45
766.657	0.4
766.833	0.46
767.009	0.26
767.185	0.28
767.361	0.2
767.537	0.27
767.713	0.53
767.889	0.32
768.065	0.25
768.24	0.43
768.416	0.34
768.592	0.26
768.768	0.19
768.944	0.38
769.12	0.11
769.295	0.2
769.471	0.29
769.647	0.24
769.823	0.55
769.998	0.23
770.174	0.14
770.35	0.47
770.525	0.49
770.701	0.45
770.877	0.26
771.052	0.09
771.228	0.46
771.403	0.38
771.579	0.26
771.755	0.53
771.93	0.08
772.106	0.12
772.281	-0.07
772.457	0.3
772.632	0.2
772.808	-0.05
772.983	0.11
773.159	0.08
773.334	0.42
773.509	0.3
773.685	0.12
773.86	0.49
774.036	0.46
774.211	0.1
774.386	0.07
774.562	0.16
774.737	0.25
774.912	0.09
775.087	0.36
775.263	0.26
775.438	0.27
775.613	0.14
775.788	0.25
775.964	0.33
776.139	0.6
776.314	0.08
776.489	0.08
776.664	0.2
776.839	0.02
777.014	0.3
777.19	0.32
777.365	0.47
777.54	0.38
777.715	0.16
777.89	0.14
778.065	0.08
778.24	0.25
778.415	0.29
778.59	0.03
778.765	-0.01
778.94	0.24
779.115	-0.06
779.289	0.18
779.464	0.01
779.639	0.02
779.814	0.02
779.989	0.12
780.164	0.33
780.339	0.24
780.513	0.01
780.688	0.1
780.863	0.2
781.038	0.23
781.212	0.01
781.387	0.24
781.562	0.5
781.737	0.11
781.911	0.23
782.086	-0.03
782.261	0.05
782.435	0.41
782.61	0.21
782.784	0.06
782.959	0.17
783.134	0.12
783.308	0.06
783.483	0.19
783.657	0.65
783.832	0.22
784.006	0
784.181	0.31
784.355	0.44
784.53	0.02
784.704	0.17
784.878	0.29
785.053	0.28
785.227	0.45
785.402	0.57
785.576	0.14
785.75	0.24
785.925	0.12
786.099	0.25
786.273	0.06
786.448	0.26
786.622	0.37
786.796	0.13
786.97	0.07
787.145	0.72
787.319	-0.12
787.493	-0.03
787.667	-0.12
787.841	0.26
788.015	0.46
788.19	0.01
788.364	0.25
788.538	0.31
788.712	0.23
788.886	0.06
789.06	0.34
789.234	0.36
789.408	0.06
789.582	0.12
789.756	0.03
789.93	-0.06
790.104	0.07
790.278	0.14
790.452	-0.11
790.626	0.3
790.8	0.12
790.973	0.3
791.147	0.52
791.321	0.33
791.495	0.34
791.669	0.37
791.843	0.17
792.016	0.27
792.19	0.53
792.364	-0.04
792.538	0.75
792.711	0.27
792.885	0.27
793.059	0.12
793.233	-0.4
793.406	0.33
793.58	0.18
793.754	0.1
793.927	0.11
794.101	0.3
794.274	0.03
794.448	0.42
794.622	0.22
794.795	0.48
794.969	0.06
795.142	0.5
795.316	0.14
795.489	0.01
795.663	0.56
795.836	0.19
796.009	-0.13
796.183	0.49
796.356	0.41
796.53	0.44
796.703	0.13
796.876	0.8
797.05	0.05
797.223	0.29
797.396	0.25
797.57	0.49
797.743	0.54
797.916	0.12
798.09	0.1
798.263	0.4
798.436	0.31
798.609	-0.06
798.782	0.28
798.956	0.18
799.129	0.16
799.302	0.03
799.475	0.08
799.648	0.1
799.821	0.18
799.994	0.12
800.167	-0.07
800.34	0.19
800.514	0.22
800.687	0.04
800.86	0.12
801.033	0.33
801.206	0.15
801.379	-0.09
801.551	0.55
801.724	0.45
801.897	0.59
802.07	0.23
802.243	-0.19
802.416	0.25
802.589	0.06
802.762	0.25
802.935	0.41
803.107	0.63
803.28	0.62
803.453	0.35
803.626	-0
803.798	0.14
803.971	0.16
804.144	0.32
804.317	0.62
804.489	0.35
804.662	0.19
804.835	0.52
805.007	-0.32
805.18	0.77
805.353	0.2
805.525	-0.04
805.698	-0.01
805.87	0.34
806.043	0.54
806.215	0.04
806.388	-0.04
806.56	0.28
806.733	0.55
806.905	0.43
807.078	0.08
807.25	-0.03
807.423	0.32
807.595	0.46
807.768	0.29
807.94	0.47
808.112	0.16
808.285	0.53
808.457	0.17
808.629	0.21
808.802	0.61
808.974	0.26
809.146	0.12
809.318	0.08
809.491	0.19
809.663	0.68
809.835	0.26
810.007	0.31
810.18	0.17
810.352	-0.15
810.524	0.23
810.696	0.23
810.868	0.75
811.04	0.2
811.212	0.27
811.384	0.37
811.556	0.11
811.728	0.27
811.901	0.51
812.073	0.36
812.245	0.61
812.417	0.14
812.589	-0.52
812.76	0.28
812.932	0.62
813.104	0.29
813.276	0.24
813.448	0.73
813.62	0.39
813.792	0.58
813.964	0.51
814.136	0.56
814.307	0.6
814.479	0.06
814.651	0.1
814.823	0.99
814.995	0.12
815.166	0.47
815.338	0.18
815.51	-0.23
815.681	0.93
815.853	0.01
816.025	0.18
816.196	0.91
816.368	1.07
816.54	-0.2
816.711	0.21
816.883	0.23
817.054	1.28
817.226	-0.37
817.398	0.82
817.569	0.04
817.741	0.17
817.912	0.17
818.084	0.26
818.255	0.31
818.426	0.1
818.598	0.29
818.769	-0.11
818.941	0.68
819.112	1.08
819.283	0.53
819.455	-0.16
819.626	0.37
819.798	1.02
819.969	0.56
820.14	0.11
820.311	0.04
820.483	0.15
820.654	0.11
820.825	0.03
820.996	0.49
821.168	-0.23
821.339	0.1
821.51	-0.13
821.681	1.32
821.852	0.11
822.023	0.07
822.195	-0
822.366	0.66
822.537	0.16
822.708	0.23
822.879	-0.07
823.05	0.79
823.221	0.26
823.392	0.61
823.563	0.03
823.734	0.09
823.905	0.6
824.076	0.6
824.247	0.2
824.418	-0.11
824.589	1.32
824.759	0.29
824.93	-0.06
825.101	-0.49
825.272	0.29
825.443	0.85
825.614	1.14
825.784	-0.07
825.955	1.49
826.126	0.94
826.297	0.81
826.467	0.97
826.638	0.66
826.809	-0.36
826.98	-0.06
827.15	0.38
827.321	0.29
827.492	1.6
827.662	0.73
827.833	1.29
828.003	0.73
828.174	0.11
828.345	-0.31
828.515	1.41
828.686	0.38
828.856	0.07
829.027	0.63
829.197	0.74
829.368	0.23
829.538	-0.15
829.709	0.13
829.879	0.51
830.049	0.12
830.22	0.19
830.39	0.41
830.56	0.93
830.731	0.06
830.901	-0.11
831.072	0.51
831.242	0.41
831.412	0.45
831.582	0.82
831.753	-0.5
831.923	0.7
832.093	0.42
832.263	0.66
832.434	-0.16
832.604	-0.32
832.774	0.64
832.944	0.3
833.114	0.71
833.284	1.14
833.454	-0.51
833.624	-0.36
833.795	0.08
833.965	0.79
834.135	0.65
834.305	-0.86
834.475	-0.27
834.645	0.11
834.815	0.12
834.985	0.23
835.155	0.21
835.325	0.85
835.494	0.79
835.664	0.33
835.834	0.34
836.004	0.68
836.174	0.68
836.344	0.88
836.514	-0.62
836.684	-0.01
836.853	0.31
837.023	0.38
837.193	-0.02
837.363	1.09
837.532	1.13
837.702	-0.26
837.872	0.03
838.041	0.82
838.211	2
838.381	-0.22
838.55	0.76
838.72	2.5
838.89	1.19
839.059	0.55
839.229	0.15
839.398	2.04
839.568	-0.01
839.738	0.23
839.907	1.05
840.077	1.02
840.246	0.44
840.416	-0.18
840.585	-0.43
840.755	1.22
840.924	0.69
841.093	-0.14
841.263	-0.19
841.432	0.9
841.602	-0.47
841.771	-0.19
841.94	1.1
842.11	2.41
842.279	2.6
842.448	-0.58
842.617	0.08
842.787	1.09
842.956	-0.39
843.125	0.01
843.294	0.49
843.464	1.3
843.633	1.27
843.802	-0.68
843.971	0.41
844.14	0.73
844.309	1.66
844.479	-0.65
844.648	-0.62
844.817	0.59
844.986	1.35
845.155	0.06
845.324	0.29
845.493	-0.22
845.662	0.63
845.831	0.99
846	1.55
846.169	0.1
846.338	1.76
846.507	1.37
846.676	1.06
846.844	0.4
847.013	1.82
847.182	1.04
847.351	0.24
847.52	0.25
847.689	1.32
847.858	0.64
848.026	-0.05
848.195	0.32
848.364	0.86
848.533	0.28
848.701	0.91
848.87	0.61
849.039	0.86
849.207	1.15
849.376	1.99
849.545	2.07
849.713	0.17
849.882	0.95
850.051	0.82
850.219	0.43
850.388	1.91
850.556	-0.19
850.725	-0.18
850.893	0.55
851.062	0.6
851.23	1.52
851.399	-0.3
851.567	0.11
851.736	0.27
851.904	-0.07
852.073	1.35
852.241	2.25
852.41	0.93
852.578	0.21
852.746	-0.09
852.915	0.41
853.083	0.02
853.251	-0.23
853.42	0.73
853.588	0.47
853.756	1.7
853.924	0.22
854.093	0.58
854.261	0.15
854.429	-1.27
854.597	1.69
854.765	-0.39
854.934	2.19
855.102	1.68
855.27	0.99
855.438	0.45
855.606	1.21
855.774	1.58
855.942	-0.7
856.11	-1.07
856.278	0.46
856.446	0.73
856.614	1.3
856.782	0.54
856.95	3.07
857.118	2.02
857.286	1.56
857.454	0.97
857.622	1.43
857.79	1.52
857.958	-0.45
858.126	0.03
858.294	-1.95
858.462	1.48
858.629	0.16
858.797	-0.08
858.965	1.45
859.133	0.5
859.301	0.82
859.468	1.96
859.636	-0.39
859.804	2.44
859.971	1.46
860.139	0.52
860.307	2.49
860.474	1.49
860.642	0.37
860.81	-0.4
860.977	-0.08
861.145	2.07
861.313	-0.45
861.48	0.51
861.648	2.24
861.815	0.54
861.983	-0.22
862.15	0.13
862.318	1.08
862.485	2.32
862.653	0.39
862.82	-0.37
862.988	2.28
863.155	1.71
863.322	-1.35
863.49	-0.07
863.657	2
863.824	2.36
863.992	1.36
864.159	1.49
864.326	2.74
864.494	0.67
864.661	3.38
864.828	0.75
864.996	1.3
865.163	4.23
865.33	-0.58
865.497	-0.35
865.664	0.39
865.832	-0.67
865.999	1.05
866.166	0.04
866.333	0.73
866.5	-0.08
866.667	1.83
866.834	0.61
867.001	2.13
867.168	-0.72
867.335	0.8
867.502	-0.94
867.669	0.49
867.836	3.91
868.003	0.37
868.17	2.87
868.337	0.45
868.504	3.26
868.671	-0.26
868.838	0.12
869.005	1.76
869.172	1.93
869.339	0.56
869.505	2.58
869.672	2.04
869.839	2.09
870.006	0.91
870.173	-0.1
870.339	1.95
870.506	3.52
870.673	0.17
870.84	1.05
871.006	1.39
871.173	1.29
871.34	1.91
871.506	0.98
871.673	1.87
871.839	-1.03
872.006	1.09
872.173	0.57
872.339	0.18
872.506	2.4
872.672	2.82
872.839	-2.9
873.005	0.51
873.172	4.85
873.338	2.1
873.505	0.94
873.671	0.22
873.838	2.23
874.004	0.2
874.171	0.17
874.337	3.39
874.503	2.37
874.67	1.27
874.836	0.95
875.002	3.07
875.169	3.61
875.335	1.97
875.501	0.03
875.668	3.11
875.834	1.18
876	2.4
876.166	3.41
876.332	1.43
876.499	3.53
876.665	-0.31
876.831	2.77
876.997	3.71
877.163	2.09
877.329	-0.02
877.495	1.41
877.662	2.87
877.828	1.97
877.994	0.05
878.16	-0.91
878.326	0.79
878.492	2.18
878.658	1.13
878.824	2.35
878.99	2.69
879.156	2.85
879.322	4.07
879.487	0.31
879.653	1.01
879.819	0.28
879.985	0.52
880.151	2.05
880.317	0.2
880.483	1.1
880.648	2.05
880.814	-1.09
880.98	2.4
881.146	-0.25
881.312	0.86
881.477	1.5
881.643	1.48
881.809	4.23
881.974	3.68
882.14	-1.09
882.306	3.67
882.471	5.1
882.637	-0.08
882.803	3.84
882.968	4.37
883.134	2.78
883.299	2.24
883.465	2.42
883.63	3.13
883.796	3.67
883.961	3.14
884.127	2.12
884.292	-1.47
884.458	-0.82
884.623	-0.81
