Data from Apollo_Calib_20240827__AbsoluteIrradiance__328__04-37-00-015.txt Node

Date: Wed Aug 28 04:37:00 BST 2024
User: biology
Spectrometer: FLMT08252
Trigger mode: 0
Integration Time (sec): 5.000000E-1
Scans to average: 5
Electric dark correction enabled: true
Nonlinearity correction enabled: false
Boxcar width: 0
XAxis mode: Wavelengths
Number of Pixels in Spectrum: 3648
>>>>>Begin Spectral Data<<<<<
179.588	-0
179.809	-0
180.03	-0
180.251	-0
180.473	-0
180.694	0
180.915	0
181.136	-0
181.357	0
181.578	0
181.799	-0
182.02	-0
182.241	0
182.462	-0
182.683	0
182.904	-0
183.125	-0
183.346	0
183.567	0
183.788	-0
184.009	-0
184.23	-0
184.451	-0
184.672	-0
184.892	-0
185.113	0
185.334	0
185.555	-0
185.776	-0
185.996	0
186.217	0
186.438	0
186.659	-0
186.879	0
187.1	0
187.321	-0
187.541	-0
187.762	0
187.983	-0
188.203	-0
188.424	0
188.644	-0
188.865	0
189.086	-0
189.306	-0
189.527	0
189.747	-0
189.968	-0
190.188	0
190.409	0
190.629	0
190.849	-0
191.07	-0
191.29	0
191.511	0
191.731	-0
191.951	-0
192.172	-0
192.392	-0
192.612	-0
192.833	-0
193.053	0
193.273	0
193.493	-0
193.714	-0
193.934	0
194.154	0
194.374	0
194.594	0
194.815	0
195.035	-0
195.255	-0
195.475	-0
195.695	0
195.915	0
196.135	-0
196.355	0
196.575	0
196.795	-0
197.015	-0
197.235	-0
197.455	-0
197.675	0
197.895	-0
198.115	-0
198.335	0
198.555	0
198.775	-0
198.995	0
199.214	0
199.434	-0
199.654	-0
199.874	-0
200.094	0.6
200.313	-0.84
200.533	-0.44
200.753	-0.65
200.973	1.32
201.192	0.45
201.412	-0.87
201.632	-0.72
201.851	1.07
202.071	-0.17
202.291	-0.54
202.51	-0.48
202.73	0.67
202.95	-0.08
203.169	-0.56
203.389	-0.06
203.608	0.05
203.828	-0.36
204.047	-0.35
204.267	0.9
204.486	0.15
204.706	0.54
204.925	0.31
205.145	-0.22
205.364	0.72
205.583	0.78
205.803	-0.12
206.022	-0.6
206.242	0.15
206.461	0.32
206.68	-0.55
206.9	0.13
207.119	0.92
207.338	0.51
207.557	-0.39
207.777	-0.3
207.996	-0.07
208.215	0.59
208.434	-0.34
208.654	-0.48
208.873	0.21
209.092	0.23
209.311	-0.21
209.53	0.01
209.749	-0.19
209.968	-0.3
210.187	-0.21
210.407	-0.34
210.626	-0.34
210.845	0.23
211.064	-0.3
211.283	-0
211.502	0.33
211.721	-0.05
211.94	0.01
212.159	0.45
212.377	0.22
212.596	0.48
212.815	0.03
213.034	0.07
213.253	0.3
213.472	0.14
213.691	-0.16
213.91	-0.37
214.128	-0.06
214.347	0.38
214.566	-0.37
214.785	-0.19
215.003	0.18
215.222	0.16
215.441	0.02
215.66	-0.06
215.878	0.26
216.097	0.33
216.316	-0.18
216.534	-0.26
216.753	0.15
216.972	-0.01
217.19	-0.06
217.409	-0.18
217.627	-0.13
217.846	-0.17
218.064	-0.01
218.283	-0.19
218.501	0.45
218.72	0.21
218.938	-0.27
219.157	-0.18
219.375	0.22
219.594	-0.07
219.812	-0.3
220.031	-0.24
220.249	0.42
220.467	0.34
220.686	-0.03
220.904	-0.29
221.122	-0.07
221.341	0.36
221.559	0
221.777	-0.12
221.995	0.05
222.214	0.09
222.432	-0.02
222.65	0.29
222.868	0.02
223.086	0.16
223.305	0.19
223.523	-0.03
223.741	0.27
223.959	0.19
224.177	-0.36
224.395	-0.04
224.613	0.17
224.831	0.12
225.049	-0.06
225.267	-0.01
225.485	0.03
225.703	-0.1
225.921	-0.1
226.139	-0.04
226.357	0.2
226.575	0.2
226.793	-0.22
227.011	0.55
227.229	0.04
227.447	0.22
227.665	-0.12
227.883	-0.33
228.1	0
228.318	0.09
228.536	-0.23
228.754	-0.18
228.972	0.08
229.189	0.12
229.407	0.1
229.625	0.01
229.843	0.19
230.06	0.15
230.278	-0.09
230.496	0.08
230.713	0.14
230.931	0.15
231.149	-0.07
231.366	-0.22
231.584	-0.04
231.801	0.4
232.019	-0.05
232.236	-0.16
232.454	-0.05
232.671	0.13
232.889	-0.01
233.106	-0.1
233.324	0.1
233.541	-0
233.759	0.06
233.976	-0.07
234.194	-0.07
234.411	-0.02
234.628	-0.12
234.846	-0
235.063	0.02
235.28	0.01
235.498	-0.02
235.715	-0.12
235.932	0.21
236.149	0.04
236.367	-0.04
236.584	-0.02
236.801	-0.03
237.018	0.18
237.236	-0
237.453	-0.17
237.67	0.15
237.887	-0.02
238.104	-0.04
238.321	-0.18
238.538	-0.24
238.755	0.17
238.973	-0.17
239.19	-0.01
239.407	0.04
239.624	0.08
239.841	-0.13
240.058	-0.15
240.275	0.02
240.492	0.02
240.709	-0.07
240.925	-0.03
241.142	0.08
241.359	-0.06
241.576	-0.03
241.793	-0.05
242.01	0.02
242.227	0.17
242.444	0.01
242.66	0.04
242.877	0.16
243.094	-0.08
243.311	0.01
243.527	0.02
243.744	0.03
243.961	0.08
244.178	-0.11
244.394	0.02
244.611	0.15
244.828	0.15
245.044	-0.09
245.261	-0.04
245.477	0.07
245.694	0.05
245.911	-0.08
246.127	0.04
246.344	0.2
246.56	0.03
246.777	0.03
246.993	0.05
247.21	0.02
247.426	0.1
247.643	-0.06
247.859	-0.03
248.076	-0.02
248.292	0.13
248.508	0.02
248.725	0.01
248.941	-0.01
249.157	0.12
249.374	-0.06
249.59	0.07
249.806	0.01
250.023	0.23
250.239	-0.03
250.455	-0.08
250.671	0.02
250.888	0.08
251.104	0.05
251.32	-0.03
251.536	0.07
251.752	0.01
251.969	0.05
252.185	0.01
252.401	0.19
252.617	-0.06
252.833	0.01
253.049	0.03
253.265	0.07
253.481	0.05
253.697	-0.05
253.913	-0.09
254.129	0.03
254.345	0.07
254.561	-0.03
254.777	-0.01
254.993	0.08
255.209	0.11
255.425	-0.06
255.641	-0.07
255.857	0.16
256.073	-0.01
256.288	-0.14
256.504	-0.02
256.72	0.04
256.936	0.18
257.152	0.01
257.367	-0.02
257.583	0.01
257.799	0.13
258.015	-0.07
258.23	-0.02
258.446	0.19
258.662	-0.04
258.877	-0.04
259.093	-0.08
259.309	0.04
259.524	0.06
259.74	-0.05
259.955	-0.09
260.171	0
260.387	0.07
260.602	0.12
260.818	0.11
261.033	-0.07
261.249	-0.05
261.464	-0.02
261.68	-0.08
261.895	-0
262.11	0.15
262.326	0.03
262.541	-0.08
262.757	0.15
262.972	0.07
263.187	0.05
263.403	0.08
263.618	0.1
263.833	-0.04
264.049	-0.04
264.264	-0.01
264.479	0.05
264.694	0.12
264.91	-0.05
265.125	-0.03
265.34	0.11
265.555	0.17
265.77	0.02
265.986	-0.03
266.201	0.04
266.416	0.09
266.631	-0.05
266.846	-0.02
267.061	0.09
267.276	0.08
267.491	-0.07
267.706	0.02
267.921	0.07
268.136	-0
268.351	0.06
268.566	-0.07
268.781	0.1
268.996	0.04
269.211	0.01
269.426	-0.04
269.641	-0.02
269.856	0.06
270.071	-0.04
270.285	-0.1
270.5	0.08
270.715	0.08
270.93	-0.02
271.145	0.06
271.359	0.06
271.574	-0.02
271.789	0.03
272.004	-0.03
272.218	0.04
272.433	0.04
272.648	-0.07
272.862	0.11
273.077	0.07
273.292	-0.03
273.506	-0.01
273.721	0.02
273.936	0.08
274.15	0.11
274.365	-0.06
274.579	0.08
274.794	0.11
275.008	0.09
275.223	-0.09
275.437	0.02
275.652	0.07
275.866	0.07
276.081	-0.01
276.295	0.11
276.509	0.1
276.724	0.08
276.938	-0.06
277.153	0.05
277.367	0.06
277.581	0.01
277.796	0.02
278.01	-0.03
278.224	0.1
278.438	0.18
278.653	-0.1
278.867	-0.04
279.081	-0.11
279.295	-0.01
279.51	0.04
279.724	-0.08
279.938	0.08
280.152	0.04
280.366	-0.01
280.58	0.05
280.794	0.1
281.008	0.06
281.222	0.09
281.437	0.2
281.651	0.08
281.865	0.12
282.079	-0
282.293	-0.11
282.507	-0.01
282.721	0.03
282.935	-0.01
283.148	-0.09
283.362	0.01
283.576	-0.03
283.79	0.01
284.004	0
284.218	0.08
284.432	0.05
284.646	-0
284.859	-0.01
285.073	0.04
285.287	0.06
285.501	0
285.714	0.01
285.928	0.06
286.142	0.07
286.356	0.01
286.569	-0.02
286.783	0.11
286.997	0.07
287.21	-0.01
287.424	0.05
287.637	0.02
287.851	-0.02
288.065	0.11
288.278	-0.02
288.492	0.06
288.705	0.01
288.919	0.06
289.132	-0.05
289.346	0.16
289.559	-0.03
289.773	-0.07
289.986	0.03
290.2	0.03
290.413	0.1
290.626	-0.01
290.84	0.03
291.053	0.05
291.267	0.1
291.48	0.01
291.693	0.01
291.906	-0.05
292.12	0.07
292.333	-0.02
292.546	0.04
292.76	0.12
292.973	0.01
293.186	0.09
293.399	0.01
293.612	0.04
293.826	0.03
294.039	-0.01
294.252	-0
294.465	0.05
294.678	0.06
294.891	0
295.104	-0.05
295.317	0.02
295.53	0.04
295.743	0.01
295.956	0.02
296.169	0.07
296.382	0.06
296.595	0.02
296.808	-0.04
297.021	0.1
297.234	0.12
297.447	0.01
297.66	0.06
297.873	0.07
298.086	0.11
298.299	0
298.511	-0.04
298.724	0.01
298.937	-0.04
299.15	0.03
299.363	0.06
299.575	0.08
299.788	0.05
300.001	0.01
300.213	-0.07
300.426	-0.02
300.639	-0.02
300.852	-0
301.064	0.08
301.277	0.08
301.489	0.04
301.702	0.09
301.915	0.05
302.127	0.07
302.34	0.06
302.552	0.06
302.765	-0.01
302.977	0.04
303.19	0.02
303.402	0.02
303.615	-0.02
303.827	0.01
304.04	0
304.252	0.05
304.464	0.02
304.677	0.12
304.889	0.07
305.102	0.01
305.314	0.02
305.526	0.07
305.739	0.04
305.951	0.01
306.163	-0
306.375	0.08
306.588	-0.02
306.8	0.01
307.012	-0.02
307.224	0.07
307.436	0.1
307.649	-0.08
307.861	0.06
308.073	0.08
308.285	-0.01
308.497	0
308.709	-0.03
308.921	0.04
309.133	0.09
309.346	0.01
309.558	0.05
309.77	0.09
309.982	0.12
310.194	0.08
310.406	-0.02
310.617	0.17
310.829	0.01
311.041	0.08
311.253	-0.03
311.465	0.04
311.677	0.02
311.889	0.03
312.101	-0.01
312.313	0.07
312.524	0.11
312.736	-0.03
312.948	-0
313.16	0.08
313.372	0.08
313.583	0.05
313.795	0.05
314.007	0.02
314.218	0.1
314.43	0.02
314.642	0.02
314.853	-0.03
315.065	0.08
315.277	0.04
315.488	0.04
315.7	0.09
315.912	0.09
316.123	0.03
316.335	0.04
316.546	0.16
316.758	0.01
316.969	0.02
317.181	0.04
317.392	-0
317.604	0.07
317.815	-0.01
318.026	-0
318.238	-0.01
318.449	0.05
318.661	-0.07
318.872	-0.05
319.083	0
319.295	0.08
319.506	0.02
319.717	0.05
319.929	0.06
320.14	0.01
320.351	0.07
320.562	0.03
320.774	0.01
320.985	0.03
321.196	-0.04
321.407	-0.01
321.618	0.07
321.829	0.05
322.041	0.09
322.252	0.02
322.463	0.04
322.674	0.1
322.885	0
323.096	-0.02
323.307	0.02
323.518	0.03
323.729	-0
323.94	-0
324.151	-0.02
324.362	0.07
324.573	0.03
324.784	-0.01
324.995	0.1
325.206	0.06
325.417	0
325.628	0.02
325.838	0.03
326.049	0.09
326.26	0.07
326.471	0.02
326.682	0.06
326.892	0.01
327.103	-0.04
327.314	-0.01
327.525	0.09
327.735	0.04
327.946	0.03
328.157	-0.04
328.368	0.07
328.578	-0.02
328.789	0.04
328.999	0.06
329.21	0.02
329.421	0.05
329.631	0.02
329.842	-0.01
330.052	0.04
330.263	0.06
330.473	0.05
330.684	0.05
330.894	0.02
331.105	0.02
331.315	0.05
331.526	-0.04
331.736	0.11
331.947	0.02
332.157	0.07
332.367	-0.02
332.578	0.02
332.788	0.12
332.999	0.05
333.209	0.06
333.419	-0.04
333.629	0.07
333.84	0.07
334.05	-0.01
334.26	0.06
334.47	0.03
334.681	0.12
334.891	-0.03
335.101	0.06
335.311	0.16
335.521	0.05
335.732	-0.02
335.942	0.08
336.152	0.06
336.362	0.06
336.572	0.02
336.782	0.08
336.992	0.03
337.202	0.01
337.412	-0
337.622	0.06
337.832	0.04
338.042	0.05
338.252	-0.01
338.462	0
338.672	0.02
338.882	-0.02
339.092	0.06
339.302	0.09
339.511	0.06
339.721	-0.01
339.931	-0
340.141	0.11
340.351	0.12
340.561	0.06
340.77	0.02
340.98	-0
341.19	0.09
341.4	0.03
341.609	-0.07
341.819	0.07
342.029	0.01
342.238	0.01
342.448	-0
342.658	0.06
342.867	0.05
343.077	0.05
343.286	0.03
343.496	0.03
343.706	0.1
343.915	-0.01
344.125	0.03
344.334	0.02
344.544	-0.03
344.753	0.04
344.963	0.01
345.172	-0.01
345.381	-0.02
345.591	0
345.8	0.02
346.01	0.08
346.219	0.09
346.428	-0.09
346.638	0.03
346.847	0.05
347.056	0.08
347.266	0.01
347.475	0.01
347.684	0.07
347.893	0.1
348.103	0.03
348.312	0.03
348.521	0.02
348.73	0.02
348.94	0.03
349.149	0
349.358	0.02
349.567	-0.01
349.776	0.01
349.985	0
350.194	0.06
350.403	0.12
350.612	-0.06
350.821	0.01
351.03	0.05
351.239	-0.03
351.448	0.02
351.657	-0.03
351.866	0.12
352.075	0.02
352.284	0.02
352.493	-0.03
352.702	0.11
352.911	0.08
353.12	0.1
353.329	0.03
353.538	0.08
353.746	0.03
353.955	0
354.164	0.08
354.373	0.03
354.582	0.09
354.79	0.02
354.999	0.06
355.208	0.02
355.416	0.13
355.625	-0.03
355.834	0.01
356.042	0.03
356.251	0.02
356.46	-0.03
356.668	0.08
356.877	0.17
357.085	0.11
357.294	-0.03
357.503	0.03
357.711	-0
357.92	0.14
358.128	0.06
358.337	0.02
358.545	0.02
358.754	-0.01
358.962	0.05
359.17	0.05
359.379	0.02
359.587	0.08
359.796	-0.01
360.004	0.05
360.212	0.05
360.421	0.13
360.629	0
360.837	0
361.046	0.04
361.254	0.16
361.462	0.03
361.67	0.01
361.879	0.01
362.087	0.11
362.295	0.05
362.503	-0
362.711	-0.01
362.92	0.01
363.128	-0.01
363.336	0.01
363.544	-0.03
363.752	-0
363.96	0.01
364.168	-0.02
364.376	0.02
364.584	0.05
364.792	0.09
365	0.04
365.208	0.07
365.416	0.07
365.624	0.04
365.832	-0.04
366.04	0.1
366.248	0.07
366.456	0.05
366.664	0.06
366.872	0.02
367.079	0.03
367.287	0.06
367.495	0.05
367.703	0.04
367.911	-0
368.118	-0
368.326	0.02
368.534	0.04
368.742	0.11
368.949	-0.03
369.157	0.01
369.365	0.05
369.572	0.02
369.78	-0.01
369.988	0.07
370.195	0.05
370.403	0.05
370.61	-0.04
370.818	0.06
371.026	0.1
371.233	-0.02
371.441	0.04
371.648	0.01
371.856	0.05
372.063	0.08
372.271	-0
372.478	-0.03
372.685	0.02
372.893	0.05
373.1	0.02
373.308	0.03
373.515	0.14
373.722	0.1
373.93	0.05
374.137	0.04
374.344	0.13
374.552	0.07
374.759	0.06
374.966	0.03
375.173	0.02
375.381	0.1
375.588	0
375.795	-0.02
376.002	0.01
376.209	-0.02
376.417	0.02
376.624	0.04
376.831	0.05
377.038	0.06
377.245	-0.02
377.452	-0.01
377.659	0.03
377.866	0.01
378.073	0.05
378.28	0
378.487	0.1
378.694	0.07
378.901	0.01
379.108	-0.01
379.315	0.1
379.522	0.09
379.729	0.02
379.936	0.05
380.143	0.07
380.35	0.05
380.557	0.05
380.763	0.05
380.97	0.07
381.177	0.07
381.384	0.04
381.591	-0.03
381.797	0.05
382.004	0.05
382.211	0.05
382.418	0.05
382.624	0.04
382.831	0.1
383.038	0.04
383.244	0
383.451	-0.01
383.658	0.06
383.864	0
384.071	-0.03
384.277	0.1
384.484	0.04
384.69	0.08
384.897	0.01
385.103	0.01
385.31	-0.02
385.516	0.02
385.723	0.03
385.929	0.04
386.136	0.07
386.342	0.05
386.549	0.01
386.755	0.12
386.961	0.06
387.168	0.02
387.374	0.01
387.58	0.07
387.787	0.05
387.993	0.05
388.199	0.05
388.406	0.01
388.612	0.05
388.818	0.04
389.024	0.05
389.231	0.04
389.437	0.08
389.643	0.06
389.849	0.07
390.055	0.05
390.261	0.02
390.467	0.03
390.674	-0.02
390.88	0.02
391.086	0.04
391.292	-0
391.498	0.06
391.704	0.07
391.91	0.03
392.116	-0.01
392.322	-0.06
392.528	0.06
392.734	0.06
392.94	0.05
393.146	0.04
393.352	0.05
393.557	0.03
393.763	0.04
393.969	0.08
394.175	0.04
394.381	0.04
394.587	-0.02
394.792	0.01
394.998	0.12
395.204	0.14
395.41	0.05
395.615	0.08
395.821	0.08
396.027	0.11
396.233	-0.02
396.438	0.04
396.644	0.09
396.85	0.05
397.055	0.09
397.261	0.08
397.466	0.05
397.672	0.08
397.878	0.05
398.083	0.06
398.289	0.02
398.494	0.1
398.7	0.04
398.905	-0.01
399.111	0.11
399.316	-0
399.522	0.04
399.727	0.06
399.932	0.02
400.138	0.08
400.343	0.08
400.549	0.06
400.754	0.09
400.959	0.1
401.165	0.08
401.37	0.07
401.575	0.06
401.78	0.08
401.986	0
402.191	0.01
402.396	0.09
402.601	0.09
402.807	0.1
403.012	0.08
403.217	0.12
403.422	0.1
403.627	0.08
403.832	0.02
404.037	0.13
404.243	0.1
404.448	0.04
404.653	0.06
404.858	0.08
405.063	0.12
405.268	0.09
405.473	0.02
405.678	0.05
405.883	0.25
406.088	0.11
406.293	0.02
406.498	0.02
406.703	0.14
406.907	0.03
407.112	0
407.317	0.11
407.522	0.07
407.727	0.02
407.932	0.09
408.136	0.12
408.341	0.05
408.546	0.07
408.751	0.1
408.956	0.06
409.16	0.15
409.365	0.09
409.57	0.07
409.774	0.14
409.979	0.13
410.184	0.1
410.388	0.03
410.593	0.14
410.798	0.14
411.002	0.09
411.207	0.13
411.411	0.11
411.616	0.06
411.82	0.12
412.025	0.14
412.229	0.12
412.434	0.2
412.638	0.14
412.843	0.14
413.047	0.18
413.252	0.14
413.456	0.19
413.66	0.19
413.865	0.17
414.069	0.26
414.273	0.16
414.478	0.15
414.682	0.2
414.886	0.21
415.091	0.14
415.295	0.16
415.499	0.25
415.703	0.25
415.908	0.29
416.112	0.16
416.316	0.29
416.52	0.28
416.724	0.26
416.929	0.26
417.133	0.42
417.337	0.27
417.541	0.32
417.745	0.33
417.949	0.36
418.153	0.41
418.357	0.36
418.561	0.51
418.765	0.44
418.969	0.54
419.173	0.52
419.377	0.45
419.581	0.59
419.785	0.51
419.989	0.53
420.193	0.53
420.397	0.62
420.601	0.73
420.804	0.67
421.008	0.6
421.212	0.69
421.416	0.75
421.62	0.7
421.823	0.79
422.027	0.78
422.231	0.78
422.435	0.77
422.638	0.82
422.842	0.85
423.046	0.82
423.249	0.94
423.453	0.91
423.657	1.04
423.86	0.96
424.064	1.03
424.268	1.22
424.471	1.09
424.675	1.23
424.878	1.25
425.082	1.27
425.285	1.38
425.489	1.35
425.692	1.36
425.896	1.35
426.099	1.48
426.303	1.46
426.506	1.49
426.71	1.66
426.913	1.78
427.116	1.83
427.32	1.8
427.523	1.82
427.726	2.01
427.93	1.89
428.133	2
428.336	2.09
428.54	2.11
428.743	2.29
428.946	2.46
429.149	2.38
429.353	2.49
429.556	2.47
429.759	2.54
429.962	2.54
430.165	2.6
430.368	2.55
430.571	2.53
430.775	2.64
430.978	2.57
431.181	2.65
431.384	2.71
431.587	2.68
431.79	2.89
431.993	2.77
432.196	2.94
432.399	3.11
432.602	3.26
432.805	3.1
433.008	3.42
433.211	3.33
433.414	3.58
433.616	3.61
433.819	3.56
434.022	3.54
434.225	3.78
434.428	3.73
434.631	3.88
434.833	3.81
435.036	4.04
435.239	4.11
435.442	4.16
435.645	4.27
435.847	4.32
436.05	4.4
436.253	4.59
436.455	4.56
436.658	4.63
436.861	4.82
437.063	4.81
437.266	4.82
437.468	5.01
437.671	5.34
437.874	5.27
438.076	5.23
438.279	5.51
438.481	5.68
438.684	5.93
438.886	5.93
439.089	6.08
439.291	6.18
439.494	6.48
439.696	6.54
439.899	6.94
440.101	7.21
440.303	7.26
440.506	7.68
440.708	7.67
440.91	8
441.113	8.23
441.315	8.36
441.517	8.32
441.72	8.68
441.922	8.56
442.124	8.73
442.326	9.08
442.529	9.4
442.731	9.35
442.933	9.7
443.135	9.71
443.337	9.93
443.539	10.25
443.742	10.2
443.944	10.76
444.146	10.64
444.348	10.81
444.55	10.99
444.752	11.11
444.954	11.3
445.156	11.43
445.358	11.76
445.56	12.04
445.762	12.03
445.964	12.42
446.166	12.37
446.368	12.5
446.57	12.63
446.772	12.5
446.974	12.41
447.175	12.78
447.377	12.68
447.579	13.11
447.781	12.91
447.983	12.83
448.184	12.66
448.386	13.01
448.588	12.8
448.79	12.73
448.991	13
449.193	13.14
449.395	12.67
449.597	12.52
449.798	12.48
450	12.04
450.202	12
450.403	12.15
450.605	12.05
450.806	11.77
451.008	11.54
451.21	11.41
451.411	11.14
451.613	10.55
451.814	10.81
452.016	10.72
452.217	10.15
452.419	10.12
452.62	9.79
452.821	9.66
453.023	9.51
453.224	9.16
453.426	8.82
453.627	8.3
453.828	8.42
454.03	8.36
454.231	8.35
454.432	8.04
454.634	7.91
454.835	7.53
455.036	7.61
455.238	7.28
455.439	7.02
455.64	6.78
455.841	6.7
456.042	6.77
456.244	6.52
456.445	6.24
456.646	6.02
456.847	5.94
457.048	5.9
457.249	5.82
457.45	5.76
457.651	5.24
457.852	5.15
458.054	4.91
458.255	4.94
458.456	4.92
458.657	4.81
458.858	4.5
459.058	4.51
459.259	4.44
459.46	4.29
459.661	4.22
459.862	4.25
460.063	4.21
460.264	4.18
460.465	3.89
460.666	4.06
460.866	3.76
461.067	3.57
461.268	3.56
461.469	3.49
461.67	3.49
461.87	3.42
462.071	3.35
462.272	3.31
462.473	3.23
462.673	3.33
462.874	3.22
463.075	3.19
463.275	3.18
463.476	3.3
463.676	3.12
463.877	3.09
464.078	3.04
464.278	3.01
464.479	2.93
464.679	2.83
464.88	2.82
465.08	2.77
465.281	2.59
465.481	2.51
465.682	2.37
465.882	2.34
466.083	2.36
466.283	2.28
466.483	2.16
466.684	2.04
466.884	1.98
467.085	2
467.285	2
467.485	1.92
467.686	1.83
467.886	1.74
468.086	1.71
468.286	1.69
468.487	1.75
468.687	1.56
468.887	1.6
469.087	1.58
469.287	1.52
469.488	1.41
469.688	1.53
469.888	1.51
470.088	1.39
470.288	1.38
470.488	1.32
470.688	1.24
470.888	1.18
471.088	1.1
471.288	1.18
471.488	1.19
471.688	1.14
471.888	1.01
472.088	1.12
472.288	1.1
472.488	0.95
472.688	0.86
472.888	0.98
473.088	0.92
473.288	0.91
473.488	0.81
473.688	1.01
473.887	0.86
474.087	0.82
474.287	0.8
474.487	0.76
474.687	0.81
474.886	0.74
475.086	0.74
475.286	0.72
475.486	0.73
475.685	0.68
475.885	0.62
476.085	0.68
476.284	0.68
476.484	0.67
476.684	0.63
476.883	0.67
477.083	0.61
477.282	0.55
477.482	0.62
477.681	0.6
477.881	0.49
478.08	0.52
478.28	0.49
478.479	0.57
478.679	0.58
478.878	0.49
479.078	0.45
479.277	0.47
479.477	0.45
479.676	0.5
479.875	0.45
480.075	0.38
480.274	0.47
480.473	0.46
480.673	0.38
480.872	0.43
481.071	0.43
481.271	0.42
481.47	0.35
481.669	0.37
481.868	0.32
482.067	0.32
482.267	0.3
482.466	0.3
482.665	0.28
482.864	0.29
483.063	0.28
483.262	0.32
483.461	0.38
483.661	0.32
483.86	0.28
484.059	0.28
484.258	0.28
484.457	0.28
484.656	0.28
484.855	0.29
485.054	0.22
485.253	0.23
485.452	0.2
485.651	0.24
485.849	0.23
486.048	0.21
486.247	0.17
486.446	0.21
486.645	0.18
486.844	0.17
487.043	0.2
487.241	0.22
487.44	0.15
487.639	0.19
487.838	0.22
488.037	0.2
488.235	0.24
488.434	0.19
488.633	0.12
488.831	0.18
489.03	0.19
489.229	0.16
489.427	0.13
489.626	0.18
489.825	0.2
490.023	0.12
490.222	0.1
490.42	0.15
490.619	0.16
490.817	0.14
491.016	0.1
491.214	0.15
491.413	0.11
491.611	0.11
491.81	0.13
492.008	0.11
492.207	0.12
492.405	0.11
492.604	0.05
492.802	0.1
493	0.11
493.199	0.1
493.397	0.11
493.595	0.09
493.794	0.08
493.992	0.13
494.19	0.09
494.388	0.13
494.587	0.09
494.785	0.09
494.983	0.06
495.181	0.08
495.379	0.08
495.578	0.06
495.776	0.1
495.974	0.09
496.172	0.08
496.37	0.08
496.568	0.05
496.766	0.05
496.964	0.1
497.162	0.06
497.36	0.04
497.558	0.08
497.756	0.11
497.954	0.06
498.152	0.04
498.35	0.06
498.548	0.05
498.746	0.07
498.944	0.05
499.142	0.04
499.34	0.05
499.538	0.06
499.736	0.05
499.933	0.12
500.131	0.08
500.329	0.05
500.527	0.08
500.725	0.1
500.922	0.07
501.12	0.06
501.318	0.07
501.516	0.04
501.713	0.04
501.911	0.04
502.109	0.02
502.306	0.07
502.504	0.05
502.701	0.03
502.899	0.05
503.097	0.11
503.294	0.06
503.492	0.04
503.689	0.07
503.887	0.07
504.084	0.1
504.282	0.07
504.479	0
504.677	0.06
504.874	0.02
505.072	0.04
505.269	0.03
505.466	0.06
505.664	0.05
505.861	0
506.059	0.02
506.256	0.07
506.453	0.03
506.651	0.06
506.848	0.06
507.045	0.03
507.242	0.03
507.44	0.01
507.637	0.05
507.834	0.04
508.031	0.05
508.229	0.01
508.426	0.02
508.623	0.04
508.82	0.01
509.017	0.01
509.214	0.03
509.411	0.03
509.608	0.01
509.805	0.02
510.003	0.02
510.2	0.02
510.397	0.06
510.594	0
510.791	0.01
510.988	0.02
511.184	0.07
511.381	0.03
511.578	-0
511.775	0.07
511.972	0.02
512.169	0.02
512.366	0.03
512.563	0.05
512.76	0.05
512.956	0.05
513.153	0.02
513.35	0.05
513.547	0.01
513.744	0.01
513.94	-0
514.137	0.02
514.334	0.04
514.53	0.01
514.727	0.04
514.924	0.06
515.12	0
515.317	-0.02
515.514	0.01
515.71	-0.01
515.907	0.01
516.103	0.01
516.3	0.04
516.497	0.04
516.693	0.04
516.89	0.02
517.086	-0.02
517.283	0.05
517.479	0.03
517.676	-0
517.872	0.01
518.068	-0.01
518.265	0.02
518.461	0
518.658	-0.01
518.854	0.03
519.05	0.01
519.247	0
519.443	0.03
519.639	0.04
519.836	0.02
520.032	0.05
520.228	0.01
520.424	0.07
520.621	0.04
520.817	-0
521.013	0.03
521.209	0.03
521.405	0.06
521.601	0.02
521.798	-0
521.994	0.07
522.19	0
522.386	-0.01
522.582	0.02
522.778	0.03
522.974	0.01
523.17	0.01
523.366	0.03
523.562	0.05
523.758	0.01
523.954	-0.01
524.15	-0.01
524.346	0.02
524.542	0
524.738	0.01
524.934	0.01
525.129	0.02
525.325	0.02
525.521	0.01
525.717	0.03
525.913	0.01
526.109	0.03
526.304	0.01
526.5	0.01
526.696	0.02
526.892	0.02
527.087	0.04
527.283	-0.01
527.479	0.03
527.674	0.01
527.87	0.01
528.066	0
528.261	0.05
528.457	0.03
528.653	0.02
528.848	-0
529.044	0.02
529.239	-0
529.435	0.04
529.63	0.02
529.826	0.05
530.021	0.03
530.217	0.04
530.412	0.02
530.608	0
530.803	0.01
530.999	0.01
531.194	-0.02
531.389	0.02
531.585	-0.04
531.78	-0
531.975	0.02
532.171	0.05
532.366	-0
532.561	0.02
532.757	-0.02
532.952	0.01
533.147	0.04
533.342	0.01
533.538	-0.01
533.733	0.05
533.928	0.02
534.123	0.02
534.318	-0.03
534.513	0.02
534.709	0.01
534.904	-0
535.099	-0.01
535.294	-0
535.489	0.01
535.684	0.01
535.879	-0.03
536.074	0.02
536.269	-0.03
536.464	0.02
536.659	0.02
536.854	-0
537.049	0.01
537.244	-0
537.439	0.01
537.634	0.06
537.828	0.02
538.023	0
538.218	-0.03
538.413	0.01
538.608	-0.03
538.803	0.03
538.997	-0.03
539.192	0.03
539.387	0.02
539.582	0.02
539.776	0.02
539.971	-0
540.166	0.03
540.36	-0.03
540.555	0.02
540.75	-0.01
540.944	0.04
541.139	-0.03
541.334	-0.01
541.528	0.02
541.723	0.03
541.917	-0.01
542.112	-0.04
542.306	-0.01
542.501	0.01
542.695	0.01
542.89	-0.01
543.084	0
543.279	0
543.473	0.02
543.668	0.01
543.862	0
544.056	0.01
544.251	0.02
544.445	0.02
544.64	0
544.834	-0.01
545.028	0.02
545.222	0.02
545.417	0.04
545.611	0.02
545.805	0.01
546	0.01
546.194	-0.01
546.388	-0.01
546.582	0.03
546.776	0.01
546.97	0.04
547.165	0.02
547.359	0.03
547.553	-0.01
547.747	0.02
547.941	0
548.135	0.02
548.329	0.02
548.523	0.03
548.717	-0.01
548.911	-0.02
549.105	0
549.299	0.01
549.493	0.02
549.687	0.03
549.881	0.02
550.075	-0
550.269	-0.04
550.463	0.01
550.657	-0
550.85	-0
551.044	-0.02
551.238	0.02
551.432	-0
551.626	-0.01
551.82	0.02
552.013	0
552.207	0.01
552.401	0.04
552.594	0.02
552.788	-0.01
552.982	0.02
553.176	-0.01
553.369	0.02
553.563	0.02
553.756	-0.02
553.95	-0.02
554.144	0.02
554.337	0.03
554.531	0.03
554.724	0.02
554.918	0
555.111	0.03
555.305	0.01
555.498	0.05
555.692	0.01
555.885	-0.02
556.079	0.02
556.272	-0.01
556.466	0.04
556.659	-0.01
556.852	0
557.046	0.02
557.239	0.04
557.432	-0.03
557.626	-0.02
557.819	0.03
558.012	0.03
558.206	0.04
558.399	0.01
558.592	0.02
558.785	-0.01
558.979	0.04
559.172	0.01
559.365	0.04
559.558	-0.02
559.751	0.02
559.944	0
560.138	0
560.331	-0.01
560.524	-0.03
560.717	-0
560.91	-0.01
561.103	0.02
561.296	0.03
561.489	0.03
561.682	0.02
561.875	0.06
562.068	0.04
562.261	0.02
562.454	0.05
562.647	0.01
562.84	0.03
563.032	0.02
563.225	-0
563.418	0.01
563.611	-0
563.804	0
563.997	-0.01
564.19	-0.01
564.382	0.04
564.575	0.02
564.768	0.03
564.961	0.01
565.153	-0.02
565.346	0.03
565.539	0.03
565.731	0.03
565.924	0.04
566.117	0.04
566.309	0.02
566.502	-0.03
566.695	-0.01
566.887	0.02
567.08	-0.01
567.272	-0
567.465	-0.01
567.657	0.01
567.85	0.03
568.042	0.03
568.235	0.02
568.427	0.01
568.62	0.03
568.812	0.02
569.005	0
569.197	-0.03
569.389	0.01
569.582	0.03
569.774	0.01
569.966	-0.01
570.159	-0.01
570.351	0.03
570.543	-0.01
570.736	-0.01
570.928	-0.02
571.12	0.05
571.312	-0.05
571.505	-0.02
571.697	0.04
571.889	-0.01
572.081	0.01
572.273	-0.03
572.465	0.05
572.658	-0
572.85	0.01
573.042	-0.01
573.234	-0
573.426	0.05
573.618	-0.03
573.81	0.01
574.002	0.05
574.194	0.03
574.386	-0.03
574.578	-0.08
574.77	-0.03
574.962	0.01
575.154	-0.03
575.346	0
575.538	0.01
575.729	-0.02
575.921	-0
576.113	-0.01
576.305	0.03
576.497	-0.01
576.689	-0
576.88	-0.01
577.072	0.04
577.264	-0.02
577.456	0
577.647	-0.05
577.839	0.02
578.031	0.07
578.223	-0.02
578.414	-0.01
578.606	0.04
578.798	-0
578.989	-0.02
579.181	0
579.372	0
579.564	-0.02
579.755	0.02
579.947	0.02
580.139	0.03
580.33	-0.07
580.522	-0.02
580.713	-0.05
580.905	-0.01
581.096	0.03
581.287	0.01
581.479	0.01
581.67	0.02
581.862	-0
582.053	-0.01
582.244	-0.04
582.436	0
582.627	0.01
582.818	-0.01
583.01	-0.04
583.201	0.03
583.392	0.03
583.583	0.03
583.775	0
583.966	-0.02
584.157	-0.01
584.348	-0.02
584.54	-0.04
584.731	0
584.922	0
585.113	-0.01
585.304	0.02
585.495	0.06
585.686	0.02
585.877	0.01
586.068	-0
586.259	0.01
586.45	0.02
586.641	-0.03
586.832	-0.03
587.023	0
587.214	-0
587.405	0.01
587.596	-0.02
587.787	0.04
587.978	-0.01
588.169	-0.03
588.36	-0.04
588.551	0.01
588.742	-0.01
588.932	0.01
589.123	-0.01
589.314	0.04
589.505	0.02
589.696	0.04
589.886	-0.02
590.077	-0.04
590.268	0.02
590.458	-0.03
590.649	-0.04
590.84	0.03
591.03	-0.01
591.221	-0.04
591.412	-0.03
591.602	0.03
591.793	0.03
591.984	-0.03
592.174	-0.01
592.365	0.07
592.555	-0.02
592.746	-0.01
592.936	0.03
593.127	0.04
593.317	0.03
593.508	-0.02
593.698	-0
593.889	0
594.079	0.02
594.269	-0.03
594.46	-0.01
594.65	0.01
594.84	0.03
595.031	-0.04
595.221	-0.03
595.411	-0.05
595.602	0.04
595.792	0
595.982	-0.02
596.172	0.06
596.363	-0
596.553	-0
596.743	-0.01
596.933	-0.01
597.123	0.03
597.314	-0.01
597.504	-0.03
597.694	0.03
597.884	0.03
598.074	-0
598.264	-0.02
598.454	0.01
598.644	-0.01
598.834	-0
599.024	-0.02
599.214	-0
599.404	0.05
599.594	-0.02
599.784	-0.01
599.974	0.04
600.164	0.02
600.354	-0.05
600.544	-0.05
600.734	0.03
600.924	0.02
601.114	-0.02
601.303	-0.01
601.493	0.02
601.683	0.02
601.873	0.01
602.063	-0.04
602.252	-0.01
602.442	-0.05
602.632	-0.03
602.821	-0.03
603.011	0.05
603.201	-0.01
603.39	-0.03
603.58	-0.02
603.77	0.01
603.959	0.04
604.149	0
604.339	-0.02
604.528	0.04
604.718	0.03
604.907	-0.02
605.097	-0.01
605.286	-0.07
605.476	0.04
605.665	0.01
605.855	-0.01
606.044	0.03
606.234	0.01
606.423	-0.01
606.612	-0.04
606.802	0.01
606.991	0.03
607.181	0.01
607.37	-0.05
607.559	0.02
607.749	-0.04
607.938	0
608.127	-0.02
608.316	-0.02
608.506	0.03
608.695	-0.02
608.884	-0.02
609.073	-0.01
609.263	0.01
609.452	0.03
609.641	0.02
609.83	-0.04
610.019	-0
610.208	-0.03
610.397	-0.01
610.586	0.05
610.775	-0.01
610.965	-0.03
611.154	-0.04
611.343	0.02
611.532	0.01
611.721	-0.04
611.91	-0.01
612.099	0.03
612.287	-0.01
612.476	-0.04
612.665	0.02
612.854	-0.01
613.043	0.03
613.232	-0.01
613.421	-0.06
613.61	0.04
613.798	-0.02
613.987	0.01
614.176	-0.01
614.365	0.05
614.554	-0
614.742	0.03
614.931	-0.05
615.12	0.04
615.309	-0.03
615.497	0.02
615.686	-0.04
615.875	-0.04
616.063	0.03
616.252	-0.03
616.44	-0.02
616.629	0.01
616.818	0.03
617.006	-0.01
617.195	-0
617.383	0.02
617.572	-0.02
617.76	-0.04
617.949	0.01
618.137	0.03
618.326	0.01
618.514	-0.01
618.703	-0.02
618.891	0.06
619.079	-0.04
619.268	0.01
619.456	-0.04
619.644	0.03
619.833	0
620.021	-0.02
620.209	-0.06
620.398	0.03
620.586	-0.01
620.774	0.05
620.962	-0.03
621.151	0.06
621.339	0.01
621.527	-0.05
621.715	-0.06
621.903	-0.03
622.092	-0.05
622.28	-0
622.468	-0
622.656	-0
622.844	0.04
623.032	-0.03
623.22	-0.06
623.408	0.04
623.596	0
623.784	0.02
623.972	-0.05
624.16	-0.05
624.348	0.02
624.536	-0.04
624.724	-0.03
624.912	0.06
625.1	0.02
625.288	-0.04
625.476	-0.02
625.664	0.01
625.851	-0.05
626.039	-0
626.227	0.01
626.415	-0.01
626.603	-0.07
626.79	0
626.978	-0.04
627.166	-0.01
627.354	0.01
627.541	0.02
627.729	-0.05
627.917	0.06
628.104	0.03
628.292	-0
628.48	0
628.667	0.02
628.855	0.02
629.042	0.01
629.23	-0.01
629.418	-0
629.605	-0.01
629.793	-0.03
629.98	-0.03
630.168	-0.05
630.355	-0.02
630.543	0.01
630.73	-0.03
630.917	0.02
631.105	0.05
631.292	-0.05
631.48	-0
631.667	0.09
631.854	-0
632.042	0
632.229	-0.04
632.416	-0.03
632.604	-0.03
632.791	-0.07
632.978	0
633.165	0.01
633.353	0.04
633.54	0.07
633.727	-0.06
633.914	-0.06
634.101	-0.04
634.289	0.05
634.476	-0.03
634.663	-0.05
634.85	0.02
635.037	-0.05
635.224	-0.06
635.411	0.03
635.598	0.04
635.785	-0.03
635.972	-0.02
636.159	0.03
636.346	-0.03
636.533	-0.01
636.72	-0.02
636.907	-0.07
637.094	0.02
637.281	-0.01
637.468	0.04
637.655	-0.02
637.842	-0.02
638.029	-0.01
638.215	0.03
638.402	0.04
638.589	-0.04
638.776	0
638.963	-0.03
639.149	0.06
639.336	0.06
639.523	-0.04
639.709	0.03
639.896	-0
640.083	0.01
640.27	0.02
640.456	-0.02
640.643	0.04
640.829	-0.02
641.016	-0.02
641.203	-0.05
641.389	0.01
641.576	0.03
641.762	0
641.949	-0.04
642.135	-0
642.322	0
642.508	-0.06
642.695	0
642.881	-0.03
643.068	0
643.254	-0.01
643.441	0.04
643.627	-0.01
643.813	-0.02
644	0.02
644.186	-0.02
644.372	0.01
644.559	0
644.745	-0.03
644.931	-0.02
645.118	-0.01
645.304	-0.02
645.49	-0.03
645.676	-0.04
645.862	-0.02
646.049	0.03
646.235	-0
646.421	0.08
646.607	0.07
646.793	-0
646.979	-0.03
647.165	-0.02
647.352	0.04
647.538	0.02
647.724	0.02
647.91	0
648.096	0.04
648.282	0.03
648.468	-0
648.654	0.01
648.84	-0
649.026	-0.03
649.212	-0.04
649.397	-0.01
649.583	-0.05
649.769	0.04
649.955	0
650.141	-0.02
650.327	0.07
650.513	-0.02
650.698	0.01
650.884	-0.11
651.07	0.04
651.256	0.01
651.442	-0.02
651.627	-0.02
651.813	0.03
651.999	-0.03
652.184	0.01
652.37	-0.02
652.556	-0.02
652.741	0.07
652.927	-0.03
653.113	-0.03
653.298	-0.01
653.484	-0.03
653.669	-0.09
653.855	-0.01
654.04	0.03
654.226	0.02
654.412	-0.04
654.597	-0.07
654.782	-0.01
654.968	0.05
655.153	0.01
655.339	-0.01
655.524	-0.03
655.71	0.04
655.895	-0.02
656.08	-0.01
656.266	0.04
656.451	0.02
656.636	-0.05
656.822	-0.01
657.007	-0.03
657.192	-0.02
657.378	-0.03
657.563	-0.01
657.748	0.01
657.933	0.01
658.118	-0.01
658.304	-0.02
658.489	0.02
658.674	0
658.859	-0.07
659.044	-0.01
659.229	-0
659.414	-0.01
659.599	-0
659.785	-0.06
659.97	-0.03
660.155	0.02
660.34	-0.02
660.525	0
660.71	0
660.895	0.02
661.08	-0.02
661.264	-0.04
661.449	0.06
661.634	0.04
661.819	0
662.004	0.04
662.189	-0.08
662.374	-0.01
662.559	-0.02
662.743	-0.08
662.928	-0.04
663.113	-0.02
663.298	-0.08
663.483	-0.02
663.667	-0.01
663.852	-0.08
664.037	0.06
664.221	-0.05
664.406	0.01
664.591	0.03
664.775	-0.01
664.96	-0.06
665.145	0.04
665.329	0.03
665.514	-0.04
665.698	-0.01
665.883	-0.09
666.068	0.07
666.252	0.02
666.437	-0.04
666.621	-0
666.806	0.04
666.99	0
667.174	-0.07
667.359	0.05
667.543	-0.05
667.728	-0.02
667.912	-0.08
668.096	-0
668.281	-0.02
668.465	0
668.649	0.02
668.834	-0.05
669.018	-0.01
669.202	-0.02
669.387	-0.07
669.571	-0
669.755	0.01
669.939	-0.02
670.124	-0.01
670.308	0.05
670.492	0.02
670.676	-0.03
670.86	-0.01
671.044	-0.04
671.228	-0
671.413	-0.08
671.597	-0.06
671.781	-0.02
671.965	0.05
672.149	-0.02
672.333	-0.02
672.517	-0.05
672.701	0.02
672.885	0.01
673.069	-0.06
673.253	0.03
673.437	-0.01
673.621	-0.03
673.804	0
673.988	0.01
674.172	-0.02
674.356	-0.09
674.54	-0.05
674.724	0.07
674.908	-0.02
675.091	0.01
675.275	-0.05
675.459	0.03
675.643	0.1
675.826	-0.01
676.01	-0.01
676.194	-0.03
676.377	0.05
676.561	-0.02
676.745	-0.01
676.928	0.01
677.112	0.04
677.296	-0.03
677.479	-0.04
677.663	-0.05
677.846	0.02
678.03	-0.01
678.213	-0.05
678.397	-0.01
678.58	-0.02
678.764	-0.05
678.947	-0.09
679.131	-0.06
679.314	0.08
679.498	-0.05
679.681	0.03
679.865	0.05
680.048	-0.01
680.231	-0.01
680.415	-0.03
680.598	-0.05
680.781	-0.02
680.965	-0.03
681.148	-0.01
681.331	0.02
681.514	0.03
681.698	-0.04
681.881	0.04
682.064	0.01
682.247	0.02
682.43	-0.08
682.614	-0.03
682.797	0.01
682.98	0.03
683.163	-0.06
683.346	0.01
683.529	-0.06
683.712	-0.04
683.895	0.03
684.078	-0.08
684.261	0.01
684.444	0.06
684.627	-0.02
684.81	-0.05
684.993	-0.04
685.176	0.03
685.359	-0.03
685.542	0.01
685.725	0.01
685.908	-0.03
686.091	-0.02
686.274	0.05
686.457	0.02
686.639	0.01
686.822	-0.01
687.005	0.04
687.188	0.05
687.371	0.05
687.553	0.01
687.736	0.04
687.919	0.07
688.102	0.03
688.284	0.03
688.467	0
688.65	-0.01
688.832	-0.02
689.015	0.01
689.197	-0.04
689.38	0.1
689.563	0.06
689.745	-0
689.928	-0.05
690.11	-0.01
690.293	-0.02
690.475	-0.08
690.658	0.02
690.84	-0.04
691.023	-0.04
691.205	-0.04
691.388	-0.04
691.57	0.01
691.752	0.01
691.935	-0.1
692.117	-0.07
692.3	0.02
692.482	-0.01
692.664	-0.03
692.847	0.01
693.029	0.05
693.211	0.01
693.393	-0.02
693.576	-0.09
693.758	0.02
693.94	-0.04
694.122	-0.04
694.304	-0.06
694.487	0.01
694.669	0.04
694.851	-0.05
695.033	-0.06
695.215	-0.06
695.397	-0.05
695.579	-0.01
695.761	-0.01
695.943	-0.09
696.125	0.07
696.308	-0
696.49	-0.07
696.671	0.1
696.853	0.01
697.035	0.13
697.217	-0.01
697.399	0.03
697.581	-0.04
697.763	-0.06
697.945	-0.04
698.127	0.01
698.309	0.05
698.491	0.01
698.672	0.03
698.854	0.07
699.036	0.04
699.218	-0.06
699.399	0.01
699.581	0.06
699.763	0
699.945	-0.02
700.126	-0.1
700.308	-0.01
700.49	-0.02
700.671	-0.08
700.853	-0.05
701.035	-0
701.216	0.01
701.398	-0.11
701.579	-0.04
701.761	0.07
701.943	-0.01
702.124	-0.08
702.306	-0.01
702.487	0.14
702.669	-0.05
702.85	-0.05
703.031	-0.12
703.213	0.08
703.394	0.07
703.576	-0.05
703.757	0.05
703.938	0.04
704.12	0.12
704.301	-0.07
704.483	-0.06
704.664	0.07
704.845	0.13
705.026	0.01
705.208	-0.04
705.389	0.02
705.57	0.04
705.751	-0.06
705.933	0.05
706.114	0.04
706.295	-0.06
706.476	-0.09
706.657	0.08
706.838	0.03
707.02	0.08
707.201	-0.04
707.382	-0.01
707.563	-0.01
707.744	-0.06
707.925	-0.03
708.106	-0.08
708.287	0.02
708.468	0.1
708.649	-0.02
708.83	0.06
709.011	-0.04
709.192	0.06
709.373	-0.12
709.554	-0.01
709.734	0.08
709.915	0
710.096	-0.02
710.277	-0.17
710.458	-0.04
710.639	-0.01
710.819	-0.11
711	-0.06
711.181	0.08
711.362	0.04
711.542	0.03
711.723	-0.01
711.904	0.06
712.085	0.05
712.265	0
712.446	-0.15
712.627	-0.03
712.807	-0.03
712.988	-0.04
713.168	-0.1
713.349	-0.02
713.53	-0.14
713.71	-0.12
713.891	-0.01
714.071	0.03
714.252	-0.06
714.432	-0.01
714.613	-0.14
714.793	-0.03
714.974	0.08
715.154	0.06
715.334	-0.03
715.515	0.07
715.695	-0.08
715.876	-0
716.056	-0.06
716.236	0.01
716.417	-0.04
716.597	0.04
716.777	0.12
716.957	-0.04
717.138	-0
717.318	0.04
717.498	-0.11
717.678	0.04
717.859	-0.06
718.039	-0.05
718.219	0.02
718.399	0.01
718.579	-0.07
718.759	-0.08
718.939	0.02
719.12	0.03
719.3	-0.03
719.48	-0.15
719.66	-0.1
719.84	0.08
720.02	0.03
720.2	-0.07
720.38	-0.04
720.56	0.14
720.74	-0.09
720.92	-0.01
721.1	0.05
721.279	0.1
721.459	-0.01
721.639	-0.1
721.819	-0.01
721.999	0.03
722.179	0.03
722.359	-0.09
722.538	0.05
722.718	0.03
722.898	-0.01
723.078	0.01
723.257	-0.01
723.437	0.04
723.617	0
723.797	0.01
723.976	0.01
724.156	0.02
724.336	0.13
724.515	0.07
724.695	-0.08
724.874	-0.06
725.054	0.02
725.234	-0.1
725.413	0.05
725.593	0.04
725.772	0.02
725.952	-0.03
726.131	0.04
726.311	0.01
726.49	0.07
726.67	-0.12
726.849	-0.11
727.028	0.04
727.208	-0.07
727.387	0.02
727.567	-0.13
727.746	-0.03
727.925	-0.05
728.105	-0.1
728.284	-0.06
728.463	0.04
728.643	-0.01
728.822	-0.17
729.001	-0.12
729.18	-0.02
729.359	0.02
729.539	-0.05
729.718	0.03
729.897	-0.01
730.076	-0.07
730.255	-0.15
730.434	0.06
730.614	0.09
730.793	-0.03
730.972	-0.12
731.151	-0.02
731.33	0.09
731.509	0.07
731.688	-0.08
731.867	-0.02
732.046	-0.18
732.225	0.2
732.404	-0.07
732.583	-0.04
732.762	-0
732.941	-0.03
733.12	-0.03
733.298	-0.04
733.477	0.2
733.656	0.03
733.835	-0.07
734.014	0.11
734.193	0.06
734.371	0.05
734.55	0.08
734.729	-0.17
734.908	0.01
735.086	-0.07
735.265	0.05
735.444	-0.13
735.623	-0.13
735.801	-0.09
735.98	-0.02
736.159	-0
736.337	0.08
736.516	0.03
736.694	-0.01
736.873	-0.09
737.052	0.13
737.23	0.22
737.409	-0.05
737.587	0.23
737.766	-0.13
737.944	-0.17
738.123	0.05
738.301	-0.03
738.479	-0
738.658	0.03
738.836	-0.24
739.015	-0.06
739.193	0.07
739.371	-0.15
739.55	0.06
739.728	-0.13
739.906	0.13
740.085	0.16
740.263	0.04
740.441	-0.2
740.62	0.26
740.798	0.1
740.976	-0.15
741.154	-0.09
741.332	0.11
741.511	-0.03
741.689	-0.01
741.867	0.03
742.045	-0.01
742.223	-0.07
742.401	-0.11
742.579	-0.07
742.757	0.01
742.935	-0.13
743.114	-0.09
743.292	-0.04
743.47	0.05
743.648	-0.02
743.826	-0.22
744.004	0.04
744.181	0.11
744.359	-0.07
744.537	-0.1
744.715	-0.09
744.893	0.09
745.071	0.01
745.249	-0.14
745.427	-0.1
745.605	-0.02
745.782	-0.02
745.96	0.13
746.138	0.04
746.316	0.09
746.493	-0.01
746.671	0.01
746.849	0.02
747.027	0.06
747.204	-0.12
747.382	0.01
747.56	-0.09
747.737	-0.03
747.915	-0.06
748.093	-0.07
748.27	-0.1
748.448	-0.03
748.625	-0.22
748.803	-0.12
748.98	0.03
749.158	0.04
749.335	0.05
749.513	-0
749.69	-0.1
749.868	0.04
750.045	0.04
750.223	-0.12
750.4	-0.17
750.578	0.2
750.755	0.03
750.932	-0.19
751.11	0.13
751.287	-0.04
751.464	0.16
751.642	-0.12
751.819	0.18
751.996	0.03
752.173	-0.13
752.351	-0.13
752.528	0.03
752.705	-0.03
752.882	0.01
753.06	-0.02
753.237	0.05
753.414	0.03
753.591	0.14
753.768	0
753.945	-0.09
754.122	-0.1
754.299	0.03
754.476	-0.11
754.654	0.05
754.831	0.05
755.008	-0
755.185	-0.16
755.362	-0.15
755.539	0.08
755.716	-0.06
755.892	-0.06
756.069	-0.06
756.246	-0.03
756.423	-0.07
756.6	0.04
756.777	-0.05
756.954	0.15
757.131	0
757.307	-0.08
757.484	-0.14
757.661	0.1
757.838	0.05
758.015	-0.09
758.191	0.04
758.368	-0.06
758.545	0.12
758.721	0.11
758.898	-0.04
759.075	0.13
759.251	0.09
759.428	0.09
759.605	-0.12
759.781	-0
759.958	0.09
760.134	0.01
760.311	-0.02
760.488	0.08
760.664	0.09
760.841	-0.09
761.017	-0.13
761.194	0.05
761.37	0.09
761.547	-0
761.723	-0.02
761.899	0.1
762.076	-0.14
762.252	-0.23
762.429	-0.03
762.605	0.09
762.781	-0.06
762.958	-0
763.134	-0.06
763.31	-0.02
763.486	0.08
763.663	-0.23
763.839	-0.02
764.015	-0.25
764.191	-0.06
764.368	-0.02
764.544	-0.1
764.72	0.05
764.896	0.06
765.072	-0.01
765.248	-0.01
765.425	-0.12
765.601	-0.02
765.777	0.05
765.953	-0.33
766.129	-0.05
766.305	-0.01
766.481	0
766.657	0.06
766.833	0.23
767.009	-0.15
767.185	-0.05
767.361	-0.01
767.537	-0.07
767.713	0.15
767.889	-0.14
768.065	0.02
768.24	0.06
768.416	0.07
768.592	-0.05
768.768	-0.06
768.944	-0.01
769.12	-0.2
769.295	-0.07
769.471	-0.08
769.647	-0.14
769.823	0.09
769.998	-0.21
770.174	-0.08
770.35	0.3
770.525	0.28
770.701	-0.09
770.877	-0.05
771.052	-0.15
771.228	0.08
771.403	-0.02
771.579	0.02
771.755	0.31
771.93	-0.08
772.106	-0.12
772.281	-0.36
772.457	0.01
772.632	-0.03
772.808	-0.17
772.983	-0.08
773.159	-0.22
773.334	0.26
773.509	-0.06
773.685	-0.09
773.86	0.27
774.036	0.16
774.211	0.13
774.386	-0.07
774.562	0.09
774.737	0.14
774.912	-0.12
775.087	-0.01
775.263	0.09
775.438	0.12
775.613	-0.14
775.788	0.06
775.964	0.04
776.139	0.3
776.314	-0.24
776.489	-0.08
776.664	0.05
776.839	-0.14
777.014	0.05
777.19	0.26
777.365	0.29
777.54	0.1
777.715	-0.07
777.89	-0.05
778.065	-0.05
778.24	-0.05
778.415	-0.03
778.59	-0.29
778.765	0.01
778.94	0.07
779.115	-0.04
779.289	-0.17
779.464	0.06
779.639	0.02
779.814	-0.28
779.989	-0.22
780.164	0.3
780.339	0.16
780.513	-0.19
780.688	-0.17
780.863	0.01
781.038	0.19
781.212	-0.17
781.387	0
781.562	0.33
781.737	0.01
781.911	0.07
782.086	-0.28
782.261	-0.08
782.435	0.25
782.61	-0.2
782.784	0.06
782.959	0.13
783.134	-0.08
783.308	-0.15
783.483	-0.06
783.657	0.35
783.832	0.18
784.006	-0.4
784.181	-0.09
784.355	0.04
784.53	-0.18
784.704	-0.41
784.878	0.36
785.053	0.01
785.227	0.22
785.402	0.29
785.576	-0.17
785.75	-0.28
785.925	-0
786.099	-0.03
786.273	-0
786.448	0.16
786.622	0.19
786.796	-0
786.97	-0.19
787.145	0.55
787.319	-0.28
787.493	-0.43
787.667	-0.53
787.841	-0.17
788.015	0.23
788.19	-0.2
788.364	-0.13
788.538	0.21
788.712	0.03
788.886	-0.02
789.06	0.09
789.234	0.23
789.408	-0.37
789.582	-0.18
789.756	-0.16
789.93	-0.32
790.104	-0.13
790.278	-0.14
790.452	-0.25
790.626	0.26
790.8	-0.29
790.973	0.35
791.147	0.15
791.321	0.36
791.495	0.33
791.669	0.25
791.843	0.16
792.016	0.07
792.19	0.3
792.364	-0.08
792.538	0.4
792.711	0.37
792.885	-0.13
793.059	-0.34
793.233	-0.59
793.406	0.04
793.58	0
793.754	0.05
793.927	-0.08
794.101	0.15
794.274	-0.07
794.448	0.1
794.622	-0.36
794.795	0.37
794.969	-0.26
795.142	0.3
795.316	-0.18
795.489	-0.2
795.663	0.46
795.836	-0.03
796.009	-0.28
796.183	0.17
796.356	0.07
796.53	0.01
796.703	-0.09
796.876	0.48
797.05	-0.19
797.223	-0.16
797.396	-0.13
797.57	0.03
797.743	0.38
797.916	-0.13
798.09	-0.31
798.263	0.24
798.436	0.23
798.609	-0.15
798.782	-0
798.956	0.05
799.129	-0.13
799.302	-0.34
799.475	-0.34
799.648	-0.26
799.821	-0.15
799.994	-0.02
800.167	-0.31
800.34	-0.04
800.514	0.21
800.687	-0.25
800.86	-0.33
801.033	-0.03
801.206	0.12
801.379	-0.29
801.551	-0.01
801.724	0.17
801.897	0.36
802.07	-0.14
802.243	-0.45
802.416	-0.09
802.589	-0.19
802.762	0.05
802.935	-0.5
803.107	0.03
803.28	0.26
803.453	0.29
803.626	-0.52
803.798	0.1
803.971	-0.45
804.144	0.07
804.317	0.22
804.489	0.18
804.662	0.08
804.835	-0.07
805.007	-0.33
805.18	0.5
805.353	0.31
805.525	-0.47
805.698	-0.28
805.87	-0.1
806.043	0.33
806.215	-0.49
806.388	-0.46
806.56	0.13
806.733	0.23
806.905	-0.12
807.078	-0.16
807.25	0.13
807.423	0.18
807.595	-0.08
807.768	0.27
807.94	0.15
808.112	0.17
808.285	0.06
808.457	-0.27
808.629	-0.15
808.802	0.06
808.974	0.2
809.146	-0.16
809.318	-0.31
809.491	0.05
809.663	0.2
809.835	-0.31
810.007	0.19
810.18	0.26
810.352	-0.44
810.524	-0.11
810.696	0.36
810.868	0.35
811.04	0.07
811.212	-0.14
811.384	0.15
811.556	0.06
811.728	-0.14
811.901	0.77
812.073	-0.29
812.245	0.05
812.417	0.21
812.589	-0.75
812.76	-0.1
812.932	0.11
813.104	0.22
813.276	-0.23
813.448	0.14
813.62	-0.12
813.792	0.2
813.964	-0.24
814.136	-0.01
814.307	-0.34
814.479	-0.42
814.651	-0.2
814.823	0.45
814.995	-0.12
815.166	0.16
815.338	-0.37
815.51	-0.5
815.681	0.91
815.853	0.28
816.025	-0.2
816.196	0.55
816.368	0.77
816.54	-0.73
816.711	-0.38
816.883	-0.28
817.054	1.2
817.226	-0.41
817.398	0.2
817.569	-0.6
817.741	0.16
817.912	-0.59
818.084	-0.37
818.255	-0.07
818.426	-0.54
818.598	-0.14
818.769	-0.37
818.941	0.34
819.112	0.51
819.283	-0.12
819.455	-0.56
819.626	-0.15
819.798	0.18
819.969	-0.03
820.14	0.05
820.311	-0.26
820.483	0.25
820.654	-0.12
820.825	0.23
820.996	-0.69
821.168	-0.64
821.339	-0.38
821.51	-0.46
821.681	-0.84
821.852	0.09
822.023	-0.64
822.195	-0.67
822.366	0.14
822.537	-0.17
822.708	0.26
822.879	-0.68
823.05	0.56
823.221	-0.06
823.392	-0.48
823.563	-0.27
823.734	-0.05
823.905	-0.65
824.076	-0.48
824.247	-0.79
824.418	-0.22
824.589	0.62
824.759	0.28
824.93	-0.14
825.101	-0.62
825.272	0.35
825.443	0.53
825.614	0.01
825.784	-1.28
825.955	0.56
826.126	0.44
826.297	-0.2
826.467	0.18
826.638	0.72
826.809	-1.25
826.98	0.14
827.15	-0.17
827.321	-0.2
827.492	0.41
827.662	0.06
827.833	0.59
828.003	0.17
828.174	-0.47
828.345	-0.23
828.515	1.3
828.686	-0.38
828.856	-0.16
829.027	-0.02
829.197	-0.26
829.368	-0.44
829.538	-0.47
829.709	-0.89
829.879	0.15
830.049	-0.57
830.22	-0.37
830.39	-0.63
830.56	0.51
830.731	-0.42
830.901	-0.5
831.072	-0.18
831.242	-0.08
831.412	-0.19
831.582	0.05
831.753	-0.75
831.923	0.16
832.093	0.01
832.263	-0.5
832.434	-0.96
832.604	0.02
832.774	0.43
832.944	-0.29
833.114	-0.83
833.284	0.48
833.454	-1.08
833.624	-0.09
833.795	-0.56
833.965	0.39
834.135	0.52
834.305	-0.82
834.475	-0.33
834.645	0.03
834.815	-0.24
834.985	-0.44
835.155	-0.56
835.325	0.28
835.494	-0.01
835.664	-0.58
835.834	-0.8
836.004	-0.76
836.174	-0.05
836.344	-0.6
836.514	-0.99
836.684	-0.56
836.853	0.19
837.023	0.11
837.193	-0.44
837.363	0.96
837.532	0.56
837.702	-0.02
837.872	-0.93
838.041	0.3
838.211	1.6
838.381	-1.25
838.55	0.49
838.72	1.37
838.89	1.29
839.059	-0.77
839.229	-1.22
839.398	1.19
839.568	-0.12
839.738	-0.03
839.907	0.75
840.077	0.88
840.246	-0.15
840.416	-0.24
840.585	-0.88
840.755	0.83
840.924	0.86
841.093	-1.01
841.263	-0.78
841.432	-0.58
841.602	-1.24
841.771	-0.49
841.94	-0.15
842.11	1.83
842.279	1.25
842.448	-0.75
842.617	-0.57
842.787	0.86
842.956	-1.14
843.125	-0.45
843.294	0.41
843.464	0.54
843.633	0.3
843.802	-1.13
843.971	0.09
844.14	0.31
844.309	0.54
844.479	-1.72
844.648	-0.82
844.817	-1.15
844.986	-0.16
845.155	-0.48
845.324	-1.55
845.493	-0.97
845.662	-0.68
845.831	-0.11
846	0.14
846.169	-0.32
846.338	0.82
846.507	0.02
846.676	0.28
846.844	-0.43
847.013	0.87
847.182	-0.07
847.351	-0.15
847.52	-0.33
847.689	0.21
847.858	-0.63
848.026	-0.41
848.195	-0.02
848.364	0.04
848.533	-0.95
848.701	-0.75
848.87	-0.21
849.039	1.09
849.207	0.27
849.376	0.06
849.545	1.13
849.713	-0.96
849.882	-0.59
850.051	-0.3
850.219	-0.45
850.388	1.39
850.556	-1.47
850.725	-0.57
850.893	0.1
851.062	-0.5
851.23	-0.11
851.399	-1.26
851.567	-1.07
851.736	-1.05
851.904	-1.85
852.073	-0.65
852.241	1.5
852.41	-0.68
852.578	-0.79
852.746	-0.52
852.915	-0.62
853.083	-0.53
853.251	-2.06
853.42	-1.31
853.588	0.41
853.756	0.69
853.924	-0.02
854.093	-0.18
854.261	-0.27
854.429	-2.01
854.597	-0.01
854.765	-0.44
854.934	1.11
855.102	0.31
855.27	-1.04
855.438	1.07
855.606	1.29
855.774	2.11
855.942	-1.31
856.11	-2.28
856.278	-0.1
856.446	0.57
856.614	0.05
856.782	-1.01
856.95	0.61
857.118	0.27
857.286	-0.31
857.454	-1.49
857.622	0.87
857.79	0.28
857.958	-1.14
858.126	-0.94
858.294	-2.97
858.462	0.31
858.629	-1.18
858.797	-1.94
858.965	-0.49
859.133	-0.21
859.301	-1.13
859.468	0.39
859.636	-0.36
859.804	0.47
859.971	0.23
860.139	-0.72
860.307	0.18
860.474	0.33
860.642	-0.61
860.81	-0.64
860.977	-1.24
861.145	1
861.313	-0.83
861.48	-0.61
861.648	-0.01
861.815	-0.35
861.983	-2.57
862.15	-0.46
862.318	0.5
862.485	1.34
862.653	-1.03
862.82	-1.48
862.988	1.66
863.155	0.66
863.322	-0.99
863.49	-0.72
863.657	-0.9
863.824	0.67
863.992	-0.22
864.159	0.19
864.326	2.5
864.494	-0.07
864.661	1.81
864.828	-1.64
864.996	0.83
865.163	2.53
865.33	-0.47
865.497	-3.47
865.664	-1.41
865.832	-2.79
865.999	-1.07
866.166	0.03
866.333	-1.65
866.5	-0.73
866.667	0.15
866.834	-2.01
867.001	0.78
867.168	-1.64
867.335	1.05
867.502	-2.44
867.669	-0.93
867.836	1.81
868.003	-0.21
868.17	1.68
868.337	2.02
868.504	2.81
868.671	-2.82
868.838	-1.65
869.005	-0.42
869.172	0.22
869.339	-1.02
869.505	-0.75
869.672	-0.85
869.839	2.71
870.006	-0.09
870.173	-1.29
870.339	0.35
870.506	2.54
870.673	-2.54
870.84	1.39
871.006	-0.17
871.173	-0.01
871.34	0.43
871.506	-1.68
871.673	0.63
871.839	-3.04
872.006	1.33
872.173	-1.56
872.339	1.4
872.506	1.94
872.672	0.9
872.839	-3.29
873.005	-2.18
873.172	3.55
873.338	-0.07
873.505	0.72
873.671	2.26
873.838	-0.47
874.004	-1.63
874.171	-1.59
874.337	0.43
874.503	1.44
874.67	-0.38
874.836	-1.1
875.002	2.44
875.169	1.67
875.335	0.35
875.501	1.25
875.668	1.76
875.834	-0.57
876	0.37
876.166	0.93
876.332	0.2
876.499	3.23
876.665	-0.91
876.831	-1.48
876.997	1.39
877.163	-0.81
877.329	-1.96
877.495	-1.43
877.662	0.46
877.828	-0.38
877.994	-0.83
878.16	-0.74
878.326	-0.61
878.492	0.72
878.658	-1.09
878.824	0.22
878.99	2.53
879.156	-2.38
879.322	1.16
879.487	-1.16
879.653	-0.11
879.819	-0.41
879.985	-1.5
880.151	0.67
880.317	0.19
880.483	0.26
880.648	0.84
880.814	-2.31
880.98	-0.26
881.146	-3.34
881.312	-2.83
881.477	-0.97
881.643	-0.39
881.809	1.23
881.974	0.23
882.14	-2.67
882.306	-1.41
882.471	2.21
882.637	-0.47
882.803	0.51
882.968	1.2
883.134	3.14
883.299	-0.15
883.465	0.52
883.63	1.06
883.796	0.23
883.961	-0.3
884.127	1.47
884.292	-5.29
884.458	-1.62
884.623	-1.62
