Data from Apollo_Calib_20240827__AbsoluteIrradiance__617__09-26-00-154.txt Node

Date: Wed Aug 28 09:26:00 BST 2024
User: biology
Spectrometer: FLMT08252
Trigger mode: 0
Integration Time (sec): 5.000000E-1
Scans to average: 5
Electric dark correction enabled: true
Nonlinearity correction enabled: false
Boxcar width: 0
XAxis mode: Wavelengths
Number of Pixels in Spectrum: 3648
>>>>>Begin Spectral Data<<<<<
179.588	-0
179.809	-0
180.03	-0
180.251	-0
180.473	-0
180.694	0
180.915	0
181.136	-0
181.357	0
181.578	-0
181.799	0
182.02	-0
182.241	0
182.462	-0
182.683	0
182.904	-0
183.125	-0
183.346	0
183.567	0
183.788	-0
184.009	-0
184.23	0
184.451	0
184.672	-0
184.892	-0
185.113	0
185.334	0
185.555	-0
185.776	-0
185.996	0
186.217	0
186.438	-0
186.659	-0
186.879	-0
187.1	-0
187.321	-0
187.541	-0
187.762	-0
187.983	-0
188.203	-0
188.424	0
188.644	-0
188.865	-0
189.086	-0
189.306	-0
189.527	0
189.747	-0
189.968	-0
190.188	-0
190.409	0
190.629	0
190.849	-0
191.07	-0
191.29	0
191.511	-0
191.731	-0
191.951	-0
192.172	-0
192.392	-0
192.612	-0
192.833	-0
193.053	0
193.273	0
193.493	-0
193.714	-0
193.934	0
194.154	0
194.374	-0
194.594	0
194.815	-0
195.035	-0
195.255	-0
195.475	-0
195.695	0
195.915	0
196.135	-0
196.355	0
196.575	0
196.795	-0
197.015	-0
197.235	-0
197.455	-0
197.675	0
197.895	-0
198.115	-0
198.335	0
198.555	-0
198.775	0
198.995	0
199.214	0
199.434	0
199.654	-0
199.874	-0
200.094	0.43
200.313	-0.93
200.533	-0.55
200.753	-0.94
200.973	0.11
201.192	0.74
201.412	-1.23
201.632	-0.94
201.851	0.76
202.071	-0.57
202.291	-0.88
202.51	-0.63
202.73	0.17
202.95	-0.38
203.169	-0.57
203.389	-0.52
203.608	0.15
203.828	-0.61
204.047	-0.38
204.267	0.5
204.486	-0.49
204.706	-0.04
204.925	-0.18
205.145	-0.46
205.364	0.5
205.583	0.64
205.803	-0.54
206.022	-0.79
206.242	-0.03
206.461	-0.03
206.68	-0.32
206.9	-0.23
207.119	0.33
207.338	0.19
207.557	-0.37
207.777	-0.21
207.996	-0.22
208.215	0.12
208.434	-0.51
208.654	-0.59
208.873	-0.25
209.092	0.34
209.311	-0.24
209.53	-0.09
209.749	-0.23
209.968	-0.43
210.187	-0.4
210.407	-0.53
210.626	-0.4
210.845	-0.06
211.064	-0.22
211.283	-0.4
211.502	0.19
211.721	-0.16
211.94	-0.26
212.159	0.05
212.377	0.2
212.596	0.26
212.815	-0.08
213.034	-0.21
213.253	0.11
213.472	-0.02
213.691	-0.22
213.91	-0.4
214.128	-0.15
214.347	0.15
214.566	-0.58
214.785	-0.61
215.003	0.1
215.222	0.03
215.441	-0.03
215.66	-0.44
215.878	-0.1
216.097	0.1
216.316	-0.31
216.534	-0.15
216.753	-0.41
216.972	-0.13
217.19	-0.25
217.409	-0.16
217.627	-0.15
217.846	-0.3
218.064	0.01
218.283	-0.28
218.501	0.35
218.72	0.06
218.938	-0.29
219.157	-0.22
219.375	-0.02
219.594	-0.1
219.812	-0.38
220.031	-0.14
220.249	0.21
220.467	0.29
220.686	-0.08
220.904	-0.23
221.122	-0.36
221.341	0.18
221.559	-0.09
221.777	-0.23
221.995	-0.04
222.214	0.07
222.432	-0.13
222.65	-0.09
222.868	0.06
223.086	-0.1
223.305	0.02
223.523	-0.1
223.741	0.18
223.959	-0.01
224.177	-0.36
224.395	-0.05
224.613	-0.17
224.831	0.05
225.049	-0.18
225.267	-0.19
225.485	-0.11
225.703	-0.18
225.921	-0.13
226.139	-0.22
226.357	-0.06
226.575	-0.06
226.793	-0.2
227.011	0.31
227.229	-0.11
227.447	0.08
227.665	-0.14
227.883	-0.27
228.1	-0.05
228.318	0.01
228.536	-0.4
228.754	-0.15
228.972	-0.04
229.189	-0.02
229.407	-0
229.625	-0.07
229.843	0.06
230.06	0.05
230.278	-0.14
230.496	-0.11
230.713	-0.09
230.931	0.05
231.149	-0.11
231.366	-0.27
231.584	-0.07
231.801	0.24
232.019	-0.11
232.236	-0.16
232.454	-0.18
232.671	0.09
232.889	-0.1
233.106	-0.19
233.324	-0.09
233.541	-0.13
233.759	-0.01
233.976	-0.03
234.194	-0.1
234.411	-0.06
234.628	-0.16
234.846	-0.03
235.063	-0.11
235.28	-0.01
235.498	-0.13
235.715	-0.2
235.932	0.18
236.149	-0.1
236.367	-0.16
236.584	0.01
236.801	-0.05
237.018	-0.12
237.236	-0.13
237.453	-0.21
237.67	0.01
237.887	-0.09
238.104	-0.07
238.321	-0.16
238.538	-0.07
238.755	0.04
238.973	-0.15
239.19	-0.07
239.407	0.01
239.624	0.01
239.841	-0.14
240.058	-0.18
240.275	-0.04
240.492	0.03
240.709	-0.06
240.925	-0.05
241.142	-0.05
241.359	-0.15
241.576	-0.21
241.793	-0.08
242.01	-0.04
242.227	0.06
242.444	0.04
242.66	0.01
242.877	-0.05
243.094	-0.09
243.311	0.01
243.527	-0.09
243.744	-0.04
243.961	0.11
244.178	-0.14
244.394	0
244.611	0.14
244.828	0.18
245.044	-0.19
245.261	0.01
245.477	-0.05
245.694	0.04
245.911	-0.14
246.127	0.04
246.344	0.19
246.56	-0.01
246.777	-0.09
246.993	-0.16
247.21	-0.04
247.426	0.07
247.643	-0.12
247.859	-0.15
248.076	-0.1
248.292	0.13
248.508	-0.05
248.725	0.01
248.941	0.01
249.157	0.07
249.374	-0.15
249.59	-0.09
249.806	-0.02
250.023	0.04
250.239	-0.1
250.455	-0.16
250.671	0.02
250.888	0.04
251.104	-0.02
251.32	-0.07
251.536	-0.02
251.752	-0.04
251.969	-0.03
252.185	-0.04
252.401	0.14
252.617	0.06
252.833	-0.01
253.049	-0.01
253.265	-0.06
253.481	-0.02
253.697	-0.06
253.913	-0.05
254.129	-0.11
254.345	0
254.561	-0.07
254.777	-0.01
254.993	-0.06
255.209	-0.02
255.425	-0.03
255.641	-0.15
255.857	0.05
256.073	-0.06
256.288	-0.12
256.504	-0.08
256.72	0.01
256.936	0.13
257.152	-0.09
257.367	-0.09
257.583	-0.09
257.799	0.05
258.015	-0.18
258.23	-0.1
258.446	0.09
258.662	0.01
258.877	-0.09
259.093	-0.08
259.309	0.03
259.524	0.04
259.74	-0.09
259.955	-0.11
260.171	0.02
260.387	0.02
260.602	0.02
260.818	0.01
261.033	-0.05
261.249	-0.06
261.464	-0.07
261.68	-0.03
261.895	0.02
262.11	0.07
262.326	-0.09
262.541	-0.11
262.757	0.05
262.972	-0.03
263.187	-0.03
263.403	0
263.618	0.06
263.833	0
264.049	-0.03
264.264	-0.04
264.479	0.07
264.694	0.14
264.91	-0.1
265.125	-0.09
265.34	-0.04
265.555	0.09
265.77	0.07
265.986	-0.04
266.201	-0
266.416	0.02
266.631	0
266.846	-0.01
267.061	0.03
267.276	0.01
267.491	-0.15
267.706	0.02
267.921	0
268.136	0.01
268.351	-0.02
268.566	-0.13
268.781	0.05
268.996	0.06
269.211	-0.02
269.426	-0.08
269.641	-0
269.856	0
270.071	-0.11
270.285	-0.09
270.5	0.04
270.715	0.05
270.93	-0.05
271.145	0.02
271.359	0
271.574	-0.12
271.789	-0.07
272.004	-0.08
272.218	-0.08
272.433	-0.02
272.648	-0.06
272.862	0.08
273.077	-0.01
273.292	0
273.506	-0.07
273.721	-0.08
273.936	0.03
274.15	0.02
274.365	-0.08
274.579	-0.02
274.794	0.04
275.008	-0.01
275.223	-0.12
275.437	-0.01
275.652	-0.02
275.866	-0.03
276.081	-0.04
276.295	0.03
276.509	0.03
276.724	-0.02
276.938	-0.04
277.153	0.02
277.367	0.01
277.581	-0.02
277.796	-0.08
278.01	-0.07
278.224	0.02
278.438	0.1
278.653	-0.13
278.867	-0.08
279.081	-0.18
279.295	-0.02
279.51	0.01
279.724	-0.1
279.938	0.02
280.152	-0.04
280.366	-0.01
280.58	-0.02
280.794	0.05
281.008	0.01
281.222	0.06
281.437	0.08
281.651	-0.02
281.865	0.06
282.079	-0.06
282.293	-0.17
282.507	-0.06
282.721	-0.03
282.935	0.01
283.148	-0.17
283.362	-0.04
283.576	-0.08
283.79	-0.02
284.004	-0.01
284.218	0.02
284.432	-0.04
284.646	-0.02
284.859	-0.04
285.073	-0.02
285.287	-0.07
285.501	-0.08
285.714	-0.01
285.928	0.01
286.142	-0.05
286.356	-0.07
286.569	-0.04
286.783	0.11
286.997	-0
287.21	0.01
287.424	-0.02
287.637	-0.01
287.851	-0.07
288.065	-0.02
288.278	0
288.492	-0.08
288.705	-0.03
288.919	0.01
289.132	-0.12
289.346	0.04
289.559	-0.04
289.773	-0.11
289.986	-0.03
290.2	-0.04
290.413	0.02
290.626	-0.11
290.84	-0.04
291.053	-0.04
291.267	0.05
291.48	-0.03
291.693	-0.01
291.906	-0.04
292.12	-0.05
292.333	-0.07
292.546	-0.08
292.76	0.04
292.973	0.01
293.186	-0.01
293.399	-0.05
293.612	-0.01
293.826	0
294.039	0
294.252	0
294.465	0.04
294.678	-0
294.891	0.01
295.104	-0.08
295.317	-0.05
295.53	0
295.743	-0.01
295.956	-0.02
296.169	0.07
296.382	0
296.595	0
296.808	-0.04
297.021	0.04
297.234	0.02
297.447	-0
297.66	0.01
297.873	0.05
298.086	0.06
298.299	-0.04
298.511	-0.03
298.724	-0.06
298.937	-0.05
299.15	-0.08
299.363	-0.01
299.575	0.02
299.788	0.02
300.001	-0.02
300.213	-0.04
300.426	-0.03
300.639	-0.01
300.852	-0.04
301.064	0.07
301.277	0.06
301.489	0.03
301.702	0.02
301.915	-0.04
302.127	-0.04
302.34	0.01
302.552	-0.03
302.765	-0.05
302.977	0.01
303.19	-0.05
303.402	-0.04
303.615	-0.04
303.827	-0.03
304.04	-0.03
304.252	0
304.464	-0.02
304.677	0.11
304.889	0.03
305.102	-0.04
305.314	-0.06
305.526	0.02
305.739	-0.05
305.951	-0.02
306.163	0.01
306.375	0.02
306.588	0
306.8	-0.02
307.012	-0.03
307.224	0
307.436	0.03
307.649	-0.11
307.861	0.01
308.073	-0.03
308.285	-0.04
308.497	-0.06
308.709	-0.05
308.921	-0.01
309.133	0.04
309.346	0.01
309.558	-0.04
309.77	0.02
309.982	0.06
310.194	0.06
310.406	-0.03
310.617	0.08
310.829	-0.01
311.041	0
311.253	-0.08
311.465	-0.02
311.677	0.01
311.889	-0.03
312.101	-0.07
312.313	0.04
312.524	-0.02
312.736	-0.05
312.948	-0.04
313.16	0.07
313.372	0.05
313.583	-0.03
313.795	-0.05
314.007	-0.02
314.218	0
314.43	-0.03
314.642	-0.03
314.853	-0.05
315.065	0.01
315.277	-0.02
315.488	0.01
315.7	0.06
315.912	0.03
316.123	-0.02
316.335	0.01
316.546	0.14
316.758	0
316.969	-0.06
317.181	-0.04
317.392	-0.02
317.604	0.06
317.815	-0.05
318.026	-0.05
318.238	-0.02
318.449	0.02
318.661	-0.11
318.872	-0.07
319.083	-0.04
319.295	-0.02
319.506	-0.04
319.717	0.03
319.929	0.02
320.14	-0.03
320.351	-0.01
320.562	-0.03
320.774	-0.01
320.985	-0.01
321.196	-0.08
321.407	-0.05
321.618	0.04
321.829	0
322.041	-0.01
322.252	-0.02
322.463	0.02
322.674	0.01
322.885	-0.06
323.096	-0.03
323.307	-0.03
323.518	0.02
323.729	-0.06
323.94	-0.02
324.151	-0.05
324.362	-0.01
324.573	0
324.784	-0.07
324.995	0.04
325.206	0
325.417	-0.04
325.628	-0.02
325.838	0.01
326.049	0
326.26	0.01
326.471	-0.05
326.682	0
326.892	-0.04
327.103	-0.08
327.314	-0.03
327.525	0.05
327.735	-0.03
327.946	-0
328.157	-0.04
328.368	0.05
328.578	-0.03
328.789	0
328.999	-0.04
329.21	-0.05
329.421	-0.02
329.631	-0.09
329.842	-0.05
330.052	-0.01
330.263	0.01
330.473	-0
330.684	-0.01
330.894	0.02
331.105	-0.02
331.315	-0.01
331.526	-0.11
331.736	0.06
331.947	0.01
332.157	0.01
332.367	-0.05
332.578	0.04
332.788	0.03
332.999	-0.01
333.209	0.01
333.419	-0.06
333.629	-0
333.84	0.04
334.05	-0.03
334.26	0.03
334.47	-0.02
334.681	0.02
334.891	-0.06
335.101	0.03
335.311	0.05
335.521	-0
335.732	-0.05
335.942	0.05
336.152	-0.02
336.362	-0.03
336.572	0.02
336.782	0.03
336.992	-0.06
337.202	-0.04
337.412	-0.03
337.622	-0
337.832	0.01
338.042	0
338.252	-0.06
338.462	-0.02
338.672	-0
338.882	-0.04
339.092	-0.04
339.302	0.05
339.511	0.03
339.721	-0.04
339.931	-0.06
340.141	0.01
340.351	0
340.561	0.04
340.77	0
340.98	0.02
341.19	0
341.4	-0.05
341.609	-0.09
341.819	-0.03
342.029	-0.03
342.238	0.01
342.448	-0.02
342.658	0.06
342.867	0
343.077	-0.02
343.286	0
343.496	-0.02
343.706	0.08
343.915	-0.06
344.125	-0.04
344.334	-0.03
344.544	-0.1
344.753	-0.05
344.963	-0
345.172	-0.05
345.381	-0.05
345.591	-0.05
345.8	-0
346.01	0.02
346.219	0.05
346.428	-0.16
346.638	-0
346.847	-0.03
347.056	0.01
347.266	-0.06
347.475	-0.01
347.684	0.02
347.893	0.03
348.103	0.05
348.312	-0.03
348.521	-0.05
348.73	0.01
348.94	0
349.149	-0.04
349.358	-0.03
349.567	-0.03
349.776	-0.08
349.985	-0.03
350.194	0.04
350.403	0.05
350.612	-0.06
350.821	-0.07
351.03	0.03
351.239	-0.07
351.448	-0.01
351.657	-0.05
351.866	0.05
352.075	0
352.284	0.05
352.493	-0.08
352.702	0.02
352.911	0.01
353.12	0
353.329	-0.01
353.538	0.01
353.746	-0.06
353.955	-0.05
354.164	-0.01
354.373	-0.02
354.582	0.02
354.79	0.02
354.999	-0.01
355.208	-0.02
355.416	0.02
355.625	-0.05
355.834	-0.01
356.042	0
356.251	-0.02
356.46	-0.03
356.668	0.01
356.877	0.08
357.085	0.04
357.294	-0.09
357.503	0.02
357.711	-0.01
357.92	0.09
358.128	-0.04
358.337	-0
358.545	-0
358.754	-0.02
358.962	-0.07
359.17	-0.04
359.379	-0.02
359.587	0
359.796	-0.01
360.004	0.06
360.212	0.03
360.421	0.04
360.629	-0.01
360.837	-0.03
361.046	0.01
361.254	0.11
361.462	0.01
361.67	-0.03
361.879	-0
362.087	0.01
362.295	-0.02
362.503	-0.05
362.711	-0.06
362.92	-0.06
363.128	-0.04
363.336	-0.04
363.544	-0.07
363.752	-0.02
363.96	-0.05
364.168	-0.02
364.376	0.02
364.584	0.02
364.792	0.06
365	0.05
365.208	-0.02
365.416	-0.01
365.624	0.01
365.832	-0.06
366.04	0.04
366.248	0.02
366.456	-0.02
366.664	-0.02
366.872	0
367.079	-0.06
367.287	0.01
367.495	-0.02
367.703	-0.05
367.911	-0.02
368.118	0
368.326	-0.03
368.534	-0.02
368.742	0.04
368.949	-0.08
369.157	-0.01
369.365	0.04
369.572	-0.03
369.78	-0.03
369.988	0.05
370.195	0.04
370.403	0.02
370.61	-0.05
370.818	-0.04
371.026	0.05
371.233	-0.03
371.441	-0.02
371.648	-0.06
371.856	0.02
372.063	0.03
372.271	0.01
372.478	-0.02
372.685	-0.01
372.893	0.02
373.1	-0.06
373.308	-0.05
373.515	0.07
373.722	0.02
373.93	-0.03
374.137	0.01
374.344	0.04
374.552	0.02
374.759	0.01
374.966	0.02
375.173	-0.02
375.381	0.05
375.588	-0.07
375.795	-0.09
376.002	-0.03
376.209	-0.01
376.417	-0.01
376.624	-0.01
376.831	0.01
377.038	-0.01
377.245	-0.07
377.452	-0
377.659	-0.02
377.866	-0.02
378.073	-0
378.28	-0
378.487	0.01
378.694	-0.01
378.901	-0.03
379.108	-0.05
379.315	-0
379.522	0.05
379.729	0.01
379.936	-0.04
380.143	-0.01
380.35	-0.01
380.557	-0.05
380.763	0.01
380.97	-0.05
381.177	0.02
381.384	0
381.591	-0.04
381.797	-0.03
382.004	0.01
382.211	0.02
382.418	-0.04
382.624	-0.02
382.831	0.01
383.038	-0.02
383.244	-0.02
383.451	-0.01
383.658	0.01
383.864	-0.01
384.071	-0.03
384.277	0.04
384.484	-0.05
384.69	-0.03
384.897	-0.01
385.103	-0.03
385.31	-0.03
385.516	-0.04
385.723	-0.04
385.929	-0.01
386.136	-0.03
386.342	0.01
386.549	-0.03
386.755	0.05
386.961	0.03
387.168	-0.04
387.374	-0.03
387.58	0.01
387.787	-0.04
387.993	0
388.199	-0.03
388.406	-0.05
388.612	-0.06
388.818	-0.06
389.024	-0.03
389.231	-0.01
389.437	0.05
389.643	0
389.849	0.01
390.055	-0.04
390.261	-0.01
390.467	-0.03
390.674	-0.03
390.88	-0.03
391.086	0.01
391.292	-0.04
391.498	0.03
391.704	0
391.91	-0.01
392.116	-0.04
392.322	-0.07
392.528	-0.01
392.734	-0.01
392.94	-0.04
393.146	-0.04
393.352	-0.01
393.557	-0.05
393.763	-0.01
393.969	0
394.175	-0.06
394.381	-0.01
394.587	-0.06
394.792	-0.02
394.998	0.05
395.204	0.05
395.41	-0.04
395.615	0.02
395.821	-0.03
396.027	-0.02
396.233	-0.05
396.438	-0.01
396.644	0.04
396.85	-0.03
397.055	-0.05
397.261	0.01
397.466	-0
397.672	-0.02
397.878	0.02
398.083	0.03
398.289	-0.1
398.494	0.05
398.7	-0.04
398.905	-0.11
399.111	0.07
399.316	-0.05
399.522	-0.01
399.727	-0.01
399.932	-0.01
400.138	-0.05
400.343	0
400.549	0.02
400.754	0.01
400.959	-0.01
401.165	-0.03
401.37	0.02
401.575	0.01
401.78	0.02
401.986	-0.06
402.191	-0.05
402.396	-0
402.601	-0.04
402.807	-0
403.012	-0.03
403.217	0.02
403.422	-0.05
403.627	-0.04
403.832	-0.04
404.037	0.01
404.243	-0.02
404.448	-0.05
404.653	-0.07
404.858	0.01
405.063	0.02
405.268	-0.06
405.473	-0.05
405.678	-0.06
405.883	0.05
406.088	0.02
406.293	-0.01
406.498	-0.05
406.703	0.04
406.907	0.04
407.112	-0.09
407.317	-0
407.522	0.01
407.727	-0.12
407.932	0.01
408.136	0.07
408.341	-0.02
408.546	-0.02
408.751	-0.02
408.956	-0.05
409.16	-0
409.365	-0.01
409.57	-0
409.774	-0.04
409.979	0.04
410.184	-0.03
410.388	-0.05
410.593	0.02
410.798	-0
411.002	-0.03
411.207	-0.01
411.411	0.02
411.616	-0.07
411.82	-0.04
412.025	0.02
412.229	-0.06
412.434	0.06
412.638	-0.02
412.843	-0.01
413.047	0
413.252	-0.05
413.456	-0.07
413.66	0.03
413.865	-0.06
414.069	0.03
414.273	-0.02
414.478	-0.03
414.682	-0.03
414.886	-0.04
415.091	-0.05
415.295	-0.05
415.499	-0.05
415.703	-0.05
415.908	-0.05
416.112	-0.15
416.316	0.03
416.52	-0.07
416.724	-0.08
416.929	-0.06
417.133	0.07
417.337	-0.05
417.541	-0.06
417.745	-0.03
417.949	0.01
418.153	-0.01
418.357	-0.05
418.561	0.06
418.765	-0.03
418.969	0.1
419.173	-0.03
419.377	-0.05
419.581	0.04
419.785	-0.01
419.989	-0.09
420.193	-0.05
420.397	-0.03
420.601	0
420.804	-0
421.008	-0.02
421.212	-0.03
421.416	0.03
421.62	-0
421.823	-0.06
422.027	0.06
422.231	-0.02
422.435	-0.04
422.638	-0.01
422.842	-0.02
423.046	-0.09
423.249	0.03
423.453	0.02
423.657	-0.01
423.86	-0.03
424.064	-0.01
424.268	0.06
424.471	-0.03
424.675	0.07
424.878	0.03
425.082	-0.04
425.285	0.02
425.489	-0.03
425.692	-0.01
425.896	-0.04
426.099	0
426.303	-0.04
426.506	-0.06
426.71	0.01
426.913	0.07
427.116	0.02
427.32	-0
427.523	-0.01
427.726	0.07
427.93	-0.06
428.133	-0.04
428.336	-0.08
428.54	-0.1
428.743	0.02
428.946	0.04
429.149	-0.06
429.353	0.01
429.556	-0.03
429.759	-0.01
429.962	-0.04
430.165	0.02
430.368	-0.04
430.571	-0.04
430.775	0.02
430.978	-0.07
431.181	-0.03
431.384	-0.01
431.587	-0.06
431.79	-0.06
431.993	-0.14
432.196	0.01
432.399	-0
432.602	0
432.805	-0.05
433.008	-0.02
433.211	-0.12
433.414	0.02
433.616	-0.04
433.819	-0.06
434.022	-0.11
434.225	0.02
434.428	0.01
434.631	0.03
434.833	0.04
435.036	0.01
435.239	0.02
435.442	-0.03
435.645	-0.06
435.847	-0
436.05	0.04
436.253	0.01
436.455	-0.07
436.658	-0.03
436.861	0.03
437.063	-0.05
437.266	-0.03
437.468	-0.03
437.671	0.08
437.874	0
438.076	-0.1
438.279	-0.09
438.481	-0
438.684	-0.07
438.886	0.04
439.089	-0.09
439.291	-0
439.494	0.05
439.696	-0.05
439.899	-0.01
440.101	-0.04
440.303	-0.08
440.506	-0
440.708	0.01
440.91	0.01
441.113	-0.04
441.315	-0.02
441.517	-0.08
441.72	0.03
441.922	-0.06
442.124	-0.03
442.326	-0
442.529	0.04
442.731	-0.08
442.933	0.02
443.135	-0.05
443.337	-0.06
443.539	-0.06
443.742	-0.02
443.944	-0.03
444.146	-0.03
444.348	-0.02
444.55	-0.05
444.752	0
444.954	-0.11
445.156	0.01
445.358	-0.06
445.56	0.03
445.762	-0.06
445.964	-0.04
446.166	-0.04
446.368	-0.06
446.57	-0.01
446.772	-0.03
446.974	-0.04
447.175	-0
447.377	-0.04
447.579	-0.04
447.781	-0.11
447.983	0.06
448.184	-0.04
448.386	-0.04
448.588	-0.1
448.79	0.01
448.991	-0.03
449.193	-0.01
449.395	0.01
449.597	0
449.798	-0.03
450	0.03
450.202	-0.05
450.403	-0.02
450.605	0.02
450.806	-0.03
451.008	-0.1
451.21	0
451.411	-0.01
451.613	-0.07
451.814	-0.02
452.016	0.02
452.217	-0.02
452.419	0.04
452.62	-0.01
452.821	-0.01
453.023	0.08
453.224	0.05
453.426	-0.08
453.627	-0.01
453.828	0.01
454.03	-0.05
454.231	-0.02
454.432	-0.09
454.634	0.07
454.835	-0.04
455.036	-0.12
455.238	0.03
455.439	0.05
455.64	-0.07
455.841	-0.03
456.042	0.06
456.244	-0.02
456.445	-0.09
456.646	-0.09
456.847	-0.07
457.048	0.06
457.249	0.03
457.45	0.18
457.651	-0.05
457.852	0.01
458.054	-0
458.255	-0.08
458.456	0.04
458.657	0.01
458.858	-0.07
459.058	-0.01
459.259	0.05
459.46	-0.01
459.661	-0.09
459.862	0.07
460.063	-0.06
460.264	0.05
460.465	-0.08
460.666	0.08
460.866	-0.02
461.067	0.02
461.268	-0.06
461.469	-0.04
461.67	-0.02
461.87	-0.04
462.071	-0.05
462.272	-0.07
462.473	-0.04
462.673	-0.01
462.874	-0.07
463.075	0.02
463.275	-0.09
463.476	-0.07
463.676	0.02
463.877	-0.02
464.078	-0.05
464.278	0.05
464.479	-0.02
464.679	-0.01
464.88	-0.04
465.08	0.06
465.281	-0.03
465.481	-0.04
465.682	-0.02
465.882	0.01
466.083	-0.02
466.283	-0.02
466.483	-0.03
466.684	-0.04
466.884	-0.04
467.085	-0.04
467.285	0.07
467.485	-0.07
467.686	-0.03
467.886	-0.07
468.086	-0.01
468.286	-0.01
468.487	0
468.687	-0.01
468.887	-0.01
469.087	0.01
469.287	0
469.488	-0.07
469.688	0.01
469.888	0.02
470.088	0.01
470.288	0.01
470.488	0.04
470.688	-0.02
470.888	-0.01
471.088	-0.06
471.288	0.05
471.488	0.01
471.688	0.02
471.888	-0.04
472.088	0.03
472.288	0.02
472.488	-0.03
472.688	-0.07
472.888	0.01
473.088	-0.02
473.288	-0.02
473.488	-0.04
473.688	0.07
473.887	0.01
474.087	-0.03
474.287	-0.01
474.487	-0.06
474.687	0.01
474.886	-0.04
475.086	-0
475.286	0
475.486	0.05
475.685	-0.01
475.885	-0.01
476.085	-0.03
476.284	-0.02
476.484	-0.03
476.684	0.03
476.883	0.01
477.083	-0.01
477.282	-0.04
477.482	0.04
477.681	0.02
477.881	0.01
478.08	-0.03
478.28	-0.05
478.479	0.03
478.679	0.07
478.878	-0.03
479.078	-0.06
479.277	-0.03
479.477	-0.04
479.676	0
479.875	-0.01
480.075	-0.07
480.274	-0.02
480.473	0.02
480.673	-0.02
480.872	0.03
481.071	-0.01
481.271	0.01
481.47	-0.04
481.669	-0.02
481.868	-0
482.067	-0.03
482.267	-0.02
482.466	-0.05
482.665	-0.04
482.864	-0.06
483.063	-0.06
483.262	0.02
483.461	0.04
483.661	-0.01
483.86	0
484.059	-0.01
484.258	-0.01
484.457	-0.02
484.656	-0.01
484.855	0.04
485.054	-0.06
485.253	-0.03
485.452	-0.06
485.651	0
485.849	-0.03
486.048	-0.04
486.247	-0.03
486.446	0
486.645	-0.03
486.844	-0.04
487.043	-0.03
487.241	0.02
487.44	-0.03
487.639	-0
487.838	-0.01
488.037	0
488.235	0.03
488.434	-0.01
488.633	-0.03
488.831	-0.02
489.03	0.04
489.229	-0.02
489.427	0
489.626	0.02
489.825	0.03
490.023	-0.01
490.222	-0.01
490.42	-0.01
490.619	0.01
490.817	0
491.016	-0.03
491.214	0.01
491.413	-0.03
491.611	-0.02
491.81	0.01
492.008	0.01
492.207	0.01
492.405	0.01
492.604	-0.04
492.802	-0.01
493	-0.03
493.199	-0.03
493.397	-0.02
493.595	-0
493.794	-0.01
493.992	0.05
494.19	-0.03
494.388	-0
494.587	-0
494.785	-0.01
494.983	-0.04
495.181	-0.01
495.379	-0.02
495.578	-0.04
495.776	-0.01
495.974	0
496.172	-0.02
496.37	-0
496.568	-0.02
496.766	-0.04
496.964	0.01
497.162	-0.01
497.36	-0.06
497.558	-0.01
497.756	-0
497.954	-0.02
498.152	-0.04
498.35	-0.01
498.548	-0.04
498.746	-0.01
498.944	-0.02
499.142	-0.03
499.34	-0.02
499.538	-0.02
499.736	-0.04
499.933	0.04
500.131	0.01
500.329	0
500.527	0.03
500.725	0.04
500.922	0.01
501.12	-0
501.318	-0.01
501.516	-0.04
501.713	-0
501.911	-0.01
502.109	-0.04
502.306	0.01
502.504	-0.02
502.701	-0.02
502.899	-0.03
503.097	0.01
503.294	-0.01
503.492	-0.01
503.689	0.01
503.887	0.03
504.084	0.02
504.282	0
504.479	-0.03
504.677	0
504.874	-0.02
505.072	-0.02
505.269	-0.02
505.466	0
505.664	-0
505.861	-0.05
506.059	-0.04
506.256	-0
506.453	-0.02
506.651	0.02
506.848	0
507.045	0
507.242	0.01
507.44	-0.02
507.637	0
507.834	-0.02
508.031	-0
508.229	-0.05
508.426	0
508.623	0.01
508.82	-0.01
509.017	-0.03
509.214	-0.02
509.411	-0.03
509.608	-0.03
509.805	-0.02
510.003	-0.02
510.2	-0.02
510.397	-0
510.594	-0.05
510.791	-0.03
510.988	-0.02
511.184	0.03
511.381	0
511.578	-0.03
511.775	0.01
511.972	-0.04
512.169	-0.04
512.366	-0
512.563	0.01
512.76	-0.02
512.956	0
513.153	-0.03
513.35	0
513.547	-0.02
513.744	-0.02
513.94	-0.03
514.137	-0.02
514.334	0
514.53	-0
514.727	-0
514.924	0.04
515.12	-0.02
515.317	-0.03
515.514	-0.02
515.71	-0.03
515.907	-0.01
516.103	-0.02
516.3	-0.01
516.497	0.02
516.693	0.02
516.89	-0.01
517.086	-0.05
517.283	0.04
517.479	0.01
517.676	-0.02
517.872	-0.02
518.068	-0.02
518.265	-0.02
518.461	-0.03
518.658	-0.02
518.854	-0
519.05	-0.01
519.247	-0.02
519.443	-0
519.639	-0.01
519.836	-0.02
520.032	0
520.228	-0.01
520.424	0.04
520.621	0.01
520.817	-0.02
521.013	0.01
521.209	-0.01
521.405	0.02
521.601	0.01
521.798	0.01
521.994	0.02
522.19	-0.02
522.386	-0.04
522.582	-0.01
522.778	-0.01
522.974	-0.03
523.17	-0.02
523.366	-0.01
523.562	0.01
523.758	-0.01
523.954	-0.01
524.15	-0.02
524.346	0.02
524.542	-0.01
524.738	-0.03
524.934	-0.03
525.129	-0.03
525.325	-0
525.521	-0.03
525.717	0
525.913	-0.02
526.109	-0.01
526.304	-0
526.5	0.01
526.696	0.02
526.892	-0.02
527.087	-0
527.283	-0.03
527.479	-0
527.674	-0.03
527.87	-0.02
528.066	-0.02
528.261	0.02
528.457	-0
528.653	-0.03
528.848	-0
529.044	0
529.239	0
529.435	0.02
529.63	-0.01
529.826	0.03
530.021	0
530.217	0.01
530.412	-0.02
530.608	-0.02
530.803	-0.01
530.999	-0.03
531.194	-0.05
531.389	-0.01
531.585	-0.07
531.78	-0.02
531.975	-0.03
532.171	0
532.366	-0.04
532.561	-0.01
532.757	-0.03
532.952	-0.01
533.147	0.01
533.342	0.01
533.538	-0.03
533.733	0
533.928	-0
534.123	-0.02
534.318	-0.05
534.513	0
534.709	0.01
534.904	-0.04
535.099	-0.03
535.294	-0.02
535.489	-0.02
535.684	-0.03
535.879	-0.05
536.074	-0.01
536.269	-0.03
536.464	-0
536.659	-0.01
536.854	-0.01
537.049	0.02
537.244	-0.02
537.439	-0
537.634	0.02
537.828	-0
538.023	0.01
538.218	-0.04
538.413	-0.03
538.608	-0.03
538.803	-0.02
538.997	-0.05
539.192	-0
539.387	0
539.582	0.01
539.776	-0.01
539.971	-0.02
540.166	-0.01
540.36	-0.03
540.555	-0.01
540.75	-0
540.944	-0.02
541.139	-0.05
541.334	-0
541.528	-0.01
541.723	0.02
541.917	-0.03
542.112	-0.05
542.306	-0.01
542.501	-0.04
542.695	-0.01
542.89	-0.02
543.084	0
543.279	-0.03
543.473	-0
543.668	-0.03
543.862	-0.03
544.056	-0
544.251	-0.02
544.445	-0.01
544.64	-0.03
544.834	-0.03
545.028	-0.01
545.222	0.01
545.417	0.01
545.611	-0.02
545.805	-0.01
546	-0.02
546.194	-0.03
546.388	-0.03
546.582	0
546.776	-0.02
546.97	-0.02
547.165	-0
547.359	0.01
547.553	-0.02
547.747	-0.01
547.941	-0.01
548.135	-0.01
548.329	0
548.523	-0.01
548.717	-0.02
548.911	-0.03
549.105	-0.01
549.299	0
549.493	0
549.687	-0
549.881	0.02
550.075	-0.02
550.269	-0.05
550.463	0.02
550.657	-0.02
550.85	-0.02
551.044	-0.05
551.238	0.01
551.432	-0.03
551.626	-0.03
551.82	-0.01
552.013	-0.06
552.207	-0.01
552.401	-0
552.594	0.01
552.788	-0.02
552.982	-0.02
553.176	-0.04
553.369	0.01
553.563	0.02
553.756	-0.04
553.95	-0.02
554.144	-0.01
554.337	0.02
554.531	-0
554.724	-0.02
554.918	-0.02
555.111	0.02
555.305	-0.01
555.498	0.04
555.692	0.04
555.885	-0.02
556.079	0.01
556.272	-0.04
556.466	0.02
556.659	0.01
556.852	-0.03
557.046	-0.01
557.239	0
557.432	-0.01
557.626	-0.02
557.819	-0
558.012	-0.01
558.206	0.01
558.399	-0.02
558.592	0.01
558.785	-0.03
558.979	-0.01
559.172	0.02
559.365	0.02
559.558	0
559.751	0
559.944	-0.02
560.138	-0
560.331	0
560.524	-0.02
560.717	-0.01
560.91	-0
561.103	0.02
561.296	-0
561.489	-0
561.682	-0.02
561.875	0.02
562.068	0.01
562.261	-0.02
562.454	0.03
562.647	0
562.84	0
563.032	-0.02
563.225	-0
563.418	-0.01
563.611	-0.02
563.804	0
563.997	-0.02
564.19	-0.03
564.382	-0.08
564.575	0
564.768	0.02
564.961	-0.02
565.153	-0.02
565.346	0.02
565.539	0.04
565.731	0.01
565.924	0.03
566.117	0.01
566.309	0
566.502	-0.02
566.695	-0.02
566.887	0
567.08	-0.03
567.272	-0.02
567.465	-0.02
567.657	-0.02
567.85	0.01
568.042	0.02
568.235	0.03
568.427	-0.01
568.62	-0.01
568.812	0.01
569.005	-0.02
569.197	-0.04
569.389	-0.01
569.582	0
569.774	0.01
569.966	-0.04
570.159	-0.03
570.351	0
570.543	-0.01
570.736	-0
570.928	-0.04
571.12	0.01
571.312	-0.01
571.505	-0.02
571.697	0.05
571.889	-0.04
572.081	-0.04
572.273	-0.03
572.465	0.02
572.658	-0.04
572.85	-0.01
573.042	-0.02
573.234	-0.03
573.426	0.03
573.618	-0.02
573.81	-0
574.002	0.02
574.194	0.04
574.386	-0.04
574.578	-0.08
574.77	-0.05
574.962	-0.01
575.154	-0.04
575.346	-0.03
575.538	0.02
575.729	-0.04
575.921	-0.01
576.113	-0.02
576.305	0.02
576.497	-0.03
576.689	-0.01
576.88	-0.03
577.072	0.03
577.264	-0.04
577.456	-0.03
577.647	-0.05
577.839	-0.03
578.031	0.02
578.223	-0.04
578.414	-0.05
578.606	0.02
578.798	-0
578.989	-0.04
579.181	-0.02
579.372	-0.01
579.564	-0.03
579.755	-0.03
579.947	0
580.139	0.01
580.33	-0.04
580.522	-0.04
580.713	-0.07
580.905	-0.03
581.096	0
581.287	-0.02
581.479	-0.04
581.67	0.02
581.862	-0.03
582.053	-0.04
582.244	-0.05
582.436	-0.03
582.627	0.01
582.818	-0.04
583.01	-0.04
583.201	0.01
583.392	0.02
583.583	-0
583.775	0
583.966	-0.06
584.157	-0.03
584.348	-0.02
584.54	-0.05
584.731	0.02
584.922	-0.03
585.113	-0.04
585.304	-0.01
585.495	0.02
585.686	0.01
585.877	0.02
586.068	-0.03
586.259	0.01
586.45	0.01
586.641	-0.02
586.832	-0.07
587.023	-0.02
587.214	-0.01
587.405	-0.02
587.596	-0.03
587.787	-0
587.978	0.02
588.169	-0.03
588.36	-0.03
588.551	-0
588.742	-0.05
588.932	-0.03
589.123	-0
589.314	0.01
589.505	0.01
589.696	-0.01
589.886	-0.03
590.077	-0.05
590.268	-0.03
590.458	-0.06
590.649	-0.04
590.84	0.03
591.03	-0.01
591.221	-0.06
591.412	-0.05
591.602	0.01
591.793	0.01
591.984	-0.05
592.174	-0.04
592.365	0.08
592.555	-0.03
592.746	0
592.936	-0.01
593.127	0.01
593.317	0.03
593.508	-0.03
593.698	-0.05
593.889	-0.01
594.079	-0.04
594.269	-0.05
594.46	-0.03
594.65	-0.01
594.84	-0.01
595.031	-0.03
595.221	-0.05
595.411	-0.05
595.602	0.02
595.792	-0.01
595.982	-0.01
596.172	0.04
596.363	-0.01
596.553	-0
596.743	-0
596.933	0
597.123	0.03
597.314	-0.03
597.504	-0.02
597.694	0.03
597.884	-0.04
598.074	-0.02
598.264	-0.01
598.454	0.02
598.644	0
598.834	-0.01
599.024	-0.05
599.214	0.01
599.404	-0.02
599.594	-0.04
599.784	-0.04
599.974	0.02
600.164	0.01
600.354	-0.05
600.544	-0.04
600.734	-0.01
600.924	0.03
601.114	-0.05
601.303	0.02
601.493	-0.02
601.683	-0.04
601.873	-0.02
602.063	-0.07
602.252	0.02
602.442	-0.07
602.632	-0.02
602.821	-0.05
603.011	0
603.201	-0.03
603.39	-0.05
603.58	-0.04
603.77	0.01
603.959	-0
604.149	-0.01
604.339	-0.04
604.528	-0
604.718	0.02
604.907	-0.01
605.097	-0.03
605.286	-0.06
605.476	0.01
605.665	0.02
605.855	-0.02
606.044	0.05
606.234	0.02
606.423	-0.02
606.612	-0.06
606.802	-0.02
606.991	0.01
607.181	-0.01
607.37	-0.06
607.559	-0.03
607.749	-0.04
607.938	-0.02
608.127	-0.03
608.316	-0.04
608.506	0.01
608.695	-0.04
608.884	-0.03
609.073	-0.01
609.263	0.02
609.452	0.02
609.641	-0.02
609.83	-0.02
610.019	-0.03
610.208	-0.07
610.397	-0.03
610.586	0.03
610.775	-0.03
610.965	-0.05
611.154	-0.04
611.343	-0
611.532	-0.02
611.721	-0.05
611.91	-0.03
612.099	0.02
612.287	-0.03
612.476	-0.08
612.665	0.01
612.854	-0.03
613.043	0.01
613.232	-0.03
613.421	-0.08
613.61	-0.02
613.798	-0.06
613.987	0.02
614.176	-0.01
614.365	0.01
614.554	0.01
614.742	0
614.931	-0
615.12	0.02
615.309	-0.02
615.497	0.02
615.686	-0.06
615.875	-0.02
616.063	-0.01
616.252	-0.03
616.44	-0.04
616.629	-0.03
616.818	0.01
617.006	-0.02
617.195	-0.02
617.383	-0
617.572	-0.02
617.76	-0.04
617.949	-0.03
618.137	-0.01
618.326	0.03
618.514	-0.08
618.703	-0.02
618.891	0.02
619.079	-0.05
619.268	0.01
619.456	-0.05
619.644	0.04
619.833	-0.01
620.021	-0.01
620.209	-0.06
620.398	-0.02
620.586	-0.02
620.774	0.01
620.962	-0.01
621.151	0.02
621.339	-0.02
621.527	-0.06
621.715	-0.07
621.903	-0.05
622.092	-0.05
622.28	0.01
622.468	-0.01
622.656	-0.01
622.844	0.02
623.032	-0.05
623.22	-0.06
623.408	0.02
623.596	-0.04
623.784	0.01
623.972	-0.04
624.16	-0.04
624.348	0.03
624.536	-0.02
624.724	-0.02
624.912	0.03
625.1	0.02
625.288	-0.02
625.476	-0.07
625.664	0.03
625.851	-0.05
626.039	0
626.227	-0
626.415	-0.02
626.603	-0.07
626.79	-0.02
626.978	-0
627.166	0.01
627.354	-0.02
627.541	-0.04
627.729	-0.08
627.917	-0
628.104	0.02
628.292	-0.03
628.48	-0.04
628.667	-0.01
628.855	-0.02
629.042	-0.01
629.23	-0.04
629.418	-0.02
629.605	-0.03
629.793	-0.05
629.98	-0.04
630.168	-0.03
630.355	-0.02
630.543	-0.01
630.73	-0.02
630.917	0.01
631.105	0.02
631.292	-0.03
631.48	-0.01
631.667	0.03
631.854	-0.01
632.042	-0.04
632.229	-0.06
632.416	0
632.604	-0.06
632.791	-0.05
632.978	-0
633.165	-0.02
633.353	0.06
633.54	0.07
633.727	-0.06
633.914	-0.06
634.101	-0.07
634.289	0
634.476	-0.03
634.663	-0.05
634.85	0
635.037	-0.06
635.224	-0.05
635.411	0.02
635.598	0.01
635.785	-0
635.972	-0.01
636.159	0
636.346	-0.04
636.533	-0.02
636.72	-0.02
636.907	-0.05
637.094	0
637.281	-0.03
637.468	0.01
637.655	-0.03
637.842	-0.03
638.029	-0.03
638.215	-0
638.402	-0.02
638.589	-0.04
638.776	-0.03
638.963	-0.03
639.149	-0.01
639.336	0.05
639.523	-0.02
639.709	-0.01
639.896	-0.01
640.083	0.01
640.27	0
640.456	-0.01
640.643	0.03
640.829	-0.06
641.016	-0.02
641.203	-0.05
641.389	0.03
641.576	0.01
641.762	-0.01
641.949	-0.05
642.135	-0.01
642.322	-0.03
642.508	-0.06
642.695	-0.03
642.881	-0.04
643.068	-0.06
643.254	-0.04
643.441	0.01
643.627	-0.01
643.813	-0.04
644	0.01
644.186	-0.04
644.372	0
644.559	0.02
644.745	-0.03
644.931	-0.05
645.118	-0.04
645.304	-0.02
645.49	-0.05
645.676	-0.03
645.862	-0.03
646.049	0.06
646.235	-0.01
646.421	0.04
646.607	0.05
646.793	-0.05
646.979	-0.04
647.165	-0.01
647.352	-0.03
647.538	0.03
647.724	-0.02
647.91	-0.02
648.096	0.04
648.282	0.01
648.468	-0.03
648.654	-0
648.84	-0.02
649.026	-0
649.212	0
649.397	-0.05
649.583	-0.09
649.769	0.01
649.955	0
650.141	0.01
650.327	0.02
650.513	-0.06
650.698	0
650.884	-0.07
651.07	-0.01
651.256	-0.01
651.442	-0.04
651.627	-0.02
651.813	-0.02
651.999	0.02
652.184	0.03
652.37	-0.05
652.556	-0.03
652.741	0.03
652.927	-0.11
653.113	-0.02
653.298	-0.02
653.484	-0.01
653.669	-0.04
653.855	-0.03
654.04	0.02
654.226	-0.04
654.412	-0.02
654.597	-0.07
654.782	0.01
654.968	0.04
655.153	0.01
655.339	-0.04
655.524	-0.06
655.71	0.01
655.895	-0.04
656.08	-0.03
656.266	0.02
656.451	0.02
656.636	-0.04
656.822	0.01
657.007	-0.07
657.192	-0.06
657.378	-0.06
657.563	0.01
657.748	-0.02
657.933	0.01
658.118	-0.03
658.304	-0.03
658.489	0.01
658.674	-0.01
658.859	-0.07
659.044	-0
659.229	-0.02
659.414	-0.05
659.599	-0.02
659.785	-0.06
659.97	-0.03
660.155	0.02
660.34	-0.03
660.525	-0.04
660.71	-0.04
660.895	0.03
661.08	-0.04
661.264	-0.02
661.449	0.02
661.634	0.05
661.819	0.01
662.004	-0.01
662.189	-0.05
662.374	-0.04
662.559	-0.07
662.743	-0.13
662.928	-0.05
663.113	-0.05
663.298	-0.1
663.483	-0.04
663.667	0
663.852	-0.07
664.037	0.03
664.221	-0.04
664.406	0.01
664.591	0.01
664.775	-0.01
664.96	-0.07
665.145	0
665.329	-0.01
665.514	-0.07
665.698	-0.01
665.883	-0.1
666.068	0.07
666.252	0
666.437	-0.07
666.621	-0.03
666.806	0.01
666.99	0
667.174	-0.08
667.359	0.03
667.543	-0.03
667.728	-0.05
667.912	-0.09
668.096	-0.01
668.281	-0.04
668.465	-0.08
668.649	-0
668.834	-0.06
669.018	-0.04
669.202	-0.03
669.387	-0.07
669.571	-0.02
669.755	-0.09
669.939	-0.02
670.124	-0.03
670.308	-0.01
670.492	-0.02
670.676	0.02
670.86	-0.02
671.044	-0.06
671.228	0.02
671.413	-0.05
671.597	-0.06
671.781	-0.05
671.965	-0
672.149	-0.01
672.333	-0.03
672.517	-0.03
672.701	-0.02
672.885	-0.05
673.069	-0.09
673.253	-0
673.437	-0.06
673.621	-0.05
673.804	-0.04
673.988	-0.01
674.172	-0.05
674.356	-0.09
674.54	-0.02
674.724	0.04
674.908	-0.03
675.091	-0.01
675.275	-0.02
675.459	0.01
675.643	-0.03
675.826	-0.01
676.01	0
676.194	-0.02
676.377	0
676.561	0
676.745	0.03
676.928	-0
677.112	0.03
677.296	-0.04
677.479	-0.04
677.663	-0.04
677.846	0.02
678.03	-0.03
678.213	-0.08
678.397	0.01
678.58	-0.03
678.764	-0.06
678.947	-0
679.131	-0.08
679.314	0.03
679.498	-0.01
679.681	-0.04
679.865	0.03
680.048	-0.02
680.231	-0.03
680.415	-0.05
680.598	-0.05
680.781	-0.07
680.965	-0.03
681.148	0
681.331	-0.01
681.514	-0
681.698	-0.03
681.881	-0.03
682.064	-0.02
682.247	-0.02
682.43	-0.08
682.614	0
682.797	0.04
682.98	-0
683.163	-0.04
683.346	-0.02
683.529	-0.06
683.712	-0.06
683.895	-0.01
684.078	-0.07
684.261	-0.07
684.444	0.01
684.627	-0.04
684.81	-0.02
684.993	-0.05
685.176	-0.01
685.359	-0.01
685.542	-0.05
685.725	0.03
685.908	-0.04
686.091	-0.06
686.274	0.04
686.457	0.05
686.639	-0.07
686.822	0.02
687.005	-0.04
687.188	0.03
687.371	0.06
687.553	-0.02
687.736	-0.02
687.919	0.02
688.102	0.02
688.284	-0.07
688.467	0.02
688.65	-0.05
688.832	-0.04
689.015	-0.05
689.197	-0.05
689.38	0.1
689.563	0.08
689.745	-0.03
689.928	-0.05
690.11	-0.02
690.293	-0.02
690.475	-0.1
690.658	0.05
690.84	-0.06
691.023	0.01
691.205	-0.05
691.388	-0.02
691.57	0.02
691.752	0.04
691.935	-0.12
692.117	-0.02
692.3	0.03
692.482	-0.03
692.664	-0.03
692.847	0.01
693.029	-0.02
693.211	-0.01
693.393	0.01
693.576	-0.04
693.758	-0.04
693.94	0.01
694.122	-0.06
694.304	-0.09
694.487	-0.09
694.669	0.04
694.851	-0.04
695.033	-0.02
695.215	-0.09
695.397	-0.08
695.579	0.04
695.761	-0.06
695.943	-0.12
696.125	0.02
696.308	0.03
696.49	-0.09
696.671	0.11
696.853	-0.04
697.035	0.08
697.217	-0.05
697.399	-0.03
697.581	-0.05
697.763	-0.03
697.945	-0.08
698.127	-0.01
698.309	0.03
698.491	0.01
698.672	-0
698.854	0.01
699.036	0.04
699.218	-0.05
699.399	0
699.581	-0
699.763	-0.02
699.945	-0.05
700.126	-0.08
700.308	0.05
700.49	-0.04
700.671	-0.07
700.853	-0.08
701.035	-0.06
701.216	-0.05
701.398	-0.05
701.579	-0.02
701.761	0.04
701.943	-0.02
702.124	-0.12
702.306	0.04
702.487	0.12
702.669	-0
702.85	-0.07
703.031	-0.12
703.213	0.06
703.394	0.02
703.576	-0.13
703.757	0.04
703.938	0.01
704.12	0.09
704.301	-0.07
704.483	-0.04
704.664	0.02
704.845	0.09
705.026	0.02
705.208	0
705.389	-0.03
705.57	-0.02
705.751	-0.05
705.933	-0.02
706.114	0.04
706.295	-0.02
706.476	-0.05
706.657	0.12
706.838	0.02
707.02	0.01
707.201	-0.06
707.382	0.02
707.563	-0.04
707.744	-0.05
707.925	-0.12
708.106	-0.12
708.287	0.06
708.468	0.07
708.649	-0.07
708.83	-0
709.011	-0.06
709.192	0.01
709.373	-0.06
709.554	-0.03
709.734	-0
709.915	0.03
710.096	-0.06
710.277	-0.09
710.458	-0.05
710.639	0.03
710.819	-0.1
711	-0.08
711.181	-0
711.362	0.02
711.542	-0.01
711.723	-0.02
711.904	0.02
712.085	-0.01
712.265	-0.04
712.446	-0.13
712.627	-0.09
712.807	0.02
712.988	0.01
713.168	-0.04
713.349	0.01
713.53	-0.17
713.71	-0.08
713.891	-0.04
714.071	-0.03
714.252	-0
714.432	-0.03
714.613	-0.11
714.793	0.04
714.974	0.05
715.154	0.02
715.334	-0.02
715.515	0.05
715.695	-0.03
715.876	-0.02
716.056	-0.01
716.236	-0.03
716.417	-0.05
716.597	-0.1
716.777	0.13
716.957	-0.03
717.138	0.06
717.318	-0.11
717.498	-0.11
717.678	-0.03
717.859	0.04
718.039	-0.04
718.219	0.01
718.399	0.07
718.579	-0.09
718.759	-0.07
718.939	0.01
719.12	-0.03
719.3	0
719.48	-0.14
719.66	-0.12
719.84	0.08
720.02	0.02
720.2	-0.08
720.38	-0.01
720.56	0.07
720.74	-0.06
720.92	0.04
721.1	-0.01
721.279	0.08
721.459	-0.01
721.639	-0.17
721.819	-0.01
721.999	-0.01
722.179	0
722.359	-0.07
722.538	-0.03
722.718	0.01
722.898	-0.02
723.078	-0.06
723.257	-0.11
723.437	0.01
723.617	0
723.797	0
723.976	-0.03
724.156	-0.03
724.336	0.02
724.515	0.07
724.695	-0.12
724.874	-0.09
725.054	0.08
725.234	-0.12
725.413	0.02
725.593	-0.07
725.772	-0.02
725.952	-0.03
726.131	-0.01
726.311	0
726.49	-0.04
726.67	-0.09
726.849	-0.03
727.028	0.02
727.208	-0.03
727.387	0.09
727.567	-0.04
727.746	-0.02
727.925	-0.02
728.105	-0.14
728.284	-0.07
728.463	-0.09
728.643	-0.02
728.822	-0.14
729.001	0.02
729.18	0.02
729.359	0.03
729.539	-0.04
729.718	-0.02
729.897	0.05
730.076	-0.03
730.255	-0.17
730.434	0.05
730.614	0.04
730.793	0.14
730.972	-0.04
731.151	-0.03
731.33	0.03
731.509	0.02
731.688	0.02
731.867	-0.02
732.046	-0.12
732.225	0.18
732.404	-0.13
732.583	-0.1
732.762	0
732.941	0.09
733.12	-0.01
733.298	-0.02
733.477	0.05
733.656	-0.04
733.835	-0.09
734.014	0.07
734.193	-0.08
734.371	-0.01
734.55	0.04
734.729	-0.1
734.908	0.08
735.086	0.01
735.265	0.04
735.444	-0.08
735.623	-0.06
735.801	-0.11
735.98	-0
736.159	-0.03
736.337	0.03
736.516	-0
736.694	-0.02
736.873	0.01
737.052	0.07
737.23	0.07
737.409	-0.09
737.587	0.14
737.766	-0.2
737.944	-0.1
738.123	0.04
738.301	-0.03
738.479	-0.06
738.658	0.03
738.836	-0.16
739.015	-0
739.193	0
739.371	-0.12
739.55	-0.04
739.728	-0.17
739.906	-0
740.085	0.17
740.263	-0.02
740.441	-0.16
740.62	0.08
740.798	0.06
740.976	-0.06
741.154	-0.16
741.332	0.07
741.511	-0.06
741.689	-0.06
741.867	0.02
742.045	-0.02
742.223	-0.09
742.401	-0.11
742.579	-0.1
742.757	0.05
742.935	-0.12
743.114	-0.03
743.292	-0.04
743.47	-0.1
743.648	-0.08
743.826	0.05
744.004	-0.03
744.181	0.03
744.359	-0.14
744.537	0.05
744.715	-0.13
744.893	-0.01
745.071	-0.11
745.249	-0.02
745.427	-0.01
745.605	-0.03
745.782	-0.05
745.96	0.07
746.138	-0.01
746.316	0.13
746.493	-0.14
746.671	-0.01
746.849	-0.05
747.027	0.1
747.204	-0.07
747.382	-0.03
747.56	-0.09
747.737	-0.01
747.915	-0.09
748.093	-0.05
748.27	-0.14
748.448	-0.1
748.625	-0.18
748.803	-0.12
748.98	-0.14
749.158	0.07
749.335	-0.01
749.513	-0.2
749.69	-0.15
749.868	-0.01
750.045	0.03
750.223	-0.05
750.4	-0.22
750.578	0.23
750.755	0.01
750.932	-0.11
751.11	0.02
751.287	-0.09
751.464	0.06
751.642	-0.08
751.819	0.13
751.996	-0.1
752.173	-0.07
752.351	-0.12
752.528	0.04
752.705	-0.16
752.882	-0.08
753.06	-0.11
753.237	-0.05
753.414	0.12
753.591	0.06
753.768	-0.06
753.945	-0.05
754.122	-0.02
754.299	0.04
754.476	-0.08
754.654	-0
754.831	0.03
755.008	-0.05
755.185	-0.15
755.362	-0.17
755.539	-0.04
755.716	-0.15
755.892	-0.07
756.069	-0.04
756.246	-0.1
756.423	-0.08
756.6	0.14
756.777	-0
756.954	0.03
757.131	-0.02
757.307	-0.07
757.484	-0.13
757.661	0.05
757.838	-0.11
758.015	-0.16
758.191	-0.03
758.368	0.09
758.545	0.21
758.721	0.06
758.898	-0.1
759.075	0.02
759.251	0.02
759.428	0.1
759.605	-0.18
759.781	-0.03
759.958	0.01
760.134	-0.1
760.311	-0.18
760.488	0.1
760.664	0.08
760.841	-0.1
761.017	-0.09
761.194	-0.01
761.37	0.11
761.547	0.06
761.723	-0.03
761.899	0.02
762.076	-0.15
762.252	-0.13
762.429	-0.05
762.605	-0.03
762.781	-0.01
762.958	-0.01
763.134	-0.02
763.31	-0.14
763.486	0.05
763.663	-0.14
763.839	0.08
764.015	-0.14
764.191	-0.13
764.368	-0.14
764.544	-0.13
764.72	-0.03
764.896	0.09
765.072	0.03
765.248	-0.07
765.425	-0.07
765.601	-0.09
765.777	-0.04
765.953	-0.33
766.129	-0.1
766.305	-0.14
766.481	0.12
766.657	-0.05
766.833	0.08
767.009	-0.15
767.185	-0.09
767.361	-0.09
767.537	-0.21
767.713	-0.02
767.889	-0.08
768.065	-0.05
768.24	-0.24
768.416	0.08
768.592	-0.17
768.768	0.03
768.944	-0.01
769.12	-0.11
769.295	-0.1
769.471	-0.14
769.647	0.01
769.823	0.07
769.998	-0.13
770.174	-0.18
770.35	0.21
770.525	0.28
770.701	0
770.877	-0.16
771.052	-0.12
771.228	0.13
771.403	0
771.579	0.01
771.755	0.15
771.93	-0.1
772.106	-0.02
772.281	-0.23
772.457	-0.17
772.632	-0.16
772.808	-0
772.983	-0.15
773.159	-0.19
773.334	0.21
773.509	0.05
773.685	-0.15
773.86	0.28
774.036	0.22
774.211	0.01
774.386	0.02
774.562	-0.01
774.737	0.1
774.912	-0.2
775.087	-0.11
775.263	0.03
775.438	-0.06
775.613	-0.12
775.788	-0.06
775.964	0.24
776.139	0.28
776.314	-0.18
776.489	-0.07
776.664	-0.11
776.839	-0.26
777.014	0.09
777.19	0.13
777.365	0.23
777.54	0.21
777.715	-0.21
777.89	0.02
778.065	-0.2
778.24	-0.08
778.415	0.03
778.59	-0.13
778.765	-0.12
778.94	0.02
779.115	-0.25
779.289	-0.12
779.464	-0.14
779.639	-0.07
779.814	-0.19
779.989	-0.08
780.164	0.16
780.339	0.06
780.513	-0.11
780.688	-0.19
780.863	-0.07
781.038	-0.06
781.212	-0.31
781.387	-0.05
781.562	0.23
781.737	-0.09
781.911	0.03
782.086	0.06
782.261	-0.08
782.435	0.22
782.61	-0.14
782.784	0.11
782.959	0.07
783.134	-0.11
783.308	-0.34
783.483	-0.23
783.657	0.2
783.832	-0.05
784.006	-0.34
784.181	-0.15
784.355	0.14
784.53	-0.41
784.704	-0.29
784.878	0.13
785.053	0.05
785.227	0.14
785.402	0.29
785.576	-0.5
785.75	-0.18
785.925	-0.11
786.099	0.03
786.273	-0.08
786.448	0.24
786.622	0.23
786.796	-0.11
786.97	-0.1
787.145	0.48
787.319	-0.49
787.493	-0.32
787.667	-0.56
787.841	-0.07
788.015	0.12
788.19	-0.07
788.364	-0.15
788.538	0.17
788.712	0.09
788.886	-0.29
789.06	0.29
789.234	0.17
789.408	-0.34
789.582	-0.12
789.756	-0.1
789.93	-0.22
790.104	-0.25
790.278	-0.15
790.452	-0.31
790.626	0.07
790.8	-0.28
790.973	0.07
791.147	0.15
791.321	0.19
791.495	-0.01
791.669	-0.12
791.843	-0.04
792.016	0.08
792.19	0.21
792.364	-0.33
792.538	0.31
792.711	0.21
792.885	-0.38
793.059	-0.44
793.233	-0.58
793.406	0.13
793.58	-0.22
793.754	0.18
793.927	0.03
794.101	0.38
794.274	-0.15
794.448	0.25
794.622	-0.24
794.795	0.09
794.969	-0.13
795.142	0.39
795.316	-0.34
795.489	-0.24
795.663	0.13
795.836	-0.08
796.009	-0.42
796.183	0.24
796.356	-0.05
796.53	0.06
796.703	-0.34
796.876	0.47
797.05	-0.06
797.223	-0.12
797.396	-0
797.57	-0.1
797.743	0.18
797.916	-0.04
798.09	-0.09
798.263	0.03
798.436	0.03
798.609	-0.04
798.782	-0.3
798.956	0.1
799.129	0.06
799.302	-0.28
799.475	-0.25
799.648	-0.35
799.821	-0.44
799.994	-0.03
800.167	-0.16
800.34	-0.12
800.514	0.25
800.687	-0.21
800.86	-0.42
801.033	-0.08
801.206	0.11
801.379	-0.28
801.551	-0.08
801.724	0.09
801.897	0.08
802.07	-0.08
802.243	-0.52
802.416	-0.29
802.589	-0.34
802.762	-0.28
802.935	-0.1
803.107	0.03
803.28	0.12
803.453	0.25
803.626	-0.27
803.798	-0.19
803.971	-0.36
804.144	-0.15
804.317	0.09
804.489	0.38
804.662	-0.37
804.835	-0.35
805.007	-0.34
805.18	0.28
805.353	-0.08
805.525	-0.31
805.698	-0.09
805.87	0.17
806.043	0.32
806.215	-0.28
806.388	-0.13
806.56	0.02
806.733	0.33
806.905	0.08
807.078	0.22
807.25	-0.35
807.423	0.02
807.595	-0.26
807.768	0.24
807.94	0.08
808.112	0.05
808.285	0.02
808.457	-0.15
808.629	-0.22
808.802	0.15
808.974	-0.01
809.146	0.09
809.318	-0.25
809.491	0.12
809.663	0.48
809.835	-0.41
810.007	0.28
810.18	0.22
810.352	-0.2
810.524	-0.23
810.696	0.16
810.868	0.24
811.04	-0.13
811.212	-0.22
811.384	0.35
811.556	-0.17
811.728	-0.25
811.901	0.8
812.073	-0.14
812.245	0.16
812.417	0.22
812.589	-0.81
812.76	0.07
812.932	0.37
813.104	0.07
813.276	-0.31
813.448	0.12
813.62	0.07
813.792	-0.16
813.964	0.29
814.136	0
814.307	0.04
814.479	-0.52
814.651	0.1
814.823	0.52
814.995	0.17
815.166	-0.02
815.338	-0.4
815.51	-0.64
815.681	0.54
815.853	0.11
816.025	-0.07
816.196	0.21
816.368	0.34
816.54	-0.8
816.711	-0.28
816.883	0.46
817.054	1.18
817.226	-0.32
817.398	0.19
817.569	-0.63
817.741	0.13
817.912	-0.13
818.084	0.08
818.255	-0.02
818.426	-0.16
818.598	0.02
818.769	-0.4
818.941	0.07
819.112	0.71
819.283	-0.01
819.455	-0.31
819.626	-0.14
819.798	0.09
819.969	-0.07
820.14	-0.24
820.311	-0.4
820.483	0.41
820.654	-0.23
820.825	-0.29
820.996	-0.39
821.168	-0.12
821.339	0.06
821.51	-0.61
821.681	-0.25
821.852	0.1
822.023	-0.69
822.195	-0.89
822.366	0.3
822.537	0.1
822.708	0.01
822.879	-0.35
823.05	0.51
823.221	-0.09
823.392	0.45
823.563	-0.03
823.734	-0.19
823.905	-0.4
824.076	-0.44
824.247	-0.58
824.418	-0.14
824.589	0.52
824.759	-0.09
824.93	0.28
825.101	-0.69
825.272	0.42
825.443	0.42
825.614	0.3
825.784	-1.04
825.955	0.94
826.126	0.14
826.297	-0.2
826.467	0.88
826.638	0.37
826.809	-0.72
826.98	-0.15
827.15	0.28
827.321	-0.54
827.492	0.56
827.662	-0.16
827.833	0.52
828.003	0.4
828.174	-0.78
828.345	-0.95
828.515	0.42
828.686	0.46
828.856	0.08
829.027	-0.02
829.197	0.63
829.368	0.24
829.538	-0.58
829.709	-0.97
829.879	0.02
830.049	-0.42
830.22	-0.55
830.39	-0.19
830.56	0.33
830.731	-0.23
830.901	-0.37
831.072	-0.12
831.242	0.04
831.412	-0.04
831.582	-0.52
831.753	-0.77
831.923	0.23
832.093	-0.06
832.263	-0.56
832.434	-0.58
832.604	0.5
832.774	0.62
832.944	-0.25
833.114	-0.16
833.284	0.05
833.454	-0.61
833.624	-0.43
833.795	-0.27
833.965	0.47
834.135	1.14
834.305	-0.82
834.475	-1.06
834.645	0.13
834.815	-0.83
834.985	-0.36
835.155	-0.87
835.325	0.31
835.494	0.49
835.664	-0.27
835.834	-0.69
836.004	0.24
836.174	-0
836.344	-0.52
836.514	-0.66
836.684	-0.34
836.853	-0.25
837.023	0.12
837.193	-0.58
837.363	0.79
837.532	-0.02
837.702	-1.08
837.872	-0.7
838.041	0.57
838.211	1.23
838.381	-0.97
838.55	-0.2
838.72	0.99
838.89	0.7
839.059	-0.19
839.229	-0.44
839.398	0.55
839.568	-0.34
839.738	-0.72
839.907	0.69
840.077	-0.03
840.246	-0.38
840.416	-0.88
840.585	-0.3
840.755	0.79
840.924	0.76
841.093	-0.61
841.263	-0.75
841.432	0.39
841.602	-0.96
841.771	-0.39
841.94	-0.02
842.11	1
842.279	0.42
842.448	-1.05
842.617	-0.44
842.787	0.16
842.956	-0.78
843.125	0.23
843.294	0.21
843.464	1.19
843.633	-0.1
843.802	-0.13
843.971	-0.35
844.14	0.62
844.309	0.3
844.479	-0.6
844.648	-0.77
844.817	-0.23
844.986	-0.18
845.155	-0.65
845.324	-0.68
845.493	-0.29
845.662	-1.15
845.831	-0.12
846	0.39
846.169	-0.82
846.338	1.44
846.507	-0.12
846.676	-0.15
846.844	-1.39
847.013	0.77
847.182	0.06
847.351	-0.49
847.52	-0.2
847.689	0.29
847.858	-1.05
848.026	-0.96
848.195	-0.37
848.364	-0.07
848.533	-1.01
848.701	-0.67
848.87	0.68
849.039	1.15
849.207	0.63
849.376	0.28
849.545	0.57
849.713	-1.26
849.882	0.09
850.051	-0.1
850.219	0.21
850.388	0.66
850.556	-0.63
850.725	-1.56
850.893	-0.81
851.062	-0.31
851.23	0.77
851.399	-1.68
851.567	-1
851.736	-0.93
851.904	-0.77
852.073	-0.96
852.241	0.46
852.41	0.55
852.578	-0.85
852.746	-0.81
852.915	0.81
853.083	-0.15
853.251	-1.97
853.42	-0.4
853.588	-0.07
853.756	1
853.924	-0.08
854.093	-1.33
854.261	-0.73
854.429	-1.88
854.597	0.49
854.765	-1.39
854.934	-1
855.102	1.02
855.27	-0.21
855.438	-0.74
855.606	0.83
855.774	0.82
855.942	-0.85
856.11	-1.93
856.278	0.21
856.446	1.06
856.614	-0.14
856.782	-0.3
856.95	0.73
857.118	0.27
857.286	0.77
857.454	-1.51
857.622	1.44
857.79	0.74
857.958	-0.94
858.126	-0.3
858.294	-2.95
858.462	-0.71
858.629	-0.8
858.797	-1.22
858.965	1.16
859.133	0.16
859.301	-0.84
859.468	0.78
859.636	-0.87
859.804	1.44
859.971	0.29
860.139	-0.43
860.307	-0.57
860.474	0.26
860.642	-0.32
860.81	-1.02
860.977	-0.16
861.145	-0.31
861.313	-0.63
861.48	0.42
861.648	0.44
861.815	-0.73
861.983	-0.73
862.15	0.12
862.318	0.04
862.485	2.13
862.653	-0.56
862.82	-2.15
862.988	0.99
863.155	0.73
863.322	-1.69
863.49	-0.65
863.657	0.07
863.824	2.11
863.992	1.38
864.159	0.38
864.326	0.5
864.494	-0.74
864.661	1.61
864.828	-1.29
864.996	1.68
865.163	2.06
865.33	-0.73
865.497	-2.38
865.664	-1.36
865.832	-1.99
865.999	-0.54
866.166	-2.09
866.333	-1.93
866.5	-2.03
866.667	-0.45
866.834	-1
867.001	2.02
867.168	-0.65
867.335	0.08
867.502	-3.12
867.669	0.6
867.836	2.23
868.003	-0.04
868.17	0.3
868.337	1.24
868.504	1.07
868.671	-2.12
868.838	0.13
869.005	0.88
869.172	-0.45
869.339	-0.92
869.505	-1.26
869.672	-0.03
869.839	1.44
870.006	0.7
870.173	-2.22
870.339	-0.63
870.506	0.43
870.673	-2.38
870.84	1.33
871.006	-0.15
871.173	-1.33
871.34	0.77
871.506	-3.09
871.673	1.24
871.839	-2.02
872.006	-0.7
872.173	-0.49
872.339	-1.45
872.506	0.68
872.672	-0.46
872.839	-3.11
873.005	-0.35
873.172	2.45
873.338	1.46
873.505	-0.53
873.671	-0.4
873.838	0.94
874.004	-1.07
874.171	-2.85
874.337	-0.1
874.503	0.38
874.67	0.12
874.836	-0.6
875.002	1.15
875.169	1.86
875.335	0.11
875.501	-0.7
875.668	1.24
875.834	-1.34
876	-0.03
876.166	2.15
876.332	0.58
876.499	2.15
876.665	-1.74
876.831	0.5
876.997	2.05
877.163	1.27
877.329	-0.89
877.495	1.03
877.662	1.89
877.828	1.93
877.994	0.61
878.16	-2.23
878.326	-1.21
878.492	-1.5
878.658	-1.77
878.824	0.38
878.99	1.4
879.156	-1.86
879.322	0.51
879.487	-0.71
879.653	1.01
879.819	0
879.985	-0.59
880.151	0.14
880.317	1.13
880.483	-0.61
880.648	0.1
880.814	-2.55
880.98	0.49
881.146	-3.34
881.312	-0.82
881.477	-0.52
881.643	0.32
881.809	0.12
881.974	1
882.14	-3.79
882.306	1.45
882.471	3.21
882.637	-1.65
882.803	1.02
882.968	2.42
883.134	4.29
883.299	0.45
883.465	-0.57
883.63	0.97
883.796	0.4
883.961	0.12
884.127	0.69
884.292	-4.3
884.458	-2.3
884.623	-2.3
