Data from Apollo_Calib_20240827__AbsoluteIrradiance__528__07-57-02-759.txt Node

Date: Wed Aug 28 07:57:02 BST 2024
User: biology
Spectrometer: FLMT08252
Trigger mode: 0
Integration Time (sec): 5.000000E-1
Scans to average: 5
Electric dark correction enabled: true
Nonlinearity correction enabled: false
Boxcar width: 0
XAxis mode: Wavelengths
Number of Pixels in Spectrum: 3648
>>>>>Begin Spectral Data<<<<<
179.588	-0
179.809	-0
180.03	-0
180.251	-0
180.473	-0
180.694	0
180.915	0
181.136	-0
181.357	-0
181.578	-0
181.799	-0
182.02	-0
182.241	-0
182.462	-0
182.683	0
182.904	0
183.125	-0
183.346	0
183.567	0
183.788	0
184.009	-0
184.23	0
184.451	0
184.672	-0
184.892	-0
185.113	0
185.334	0
185.555	-0
185.776	-0
185.996	0
186.217	0
186.438	0
186.659	-0
186.879	0
187.1	-0
187.321	-0
187.541	-0
187.762	-0
187.983	0
188.203	-0
188.424	-0
188.644	0
188.865	-0
189.086	-0
189.306	-0
189.527	-0
189.747	0
189.968	-0
190.188	0
190.409	0
190.629	0
190.849	-0
191.07	-0
191.29	0
191.511	0
191.731	-0
191.951	-0
192.172	-0
192.392	-0
192.612	0
192.833	0
193.053	0
193.273	0
193.493	0
193.714	-0
193.934	0
194.154	0
194.374	0
194.594	0
194.815	0
195.035	0
195.255	-0
195.475	-0
195.695	0
195.915	0
196.135	0
196.355	0
196.575	0
196.795	0
197.015	-0
197.235	-0
197.455	-0
197.675	0
197.895	-0
198.115	-0
198.335	0
198.555	-0
198.775	0
198.995	0
199.214	0
199.434	0
199.654	-0
199.874	0
200.094	1.06
200.313	-0.24
200.533	0.11
200.753	-0.48
200.973	0.92
201.192	0.24
201.412	-0.48
201.632	0.11
201.851	0.71
202.071	-0.43
202.291	-0.53
202.51	-0.32
202.73	0.42
202.95	-0.59
203.169	-0.33
203.389	0.2
203.608	0.12
203.828	-0.3
204.047	-0.19
204.267	0.32
204.486	0.25
204.706	0.08
204.925	0.1
205.145	-0.14
205.364	0.48
205.583	0.98
205.803	-0.12
206.022	-0.17
206.242	0.04
206.461	-0.04
206.68	-0.44
206.9	0.4
207.119	0.25
207.338	0.48
207.557	-0
207.777	-0.21
207.996	-0.38
208.215	0.46
208.434	-0.23
208.654	-0.36
208.873	0.08
209.092	0.7
209.311	0.28
209.53	-0.02
209.749	-0.06
209.968	-0.4
210.187	-0
210.407	-0.49
210.626	0.2
210.845	0.53
211.064	-0.03
211.283	-0.28
211.502	0.21
211.721	-0.15
211.94	-0.15
212.159	0.4
212.377	0.4
212.596	0.3
212.815	0.09
213.034	0.13
213.253	0.2
213.472	0.12
213.691	0.07
213.91	-0.22
214.128	-0.11
214.347	0.4
214.566	-0.21
214.785	-0.46
215.003	0.09
215.222	0.23
215.441	0.06
215.66	-0.14
215.878	0.07
216.097	0.22
216.316	-0.14
216.534	0.01
216.753	0.03
216.972	-0.03
217.19	0.01
217.409	0.05
217.627	-0.27
217.846	-0.03
218.064	-0.06
218.283	-0.16
218.501	0.59
218.72	0.25
218.938	-0.34
219.157	-0.17
219.375	0.16
219.594	0.07
219.812	-0.13
220.031	-0.19
220.249	0.2
220.467	0.17
220.686	-0.02
220.904	-0.14
221.122	-0.08
221.341	0.37
221.559	0.01
221.777	0.05
221.995	0.02
222.214	0.13
222.432	-0.15
222.65	0.23
222.868	0.08
223.086	0.08
223.305	0.03
223.523	-0.01
223.741	0.3
223.959	-0.02
224.177	-0.13
224.395	-0.05
224.613	0.17
224.831	0.15
225.049	-0.09
225.267	-0
225.485	-0.02
225.703	-0.19
225.921	-0.02
226.139	-0.09
226.357	0.11
226.575	0.07
226.793	-0.12
227.011	0.36
227.229	0.17
227.447	0.17
227.665	-0.03
227.883	-0.21
228.1	0.03
228.318	-0.01
228.536	-0.27
228.754	-0.11
228.972	0.11
229.189	-0.01
229.407	-0
229.625	-0.02
229.843	0.12
230.06	0.09
230.278	-0.15
230.496	0.11
230.713	0.03
230.931	0.18
231.149	-0.04
231.366	-0.13
231.584	-0.01
231.801	0.46
232.019	-0.06
232.236	-0.09
232.454	-0.1
232.671	0.09
232.889	-0.01
233.106	-0.02
233.324	-0.16
233.541	-0
233.759	-0.01
233.976	-0.14
234.194	0
234.411	0.02
234.628	-0.1
234.846	-0
235.063	-0.01
235.28	0.04
235.498	0.08
235.715	-0.12
235.932	0.15
236.149	0.03
236.367	-0.05
236.584	0.03
236.801	-0.02
237.018	0.08
237.236	0.05
237.453	-0.16
237.67	0.17
237.887	0.06
238.104	-0.04
238.321	-0.08
238.538	-0.05
238.755	0.1
238.973	-0.18
239.19	0.09
239.407	0.14
239.624	0.09
239.841	-0.08
240.058	-0.06
240.275	0.05
240.492	-0.06
240.709	0.02
240.925	0
241.142	0.04
241.359	-0.01
241.576	-0.01
241.793	-0.04
242.01	-0.06
242.227	-0.01
242.444	0.06
242.66	0.12
242.877	0.06
243.094	-0.07
243.311	0.06
243.527	-0.02
243.744	-0.01
243.961	-0
244.178	0.05
244.394	-0.01
244.611	0.15
244.828	0.11
245.044	-0.08
245.261	-0.09
245.477	0.13
245.694	0.02
245.911	-0.04
246.127	0.09
246.344	0.08
246.56	0.15
246.777	0.06
246.993	0.03
247.21	0.1
247.426	0.01
247.643	-0.12
247.859	-0.1
248.076	-0.06
248.292	0.17
248.508	-0.03
248.725	0.04
248.941	0.1
249.157	0.08
249.374	-0.09
249.59	-0.02
249.806	0.02
250.023	0.05
250.239	-0.09
250.455	-0.01
250.671	0.05
250.888	0.08
251.104	-0.02
251.32	-0.03
251.536	0.04
251.752	-0.06
251.969	0.11
252.185	0.02
252.401	0.15
252.617	0.13
252.833	-0.03
253.049	0.01
253.265	-0.01
253.481	0.06
253.697	0
253.913	-0.02
254.129	0.1
254.345	-0.01
254.561	-0.04
254.777	-0.04
254.993	0.07
255.209	0.04
255.425	-0.02
255.641	-0.12
255.857	0.12
256.073	-0.01
256.288	-0.04
256.504	-0.02
256.72	0.02
256.936	0.07
257.152	-0.01
257.367	-0.09
257.583	0.04
257.799	0.04
258.015	0.01
258.23	-0.01
258.446	0.09
258.662	0.06
258.877	-0
259.093	-0.04
259.309	0.05
259.524	-0
259.74	-0.03
259.955	-0.04
260.171	-0.01
260.387	-0.02
260.602	0.09
260.818	0.1
261.033	-0
261.249	-0.08
261.464	-0.02
261.68	-0.04
261.895	0.07
262.11	0.07
262.326	0.03
262.541	-0.04
262.757	0.13
262.972	0.02
263.187	0.04
263.403	0.03
263.618	0.07
263.833	0.04
264.049	-0.04
264.264	0.02
264.479	0.09
264.694	0.1
264.91	-0.09
265.125	0.05
265.34	0.07
265.555	0.14
265.77	0.02
265.986	0.06
266.201	0.08
266.416	0.14
266.631	0
266.846	0.07
267.061	0.02
267.276	0.05
267.491	-0.11
267.706	0.06
267.921	0.03
268.136	0.04
268.351	0.01
268.566	-0.08
268.781	0.07
268.996	-0.01
269.211	0
269.426	-0.1
269.641	-0.07
269.856	0.08
270.071	0.06
270.285	-0.02
270.5	0.1
270.715	0.04
270.93	0.04
271.145	0.01
271.359	0.08
271.574	-0.04
271.789	-0.02
272.004	-0.08
272.218	0.03
272.433	0.07
272.648	0.01
272.862	0.05
273.077	0.05
273.292	0.06
273.506	-0.01
273.721	-0.02
273.936	0.02
274.15	0.05
274.365	0.04
274.579	0.03
274.794	0.11
275.008	0.07
275.223	-0.08
275.437	0.03
275.652	0.05
275.866	0.07
276.081	-0
276.295	0.08
276.509	0.02
276.724	0.01
276.938	0.05
277.153	0.03
277.367	0.05
277.581	-0.08
277.796	-0.09
278.01	-0.04
278.224	0.06
278.438	0.14
278.653	-0.05
278.867	-0.01
279.081	-0.1
279.295	-0
279.51	0.03
279.724	-0.08
279.938	0.08
280.152	0.05
280.366	-0.08
280.58	0.01
280.794	0.09
281.008	0.09
281.222	0.08
281.437	0.1
281.651	0.01
281.865	0.08
282.079	-0.02
282.293	-0.1
282.507	-0.02
282.721	0.01
282.935	0.05
283.148	-0.06
283.362	-0.01
283.576	-0.01
283.79	0.03
284.004	-0.05
284.218	0.06
284.432	-0.01
284.646	0.01
284.859	0.02
285.073	0.01
285.287	0.03
285.501	0.01
285.714	-0.03
285.928	-0
286.142	-0.02
286.356	-0.03
286.569	-0.02
286.783	0.05
286.997	0.05
287.21	0.08
287.424	-0.01
287.637	0.06
287.851	0.02
288.065	0.01
288.278	-0.01
288.492	-0.02
288.705	-0.03
288.919	0.03
289.132	-0.05
289.346	0.09
289.559	-0.04
289.773	-0.04
289.986	-0.01
290.2	0.02
290.413	0.05
290.626	-0.06
290.84	0.02
291.053	-0.03
291.267	0.08
291.48	0.01
291.693	0.03
291.906	0.01
292.12	0.01
292.333	-0.02
292.546	-0.03
292.76	0.12
292.973	0.02
293.186	0.05
293.399	-0
293.612	0.03
293.826	0.06
294.039	-0.01
294.252	0.01
294.465	0.03
294.678	0.05
294.891	0
295.104	-0.02
295.317	0
295.53	0.05
295.743	0.01
295.956	0.05
296.169	0.06
296.382	0.06
296.595	0.04
296.808	0
297.021	0.09
297.234	0.07
297.447	0.09
297.66	0.03
297.873	0.05
298.086	0.07
298.299	-0.02
298.511	-0.02
298.724	0.01
298.937	-0.03
299.15	-0.01
299.363	0.03
299.575	0.02
299.788	0.02
300.001	0.02
300.213	-0
300.426	0
300.639	0
300.852	-0.01
301.064	0.06
301.277	0.04
301.489	0.04
301.702	0.06
301.915	0.03
302.127	0.01
302.34	0.02
302.552	0.05
302.765	-0.02
302.977	0.03
303.19	-0.03
303.402	0
303.615	-0.03
303.827	0.01
304.04	0.03
304.252	0.03
304.464	-0
304.677	0.11
304.889	0.07
305.102	0
305.314	-0.04
305.526	0.03
305.739	0.02
305.951	-0
306.163	0.01
306.375	0.09
306.588	-0.03
306.8	-0.02
307.012	-0.08
307.224	0.05
307.436	0.05
307.649	-0.06
307.861	0.04
308.073	0.04
308.285	0
308.497	-0.03
308.709	-0.02
308.921	-0.01
309.133	0.07
309.346	0.01
309.558	0.02
309.77	0.03
309.982	0.09
310.194	0.07
310.406	-0.02
310.617	0.04
310.829	0.07
311.041	0.07
311.253	-0
311.465	0.01
311.677	0.04
311.889	-0.02
312.101	-0.02
312.313	0.09
312.524	0.08
312.736	-0.06
312.948	0.01
313.16	0.09
313.372	0.04
313.583	0.03
313.795	0.01
314.007	-0.01
314.218	0.03
314.43	-0.02
314.642	-0.04
314.853	-0.03
315.065	0.04
315.277	-0
315.488	0.04
315.7	0.04
315.912	0.06
316.123	0.01
316.335	0
316.546	0.13
316.758	0.01
316.969	0
317.181	0.01
317.392	-0
317.604	0.03
317.815	-0.02
318.026	0.01
318.238	-0.01
318.449	0.02
318.661	-0.04
318.872	-0.02
319.083	-0
319.295	0.03
319.506	-0.03
319.717	-0
319.929	0.04
320.14	0.03
320.351	-0.01
320.562	0.01
320.774	0.01
320.985	0.02
321.196	-0.05
321.407	-0.02
321.618	0.08
321.829	-0
322.041	0.05
322.252	0
322.463	0.02
322.674	0.01
322.885	-0.01
323.096	0.01
323.307	-0.01
323.518	0.04
323.729	-0.03
323.94	-0.01
324.151	-0.02
324.362	0.02
324.573	0.05
324.784	-0.03
324.995	0.05
325.206	0.01
325.417	0
325.628	0.03
325.838	0.02
326.049	0.02
326.26	0.04
326.471	-0.01
326.682	0.03
326.892	0.04
327.103	-0.08
327.314	-0.04
327.525	0.08
327.735	0.02
327.946	0.02
328.157	-0.03
328.368	0.03
328.578	0.03
328.789	0.03
328.999	0.03
329.21	-0
329.421	0
329.631	-0.05
329.842	-0.05
330.052	0.03
330.263	0.04
330.473	0.05
330.684	-0.01
330.894	0.01
331.105	0.04
331.315	-0.02
331.526	-0.07
331.736	0.05
331.947	0.02
332.157	0.02
332.367	-0.04
332.578	0.05
332.788	0.07
332.999	0.02
333.209	0.02
333.419	-0
333.629	-0
333.84	0.05
334.05	0
334.26	0.09
334.47	-0.01
334.681	0.06
334.891	0.01
335.101	0.05
335.311	0.1
335.521	0.04
335.732	-0.01
335.942	0.05
336.152	0.03
336.362	0.02
336.572	0.02
336.782	0.03
336.992	-0
337.202	-0.01
337.412	-0.03
337.622	0.05
337.832	0.01
338.042	-0.03
338.252	0.02
338.462	-0.01
338.672	0.01
338.882	-0.07
339.092	-0.01
339.302	0.08
339.511	0.05
339.721	-0
339.931	-0.01
340.141	0.04
340.351	0.08
340.561	0.01
340.77	0.05
340.98	0.01
341.19	0.05
341.4	-0.02
341.609	-0.04
341.819	0.03
342.029	-0.02
342.238	0.02
342.448	-0.02
342.658	0.05
342.867	0
343.077	-0.01
343.286	0.03
343.496	-0
343.706	0.03
343.915	-0.03
344.125	-0.03
344.334	0.01
344.544	-0.01
344.753	-0.01
344.963	0.01
345.172	0.01
345.381	-0.05
345.591	-0.02
345.8	-0
346.01	0.05
346.219	0.04
346.428	-0.02
346.638	0.01
346.847	0.03
347.056	0.06
347.266	-0.03
347.475	-0.02
347.684	0.03
347.893	0.02
348.103	0.04
348.312	-0.01
348.521	0
348.73	0.01
348.94	0.01
349.149	0.02
349.358	0.01
349.567	-0.04
349.776	-0.01
349.985	0.01
350.194	0.01
350.403	0.09
350.612	-0.02
350.821	-0.02
351.03	0.01
351.239	-0.02
351.448	0.02
351.657	0
351.866	0.09
352.075	0.01
352.284	0.02
352.493	-0.04
352.702	0.06
352.911	0.08
353.12	-0.01
353.329	0.01
353.538	0.04
353.746	0.02
353.955	0
354.164	0
354.373	0.01
354.582	0.03
354.79	0.03
354.999	0.06
355.208	0.02
355.416	0.09
355.625	-0.03
355.834	0.01
356.042	0.02
356.251	0.01
356.46	-0
356.668	0.01
356.877	0.1
357.085	0.05
357.294	-0.06
357.503	0.05
357.711	-0.01
357.92	0.15
358.128	-0.01
358.337	-0
358.545	0.02
358.754	-0.02
358.962	0.02
359.17	-0.01
359.379	0.04
359.587	0.04
359.796	0.02
360.004	0.05
360.212	0.04
360.421	0.06
360.629	-0.02
360.837	-0.01
361.046	0.01
361.254	0.13
361.462	0.01
361.67	0.01
361.879	-0.01
362.087	0.07
362.295	-0.02
362.503	-0.01
362.711	-0.04
362.92	-0.05
363.128	-0
363.336	-0.03
363.544	-0.04
363.752	0.01
363.96	-0.01
364.168	-0
364.376	0.02
364.584	0.06
364.792	0.03
365	0.05
365.208	0.01
365.416	0.05
365.624	0.05
365.832	-0.03
366.04	0.03
366.248	0.05
366.456	-0.01
366.664	0.03
366.872	-0.01
367.079	0.02
367.287	0.06
367.495	0.03
367.703	-0
367.911	-0.02
368.118	0.02
368.326	0
368.534	-0.04
368.742	0.05
368.949	-0.04
369.157	-0.01
369.365	0.03
369.572	-0.01
369.78	-0.02
369.988	0.04
370.195	0.03
370.403	-0
370.61	-0.01
370.818	-0
371.026	0.06
371.233	-0.04
371.441	0.03
371.648	0.02
371.856	-0.01
372.063	0.02
372.271	0
372.478	0.02
372.685	-0.02
372.893	0.04
373.1	0.01
373.308	0.02
373.515	0.07
373.722	-0.01
373.93	0.01
374.137	0.06
374.344	0.09
374.552	0.07
374.759	0.03
374.966	0.03
375.173	0.01
375.381	0.06
375.588	0.01
375.795	-0.04
376.002	-0
376.209	0.01
376.417	0.01
376.624	0.02
376.831	0.03
377.038	-0.01
377.245	-0.04
377.452	-0.01
377.659	0.02
377.866	-0.05
378.073	0.02
378.28	0.01
378.487	0.01
378.694	-0.01
378.901	0
379.108	0.02
379.315	0.05
379.522	0.04
379.729	-0.03
379.936	0
380.143	0.01
380.35	0.02
380.557	0.01
380.763	0.03
380.97	0.04
381.177	0.02
381.384	0.04
381.591	0.02
381.797	0
382.004	0
382.211	0.04
382.418	0.02
382.624	0.06
382.831	0.06
383.038	-0.01
383.244	0.05
383.451	0.03
383.658	0.05
383.864	0.01
384.071	-0.01
384.277	0.07
384.484	-0.03
384.69	0.06
384.897	-0
385.103	0.02
385.31	-0.05
385.516	-0.05
385.723	0
385.929	-0.01
386.136	-0.04
386.342	0.03
386.549	-0.03
386.755	0.08
386.961	0.03
387.168	-0.01
387.374	0.04
387.58	0.06
387.787	0.02
387.993	0.06
388.199	0.02
388.406	-0.01
388.612	-0
388.818	-0.02
389.024	-0.03
389.231	0.01
389.437	0.09
389.643	0.02
389.849	0.01
390.055	0.02
390.261	0.01
390.467	0.04
390.674	-0
390.88	-0.03
391.086	0.04
391.292	-0.01
391.498	0.06
391.704	0.02
391.91	0.02
392.116	-0.01
392.322	-0.07
392.528	0.03
392.734	0.01
392.94	0.02
393.146	-0
393.352	-0
393.557	0.03
393.763	-0.01
393.969	0.03
394.175	0.04
394.381	0.01
394.587	-0.01
394.792	0.03
394.998	0.04
395.204	0.05
395.41	0.01
395.615	0.07
395.821	0.02
396.027	0.04
396.233	-0.03
396.438	-0.02
396.644	0.08
396.85	0.01
397.055	0.02
397.261	0.01
397.466	0
397.672	0
397.878	0.04
398.083	0.01
398.289	-0.03
398.494	0.05
398.7	0.06
398.905	-0.05
399.111	0
399.316	-0.03
399.522	0.02
399.727	-0.02
399.932	0.03
400.138	-0.01
400.343	0.01
400.549	0.02
400.754	0.02
400.959	0.07
401.165	0.04
401.37	0.05
401.575	0.1
401.78	0.01
401.986	-0.01
402.191	0.02
402.396	-0
402.601	0.04
402.807	0.02
403.012	0.05
403.217	0.1
403.422	0.01
403.627	-0
403.832	-0.02
404.037	0.03
404.243	0.06
404.448	-0.02
404.653	-0
404.858	0.03
405.063	0.02
405.268	-0.01
405.473	-0.03
405.678	-0.03
405.883	0.14
406.088	0.02
406.293	-0.05
406.498	-0.03
406.703	-0.01
406.907	-0
407.112	-0.03
407.317	0.04
407.522	0.04
407.727	-0.09
407.932	-0.01
408.136	0.11
408.341	-0.01
408.546	-0.05
408.751	0.03
408.956	-0
409.16	-0.03
409.365	0.02
409.57	-0.04
409.774	0.02
409.979	0.05
410.184	0.04
410.388	-0.03
410.593	0.05
410.798	0.01
411.002	0.01
411.207	0.02
411.411	0.02
411.616	-0.06
411.82	-0.02
412.025	0.03
412.229	0
412.434	0.06
412.638	0.04
412.843	0.03
413.047	0.03
413.252	-0.06
413.456	0
413.66	0.06
413.865	-0
414.069	0.02
414.273	-0.03
414.478	-0.02
414.682	-0.04
414.886	-0.03
415.091	-0.03
415.295	-0.1
415.499	0.06
415.703	-0.05
415.908	-0
416.112	-0.13
416.316	0.05
416.52	-0
416.724	-0.06
416.929	-0.02
417.133	0.09
417.337	-0.01
417.541	-0.07
417.745	0.02
417.949	0.03
418.153	0.03
418.357	-0.07
418.561	0.07
418.765	-0.01
418.969	0.1
419.173	0.04
419.377	-0.04
419.581	0.05
419.785	-0.04
419.989	-0.04
420.193	0.03
420.397	0
420.601	0.09
420.804	0.02
421.008	0.04
421.212	0
421.416	0.04
421.62	-0.02
421.823	-0.02
422.027	0.1
422.231	0.04
422.435	-0.05
422.638	0.01
422.842	-0
423.046	-0.02
423.249	0.06
423.453	0.05
423.657	0.03
423.86	0.01
424.064	0.03
424.268	0.08
424.471	0.03
424.675	0.03
424.878	0.05
425.082	0.03
425.285	0.11
425.489	-0
425.692	-0.03
425.896	-0.06
426.099	0.06
426.303	-0.03
426.506	0
426.71	0.04
426.913	0.06
427.116	0.01
427.32	-0
427.523	-0.04
427.726	0.05
427.93	-0.03
428.133	0.01
428.336	-0.02
428.54	-0.06
428.743	0.02
428.946	0.03
429.149	-0.09
429.353	-0.02
429.556	-0.01
429.759	-0.02
429.962	-0.05
430.165	-0.03
430.368	0.01
430.571	-0.05
430.775	0.02
430.978	0
431.181	0.07
431.384	0.01
431.587	-0.02
431.79	0.03
431.993	0.02
432.196	-0.01
432.399	0.03
432.602	0.02
432.805	-0.02
433.008	-0
433.211	-0.09
433.414	0.05
433.616	0.08
433.819	0.02
434.022	-0.08
434.225	0.05
434.428	-0.03
434.631	0.07
434.833	0.02
435.036	-0.01
435.239	0.05
435.442	0.02
435.645	-0.03
435.847	0.05
436.05	0.06
436.253	0
436.455	-0.03
436.658	0.03
436.861	0.06
437.063	-0.03
437.266	-0.02
437.468	0.05
437.671	0.11
437.874	0.04
438.076	-0.06
438.279	-0.05
438.481	0.03
438.684	-0.05
438.886	0.05
439.089	-0.06
439.291	-0.03
439.494	0.03
439.696	-0.04
439.899	-0.06
440.101	0.02
440.303	-0.05
440.506	0.06
440.708	0.04
440.91	0.06
441.113	0.01
441.315	0.01
441.517	-0.05
441.72	0.05
441.922	-0.03
442.124	-0.07
442.326	0.02
442.529	0.03
442.731	-0.05
442.933	0.06
443.135	-0.05
443.337	0.02
443.539	-0.01
443.742	-0.04
443.944	-0.03
444.146	-0.01
444.348	-0.05
444.55	-0.02
444.752	0.02
444.954	-0.08
445.156	0
445.358	-0.02
445.56	0.05
445.762	-0.01
445.964	-0.03
446.166	-0.01
446.368	0
446.57	0.04
446.772	-0
446.974	-0.02
447.175	0.01
447.377	-0.04
447.579	-0.05
447.781	-0.08
447.983	0.07
448.184	-0.03
448.386	0.04
448.588	-0.04
448.79	-0.02
448.991	-0.03
449.193	0
449.395	-0.01
449.597	0.07
449.798	-0.03
450	0.02
450.202	-0.01
450.403	0.02
450.605	0.03
450.806	0.04
451.008	-0.04
451.21	0.06
451.411	0
451.613	-0.03
451.814	0.04
452.016	0.05
452.217	0.02
452.419	0.1
452.62	0.01
452.821	0.07
453.023	0.02
453.224	0.04
453.426	0.02
453.627	0.06
453.828	0.08
454.03	0.01
454.231	-0
454.432	-0.06
454.634	0.1
454.835	0.04
455.036	-0.05
455.238	0.04
455.439	0.04
455.64	-0.04
455.841	-0.02
456.042	0.11
456.244	0.04
456.445	-0.01
456.646	-0.02
456.847	-0.01
457.048	0.02
457.249	0.07
457.45	0.18
457.651	-0.05
457.852	0.03
458.054	0.03
458.255	-0.03
458.456	0.05
458.657	-0.02
458.858	0.01
459.058	-0.03
459.259	0.04
459.46	0.03
459.661	-0.01
459.862	0.13
460.063	-0.01
460.264	0.06
460.465	-0.03
460.666	0.07
460.866	-0.01
461.067	0.02
461.268	0.03
461.469	-0.02
461.67	-0
461.87	0
462.071	-0.02
462.272	-0.06
462.473	-0.03
462.673	0.04
462.874	-0.04
463.075	-0.01
463.275	-0.07
463.476	0.03
463.676	0.02
463.877	0
464.078	-0.03
464.278	0.05
464.479	0.03
464.679	0.04
464.88	0.02
465.08	0.06
465.281	-0.04
465.481	0
465.682	-0.01
465.882	0.02
466.083	0.01
466.283	0.01
466.483	0.03
466.684	-0.05
466.884	-0.01
467.085	0
467.285	0.04
467.485	-0.02
467.686	0.03
467.886	-0.01
468.086	-0.01
468.286	-0.02
468.487	0.01
468.687	-0.04
468.887	0.03
469.087	0.03
469.287	0.01
469.488	-0.03
469.688	0.02
469.888	0.08
470.088	0.06
470.288	0.08
470.488	0.06
470.688	-0.06
470.888	-0.01
471.088	-0.06
471.288	0.03
471.488	0.02
471.688	0
471.888	-0.02
472.088	0.07
472.288	0.04
472.488	-0.02
472.688	-0.01
472.888	-0.01
473.088	-0.02
473.288	0.01
473.488	0.03
473.688	0.06
473.887	0.04
474.087	-0.01
474.287	0.01
474.487	-0.05
474.687	0.06
474.886	-0.01
475.086	0
475.286	0.01
475.486	0.01
475.685	-0.02
475.885	0.01
476.085	-0.01
476.284	0.02
476.484	-0.01
476.684	0.01
476.883	0.06
477.083	0.03
477.282	0
477.482	0.07
477.681	0.07
477.881	0.01
478.08	-0.04
478.28	-0.01
478.479	0.05
478.679	0.07
478.878	-0.01
479.078	-0.02
479.277	-0.01
479.477	0.01
479.676	0.03
479.875	0.03
480.075	-0.01
480.274	0.06
480.473	0.04
480.673	-0.01
480.872	0.03
481.071	-0.01
481.271	0.02
481.47	-0.01
481.669	-0.01
481.868	-0.01
482.067	-0
482.267	-0.02
482.466	-0.04
482.665	-0.04
482.864	-0.05
483.063	-0.02
483.262	0.01
483.461	0.05
483.661	0.02
483.86	-0.01
484.059	0
484.258	0.02
484.457	-0.02
484.656	0.01
484.855	0.04
485.054	-0.04
485.253	-0.04
485.452	0
485.651	0.03
485.849	-0.02
486.048	0
486.247	-0.01
486.446	0.01
486.645	-0.02
486.844	-0.02
487.043	0
487.241	0.01
487.44	-0.01
487.639	-0.02
487.838	0
488.037	0.01
488.235	0.04
488.434	0.02
488.633	-0.01
488.831	0.03
489.03	0.04
489.229	0.02
489.427	-0.02
489.626	0.02
489.825	0.05
490.023	0.02
490.222	0.01
490.42	0.04
490.619	0.05
490.817	0.03
491.016	-0.02
491.214	0.03
491.413	-0.01
491.611	-0.02
491.81	0.02
492.008	0.02
492.207	0.03
492.405	-0
492.604	-0.05
492.802	0.01
493	-0
493.199	-0.02
493.397	0.02
493.595	-0.02
493.794	-0.02
493.992	0.05
494.19	0.01
494.388	0.03
494.587	-0.02
494.785	0.02
494.983	-0.02
495.181	0
495.379	0.01
495.578	-0.02
495.776	0.03
495.974	0.02
496.172	-0.03
496.37	0.01
496.568	-0.02
496.766	-0.03
496.964	0.02
497.162	0.01
497.36	-0.03
497.558	0.01
497.756	0.02
497.954	0.01
498.152	-0.01
498.35	-0.01
498.548	-0
498.746	0.01
498.944	-0
499.142	-0
499.34	-0.04
499.538	0.01
499.736	-0.01
499.933	0.02
500.131	0
500.329	0
500.527	0.03
500.725	0.02
500.922	0.01
501.12	0.02
501.318	0.02
501.516	-0.03
501.713	0.01
501.911	-0.02
502.109	-0.02
502.306	0.04
502.504	-0.01
502.701	-0
502.899	-0.02
503.097	0.04
503.294	0.01
503.492	0.01
503.689	0.02
503.887	0.02
504.084	0.06
504.282	0.01
504.479	-0.01
504.677	0.01
504.874	-0.01
505.072	0.02
505.269	-0.01
505.466	0
505.664	0.03
505.861	-0.03
506.059	-0.03
506.256	0.02
506.453	-0.02
506.651	0.06
506.848	0.01
507.045	-0
507.242	0.03
507.44	0.01
507.637	0
507.834	0.02
508.031	0
508.229	-0.02
508.426	0.01
508.623	0.04
508.82	-0.01
509.017	-0.01
509.214	0.02
509.411	0.02
509.608	-0
509.805	-0
510.003	-0.01
510.2	-0
510.397	0.04
510.594	-0
510.791	-0
510.988	-0.02
511.184	0.02
511.381	-0.01
511.578	-0.03
511.775	0.02
511.972	-0
512.169	0
512.366	0.01
512.563	0.01
512.76	0
512.956	0.01
513.153	-0.01
513.35	0
513.547	-0.01
513.744	-0.03
513.94	-0.03
514.137	0.01
514.334	0.01
514.53	0
514.727	0.01
514.924	0.08
515.12	-0.01
515.317	-0
515.514	-0.03
515.71	-0.04
515.907	0
516.103	0.01
516.3	0.03
516.497	0.01
516.693	0.03
516.89	-0
517.086	0.01
517.283	0.01
517.479	0.02
517.676	-0.02
517.872	-0.03
518.068	-0.01
518.265	0.04
518.461	-0.01
518.658	-0.02
518.854	0.02
519.05	0.02
519.247	0.01
519.443	0.02
519.639	0.04
519.836	0
520.032	0
520.228	-0
520.424	0.04
520.621	0.01
520.817	0.01
521.013	0.01
521.209	-0.01
521.405	0.05
521.601	0.02
521.798	0.01
521.994	0.06
522.19	-0.01
522.386	-0.02
522.582	-0.01
522.778	0.01
522.974	0.01
523.17	0.01
523.366	0.03
523.562	0.03
523.758	0.01
523.954	-0.03
524.15	-0.01
524.346	0.03
524.542	0.01
524.738	0
524.934	0.02
525.129	-0.07
525.325	0.03
525.521	-0.01
525.717	0.03
525.913	-0.01
526.109	-0
526.304	-0.01
526.5	0.01
526.696	0.02
526.892	0.01
527.087	0.02
527.283	-0.01
527.479	0.03
527.674	-0.01
527.87	-0
528.066	0.01
528.261	0.01
528.457	-0
528.653	-0
528.848	-0.01
529.044	0.02
529.239	0.01
529.435	0.03
529.63	0.01
529.826	0.05
530.021	0.02
530.217	0.02
530.412	-0
530.608	-0.03
530.803	0.03
530.999	0.01
531.194	-0.03
531.389	0
531.585	-0.03
531.78	-0
531.975	-0
532.171	0.03
532.366	0.01
532.561	-0
532.757	-0
532.952	-0
533.147	0.04
533.342	0
533.538	-0.01
533.733	0.03
533.928	-0
534.123	-0.02
534.318	-0.02
534.513	0.02
534.709	0.01
534.904	-0.02
535.099	-0.02
535.294	-0.01
535.489	0.01
535.684	-0.01
535.879	-0.02
536.074	0.01
536.269	-0.01
536.464	0.01
536.659	-0
536.854	0.01
537.049	0.01
537.244	0.02
537.439	-0.01
537.634	0.04
537.828	0.02
538.023	-0.01
538.218	-0.02
538.413	0
538.608	-0.02
538.803	0.03
538.997	-0.03
539.192	0.04
539.387	0.02
539.582	0.01
539.776	-0
539.971	-0.01
540.166	0.01
540.36	0
540.555	0.01
540.75	-0.01
540.944	0.02
541.139	-0.04
541.334	0
541.528	0.03
541.723	0.01
541.917	0
542.112	-0.03
542.306	0
542.501	-0.02
542.695	0.01
542.89	0
543.084	0
543.279	-0
543.473	0.01
543.668	0.02
543.862	-0
544.056	0.03
544.251	-0.02
544.445	0
544.64	-0.01
544.834	-0.01
545.028	-0.01
545.222	0.01
545.417	0.04
545.611	0.01
545.805	-0.01
546	0.01
546.194	-0
546.388	-0.01
546.582	0.01
546.776	0.01
546.97	0.01
547.165	0.02
547.359	0.02
547.553	0
547.747	-0
547.941	0.04
548.135	0.02
548.329	0.04
548.523	0.01
548.717	-0.02
548.911	0.02
549.105	0.01
549.299	0.01
549.493	0.04
549.687	0.02
549.881	0.02
550.075	0.01
550.269	-0.03
550.463	0.02
550.657	-0
550.85	-0
551.044	-0
551.238	0.01
551.432	-0
551.626	-0.02
551.82	0.02
552.013	-0
552.207	0.01
552.401	0
552.594	0.01
552.788	0.01
552.982	0.01
553.176	-0.02
553.369	0.03
553.563	0.03
553.756	-0.03
553.95	-0.01
554.144	0.01
554.337	0.03
554.531	0.03
554.724	0.01
554.918	-0
555.111	0.04
555.305	0
555.498	0.06
555.692	0.03
555.885	-0.01
556.079	0.03
556.272	-0.01
556.466	0.01
556.659	0.02
556.852	0
557.046	0.01
557.239	0.02
557.432	-0.01
557.626	-0
557.819	0.03
558.012	0.06
558.206	0.02
558.399	0
558.592	0.01
558.785	0.01
558.979	0.02
559.172	-0
559.365	0.03
559.558	0.01
559.751	-0.01
559.944	0.03
560.138	0
560.331	0.02
560.524	0.01
560.717	0.01
560.91	0.04
561.103	0.03
561.296	0.01
561.489	0.02
561.682	0.01
561.875	0.05
562.068	0.05
562.261	0.04
562.454	0.05
562.647	0.02
562.84	0.04
563.032	0
563.225	0.01
563.418	-0
563.611	0.02
563.804	0.01
563.997	-0.01
564.19	-0.01
564.382	-0.02
564.575	0.02
564.768	0.02
564.961	-0
565.153	-0
565.346	0.04
565.539	0.04
565.731	0.03
565.924	0.03
566.117	0.02
566.309	0.02
566.502	0
566.695	0.01
566.887	0.03
567.08	0.01
567.272	0.02
567.465	-0
567.657	0.01
567.85	0.01
568.042	0.04
568.235	0.05
568.427	0.04
568.62	0.03
568.812	0.03
569.005	0.02
569.197	-0.01
569.389	0.04
569.582	0.03
569.774	0.02
569.966	-0.02
570.159	-0.03
570.351	0.02
570.543	-0.01
570.736	0.02
570.928	0
571.12	0.05
571.312	0.01
571.505	0
571.697	0.07
571.889	0
572.081	0.03
572.273	0.01
572.465	0.08
572.658	0.02
572.85	0.05
573.042	0.01
573.234	0.03
573.426	0.07
573.618	0.02
573.81	0.04
574.002	0.06
574.194	0.07
574.386	0.01
574.578	-0.01
574.77	-0.02
574.962	0.02
575.154	-0.01
575.346	0.04
575.538	0.03
575.729	0.02
575.921	0.03
576.113	0.02
576.305	0.04
576.497	0.05
576.689	0.03
576.88	0.03
577.072	0.06
577.264	0.04
577.456	0.05
577.647	-0.03
577.839	0.05
578.031	0.07
578.223	0.03
578.414	0.03
578.606	0.07
578.798	0.05
578.989	0.03
579.181	0.06
579.372	0.04
579.564	0.06
579.755	0.05
579.947	0.08
580.139	0.09
580.33	-0.01
580.522	0.04
580.713	-0.02
580.905	0.07
581.096	0.06
581.287	0.06
581.479	0.07
581.67	0.09
581.862	0.06
582.053	0.06
582.244	0.04
582.436	0.08
582.627	0.08
582.818	0.09
583.01	0.05
583.201	0.13
583.392	0.12
583.583	0.1
583.775	0.09
583.966	0.08
584.157	0.08
584.348	0.09
584.54	0.05
584.731	0.12
584.922	0.1
585.113	0.12
585.304	0.11
585.495	0.16
585.686	0.15
585.877	0.14
586.068	0.13
586.259	0.11
586.45	0.13
586.641	0.11
586.832	0.07
587.023	0.13
587.214	0.12
587.405	0.12
587.596	0.12
587.787	0.18
587.978	0.15
588.169	0.12
588.36	0.14
588.551	0.17
588.742	0.15
588.932	0.16
589.123	0.15
589.314	0.2
589.505	0.17
589.696	0.17
589.886	0.15
590.077	0.17
590.268	0.2
590.458	0.16
590.649	0.16
590.84	0.19
591.03	0.18
591.221	0.17
591.412	0.19
591.602	0.23
591.793	0.24
591.984	0.2
592.174	0.22
592.365	0.3
592.555	0.2
592.746	0.23
592.936	0.27
593.127	0.27
593.317	0.29
593.508	0.24
593.698	0.24
593.889	0.29
594.079	0.29
594.269	0.25
594.46	0.29
594.65	0.27
594.84	0.31
595.031	0.27
595.221	0.31
595.411	0.27
595.602	0.34
595.792	0.33
595.982	0.32
596.172	0.39
596.363	0.32
596.553	0.36
596.743	0.36
596.933	0.37
597.123	0.4
597.314	0.34
597.504	0.37
597.694	0.4
597.884	0.41
598.074	0.41
598.264	0.42
598.454	0.42
598.644	0.42
598.834	0.46
599.024	0.43
599.214	0.44
599.404	0.54
599.594	0.47
599.784	0.44
599.974	0.53
600.164	0.5
600.354	0.5
600.544	0.46
600.734	0.52
600.924	0.57
601.114	0.55
601.303	0.56
601.493	0.54
601.683	0.55
601.873	0.6
602.063	0.54
602.252	0.65
602.442	0.54
602.632	0.58
602.821	0.6
603.011	0.68
603.201	0.64
603.39	0.65
603.58	0.66
603.77	0.69
603.959	0.72
604.149	0.72
604.339	0.71
604.528	0.75
604.718	0.78
604.907	0.74
605.097	0.77
605.286	0.76
605.476	0.8
605.665	0.84
605.855	0.81
606.044	0.9
606.234	0.86
606.423	0.87
606.612	0.85
606.802	0.89
606.991	0.93
607.181	0.95
607.37	0.9
607.559	0.9
607.749	0.91
607.938	0.95
608.127	0.96
608.316	1
608.506	1
608.695	1.04
608.884	1.05
609.073	1.06
609.263	1.15
609.452	1.13
609.641	1.14
609.83	1.11
610.019	1.15
610.208	1.12
610.397	1.23
610.586	1.23
610.775	1.19
610.965	1.23
611.154	1.22
611.343	1.26
611.532	1.28
611.721	1.32
611.91	1.32
612.099	1.37
612.287	1.32
612.476	1.3
612.665	1.4
612.854	1.4
613.043	1.44
613.232	1.45
613.421	1.44
613.61	1.52
613.798	1.53
613.987	1.64
614.176	1.61
614.365	1.6
614.554	1.69
614.742	1.67
614.931	1.61
615.12	1.73
615.309	1.73
615.497	1.81
615.686	1.75
615.875	1.81
616.063	1.85
616.252	1.8
616.44	1.89
616.629	1.9
616.818	1.95
617.006	2.01
617.195	1.99
617.383	2.04
617.572	2.06
617.76	2.1
617.949	2.14
618.137	2.22
618.326	2.25
618.514	2.17
618.703	2.25
618.891	2.32
619.079	2.29
619.268	2.41
619.456	2.36
619.644	2.47
619.833	2.46
620.021	2.51
620.209	2.47
620.398	2.61
620.586	2.63
620.774	2.78
620.962	2.73
621.151	2.85
621.339	2.83
621.527	2.84
621.715	2.87
621.903	2.92
622.092	2.93
622.28	3.11
622.468	3.01
622.656	3.15
622.844	3.2
623.032	3.23
623.22	3.17
623.408	3.4
623.596	3.34
623.784	3.43
623.972	3.43
624.16	3.48
624.348	3.6
624.536	3.7
624.724	3.64
624.912	3.69
625.1	3.74
625.288	3.85
625.476	3.76
625.664	3.95
625.851	3.91
626.039	3.99
626.227	3.94
626.415	4.01
626.603	4.01
626.79	4.15
626.978	4.18
627.166	4.18
627.354	4.22
627.541	4.23
627.729	4.21
627.917	4.41
628.104	4.37
628.292	4.31
628.48	4.47
628.667	4.49
628.855	4.56
629.042	4.56
629.23	4.57
629.418	4.52
629.605	4.56
629.793	4.51
629.98	4.63
630.168	4.62
630.355	4.68
630.543	4.62
630.73	4.58
630.917	4.6
631.105	4.77
631.292	4.6
631.48	4.65
631.667	4.73
631.854	4.63
632.042	4.57
632.229	4.59
632.416	4.6
632.604	4.53
632.791	4.44
632.978	4.45
633.165	4.41
633.353	4.51
633.54	4.5
633.727	4.33
633.914	4.28
634.101	4.27
634.289	4.32
634.476	4.13
634.663	4.12
634.85	4.06
635.037	3.98
635.224	3.89
635.411	3.93
635.598	3.81
635.785	3.74
635.972	3.69
636.159	3.58
636.346	3.52
636.533	3.42
636.72	3.41
636.907	3.3
637.094	3.21
637.281	3.07
637.468	3.09
637.655	2.98
637.842	2.89
638.029	2.79
638.215	2.73
638.402	2.75
638.589	2.54
638.776	2.55
638.963	2.48
639.149	2.42
639.336	2.37
639.523	2.24
639.709	2.19
639.896	2.12
640.083	2.06
640.27	2.01
640.456	1.93
640.643	1.84
640.829	1.73
641.016	1.76
641.203	1.61
641.389	1.65
641.576	1.58
641.762	1.53
641.949	1.46
642.135	1.45
642.322	1.42
642.508	1.25
642.695	1.26
642.881	1.28
643.068	1.21
643.254	1.18
643.441	1.2
643.627	1.09
643.813	1.04
644	1.05
644.186	0.97
644.372	0.96
644.559	0.98
644.745	0.89
644.931	0.85
645.118	0.84
645.304	0.81
645.49	0.75
645.676	0.73
645.862	0.75
646.049	0.74
646.235	0.71
646.421	0.76
646.607	0.68
646.793	0.56
646.979	0.62
647.165	0.62
647.352	0.61
647.538	0.59
647.724	0.52
647.91	0.53
648.096	0.55
648.282	0.49
648.468	0.46
648.654	0.47
648.84	0.43
649.026	0.45
649.212	0.43
649.397	0.38
649.583	0.35
649.769	0.39
649.955	0.39
650.141	0.41
650.327	0.39
650.513	0.31
650.698	0.37
650.884	0.24
651.07	0.33
651.256	0.3
651.442	0.26
651.627	0.25
651.813	0.32
651.999	0.3
652.184	0.28
652.37	0.22
652.556	0.23
652.741	0.3
652.927	0.16
653.113	0.21
653.298	0.21
653.484	0.22
653.669	0.14
653.855	0.21
654.04	0.21
654.226	0.21
654.412	0.16
654.597	0.14
654.782	0.17
654.968	0.22
655.153	0.16
655.339	0.14
655.524	0.1
655.71	0.17
655.895	0.13
656.08	0.13
656.266	0.2
656.451	0.13
656.636	0.11
656.822	0.14
657.007	0.1
657.192	0.1
657.378	0.07
657.563	0.12
657.748	0.12
657.933	0.13
658.118	0.09
658.304	0.1
658.489	0.14
658.674	0.13
658.859	0.07
659.044	0.09
659.229	0.11
659.414	0.08
659.599	0.13
659.785	0.05
659.97	0.08
660.155	0.1
660.34	0.09
660.525	0.1
660.71	0.06
660.895	0.1
661.08	0.08
661.264	0.05
661.449	0.11
661.634	0.12
661.819	0.12
662.004	0.1
662.189	-0
662.374	0.02
662.559	0.02
662.743	-0.01
662.928	0.05
663.113	0.06
663.298	0.01
663.483	0.06
663.667	0.08
663.852	0.03
664.037	0.11
664.221	0.04
664.406	0.11
664.591	0.05
664.775	0.1
664.96	0
665.145	0.04
665.329	0.08
665.514	0.04
665.698	0.03
665.883	-0.01
666.068	0.14
666.252	0.05
666.437	0.01
666.621	0.07
666.806	0.04
666.99	0.03
667.174	-0
667.359	0.12
667.543	0.02
667.728	0.05
667.912	-0.01
668.096	0.05
668.281	0.03
668.465	0.04
668.649	0.06
668.834	0
669.018	0.05
669.202	0.01
669.387	-0
669.571	0.1
669.755	-0.04
669.939	0.05
670.124	0.01
670.308	0.1
670.492	0.06
670.676	0.03
670.86	0.03
671.044	-0.04
671.228	0.04
671.413	0.03
671.597	0.01
671.781	0.01
671.965	0.09
672.149	0.03
672.333	0.01
672.517	0.02
672.701	0.04
672.885	0.02
673.069	-0.06
673.253	0.08
673.437	0.02
673.621	-0.04
673.804	0.01
673.988	0.03
674.172	0.03
674.356	0.03
674.54	0.04
674.724	0.14
674.908	0.03
675.091	0.02
675.275	-0.02
675.459	0.08
675.643	0.08
675.826	0.03
676.01	0
676.194	0.01
676.377	0.03
676.561	0.05
676.745	0.05
676.928	0.04
677.112	0.09
677.296	0.01
677.479	0.03
677.663	-0.03
677.846	0.04
678.03	-0.01
678.213	0.01
678.397	0.03
678.58	-0.02
678.764	0.03
678.947	-0.01
679.131	-0.03
679.314	0.05
679.498	-0.01
679.681	0.07
679.865	0.04
680.048	-0
680.231	0.01
680.415	0.04
680.598	-0.01
680.781	-0.02
680.965	-0.02
681.148	0.03
681.331	-0
681.514	0.05
681.698	-0.01
681.881	0.05
682.064	0.02
682.247	0.03
682.43	-0.06
682.614	0.03
682.797	0.05
682.98	0.06
683.163	-0.05
683.346	0.02
683.529	0.03
683.712	-0.02
683.895	0.07
684.078	-0.06
684.261	0.02
684.444	0.02
684.627	0.05
684.81	0.01
684.993	0.01
685.176	0.07
685.359	-0.02
685.542	-0.04
685.725	0.08
685.908	0
686.091	0.01
686.274	0.05
686.457	0.07
686.639	0.03
686.822	0.06
687.005	0.1
687.188	0.06
687.371	0.08
687.553	0.02
687.736	0.05
687.919	0.08
688.102	0.1
688.284	0.02
688.467	0.02
688.65	-0.03
688.832	0.01
689.015	-0.02
689.197	-0.03
689.38	0.13
689.563	0.15
689.745	-0.04
689.928	-0.02
690.11	0.03
690.293	0.06
690.475	-0.07
690.658	0.05
690.84	0.06
691.023	0.02
691.205	0.02
691.388	0
691.57	0.04
691.752	0.05
691.935	-0.08
692.117	-0
692.3	-0.01
692.482	-0
692.664	0
692.847	0.02
693.029	0.08
693.211	0.01
693.393	0.01
693.576	-0.02
693.758	0.06
693.94	0.01
694.122	-0.04
694.304	0.05
694.487	-0.01
694.669	0.07
694.851	-0.03
695.033	0.04
695.215	-0.02
695.397	-0.04
695.579	0.03
695.761	-0.04
695.943	-0.08
696.125	0.08
696.308	0.03
696.49	-0.08
696.671	0.11
696.853	-0.03
697.035	0.13
697.217	0
697.399	0.08
697.581	-0.03
697.763	0.02
697.945	-0.07
698.127	-0
698.309	0.08
698.491	0.01
698.672	-0
698.854	0.08
699.036	0.11
699.218	-0.04
699.399	0.09
699.581	0.03
699.763	0.03
699.945	-0.02
700.126	-0.03
700.308	-0.01
700.49	0.05
700.671	-0.08
700.853	-0.03
701.035	-0.02
701.216	0.05
701.398	0.03
701.579	-0.01
701.761	0.07
701.943	-0.03
702.124	-0.02
702.306	0.03
702.487	0.16
702.669	0.03
702.85	-0
703.031	-0.1
703.213	0.08
703.394	0.09
703.576	-0.02
703.757	0.07
703.938	0.06
704.12	0.17
704.301	-0.03
704.483	-0.03
704.664	-0
704.845	0.1
705.026	0.07
705.208	0.03
705.389	0.02
705.57	0.01
705.751	0.01
705.933	0.01
706.114	0.08
706.295	0.05
706.476	-0.06
706.657	0.06
706.838	0.04
707.02	0.12
707.201	-0.04
707.382	-0.05
707.563	0.07
707.744	-0
707.925	-0.09
708.106	-0.02
708.287	0.06
708.468	0.15
708.649	0.03
708.83	0.04
709.011	0.04
709.192	0.07
709.373	-0.02
709.554	0.01
709.734	0.07
709.915	0.05
710.096	0.01
710.277	-0.11
710.458	-0
710.639	0.03
710.819	-0.09
711	-0
711.181	0.04
711.362	0.07
711.542	0.07
711.723	0.03
711.904	0
712.085	0.05
712.265	0.07
712.446	-0.06
712.627	-0.02
712.807	0.03
712.988	-0.09
713.168	-0.09
713.349	0.04
713.53	-0.11
713.71	-0.07
713.891	-0.09
714.071	0.05
714.252	0.01
714.432	0
714.613	-0.11
714.793	0.05
714.974	0.11
715.154	0.01
715.334	0.05
715.515	0.11
715.695	0.01
715.876	0.08
716.056	-0.05
716.236	-0.03
716.417	-0.01
716.597	0.02
716.777	0.12
716.957	-0.01
717.138	0.05
717.318	0.04
717.498	-0.1
717.678	0.05
717.859	0.06
718.039	-0.12
718.219	0.02
718.399	0.04
718.579	-0.07
718.759	-0.06
718.939	0.02
719.12	-0.01
719.3	-0
719.48	-0.06
719.66	-0.08
719.84	0.09
720.02	-0.06
720.2	-0.06
720.38	0.01
720.56	0.1
720.74	-0.02
720.92	0.06
721.1	0.13
721.279	0.11
721.459	0.06
721.639	-0.09
721.819	0.07
721.999	0
722.179	0.03
722.359	-0.05
722.538	0.04
722.718	-0.05
722.898	-0.02
723.078	-0.01
723.257	-0.04
723.437	0.02
723.617	-0
723.797	-0
723.976	0.03
724.156	0.07
724.336	0.11
724.515	0.16
724.695	-0.12
724.874	-0.05
725.054	0.04
725.234	-0.06
725.413	-0.01
725.593	0.06
725.772	-0.05
725.952	-0.1
726.131	-0.02
726.311	0.02
726.49	0.04
726.67	-0.08
726.849	-0.07
727.028	0.1
727.208	-0
727.387	0.03
727.567	-0.1
727.746	0.03
727.925	-0.07
728.105	-0.11
728.284	0.04
728.463	0.03
728.643	0.03
728.822	-0.04
729.001	-0.03
729.18	-0.1
729.359	0.05
729.539	-0
729.718	-0.05
729.897	0.08
730.076	-0.01
730.255	-0.08
730.434	0
730.614	0.05
730.793	0.08
730.972	-0
731.151	0.09
731.33	0.08
731.509	0.06
731.688	0.04
731.867	0.03
732.046	-0.07
732.225	0.13
732.404	0.07
732.583	-0.07
732.762	-0
732.941	0.06
733.12	-0.02
733.298	0.02
733.477	0.06
733.656	0.02
733.835	-0.05
734.014	0.11
734.193	-0.06
734.371	0.07
734.55	-0
734.729	-0.02
734.908	0.06
735.086	0.06
735.265	0.15
735.444	-0.13
735.623	-0.11
735.801	-0.15
735.98	-0.01
736.159	0.06
736.337	0.04
736.516	0.01
736.694	0.02
736.873	-0.12
737.052	0.11
737.23	0.18
737.409	-0.01
737.587	0.14
737.766	-0.18
737.944	0.01
738.123	0.07
738.301	0.16
738.479	-0.07
738.658	0
738.836	-0.15
739.015	0.09
739.193	0.01
739.371	-0.1
739.55	-0
739.728	-0.02
739.906	0.12
740.085	0.24
740.263	-0.09
740.441	-0.15
740.62	0.18
740.798	0.06
740.976	-0.17
741.154	0.04
741.332	0.18
741.511	0.03
741.689	0.05
741.867	0.06
742.045	0.06
742.223	-0.04
742.401	-0.1
742.579	-0.09
742.757	0.02
742.935	-0.01
743.114	-0.03
743.292	-0.04
743.47	0.04
743.648	0.12
743.826	-0.18
744.004	0.04
744.181	0.08
744.359	0.04
744.537	0.09
744.715	0.08
744.893	0.01
745.071	-0.01
745.249	-0.04
745.427	0.1
745.605	0.09
745.782	0.02
745.96	0.09
746.138	0.07
746.316	0.02
746.493	-0.13
746.671	0.04
746.849	0.02
747.027	0.19
747.204	-0.09
747.382	0.01
747.56	-0.12
747.737	0.04
747.915	-0.02
748.093	0.13
748.27	0.02
748.448	-0.01
748.625	-0.15
748.803	-0.03
748.98	-0.03
749.158	-0.02
749.335	0.12
749.513	0.05
749.69	0.02
749.868	0.02
750.045	0.07
750.223	0.02
750.4	-0.09
750.578	0.22
750.755	-0.05
750.932	-0.12
751.11	0.15
751.287	-0.14
751.464	0.12
751.642	-0.02
751.819	0.09
751.996	0.03
752.173	0.02
752.351	-0.01
752.528	0.01
752.705	-0
752.882	-0.06
753.06	0.09
753.237	0.1
753.414	0.16
753.591	0.08
753.768	0.03
753.945	-0.02
754.122	-0.13
754.299	0.01
754.476	0.03
754.654	0.07
754.831	0.06
755.008	0.02
755.185	-0.11
755.362	-0.08
755.539	-0.01
755.716	-0.09
755.892	-0.01
756.069	-0.08
756.246	0.05
756.423	-0.08
756.6	0.2
756.777	-0.01
756.954	0.09
757.131	-0.05
757.307	-0.08
757.484	-0.03
757.661	-0.03
757.838	-0.01
758.015	-0.11
758.191	0.07
758.368	-0.04
758.545	0.19
758.721	0.08
758.898	-0.15
759.075	0.01
759.251	0.15
759.428	0.08
759.605	-0.23
759.781	-0.14
759.958	0.09
760.134	0.03
760.311	-0.02
760.488	0.08
760.664	0.09
760.841	0.08
761.017	-0.13
761.194	0.04
761.37	0.05
761.547	0.18
761.723	0.01
761.899	0.16
762.076	-0.11
762.252	-0.02
762.429	-0.03
762.605	0.22
762.781	0.08
762.958	0.03
763.134	-0.06
763.31	0.01
763.486	0.09
763.663	-0.1
763.839	0.08
764.015	-0.16
764.191	-0.09
764.368	0.02
764.544	0.01
764.72	0.06
764.896	0.09
765.072	0.15
765.248	-0.02
765.425	-0.11
765.601	0.02
765.777	0.02
765.953	-0.12
766.129	-0.11
766.305	-0.03
766.481	0.08
766.657	0.07
766.833	0.1
767.009	0.02
767.185	-0.09
767.361	0.03
767.537	-0.16
767.713	0.05
767.889	-0.1
768.065	0.04
768.24	0.13
768.416	0.09
768.592	-0.09
768.768	0.01
768.944	0.09
769.12	-0.07
769.295	-0.04
769.471	-0.09
769.647	-0.01
769.823	0.21
769.998	0.01
770.174	-0.07
770.35	0.31
770.525	0.36
770.701	0.04
770.877	0
771.052	-0.17
771.228	0.21
771.403	0.07
771.579	0.12
771.755	0.24
771.93	-0.09
772.106	-0.16
772.281	-0.08
772.457	0.05
772.632	0.06
772.808	-0.08
772.983	-0.06
773.159	-0.09
773.334	0.18
773.509	-0.14
773.685	-0.05
773.86	0.3
774.036	0.27
774.211	-0.08
774.386	-0.18
774.562	-0.02
774.737	0.08
774.912	-0.08
775.087	0.22
775.263	0
775.438	0.09
775.613	-0.01
775.788	-0.05
775.964	0.07
776.139	0.41
776.314	-0.14
776.489	0.13
776.664	0.09
776.839	-0.17
777.014	0.22
777.19	0.14
777.365	0.21
777.54	0.23
777.715	-0.01
777.89	-0.01
778.065	-0.15
778.24	0.09
778.415	0.19
778.59	-0.24
778.765	0.07
778.94	0.19
779.115	-0.09
779.289	-0.18
779.464	0.03
779.639	-0.11
779.814	-0.2
779.989	-0.22
780.164	0.18
780.339	0.08
780.513	-0.09
780.688	-0.18
780.863	-0.03
781.038	0.06
781.212	-0.21
781.387	0.09
781.562	0.12
781.737	0.03
781.911	0.12
782.086	-0.08
782.261	0.09
782.435	0.23
782.61	0.07
782.784	-0.31
782.959	0.24
783.134	-0.08
783.308	-0.25
783.483	0.03
783.657	0.36
783.832	0.06
784.006	-0.23
784.181	0.03
784.355	0.24
784.53	-0.14
784.704	-0.2
784.878	0.36
785.053	0.1
785.227	0.38
785.402	0.46
785.576	-0.16
785.75	-0.05
785.925	-0.18
786.099	0.09
786.273	0.05
786.448	0.3
786.622	0.25
786.796	0.07
786.97	-0.06
787.145	0.34
787.319	-0.55
787.493	-0.31
787.667	-0.39
787.841	0
788.015	0.14
788.19	-0.1
788.364	-0.07
788.538	0.3
788.712	0.32
788.886	0.15
789.06	0.14
789.234	0.12
789.408	-0.06
789.582	0
789.756	-0.02
789.93	0.01
790.104	-0.02
790.278	-0.1
790.452	0.08
790.626	0.28
790.8	-0.01
790.973	0.3
791.147	0.07
791.321	0.29
791.495	0.06
791.669	0.04
791.843	0.23
792.016	0.01
792.19	0.43
792.364	-0.07
792.538	0.37
792.711	0.12
792.885	-0.16
793.059	-0.03
793.233	-0.35
793.406	0.48
793.58	-0.05
793.754	0.3
793.927	0.02
794.101	0.32
794.274	-0.01
794.448	0.14
794.622	0.06
794.795	0.37
794.969	-0.12
795.142	0.31
795.316	-0.3
795.489	-0.08
795.663	0.42
795.836	-0.04
796.009	-0.35
796.183	0.45
796.356	0.04
796.53	0.14
796.703	0.04
796.876	0.74
797.05	-0.04
797.223	-0.18
797.396	0.12
797.57	0.08
797.743	0.36
797.916	0.04
798.09	-0.02
798.263	0.18
798.436	-0.09
798.609	-0.2
798.782	0.08
798.956	0.11
799.129	-0.15
799.302	0.02
799.475	-0.25
799.648	-0.24
799.821	0.02
799.994	-0.05
800.167	-0.24
800.34	-0.15
800.514	0.05
800.687	-0.11
800.86	-0.31
801.033	-0.07
801.206	0.17
801.379	0.04
801.551	0.53
801.724	0.12
801.897	0.31
802.07	-0.15
802.243	-0.45
802.416	-0.18
802.589	-0.29
802.762	0.2
802.935	0.07
803.107	-0.1
803.28	0.35
803.453	0.49
803.626	-0.02
803.798	0.03
803.971	-0.12
804.144	0.16
804.317	0.13
804.489	0.3
804.662	0.15
804.835	0.09
805.007	-0.21
805.18	0.89
805.353	0.24
805.525	-0.36
805.698	0.2
805.87	0.04
806.043	0.1
806.215	-0.26
806.388	-0.35
806.56	-0.06
806.733	0.21
806.905	0.19
807.078	-0.09
807.25	0.22
807.423	0.23
807.595	0.16
807.768	0.33
807.94	0.27
808.112	0.35
808.285	0.03
808.457	-0.23
808.629	0.29
808.802	0.26
808.974	0.36
809.146	-0.31
809.318	-0.45
809.491	-0
809.663	0.2
809.835	-0.17
810.007	0.32
810.18	0.22
810.352	-0.35
810.524	0.02
810.696	-0.01
810.868	0.55
811.04	-0.16
811.212	0.11
811.384	0.37
811.556	-0.01
811.728	-0.12
811.901	0.52
812.073	0.08
812.245	0.48
812.417	0.24
812.589	-0.6
812.76	-0.22
812.932	0.22
813.104	0.25
813.276	-0.29
813.448	0.52
813.62	-0.15
813.792	0.29
813.964	0.07
814.136	0.16
814.307	0.01
814.479	-0.04
814.651	0.03
814.823	0.23
814.995	-0.1
815.166	0.28
815.338	-0.06
815.51	-0.6
815.681	0.67
815.853	-0.22
816.025	0.14
816.196	0.59
816.368	0.52
816.54	-0.56
816.711	0.16
816.883	0.73
817.054	0.79
817.226	-0.63
817.398	0.05
817.569	0.07
817.741	0.04
817.912	0.23
818.084	0.27
818.255	0.4
818.426	-0
818.598	0.29
818.769	-0.45
818.941	0.35
819.112	1.06
819.283	0.29
819.455	-0.38
819.626	-0.15
819.798	0.21
819.969	0.24
820.14	-0.04
820.311	-0.24
820.483	0.28
820.654	0.36
820.825	-0.08
820.996	-0.25
821.168	-0.39
821.339	0.15
821.51	-0.38
821.681	-0.12
821.852	0.31
822.023	-0.22
822.195	-0.55
822.366	0.3
822.537	0.39
822.708	-0.07
822.879	-0.42
823.05	0.36
823.221	-0.1
823.392	0.43
823.563	0.6
823.734	-0.08
823.905	-0.03
824.076	0.06
824.247	-0.16
824.418	0.32
824.589	0.88
824.759	-0.19
824.93	-0.07
825.101	-0.1
825.272	0.56
825.443	0.66
825.614	0.16
825.784	-0.59
825.955	0.91
826.126	0.33
826.297	0.6
826.467	0.84
826.638	0.61
826.809	-0.76
826.98	0.64
827.15	0.22
827.321	0.38
827.492	0.97
827.662	0.22
827.833	0.73
828.003	0.79
828.174	-0.17
828.345	-0.21
828.515	1.04
828.686	0.17
828.856	-0.01
829.027	-0.28
829.197	0.73
829.368	0.34
829.538	-0.17
829.709	-0.55
829.879	0.14
830.049	-0.22
830.22	-0.23
830.39	0.34
830.56	0.53
830.731	-0.29
830.901	-0.15
831.072	-0.08
831.242	-0.02
831.412	-0.05
831.582	0.79
831.753	-0.97
831.923	0.15
832.093	0.18
832.263	-0.13
832.434	-0.6
832.604	-0.56
832.774	0.1
832.944	-0.13
833.114	-0.2
833.284	0.44
833.454	-0.53
833.624	0.22
833.795	-0.17
833.965	0.67
834.135	0.96
834.305	-0.34
834.475	-0.2
834.645	0.12
834.815	-0.9
834.985	-0.63
835.155	-0.2
835.325	0.09
835.494	0.23
835.664	0.02
835.834	-0.11
836.004	-0.1
836.174	0.99
836.344	-0.35
836.514	-0.25
836.684	-0.55
836.853	0.69
837.023	0.56
837.193	-0.35
837.363	0.72
837.532	0.26
837.702	0.04
837.872	-0.32
838.041	1.08
838.211	1.12
838.381	-1
838.55	0.14
838.72	1.59
838.89	0.65
839.059	-0.46
839.229	-0.37
839.398	1.46
839.568	0.41
839.738	-0.51
839.907	0.65
840.077	0.41
840.246	-0.02
840.416	-0.83
840.585	-0.57
840.755	0.23
840.924	0.83
841.093	-0.48
841.263	-0.5
841.432	0.36
841.602	-0.6
841.771	-0.61
841.94	-0.15
842.11	1.7
842.279	1.76
842.448	-0.13
842.617	-0.45
842.787	1
842.956	-0.98
843.125	0.08
843.294	0.44
843.464	0.22
843.633	-0.3
843.802	-0.62
843.971	-0.23
844.14	0.84
844.309	0.6
844.479	-1.07
844.648	-0.22
844.817	-1.03
844.986	0.03
845.155	-0.23
845.324	0.29
845.493	0.62
845.662	-0.16
845.831	0.47
846	0.42
846.169	0.56
846.338	0.57
846.507	-0.06
846.676	0.58
846.844	0.09
847.013	1.27
847.182	-0.69
847.351	0.24
847.52	0.03
847.689	0.06
847.858	-0.35
848.026	-0.32
848.195	-0.08
848.364	0.52
848.533	-0.09
848.701	-0.43
848.87	0.59
849.039	0.02
849.207	0.19
849.376	0.6
849.545	2.05
849.713	0.24
849.882	0.35
850.051	0.09
850.219	-0.33
850.388	0.98
850.556	-0.26
850.725	0.09
850.893	0.41
851.062	0.16
851.23	1.4
851.399	-1.38
851.567	-0.55
851.736	0.23
851.904	-1.21
852.073	-0.24
852.241	0.73
852.41	0.16
852.578	-0.08
852.746	0.04
852.915	0.41
853.083	-0.11
853.251	-1.02
853.42	0.33
853.588	0.23
853.756	0.58
853.924	-0.13
854.093	0.19
854.261	-0.49
854.429	-0.73
854.597	0.76
854.765	-0.73
854.934	0.22
855.102	0.86
855.27	0.15
855.438	0.48
855.606	1.92
855.774	1.51
855.942	-1.33
856.11	-1.37
856.278	0.33
856.446	0.16
856.614	0.26
856.782	0.15
856.95	1.19
857.118	1.15
857.286	0.97
857.454	-0.21
857.622	1.5
857.79	1.38
857.958	0.03
858.126	0.6
858.294	-2.65
858.462	-0.09
858.629	-0.01
858.797	-0.82
858.965	0.58
859.133	0.47
859.301	0.27
859.468	-0.41
859.636	0.2
859.804	1.46
859.971	-0.23
860.139	-1.1
860.307	1.17
860.474	0.51
860.642	-0.24
860.81	-1.15
860.977	0.74
861.145	0.38
861.313	-0.44
861.48	-0.18
861.648	0.82
861.815	-0.27
861.983	-0.88
862.15	0.1
862.318	0.09
862.485	0.35
862.653	-1.33
862.82	-1.19
862.988	1.43
863.155	0.95
863.322	-0.57
863.49	-0.34
863.657	-0.17
863.824	1.67
863.992	0.27
864.159	0.22
864.326	1.52
864.494	-0.11
864.661	3.6
864.828	-1.1
864.996	0.49
865.163	1.84
865.33	0.08
865.497	-1.93
865.664	1.09
865.832	-1.03
865.999	-0.66
866.166	0.1
866.333	-0.63
866.5	-0.12
866.667	0.42
866.834	0.1
867.001	1.74
867.168	-2.27
867.335	1.98
867.502	-0.31
867.669	1.12
867.836	1.43
868.003	1.34
868.17	0.13
868.337	0.3
868.504	1.77
868.671	-1.03
868.838	-0.23
869.005	-1.05
869.172	0.48
869.339	-0.41
869.505	-0.13
869.672	-0.18
869.839	1.54
870.006	0.66
870.173	-1.71
870.339	-0.04
870.506	3.09
870.673	-1.62
870.84	2.54
871.006	-0
871.173	-0.24
871.34	0.4
871.506	-0.71
871.673	0.14
871.839	-2.06
872.006	0.42
872.173	-2.18
872.339	1.68
872.506	1.42
872.672	0.68
872.839	-1.84
873.005	0.5
873.172	2.81
873.338	1.05
873.505	0.92
873.671	-1.3
873.838	2.67
874.004	-0.87
874.171	1.45
874.337	-0.06
874.503	0.79
874.67	0.19
874.836	0.13
875.002	2.09
875.169	1.33
875.335	2.66
875.501	1.01
875.668	1.7
875.834	1.02
876	-1.2
876.166	1.48
876.332	1.61
876.499	3.12
876.665	-2.05
876.831	1.58
876.997	3.36
877.163	2.16
877.329	0.31
877.495	1.31
877.662	1.52
877.828	1.44
877.994	-0.78
878.16	-2.67
878.326	0.16
878.492	-0.56
878.658	-0.93
878.824	1.43
878.99	1.19
879.156	-1.87
879.322	2.33
879.487	-0.42
879.653	-0
879.819	-0.06
879.985	-0.8
880.151	1.28
880.317	0.99
880.483	1.49
880.648	0.85
880.814	-3.1
880.98	0.95
881.146	-2.43
881.312	1.16
881.477	-0.17
881.643	0.31
881.809	2.41
881.974	4.75
882.14	-2.88
882.306	-0.14
882.471	3.86
882.637	-0.32
882.803	1.21
882.968	2.93
883.134	2.74
883.299	0.01
883.465	-0.47
883.63	1.56
883.796	2.38
883.961	2.39
884.127	0.96
884.292	-3.31
884.458	-1.19
884.623	-1.18
