Data from Apollo_Calib_20240827__AbsoluteIrradiance__309__04-18-00-859.txt Node

Date: Wed Aug 28 04:18:00 BST 2024
User: biology
Spectrometer: FLMT08252
Trigger mode: 0
Integration Time (sec): 5.000000E-1
Scans to average: 5
Electric dark correction enabled: true
Nonlinearity correction enabled: false
Boxcar width: 0
XAxis mode: Wavelengths
Number of Pixels in Spectrum: 3648
>>>>>Begin Spectral Data<<<<<
179.588	-0
179.809	-0
180.03	-0
180.251	-0
180.473	-0
180.694	0
180.915	0
181.136	-0
181.357	0
181.578	-0
181.799	-0
182.02	-0
182.241	-0
182.462	0
182.683	0
182.904	-0
183.125	0
183.346	0
183.567	-0
183.788	-0
184.009	-0
184.23	-0
184.451	0
184.672	-0
184.892	-0
185.113	-0
185.334	0
185.555	-0
185.776	-0
185.996	0
186.217	0
186.438	-0
186.659	-0
186.879	-0
187.1	-0
187.321	-0
187.541	-0
187.762	-0
187.983	-0
188.203	-0
188.424	-0
188.644	-0
188.865	-0
189.086	-0
189.306	-0
189.527	-0
189.747	-0
189.968	-0
190.188	0
190.409	0
190.629	0
190.849	-0
191.07	-0
191.29	0
191.511	0
191.731	-0
191.951	-0
192.172	0
192.392	-0
192.612	-0
192.833	-0
193.053	-0
193.273	0
193.493	-0
193.714	-0
193.934	0
194.154	0
194.374	-0
194.594	0
194.815	-0
195.035	-0
195.255	0
195.475	-0
195.695	0
195.915	0
196.135	-0
196.355	0
196.575	0
196.795	0
197.015	-0
197.235	-0
197.455	-0
197.675	-0
197.895	-0
198.115	-0
198.335	0
198.555	-0
198.775	-0
198.995	-0
199.214	0
199.434	-0
199.654	-0
199.874	-0
200.094	0.84
200.313	-0.73
200.533	-0.16
200.753	-0.73
200.973	0.75
201.192	0.1
201.412	-1.3
201.632	-0.61
201.851	1.11
202.071	-0.32
202.291	-0.8
202.51	-0.56
202.73	-0.11
202.95	-0.5
203.169	-1.18
203.389	-0.1
203.608	0.23
203.828	-0.4
204.047	-0.38
204.267	0.14
204.486	0.11
204.706	0.01
204.925	-0.37
205.145	-0.68
205.364	0.5
205.583	0.46
205.803	-0.51
206.022	-0.59
206.242	-0.15
206.461	-0.1
206.68	-0.56
206.9	0.26
207.119	0.44
207.338	0.62
207.557	-0.29
207.777	-0.32
207.996	0.02
208.215	0.57
208.434	-0.35
208.654	-0.77
208.873	-0.11
209.092	0.36
209.311	-0.24
209.53	-0.35
209.749	-0.33
209.968	-0.44
210.187	-0.35
210.407	-0.45
210.626	-0.18
210.845	0.22
211.064	-0.18
211.283	-0.62
211.502	-0.04
211.721	-0.06
211.94	-0.17
212.159	0.25
212.377	0.09
212.596	0.3
212.815	-0.14
213.034	-0.01
213.253	0.08
213.472	0.18
213.691	-0.12
213.91	-0.48
214.128	-0.22
214.347	0.28
214.566	-0.51
214.785	-0.58
215.003	0.09
215.222	-0.06
215.441	-0.39
215.66	-0.44
215.878	-0.03
216.097	0.11
216.316	-0.27
216.534	-0.27
216.753	0.2
216.972	-0.18
217.19	-0.07
217.409	-0.36
217.627	-0.24
217.846	-0.21
218.064	-0.11
218.283	-0.26
218.501	0.48
218.72	0.15
218.938	-0.3
219.157	-0.16
219.375	0.13
219.594	0.12
219.812	-0.37
220.031	-0.24
220.249	0.43
220.467	0.28
220.686	-0.1
220.904	-0.31
221.122	-0.19
221.341	0.23
221.559	-0.07
221.777	-0.43
221.995	-0.03
222.214	0.02
222.432	-0.1
222.65	-0.07
222.868	-0.03
223.086	-0.09
223.305	0.01
223.523	-0.21
223.741	0.32
223.959	-0.1
224.177	-0.31
224.395	-0.25
224.613	-0.04
224.831	0.13
225.049	-0.2
225.267	-0.12
225.485	-0.03
225.703	-0.26
225.921	-0.21
226.139	-0.22
226.357	0.1
226.575	0.01
226.793	-0.19
227.011	0.51
227.229	0.01
227.447	0.09
227.665	-0.14
227.883	-0.31
228.1	-0.05
228.318	0.01
228.536	-0.33
228.754	-0.26
228.972	0.12
229.189	0.12
229.407	-0.19
229.625	-0.21
229.843	0.15
230.06	0.11
230.278	-0.22
230.496	-0.03
230.713	0.02
230.931	0.21
231.149	-0.18
231.366	-0.2
231.584	-0.04
231.801	0.34
232.019	-0.11
232.236	-0.19
232.454	-0.13
232.671	0.03
232.889	-0.12
233.106	-0.25
233.324	0.04
233.541	-0.14
233.759	-0.16
233.976	-0.11
234.194	-0.04
234.411	-0.06
234.628	-0.14
234.846	-0.2
235.063	-0.03
235.28	-0.11
235.498	-0.05
235.715	-0.18
235.932	0.19
236.149	-0.08
236.367	-0.15
236.584	0.07
236.801	-0.09
237.018	0.01
237.236	-0.04
237.453	-0.2
237.67	0.08
237.887	-0.13
238.104	-0.04
238.321	-0.17
238.538	-0.08
238.755	0.14
238.973	-0.17
239.19	-0.07
239.407	0.05
239.624	-0.05
239.841	-0.21
240.058	-0.22
240.275	0.04
240.492	-0.03
240.709	0.02
240.925	-0.1
241.142	-0.05
241.359	-0.22
241.576	-0.12
241.793	-0.21
242.01	-0.06
242.227	-0.04
242.444	0
242.66	-0.06
242.877	-0.07
243.094	-0.12
243.311	-0.1
243.527	-0.2
243.744	-0.05
243.961	0.02
244.178	-0.13
244.394	-0.03
244.611	0.07
244.828	0.27
245.044	-0.17
245.261	-0.11
245.477	-0
245.694	0.04
245.911	-0.09
246.127	0.05
246.344	0.22
246.56	0.06
246.777	-0.07
246.993	-0.04
247.21	0.02
247.426	0.02
247.643	-0.14
247.859	-0.04
248.076	-0.12
248.292	0.21
248.508	-0.12
248.725	-0.06
248.941	0.03
249.157	0.07
249.374	-0.11
249.59	-0.09
249.806	-0.03
250.023	0.01
250.239	-0.21
250.455	-0.16
250.671	-0
250.888	-0.08
251.104	0.04
251.32	-0.01
251.536	-0.04
251.752	-0.06
251.969	-0.05
252.185	0.05
252.401	0.15
252.617	-0.07
252.833	-0.13
253.049	-0.1
253.265	0.07
253.481	-0.01
253.697	-0.13
253.913	-0.11
254.129	0.01
254.345	0.02
254.561	-0.09
254.777	-0.13
254.993	0.02
255.209	-0.03
255.425	0
255.641	-0.08
255.857	0.05
256.073	0.01
256.288	-0.12
256.504	-0.06
256.72	0
256.936	0.12
257.152	-0.02
257.367	-0.08
257.583	-0.06
257.799	0.06
258.015	-0.07
258.23	-0.11
258.446	0.13
258.662	-0.03
258.877	-0.08
259.093	-0.09
259.309	0.01
259.524	0.01
259.74	-0.11
259.955	-0.18
260.171	-0.02
260.387	-0.04
260.602	0.07
260.818	0.01
261.033	-0.07
261.249	-0.01
261.464	-0.05
261.68	-0.14
261.895	-0
262.11	0.09
262.326	-0.05
262.541	-0.14
262.757	0.03
262.972	0.02
263.187	-0.05
263.403	-0.06
263.618	0.04
263.833	-0.07
264.049	-0.14
264.264	-0.08
264.479	0
264.694	0.09
264.91	-0.12
265.125	-0.09
265.34	0.04
265.555	0.07
265.77	-0.05
265.986	-0.09
266.201	0.03
266.416	0.07
266.631	-0.06
266.846	0
267.061	0.08
267.276	-0
267.491	-0.15
267.706	0.03
267.921	0.07
268.136	-0.03
268.351	0.01
268.566	-0.06
268.781	0.06
268.996	0
269.211	-0.04
269.426	-0.12
269.641	-0.07
269.856	0.14
270.071	-0.12
270.285	-0.12
270.5	0.06
270.715	0.06
270.93	-0.07
271.145	-0.01
271.359	-0.02
271.574	-0.04
271.789	-0.01
272.004	-0.04
272.218	-0.02
272.433	0.06
272.648	-0.06
272.862	0.02
273.077	-0
273.292	-0.04
273.506	-0.05
273.721	-0.07
273.936	0.04
274.15	0.06
274.365	-0.04
274.579	-0.02
274.794	0.01
275.008	0.04
275.223	-0.1
275.437	-0.05
275.652	0.07
275.866	0.04
276.081	-0.02
276.295	0.07
276.509	-0.06
276.724	-0.02
276.938	-0.04
277.153	0.01
277.367	0.05
277.581	-0.09
277.796	-0.05
278.01	-0.13
278.224	0.06
278.438	0.12
278.653	-0.1
278.867	-0.02
279.081	0.01
279.295	-0.03
279.51	0.02
279.724	-0.13
279.938	0.03
280.152	0.01
280.366	-0.06
280.58	0.02
280.794	0.07
281.008	0.02
281.222	0.05
281.437	0.11
281.651	-0
281.865	0.08
282.079	-0.05
282.293	-0.14
282.507	-0.07
282.721	-0.04
282.935	-0.04
283.148	-0.13
283.362	-0.04
283.576	-0.06
283.79	-0.06
284.004	-0.07
284.218	0.11
284.432	-0.04
284.646	-0.06
284.859	-0.02
285.073	-0.03
285.287	0.05
285.501	-0.01
285.714	-0.03
285.928	-0.05
286.142	0.01
286.356	-0.07
286.569	-0.06
286.783	0.06
286.997	0.01
287.21	0.03
287.424	-0.06
287.637	-0.01
287.851	-0.1
288.065	0
288.278	-0.07
288.492	-0.02
288.705	0.01
288.919	-0.04
289.132	-0.04
289.346	0.05
289.559	-0.1
289.773	-0.05
289.986	-0.01
290.2	-0.04
290.413	0.04
290.626	-0.06
290.84	-0.08
291.053	0
291.267	0.02
291.48	-0.01
291.693	-0.01
291.906	-0.03
292.12	-0.01
292.333	-0.07
292.546	-0.05
292.76	0.09
292.973	0.04
293.186	0.03
293.399	-0.02
293.612	0.04
293.826	-0
294.039	-0.04
294.252	-0.03
294.465	0.03
294.678	-0
294.891	-0.02
295.104	-0.09
295.317	-0.03
295.53	-0.05
295.743	-0.05
295.956	-0.02
296.169	0.08
296.382	0.05
296.595	-0.03
296.808	-0.07
297.021	0.04
297.234	0
297.447	-0.05
297.66	0.01
297.873	0.06
298.086	0.04
298.299	-0.04
298.511	-0.08
298.724	-0.04
298.937	-0.08
299.15	-0.06
299.363	-0.06
299.575	0.07
299.788	0.01
300.001	-0.05
300.213	-0.05
300.426	-0.04
300.639	-0.02
300.852	-0.02
301.064	0.04
301.277	0.08
301.489	0.06
301.702	0.03
301.915	-0.05
302.127	-0.01
302.34	0
302.552	-0.02
302.765	-0.05
302.977	0.02
303.19	-0.04
303.402	-0.03
303.615	-0.02
303.827	-0.05
304.04	-0.01
304.252	0.01
304.464	-0
304.677	0.13
304.889	0.08
305.102	0.01
305.314	-0.04
305.526	0.04
305.739	0
305.951	-0.02
306.163	-0.08
306.375	0.06
306.588	-0.04
306.8	-0.07
307.012	-0.02
307.224	0
307.436	0.05
307.649	-0.05
307.861	0.06
308.073	0.02
308.285	-0.04
308.497	-0.08
308.709	-0.05
308.921	0.03
309.133	0.07
309.346	-0.04
309.558	-0.02
309.77	0.05
309.982	0.06
310.194	-0.01
310.406	-0.06
310.617	0.06
310.829	-0.02
311.041	0.01
311.253	-0.08
311.465	-0.05
311.677	0.02
311.889	-0.01
312.101	-0.05
312.313	0.01
312.524	0.03
312.736	-0.06
312.948	0.01
313.16	0.06
313.372	0.02
313.583	-0.01
313.795	-0.01
314.007	-0.06
314.218	0.07
314.43	-0
314.642	-0.06
314.853	-0.08
315.065	-0.03
315.277	-0.01
315.488	-0.01
315.7	0.05
315.912	-0.02
316.123	-0.01
316.335	-0.02
316.546	0.11
316.758	-0.01
316.969	-0
317.181	0.03
317.392	-0
317.604	0.03
317.815	-0.04
318.026	-0.06
318.238	-0.04
318.449	0.03
318.661	-0.13
318.872	-0.04
319.083	-0.04
319.295	0.02
319.506	-0.03
319.717	-0
319.929	-0.02
320.14	-0
320.351	-0.01
320.562	-0.01
320.774	0.03
320.985	0.01
321.196	-0.06
321.407	-0.08
321.618	-0.02
321.829	-0.04
322.041	0.04
322.252	0.01
322.463	0.01
322.674	0.03
322.885	-0.07
323.096	-0.03
323.307	-0.03
323.518	0.03
323.729	-0.06
323.94	-0.05
324.151	-0.05
324.362	0.04
324.573	0.01
324.784	-0.05
324.995	0.03
325.206	-0.02
325.417	-0.06
325.628	-0.05
325.838	-0.05
326.049	-0.05
326.26	0.03
326.471	-0.04
326.682	0.03
326.892	-0.03
327.103	-0.08
327.314	-0.06
327.525	0.07
327.735	0.02
327.946	-0
328.157	-0.07
328.368	0.03
328.578	-0.01
328.789	0.03
328.999	-0.02
329.21	-0.02
329.421	-0
329.631	0.01
329.842	-0.06
330.052	0.03
330.263	0.03
330.473	0.04
330.684	-0.04
330.894	-0.03
331.105	-0.01
331.315	0
331.526	-0.1
331.736	0.05
331.947	-0
332.157	0
332.367	-0.04
332.578	0.04
332.788	0.09
332.999	0.03
333.209	-0.03
333.419	-0.04
333.629	0.07
333.84	0.01
334.05	0.02
334.26	0.04
334.47	0.03
334.681	0.01
334.891	-0.02
335.101	0.02
335.311	0.09
335.521	-0.03
335.732	-0.08
335.942	0.05
336.152	0.05
336.362	0.03
336.572	-0.01
336.782	0.03
336.992	-0.01
337.202	-0.05
337.412	-0.07
337.622	-0.02
337.832	-0.01
338.042	-0.01
338.252	-0.01
338.462	-0.04
338.672	-0.04
338.882	-0.03
339.092	-0.05
339.302	0.09
339.511	-0.01
339.721	-0.03
339.931	-0.07
340.141	0.05
340.351	0.05
340.561	-0.04
340.77	0
340.98	0.01
341.19	0.01
341.4	-0
341.609	-0.03
341.819	-0.05
342.029	-0.08
342.238	-0.03
342.448	-0.02
342.658	0.02
342.867	-0.02
343.077	-0.01
343.286	-0.01
343.496	-0.01
343.706	0.08
343.915	-0.04
344.125	-0.05
344.334	0
344.544	-0.07
344.753	-0.01
344.963	-0.01
345.172	-0.01
345.381	-0.08
345.591	-0.02
345.8	-0.01
346.01	0.06
346.219	0.03
346.428	-0.18
346.638	0.02
346.847	-0.06
347.056	0.02
347.266	-0.04
347.475	-0.02
347.684	-0.04
347.893	-0
348.103	0.03
348.312	-0.05
348.521	-0.01
348.73	-0
348.94	-0.02
349.149	-0.03
349.358	-0.01
349.567	-0.04
349.776	-0.08
349.985	-0.08
350.194	0.05
350.403	0.03
350.612	-0.06
350.821	-0.03
351.03	-0
351.239	-0.04
351.448	-0.04
351.657	-0.01
351.866	0.06
352.075	0.02
352.284	0.05
352.493	-0.08
352.702	-0.01
352.911	0
353.12	-0.01
353.329	-0.03
353.538	0.02
353.746	-0.01
353.955	-0.04
354.164	-0
354.373	-0.01
354.582	-0.02
354.79	0.02
354.999	0.01
355.208	0
355.416	0.05
355.625	-0.03
355.834	-0.07
356.042	0.04
356.251	-0.01
356.46	-0.03
356.668	-0.01
356.877	0.03
357.085	0.03
357.294	-0.12
357.503	-0.01
357.711	-0.03
357.92	0.1
358.128	-0.01
358.337	-0.02
358.545	0.03
358.754	-0.01
358.962	0.03
359.17	-0.02
359.379	0.01
359.587	-0.01
359.796	-0.03
360.004	0.03
360.212	-0.01
360.421	0.06
360.629	-0.02
360.837	-0.03
361.046	0.05
361.254	0.1
361.462	-0.01
361.67	-0.05
361.879	0
362.087	0.04
362.295	-0.05
362.503	-0.01
362.711	-0.06
362.92	-0.02
363.128	-0.04
363.336	-0.04
363.544	-0.07
363.752	-0.02
363.96	-0.02
364.168	-0.06
364.376	-0
364.584	-0.01
364.792	0.01
365	0.05
365.208	0
365.416	0.02
365.624	-0
365.832	-0.03
366.04	0.08
366.248	0.01
366.456	0
366.664	0.01
366.872	-0.01
367.079	-0.06
367.287	-0.01
367.495	-0.04
367.703	-0.02
367.911	-0
368.118	0.01
368.326	-0.02
368.534	-0.02
368.742	0.08
368.949	-0.04
369.157	-0.03
369.365	0.01
369.572	-0.03
369.78	-0.07
369.988	0.04
370.195	0.01
370.403	0.01
370.61	-0
370.818	0
371.026	0.06
371.233	-0.03
371.441	-0.02
371.648	-0.02
371.856	0.01
372.063	-0
372.271	-0.03
372.478	-0.01
372.685	-0.04
372.893	0.01
373.1	-0.05
373.308	-0
373.515	0.03
373.722	0.01
373.93	-0.04
374.137	0.02
374.344	0.04
374.552	0.03
374.759	0.05
374.966	-0.01
375.173	-0.03
375.381	0.01
375.588	-0.01
375.795	-0.07
376.002	-0.04
376.209	-0.04
376.417	0.01
376.624	-0.01
376.831	0.01
377.038	-0.01
377.245	-0.07
377.452	-0.06
377.659	0.01
377.866	0
378.073	-0.06
378.28	-0
378.487	0.04
378.694	0.04
378.901	-0.04
379.108	-0.01
379.315	0.04
379.522	0.11
379.729	-0.01
379.936	-0.02
380.143	0
380.35	-0.03
380.557	-0.06
380.763	-0.01
380.97	0
381.177	0
381.384	0.04
381.591	-0.07
381.797	-0.02
382.004	0.02
382.211	-0
382.418	0.02
382.624	0.04
382.831	0.01
383.038	-0.01
383.244	0.01
383.451	-0.05
383.658	-0.02
383.864	-0.04
384.071	-0.05
384.277	0.06
384.484	-0.04
384.69	0.02
384.897	-0.03
385.103	-0.02
385.31	-0.07
385.516	-0.05
385.723	-0.02
385.929	-0.02
386.136	-0
386.342	0.02
386.549	-0.04
386.755	0.08
386.961	0
387.168	-0.01
387.374	-0.02
387.58	0.01
387.787	-0.01
387.993	-0.04
388.199	-0.02
388.406	-0.03
388.612	-0.03
388.818	-0.04
389.024	-0.03
389.231	-0.02
389.437	0.06
389.643	-0.01
389.849	-0.02
390.055	0.01
390.261	-0.01
390.467	-0.02
390.674	-0.06
390.88	-0.05
391.086	0.03
391.292	-0.05
391.498	0.02
391.704	-0.02
391.91	-0.01
392.116	-0.04
392.322	-0.09
392.528	-0.01
392.734	-0.04
392.94	-0.03
393.146	-0.07
393.352	-0.01
393.557	-0.02
393.763	-0.02
393.969	0.01
394.175	-0
394.381	-0.01
394.587	-0.02
394.792	0.02
394.998	0.05
395.204	0.03
395.41	-0
395.615	0.01
395.821	0.01
396.027	-0.01
396.233	-0.03
396.438	0.02
396.644	0.05
396.85	0.03
397.055	-0.01
397.261	0.02
397.466	-0.02
397.672	0.01
397.878	0.02
398.083	0.03
398.289	-0.04
398.494	0.04
398.7	0.04
398.905	-0.1
399.111	0.04
399.316	-0.05
399.522	0
399.727	-0.05
399.932	-0.02
400.138	0.04
400.343	0.03
400.549	0
400.754	0
400.959	-0.01
401.165	-0.03
401.37	-0.05
401.575	-0.06
401.78	0.02
401.986	-0.06
402.191	-0.04
402.396	-0.03
402.601	0
402.807	-0.02
403.012	-0.03
403.217	0.06
403.422	0.01
403.627	0.02
403.832	-0.02
404.037	0.07
404.243	0.01
404.448	-0.05
404.653	-0.02
404.858	-0.02
405.063	0.03
405.268	-0.03
405.473	-0.06
405.678	-0.07
405.883	0.14
406.088	0.05
406.293	-0.07
406.498	-0.05
406.703	0.01
406.907	0.01
407.112	-0.05
407.317	-0.02
407.522	0.02
407.727	-0.03
407.932	-0
408.136	0.1
408.341	-0.03
408.546	0.03
408.751	0.02
408.956	-0
409.16	0.04
409.365	-0
409.57	-0.05
409.774	-0.01
409.979	0.07
410.184	0.03
410.388	-0.05
410.593	0.01
410.798	0.02
411.002	-0.06
411.207	-0
411.411	-0.02
411.616	-0.05
411.82	-0.02
412.025	0.01
412.229	-0.02
412.434	0.09
412.638	-0.02
412.843	-0.02
413.047	0.03
413.252	-0.05
413.456	-0.02
413.66	0.02
413.865	-0.04
414.069	0.05
414.273	-0.05
414.478	-0.02
414.682	-0.03
414.886	-0.03
415.091	-0.11
415.295	-0.1
415.499	0.03
415.703	-0.01
415.908	0
416.112	-0.11
416.316	0.07
416.52	0
416.724	-0.07
416.929	-0.05
417.133	0.12
417.337	-0.01
417.541	-0.04
417.745	0.03
417.949	0.02
418.153	0.06
418.357	-0.05
418.561	0.08
418.765	0.04
418.969	0.09
419.173	0.03
419.377	-0.03
419.581	0.11
419.785	0.01
419.989	-0.07
420.193	-0
420.397	0.04
420.601	0.06
420.804	0.09
421.008	0.03
421.212	0
421.416	0.07
421.62	0.02
421.823	0.03
422.027	0.13
422.231	0.06
422.435	0.02
422.638	0.09
422.842	0.03
423.046	-0.01
423.249	0.05
423.453	0.06
423.657	0.08
423.86	0.02
424.064	0.01
424.268	0.13
424.471	0.04
424.675	0.11
424.878	0.14
425.082	0.05
425.285	0.11
425.489	0.1
425.692	0.05
425.896	0.07
426.099	0.09
426.303	-0.02
426.506	-0.01
426.71	0.1
426.913	0.18
427.116	0.16
427.32	0.11
427.523	0.07
427.726	0.21
427.93	0.08
428.133	0.12
428.336	0.09
428.54	0.13
428.743	0.15
428.946	0.16
429.149	0.11
429.353	0.17
429.556	0.1
429.759	0.12
429.962	0.08
430.165	0.13
430.368	0.12
430.571	0.09
430.775	0.13
430.978	0.12
431.181	0.18
431.384	0.15
431.587	0.13
431.79	0.14
431.993	0.21
432.196	0.16
432.399	0.13
432.602	0.21
432.805	0.15
433.008	0.19
433.211	0.11
433.414	0.24
433.616	0.24
433.819	0.18
434.022	0.16
434.225	0.31
434.428	0.23
434.631	0.35
434.833	0.21
435.036	0.19
435.239	0.26
435.442	0.26
435.645	0.18
435.847	0.23
436.05	0.33
436.253	0.29
436.455	0.26
436.658	0.27
436.861	0.4
437.063	0.25
437.266	0.29
437.468	0.3
437.671	0.48
437.874	0.28
438.076	0.24
438.279	0.27
438.481	0.31
438.684	0.28
438.886	0.38
439.089	0.3
439.291	0.36
439.494	0.39
439.696	0.32
439.899	0.41
440.101	0.51
440.303	0.37
440.506	0.5
440.708	0.44
440.91	0.55
441.113	0.47
441.315	0.57
441.517	0.51
441.72	0.58
441.922	0.53
442.124	0.56
442.326	0.65
442.529	0.68
442.731	0.57
442.933	0.74
443.135	0.61
443.337	0.56
443.539	0.69
443.742	0.63
443.944	0.68
444.146	0.67
444.348	0.68
444.55	0.7
444.752	0.72
444.954	0.73
445.156	0.8
445.358	0.71
445.56	0.79
445.762	0.76
445.964	0.85
446.166	0.82
446.368	0.85
446.57	0.94
446.772	0.89
446.974	0.85
447.175	0.88
447.377	0.87
447.579	0.93
447.781	0.81
447.983	0.94
448.184	0.88
448.386	0.94
448.588	0.83
448.79	0.94
448.991	0.89
449.193	0.89
449.395	0.85
449.597	0.91
449.798	0.9
450	0.88
450.202	0.77
450.403	0.87
450.605	0.89
450.806	0.79
451.008	0.73
451.21	0.82
451.411	0.75
451.613	0.75
451.814	0.77
452.016	0.84
452.217	0.74
452.419	0.74
452.62	0.66
452.821	0.7
453.023	0.73
453.224	0.64
453.426	0.57
453.627	0.56
453.828	0.68
454.03	0.52
454.231	0.64
454.432	0.52
454.634	0.63
454.835	0.54
455.036	0.43
455.238	0.51
455.439	0.56
455.64	0.41
455.841	0.39
456.042	0.54
456.244	0.41
456.445	0.39
456.646	0.38
456.847	0.33
457.048	0.41
457.249	0.47
457.45	0.65
457.651	0.28
457.852	0.42
458.054	0.37
458.255	0.31
458.456	0.3
458.657	0.28
458.858	0.27
459.058	0.34
459.259	0.33
459.46	0.24
459.661	0.28
459.862	0.44
460.063	0.28
460.264	0.25
460.465	0.18
460.666	0.34
460.866	0.2
461.067	0.25
461.268	0.21
461.469	0.25
461.67	0.26
461.87	0.21
462.071	0.18
462.272	0.22
462.473	0.16
462.673	0.24
462.874	0.2
463.075	0.24
463.275	0.17
463.476	0.22
463.676	0.19
463.877	0.22
464.078	0.19
464.278	0.22
464.479	0.14
464.679	0.19
464.88	0.22
465.08	0.3
465.281	0.14
465.481	0.13
465.682	0.16
465.882	0.16
466.083	0.15
466.283	0.16
466.483	0.13
466.684	0.11
466.884	0.07
467.085	0.1
467.285	0.14
467.485	0.1
467.686	0.09
467.886	0.09
468.086	0.06
468.286	0.12
468.487	0.12
468.687	0.06
468.887	0.05
469.087	0.16
469.287	0.04
469.488	0.05
469.688	0.07
469.888	0.18
470.088	0.09
470.288	0.13
470.488	0.11
470.688	0.01
470.888	0.04
471.088	0.03
471.288	0.14
471.488	0.07
471.688	0.07
471.888	0.03
472.088	0.12
472.288	0.12
472.488	0.04
472.688	0.04
472.888	0.08
473.088	0.08
473.288	0.06
473.488	0.03
473.688	0.13
473.887	0.05
474.087	0.03
474.287	0.07
474.487	0.01
474.687	0.05
474.886	-0
475.086	0.05
475.286	0.08
475.486	0.1
475.685	0.05
475.885	0.04
476.085	0.05
476.284	0.06
476.484	0.03
476.684	0.04
476.883	0.11
477.083	0.07
477.282	0.03
477.482	0.09
477.681	0.1
477.881	0.03
478.08	-0
478.28	0.03
478.479	0.03
478.679	0.12
478.878	0
479.078	-0
479.277	0.03
479.477	0.03
479.676	0.05
479.875	-0
480.075	-0.02
480.274	0.03
480.473	0.02
480.673	-0.01
480.872	0.03
481.071	0.06
481.271	0.01
481.47	0.02
481.669	-0.01
481.868	-0.01
482.067	0.01
482.267	-0.03
482.466	-0.02
482.665	-0.02
482.864	-0
483.063	-0.03
483.262	0.03
483.461	0.07
483.661	0.04
483.86	-0
484.059	0
484.258	0
484.457	0.01
484.656	0.02
484.855	0.06
485.054	-0.04
485.253	-0.01
485.452	-0.02
485.651	0.01
485.849	-0.02
486.048	-0.01
486.247	-0.05
486.446	0.03
486.645	-0.03
486.844	-0.01
487.043	-0.01
487.241	0.02
487.44	-0.01
487.639	-0
487.838	0.04
488.037	-0.02
488.235	0.06
488.434	0.02
488.633	-0.01
488.831	0.01
489.03	0.03
489.229	0.02
489.427	-0
489.626	0.07
489.825	0.05
490.023	0
490.222	-0.02
490.42	0.04
490.619	0.03
490.817	0
491.016	-0.02
491.214	0.03
491.413	-0.01
491.611	0.01
491.81	0
492.008	0.03
492.207	0.03
492.405	-0.01
492.604	-0.07
492.802	-0.03
493	-0
493.199	-0.02
493.397	-0.02
493.595	-0.02
493.794	-0.03
493.992	0.05
494.19	0
494.388	-0.01
494.587	-0.02
494.785	-0
494.983	-0.03
495.181	-0.02
495.379	0.01
495.578	-0.01
495.776	0
495.974	0.02
496.172	-0.01
496.37	-0.02
496.568	-0.02
496.766	-0.01
496.964	0
497.162	-0.01
497.36	-0.04
497.558	0.01
497.756	0.01
497.954	-0.01
498.152	-0.01
498.35	-0
498.548	0
498.746	-0.02
498.944	-0.03
499.142	-0
499.34	-0.03
499.538	-0.02
499.736	-0.06
499.933	0.04
500.131	0.03
500.329	-0.02
500.527	0.05
500.725	0.06
500.922	0.01
501.12	0
501.318	0.02
501.516	-0.05
501.713	0.01
501.911	-0.01
502.109	-0.03
502.306	0.01
502.504	-0.03
502.701	-0.01
502.899	-0.02
503.097	0.04
503.294	-0.01
503.492	0
503.689	-0.01
503.887	0.01
504.084	0.04
504.282	0
504.479	-0.04
504.677	0
504.874	-0.02
505.072	0.02
505.269	-0.01
505.466	0.01
505.664	-0.01
505.861	-0.03
506.059	-0.02
506.256	0.04
506.453	-0.04
506.651	0.04
506.848	0.03
507.045	-0
507.242	0.02
507.44	-0.02
507.637	-0.02
507.834	-0
508.031	0.02
508.229	-0.05
508.426	0.01
508.623	0
508.82	-0.01
509.017	-0.04
509.214	-0.01
509.411	0.01
509.608	-0.05
509.805	0
510.003	-0.02
510.2	-0.04
510.397	0
510.594	-0.01
510.791	-0.03
510.988	-0.02
511.184	0.03
511.381	-0.02
511.578	-0.01
511.775	0
511.972	0
512.169	-0.02
512.366	0
512.563	0.01
512.76	-0
512.956	-0.02
513.153	-0.01
513.35	-0.01
513.547	-0.04
513.744	-0.02
513.94	-0.02
514.137	-0.01
514.334	0
514.53	0.01
514.727	0.01
514.924	0.06
515.12	-0.03
515.317	-0.05
515.514	-0.04
515.71	-0.04
515.907	-0.02
516.103	-0.01
516.3	0.01
516.497	0.01
516.693	0.02
516.89	-0
517.086	-0.04
517.283	0.06
517.479	0.01
517.676	-0.01
517.872	-0.03
518.068	-0.01
518.265	-0.02
518.461	-0.03
518.658	-0.04
518.854	0.01
519.05	-0.01
519.247	-0.04
519.443	0.04
519.639	0.01
519.836	-0.02
520.032	-0.01
520.228	-0.01
520.424	0.05
520.621	0.01
520.817	-0.02
521.013	0
521.209	-0
521.405	0.04
521.601	-0.02
521.798	0
521.994	0.03
522.19	-0.04
522.386	-0.04
522.582	-0.02
522.778	-0
522.974	-0.02
523.17	0.01
523.366	0.01
523.562	0.02
523.758	0
523.954	-0.03
524.15	-0.01
524.346	0.02
524.542	-0.02
524.738	-0.01
524.934	-0.02
525.129	-0.07
525.325	0
525.521	-0.01
525.717	0.02
525.913	-0
526.109	-0.01
526.304	-0.01
526.5	0
526.696	0.01
526.892	-0.02
527.087	-0.02
527.283	-0.02
527.479	0.01
527.674	-0.02
527.87	-0.01
528.066	-0.01
528.261	0.04
528.457	0.01
528.653	0
528.848	-0.03
529.044	-0.02
529.239	-0.01
529.435	0.01
529.63	-0
529.826	0.03
530.021	-0
530.217	0.03
530.412	-0.02
530.608	-0.02
530.803	-0.02
530.999	-0.02
531.194	-0.06
531.389	0.02
531.585	-0.05
531.78	-0.01
531.975	-0.01
532.171	0.02
532.366	-0
532.561	0
532.757	-0.01
532.952	-0.02
533.147	-0
533.342	-0.01
533.538	-0.02
533.733	0.02
533.928	0.01
534.123	-0.03
534.318	-0.04
534.513	-0.03
534.709	0.01
534.904	-0.02
535.099	-0.03
535.294	-0.02
535.489	-0.01
535.684	0
535.879	-0.04
536.074	-0
536.269	-0.03
536.464	-0.01
536.659	-0.01
536.854	0.01
537.049	-0.01
537.244	-0.02
537.439	-0.03
537.634	0.03
537.828	-0.01
538.023	-0.03
538.218	-0.03
538.413	0
538.608	-0.01
538.803	0.03
538.997	-0.04
539.192	0.01
539.387	0.01
539.582	0.01
539.776	-0.02
539.971	-0.01
540.166	-0.01
540.36	-0.04
540.555	0.02
540.75	-0.02
540.944	-0.01
541.139	-0.04
541.334	-0.02
541.528	-0.02
541.723	0.01
541.917	-0.02
542.112	-0.05
542.306	-0.02
542.501	-0.01
542.695	-0.01
542.89	-0.03
543.084	0
543.279	-0.02
543.473	-0.02
543.668	-0.02
543.862	-0.02
544.056	0.01
544.251	-0.01
544.445	0.01
544.64	-0.02
544.834	-0.05
545.028	-0.01
545.222	0.01
545.417	0.03
545.611	-0.02
545.805	-0.02
546	-0.03
546.194	-0.03
546.388	-0.03
546.582	-0
546.776	0.01
546.97	-0.02
547.165	0.03
547.359	0
547.553	-0.02
547.747	-0
547.941	-0
548.135	-0.01
548.329	0
548.523	-0.01
548.717	-0.03
548.911	-0.03
549.105	-0.02
549.299	-0.01
549.493	0
549.687	-0.01
549.881	0.01
550.075	-0.01
550.269	-0.03
550.463	0.01
550.657	-0.02
550.85	-0.03
551.044	-0.02
551.238	-0
551.432	-0.03
551.626	-0.05
551.82	0.02
552.013	-0.03
552.207	0.01
552.401	-0.01
552.594	0
552.788	-0.02
552.982	0.01
553.176	-0.01
553.369	0.01
553.563	-0.01
553.756	-0.05
553.95	-0.04
554.144	-0
554.337	0.02
554.531	0.01
554.724	-0.01
554.918	-0.01
555.111	0.01
555.305	-0.01
555.498	0.03
555.692	0.01
555.885	-0.03
556.079	0.01
556.272	-0.02
556.466	-0
556.659	-0
556.852	-0.01
557.046	-0.02
557.239	0.04
557.432	-0.04
557.626	-0.03
557.819	0.02
558.012	0.01
558.206	-0.01
558.399	0.01
558.592	0.01
558.785	-0.01
558.979	-0
559.172	-0.01
559.365	0.02
559.558	0.01
559.751	-0.02
559.944	0
560.138	-0.01
560.331	-0.02
560.524	-0.03
560.717	-0.03
560.91	-0.01
561.103	0.01
561.296	-0.01
561.489	-0
561.682	-0.01
561.875	0.01
562.068	0
562.261	-0
562.454	0.05
562.647	0.01
562.84	-0.01
563.032	-0.03
563.225	0
563.418	-0.01
563.611	0
563.804	-0
563.997	-0.03
564.19	-0.05
564.382	0.01
564.575	0
564.768	0
564.961	-0.01
565.153	-0.01
565.346	0.01
565.539	0.02
565.731	0.01
565.924	0
566.117	0.01
566.309	-0.01
566.502	-0.02
566.695	-0
566.887	0
567.08	-0.06
567.272	-0.01
567.465	-0.02
567.657	-0
567.85	-0.01
568.042	0.01
568.235	0.03
568.427	-0.02
568.62	0
568.812	-0.01
569.005	0.01
569.197	-0.08
569.389	0.02
569.582	-0.01
569.774	-0.01
569.966	-0.03
570.159	-0.04
570.351	0.01
570.543	-0.02
570.736	-0
570.928	-0.04
571.12	-0
571.312	-0.02
571.505	-0.04
571.697	0.03
571.889	-0.03
572.081	-0.04
572.273	-0.04
572.465	0.02
572.658	-0.01
572.85	0
573.042	-0.02
573.234	-0.02
573.426	0.04
573.618	-0.05
573.81	-0.02
574.002	0.02
574.194	0.04
574.386	-0.05
574.578	-0.09
574.77	-0.03
574.962	-0
575.154	-0.05
575.346	-0.04
575.538	0.03
575.729	-0.03
575.921	-0.02
576.113	-0.04
576.305	0.01
576.497	-0
576.689	-0.02
576.88	-0.03
577.072	0.01
577.264	-0
577.456	-0.03
577.647	-0.09
577.839	-0
578.031	0.02
578.223	-0.04
578.414	-0.06
578.606	-0.01
578.798	-0.01
578.989	-0.03
579.181	-0.03
579.372	-0
579.564	-0.04
579.755	0
579.947	-0.01
580.139	0.02
580.33	-0.07
580.522	-0.03
580.713	-0.09
580.905	-0.01
581.096	0.01
581.287	0.02
581.479	-0.01
581.67	0.01
581.862	0
582.053	-0.02
582.244	-0.06
582.436	-0.02
582.627	-0.02
582.818	-0.03
583.01	-0.05
583.201	-0.02
583.392	0.03
583.583	-0.03
583.775	-0
583.966	-0.02
584.157	-0.02
584.348	-0.05
584.54	-0.04
584.731	0.01
584.922	0.01
585.113	-0.05
585.304	0.01
585.495	0.04
585.686	0.01
585.877	0.01
586.068	0
586.259	0.03
586.45	0.03
586.641	-0.02
586.832	-0.07
587.023	-0
587.214	-0.03
587.405	-0.02
587.596	-0.02
587.787	0.03
587.978	-0
588.169	-0.04
588.36	-0.05
588.551	-0.01
588.742	-0.01
588.932	0
589.123	-0.01
589.314	0
589.505	0.02
589.696	0
589.886	-0.05
590.077	-0.06
590.268	-0.02
590.458	-0.06
590.649	-0.04
590.84	0.02
591.03	-0.06
591.221	-0.05
591.412	-0.04
591.602	0.04
591.793	0.03
591.984	-0.04
592.174	-0.02
592.365	0.06
592.555	-0.04
592.746	-0.01
592.936	0
593.127	0
593.317	0.03
593.508	-0.05
593.698	-0.04
593.889	-0
594.079	-0
594.269	-0.03
594.46	-0.03
594.65	-0.01
594.84	0.01
595.031	-0.03
595.221	-0.03
595.411	-0.05
595.602	0
595.792	-0.03
595.982	-0.02
596.172	0.07
596.363	0.01
596.553	0.02
596.743	-0.04
596.933	0.01
597.123	0.04
597.314	-0.05
597.504	-0.03
597.694	0.01
597.884	0.02
598.074	-0.03
598.264	-0.03
598.454	0
598.644	-0.03
598.834	-0
599.024	-0.06
599.214	-0.01
599.404	0.01
599.594	-0.01
599.784	-0.03
599.974	0.03
600.164	-0.01
600.354	-0.08
600.544	-0.08
600.734	0.01
600.924	0.04
601.114	-0.05
601.303	-0.01
601.493	-0.02
601.683	-0.02
601.873	-0.01
602.063	-0.05
602.252	0.01
602.442	-0.07
602.632	-0.02
602.821	-0.04
603.011	0
603.201	-0.02
603.39	-0.05
603.58	-0.05
603.77	0.01
603.959	0.02
604.149	-0.02
604.339	-0.02
604.528	-0
604.718	0.02
604.907	-0.02
605.097	-0.02
605.286	-0.04
605.476	0.01
605.665	-0.01
605.855	-0.02
606.044	0.04
606.234	-0.01
606.423	-0
606.612	-0.04
606.802	-0
606.991	0
607.181	0.02
607.37	-0.04
607.559	0.01
607.749	-0.07
607.938	-0.02
608.127	-0.02
608.316	-0.04
608.506	0
608.695	-0.04
608.884	-0.06
609.073	0.01
609.263	-0.01
609.452	0
609.641	-0
609.83	-0.03
610.019	-0.02
610.208	-0.02
610.397	-0.01
610.586	-0.01
610.775	-0.03
610.965	-0.02
611.154	-0.03
611.343	-0.01
611.532	-0.01
611.721	-0.06
611.91	-0.04
612.099	0.03
612.287	-0.03
612.476	-0.04
612.665	-0.02
612.854	-0.02
613.043	0.03
613.232	-0.05
613.421	-0.06
613.61	0.01
613.798	-0.04
613.987	0
614.176	-0.01
614.365	0.01
614.554	-0.02
614.742	0
614.931	-0.04
615.12	-0
615.309	-0.02
615.497	-0.01
615.686	-0.04
615.875	-0.04
616.063	0.01
616.252	-0.04
616.44	-0.01
616.629	-0.02
616.818	0.03
617.006	-0.02
617.195	-0.04
617.383	-0.01
617.572	-0.02
617.76	-0.03
617.949	-0.04
618.137	0.02
618.326	-0.01
618.514	-0.04
618.703	-0.05
618.891	0.02
619.079	-0.07
619.268	0.01
619.456	-0.03
619.644	0.04
619.833	-0.03
620.021	-0.05
620.209	-0.09
620.398	0.01
620.586	-0.01
620.774	0.02
620.962	-0.02
621.151	0.06
621.339	-0.02
621.527	-0.06
621.715	-0.02
621.903	-0.04
622.092	-0.03
622.28	0.01
622.468	-0.02
622.656	-0.05
622.844	0.02
623.032	-0.02
623.22	-0.09
623.408	0.03
623.596	-0
623.784	-0.01
623.972	-0.01
624.16	0.01
624.348	0.05
624.536	-0
624.724	-0.02
624.912	0.01
625.1	0.02
625.288	-0.03
625.476	-0.01
625.664	-0.02
625.851	-0.06
626.039	-0.06
626.227	0.01
626.415	-0.01
626.603	-0.08
626.79	-0.01
626.978	-0.04
627.166	-0
627.354	-0.03
627.541	-0.04
627.729	-0.05
627.917	0.03
628.104	0.01
628.292	-0
628.48	0
628.667	-0
628.855	-0.02
629.042	-0.01
629.23	-0.05
629.418	-0.01
629.605	-0.03
629.793	-0.02
629.98	-0.03
630.168	-0.04
630.355	-0.04
630.543	-0.02
630.73	-0.05
630.917	0.02
631.105	0.05
631.292	-0.03
631.48	-0.03
631.667	0.07
631.854	-0.01
632.042	-0.01
632.229	-0.07
632.416	-0.01
632.604	-0.03
632.791	-0.05
632.978	-0.01
633.165	-0.01
633.353	0.05
633.54	0
633.727	-0.1
633.914	-0.06
634.101	-0.08
634.289	0.01
634.476	-0.07
634.663	-0.07
634.85	-0.01
635.037	-0.04
635.224	-0.07
635.411	0.03
635.598	-0
635.785	-0.02
635.972	-0.03
636.159	0.01
636.346	-0.06
636.533	-0.01
636.72	-0.06
636.907	-0.02
637.094	-0.01
637.281	-0.04
637.468	0.01
637.655	-0.02
637.842	-0.02
638.029	-0.05
638.215	0.01
638.402	0
638.589	-0.02
638.776	-0.02
638.963	-0.06
639.149	0.04
639.336	0.07
639.523	-0.03
639.709	-0.02
639.896	-0.04
640.083	0.06
640.27	0.03
640.456	-0.01
640.643	0.01
640.829	-0.09
641.016	-0.03
641.203	-0.05
641.389	-0.01
641.576	0.01
641.762	-0.02
641.949	-0.06
642.135	-0.02
642.322	0
642.508	-0.07
642.695	-0.01
642.881	-0.03
643.068	0
643.254	-0.04
643.441	0
643.627	0.01
643.813	-0.04
644	0.02
644.186	-0.03
644.372	-0.01
644.559	0.01
644.745	-0.03
644.931	-0.05
645.118	-0.01
645.304	-0.01
645.49	-0.07
645.676	-0.03
645.862	-0.01
646.049	0.02
646.235	-0
646.421	0.04
646.607	0.06
646.793	-0.03
646.979	-0.06
647.165	-0.02
647.352	-0.06
647.538	0.01
647.724	-0.02
647.91	0.01
648.096	-0
648.282	-0
648.468	-0.05
648.654	0.01
648.84	0
649.026	-0.02
649.212	-0.03
649.397	-0.06
649.583	-0.05
649.769	0.02
649.955	-0
650.141	0.01
650.327	0.03
650.513	-0.02
650.698	-0.01
650.884	-0.1
651.07	-0.02
651.256	-0.02
651.442	-0.04
651.627	-0.01
651.813	-0.01
651.999	-0.03
652.184	-0.02
652.37	-0.04
652.556	-0.04
652.741	0.04
652.927	-0.09
653.113	-0.02
653.298	-0.03
653.484	-0.08
653.669	-0.09
653.855	-0.02
654.04	0.02
654.226	0.02
654.412	-0.03
654.597	-0.04
654.782	-0.01
654.968	0.01
655.153	-0.03
655.339	-0.04
655.524	-0.07
655.71	-0.02
655.895	-0.03
656.08	-0.04
656.266	0.03
656.451	-0.01
656.636	-0.07
656.822	0.01
657.007	-0.07
657.192	-0.05
657.378	-0.07
657.563	-0.03
657.748	0.02
657.933	-0
658.118	-0.04
658.304	-0.05
658.489	0.02
658.674	-0.02
658.859	-0.06
659.044	-0.01
659.229	-0.01
659.414	0.01
659.599	0.01
659.785	-0.09
659.97	-0.06
660.155	-0
660.34	0.01
660.525	-0.02
660.71	-0.03
660.895	-0.01
661.08	-0.06
661.264	-0.06
661.449	0.07
661.634	0.01
661.819	-0.01
662.004	-0.01
662.189	-0.09
662.374	-0.05
662.559	-0.04
662.743	-0.07
662.928	-0.05
663.113	-0.06
663.298	-0.07
663.483	-0.06
663.667	0
663.852	-0.08
664.037	0.03
664.221	-0.05
664.406	0.02
664.591	0
664.775	-0.03
664.96	-0.03
665.145	-0.02
665.329	0.01
665.514	-0.03
665.698	-0.05
665.883	-0.12
666.068	0.07
666.252	-0
666.437	-0.07
666.621	-0.01
666.806	-0.01
666.99	0
667.174	-0.05
667.359	0.05
667.543	-0.04
667.728	-0.08
667.912	-0.09
668.096	-0.02
668.281	-0.07
668.465	-0.05
668.649	-0.02
668.834	-0.07
669.018	-0.01
669.202	-0.03
669.387	-0.06
669.571	0.04
669.755	-0.03
669.939	-0.04
670.124	-0.04
670.308	0.01
670.492	0.03
670.676	-0.04
670.86	-0.02
671.044	-0.08
671.228	-0.01
671.413	-0.05
671.597	-0.06
671.781	-0.07
671.965	0.02
672.149	-0
672.333	-0.02
672.517	-0.05
672.701	-0
672.885	-0.05
673.069	-0.07
673.253	0.05
673.437	-0.04
673.621	-0.04
673.804	-0.04
673.988	-0.01
674.172	-0.01
674.356	-0.12
674.54	-0.02
674.724	0.03
674.908	-0.04
675.091	-0.02
675.275	-0
675.459	0.04
675.643	-0.03
675.826	-0.02
676.01	-0.02
676.194	-0.06
676.377	0.02
676.561	-0.02
676.745	-0.04
676.928	0
677.112	0.05
677.296	-0.07
677.479	-0.03
677.663	-0.03
677.846	-0.03
678.03	-0.01
678.213	-0.06
678.397	0.01
678.58	-0.02
678.764	-0.02
678.947	-0.06
679.131	-0.09
679.314	-0.01
679.498	-0.05
679.681	-0.02
679.865	0.02
680.048	-0.06
680.231	-0.02
680.415	-0.05
680.598	-0.03
680.781	-0.04
680.965	-0.07
681.148	-0.03
681.331	-0.06
681.514	0.01
681.698	-0.07
681.881	-0.02
682.064	-0.03
682.247	0.01
682.43	-0.07
682.614	-0.02
682.797	0.05
682.98	0.01
683.163	-0.08
683.346	-0.03
683.529	0.03
683.712	-0.07
683.895	-0.01
684.078	-0.06
684.261	-0.06
684.444	0
684.627	0.01
684.81	-0.06
684.993	-0.07
685.176	0.01
685.359	-0.05
685.542	-0.03
685.725	0.07
685.908	-0.03
686.091	-0.06
686.274	0
686.457	0.01
686.639	-0.05
686.822	0.05
687.005	-0.01
687.188	0.04
687.371	0.08
687.553	-0.03
687.736	0
687.919	0.1
688.102	0.07
688.284	-0.07
688.467	0.02
688.65	-0.01
688.832	-0.05
689.015	-0.06
689.197	-0.06
689.38	0.08
689.563	0.03
689.745	-0.06
689.928	-0.08
690.11	-0.04
690.293	-0.03
690.475	-0.1
690.658	0.01
690.84	-0.03
691.023	-0.02
691.205	-0.04
691.388	-0.05
691.57	0.03
691.752	0.01
691.935	-0.1
692.117	-0.04
692.3	-0.05
692.482	-0.02
692.664	-0
692.847	-0.04
693.029	0.04
693.211	-0.02
693.393	-0.01
693.576	-0.03
693.758	0.05
693.94	-0.04
694.122	-0.02
694.304	-0.04
694.487	-0.06
694.669	0.05
694.851	-0.1
695.033	0.05
695.215	-0.06
695.397	-0.06
695.579	-0
695.761	-0.07
695.943	-0.17
696.125	0.06
696.308	-0.02
696.49	-0.15
696.671	0.1
696.853	0.02
697.035	0.05
697.217	0.01
697.399	0.06
697.581	-0.08
697.763	-0.01
697.945	-0.1
698.127	-0.02
698.309	0.05
698.491	-0.04
698.672	0.03
698.854	0.08
699.036	0.06
699.218	-0.05
699.399	0.05
699.581	0.01
699.763	-0.01
699.945	-0.08
700.126	-0.06
700.308	-0.01
700.49	0.04
700.671	-0.14
700.853	-0.06
701.035	-0.09
701.216	0.03
701.398	-0.03
701.579	-0.04
701.761	-0.02
701.943	-0.02
702.124	-0.04
702.306	-0.08
702.487	0.12
702.669	-0.01
702.85	-0.05
703.031	-0.1
703.213	0.08
703.394	0.06
703.576	-0.03
703.757	0.02
703.938	0.01
704.12	0.12
704.301	-0.03
704.483	-0.05
704.664	-0.05
704.845	0.04
705.026	-0.02
705.208	-0.03
705.389	-0.05
705.57	-0.04
705.751	-0.05
705.933	0.01
706.114	0.04
706.295	0.01
706.476	-0.06
706.657	0.06
706.838	0
707.02	0
707.201	-0.08
707.382	-0.05
707.563	0.04
707.744	-0.04
707.925	-0.06
708.106	-0.08
708.287	0.03
708.468	0.01
708.649	-0.03
708.83	-0.02
709.011	-0.05
709.192	0.03
709.373	-0.1
709.554	-0.03
709.734	-0.02
709.915	-0
710.096	-0.03
710.277	-0.11
710.458	-0.08
710.639	0
710.819	-0.07
711	-0.04
711.181	0.07
711.362	0.1
711.542	-0.03
711.723	-0.02
711.904	-0.02
712.085	-0.03
712.265	-0.07
712.446	-0.09
712.627	-0.07
712.807	-0.05
712.988	-0.11
713.168	-0.1
713.349	0.04
713.53	-0.15
713.71	-0.16
713.891	-0.09
714.071	0.02
714.252	-0.01
714.432	-0.07
714.613	-0.19
714.793	0.02
714.974	0.1
715.154	0.08
715.334	-0.03
715.515	0.12
715.695	-0.08
715.876	-0.03
716.056	-0.07
716.236	-0.07
716.417	-0.01
716.597	-0.03
716.777	0.15
716.957	-0.07
717.138	-0.02
717.318	-0.05
717.498	-0.14
717.678	-0.04
717.859	-0.02
718.039	-0.13
718.219	-0.07
718.399	0.03
718.579	-0.09
718.759	-0.13
718.939	0.04
719.12	-0.04
719.3	-0.01
719.48	-0.14
719.66	-0.08
719.84	0.05
720.02	0.01
720.2	-0.06
720.38	-0.08
720.56	0.09
720.74	-0.06
720.92	0
721.1	0.05
721.279	0.01
721.459	-0.08
721.639	-0.06
721.819	-0.01
721.999	-0
722.179	0.03
722.359	-0.1
722.538	-0.03
722.718	-0.06
722.898	-0.07
723.078	-0
723.257	-0.04
723.437	-0.03
723.617	-0.07
723.797	-0.02
723.976	-0
724.156	0.02
724.336	0.06
724.515	0.04
724.695	-0.23
724.874	-0.08
725.054	0.06
725.234	-0.05
725.413	-0.02
725.593	-0.02
725.772	-0
725.952	-0.07
726.131	-0.07
726.311	-0.02
726.49	0.01
726.67	-0.1
726.849	-0.07
727.028	0.03
727.208	-0.08
727.387	-0.03
727.567	-0.13
727.746	-0.06
727.925	-0.05
728.105	-0.11
728.284	-0.16
728.463	-0.05
728.643	0.02
728.822	-0.06
729.001	-0.05
729.18	-0
729.359	0.02
729.539	-0.07
729.718	0
729.897	-0.03
730.076	-0.1
730.255	-0.22
730.434	-0.03
730.614	-0.03
730.793	0.03
730.972	-0.09
731.151	-0.04
731.33	0.07
731.509	0.06
731.688	0.03
731.867	-0.04
732.046	-0.17
732.225	0.16
732.404	-0.05
732.583	-0.14
732.762	0.03
732.941	-0.01
733.12	-0.03
733.298	-0.11
733.477	0.06
733.656	-0.08
733.835	-0.18
734.014	0.02
734.193	-0.07
734.371	0.08
734.55	-0
734.729	-0.14
734.908	-0
735.086	0.04
735.265	0.09
735.444	-0.22
735.623	-0.09
735.801	-0.07
735.98	-0.11
736.159	-0.14
736.337	0.06
736.516	0.03
736.694	0.01
736.873	-0.14
737.052	0.11
737.23	0.03
737.409	0.03
737.587	0.17
737.766	-0.22
737.944	-0.11
738.123	-0.13
738.301	-0.02
738.479	-0.21
738.658	0.07
738.836	-0.2
739.015	-0.01
739.193	0.02
739.371	-0.15
739.55	-0.09
739.728	-0.14
739.906	0.15
740.085	0.05
740.263	-0.13
740.441	-0.17
740.62	0.09
740.798	0.05
740.976	-0.09
741.154	-0.14
741.332	0.05
741.511	-0.17
741.689	-0.05
741.867	0.08
742.045	-0.06
742.223	-0.02
742.401	-0.14
742.579	-0.01
742.757	0.05
742.935	-0.17
743.114	-0.03
743.292	-0.02
743.47	-0.09
743.648	-0.03
743.826	-0.03
744.004	0.04
744.181	0.08
744.359	-0.1
744.537	-0.08
744.715	-0.16
744.893	-0.03
745.071	-0.05
745.249	-0.03
745.427	-0.13
745.605	0.01
745.782	0.04
745.96	0
746.138	0
746.316	0
746.493	-0.15
746.671	0.01
746.849	-0.05
747.027	0.12
747.204	-0.08
747.382	-0
747.56	-0.16
747.737	-0.02
747.915	-0.12
748.093	0
748.27	-0.14
748.448	-0.07
748.625	-0.14
748.803	-0.1
748.98	-0.08
749.158	0.03
749.335	0.14
749.513	-0.07
749.69	-0.06
749.868	0.01
750.045	0.03
750.223	-0.14
750.4	-0.28
750.578	0.17
750.755	-0.01
750.932	-0.25
751.11	0.08
751.287	-0.27
751.464	0.02
751.642	-0.1
751.819	0.08
751.996	-0.08
752.173	-0.18
752.351	-0.18
752.528	-0.07
752.705	0.07
752.882	-0.02
753.06	-0.15
753.237	0.11
753.414	0.21
753.591	0.13
753.768	-0.04
753.945	-0.13
754.122	-0.01
754.299	-0.03
754.476	-0.04
754.654	-0.13
754.831	0.05
755.008	-0.1
755.185	-0.01
755.362	-0.16
755.539	-0.08
755.716	-0.09
755.892	-0.14
756.069	-0.07
756.246	-0.09
756.423	0.06
756.6	0.03
756.777	-0.06
756.954	0.16
757.131	-0
757.307	-0.14
757.484	-0.21
757.661	-0.13
757.838	-0.03
758.015	-0.2
758.191	-0.03
758.368	-0.05
758.545	0.07
758.721	0.03
758.898	-0.05
759.075	0.07
759.251	0.09
759.428	-0.06
759.605	-0.27
759.781	-0.02
759.958	-0.08
760.134	-0.1
760.311	-0.03
760.488	0.15
760.664	0.09
760.841	-0.02
761.017	-0.16
761.194	0.03
761.37	0.05
761.547	-0.05
761.723	-0.06
761.899	-0
762.076	-0.15
762.252	-0.23
762.429	-0.17
762.605	-0.01
762.781	-0.04
762.958	0.02
763.134	-0.15
763.31	0
763.486	0.05
763.663	-0.36
763.839	-0.01
764.015	-0.2
764.191	-0.08
764.368	-0.02
764.544	-0.03
764.72	-0.05
764.896	0.02
765.072	0.05
765.248	-0.02
765.425	-0.12
765.601	-0.05
765.777	0
765.953	-0.24
766.129	-0.16
766.305	-0.04
766.481	-0.01
766.657	-0.05
766.833	0.08
767.009	-0.21
767.185	-0.05
767.361	-0.13
767.537	-0.11
767.713	0.14
767.889	-0.06
768.065	-0.03
768.24	-0.14
768.416	0.08
768.592	-0.13
768.768	-0.12
768.944	0.11
769.12	-0.16
769.295	-0.12
769.471	-0.08
769.647	-0.07
769.823	0.1
769.998	-0.17
770.174	-0.15
770.35	0.28
770.525	0.25
770.701	-0
770.877	-0.06
771.052	-0.14
771.228	-0.07
771.403	-0.02
771.579	-0.05
771.755	0.15
771.93	-0.01
772.106	-0.15
772.281	-0.14
772.457	-0.05
772.632	0.16
772.808	-0.15
772.983	-0.1
773.159	-0.18
773.334	0.24
773.509	-0.03
773.685	-0.1
773.86	0.29
774.036	-0
774.211	-0.07
774.386	-0.13
774.562	-0.21
774.737	-0.07
774.912	-0.04
775.087	0.02
775.263	-0.05
775.438	0.02
775.613	-0.28
775.788	0.04
775.964	0.09
776.139	0.34
776.314	-0.23
776.489	-0
776.664	0.09
776.839	-0.25
777.014	0.15
777.19	0.08
777.365	0.21
777.54	0.26
777.715	-0.2
777.89	0.01
778.065	-0.19
778.24	-0.14
778.415	0.12
778.59	-0.17
778.765	-0.06
778.94	0.01
779.115	-0.12
779.289	-0.08
779.464	-0.04
779.639	-0.03
779.814	-0.14
779.989	-0.24
780.164	0.07
780.339	0.11
780.513	-0.04
780.688	-0.35
780.863	-0.09
781.038	0.19
781.212	-0.16
781.387	-0.2
781.562	0.32
781.737	-0.03
781.911	0.07
782.086	-0.12
782.261	-0.02
782.435	0.3
782.61	-0.28
782.784	-0.14
782.959	0.05
783.134	-0.21
783.308	-0.27
783.483	-0.21
783.657	0.38
783.832	0.04
784.006	-0.3
784.181	-0.12
784.355	0.12
784.53	-0.31
784.704	-0.17
784.878	0.21
785.053	0.03
785.227	0.22
785.402	0.27
785.576	-0.21
785.75	-0.11
785.925	-0.32
786.099	0.26
786.273	-0.03
786.448	0.23
786.622	-0.09
786.796	-0.17
786.97	-0.22
787.145	0.54
787.319	-0.21
787.493	-0.15
787.667	-0.38
787.841	-0.03
788.015	0.24
788.19	-0.2
788.364	0.06
788.538	-0.02
788.712	0.19
788.886	-0.17
789.06	0.04
789.234	0.28
789.408	-0.27
789.582	0.03
789.756	-0.16
789.93	-0.38
790.104	-0.12
790.278	-0.4
790.452	-0.1
790.626	-0.01
790.8	-0.19
790.973	0.25
791.147	0.13
791.321	0.03
791.495	-0.02
791.669	0.04
791.843	-0.04
792.016	-0.07
792.19	0.42
792.364	-0.22
792.538	0.59
792.711	0.1
792.885	0.04
793.059	-0.3
793.233	-0.63
793.406	0.29
793.58	-0.2
793.754	0.21
793.927	-0.09
794.101	0.17
794.274	-0.11
794.448	0.07
794.622	-0.31
794.795	0.19
794.969	-0.22
795.142	0.16
795.316	-0.13
795.489	-0.41
795.663	0.4
795.836	-0.01
796.009	-0.4
796.183	0.23
796.356	0.09
796.53	0.11
796.703	-0.1
796.876	0.46
797.05	-0.18
797.223	-0.15
797.396	0.1
797.57	0.02
797.743	0.25
797.916	0.08
798.09	-0.23
798.263	-0.01
798.436	0.23
798.609	-0.22
798.782	-0.15
798.956	0.09
799.129	0.05
799.302	-0.17
799.475	-0.34
799.648	-0.29
799.821	-0.34
799.994	0.04
800.167	-0.35
800.34	0.08
800.514	-0.14
800.687	-0.14
800.86	-0.16
801.033	-0.05
801.206	0.27
801.379	-0.43
801.551	0.2
801.724	0.23
801.897	0.35
802.07	-0.31
802.243	-0.45
802.416	-0.03
802.589	-0.24
802.762	0.16
802.935	0.12
803.107	0.12
803.28	0.15
803.453	0.26
803.626	-0.35
803.798	-0.23
803.971	-0.46
804.144	0.28
804.317	0.3
804.489	0.14
804.662	-0.17
804.835	0.06
805.007	-0.42
805.18	0.33
805.353	-0.02
805.525	-0.32
805.698	-0.16
805.87	0.06
806.043	0.6
806.215	-0.48
806.388	-0.19
806.56	0.01
806.733	0.44
806.905	0.06
807.078	-0.2
807.25	-0.18
807.423	-0.04
807.595	-0.05
807.768	-0.01
807.94	0.2
808.112	0.03
808.285	0.22
808.457	-0.11
808.629	-0.04
808.802	0.05
808.974	-0.27
809.146	-0.43
809.318	-0.12
809.491	-0.03
809.663	0.33
809.835	-0.2
810.007	0.19
810.18	0.06
810.352	-0.48
810.524	-0.28
810.696	0.22
810.868	0.48
811.04	-0.16
811.212	-0.19
811.384	0.26
811.556	0.18
811.728	-0.21
811.901	0.86
812.073	-0.44
812.245	0.05
812.417	-0.08
812.589	-0.56
812.76	0.05
812.932	0.28
813.104	0.3
813.276	-0.17
813.448	0.33
813.62	-0.17
813.792	-0.08
813.964	-0.37
814.136	0.33
814.307	-0.46
814.479	-0.36
814.651	-0.5
814.823	0.79
814.995	-0.35
815.166	0.04
815.338	-0.25
815.51	-1.05
815.681	0.43
815.853	-0.39
816.025	-0.41
816.196	0.55
816.368	0.45
816.54	-0.37
816.711	-0.22
816.883	0.23
817.054	0.82
817.226	-0.33
817.398	0.16
817.569	-0.57
817.741	0.15
817.912	-0.24
818.084	-0.06
818.255	0.24
818.426	-0.25
818.598	-0.16
818.769	-0.15
818.941	0.59
819.112	0.66
819.283	0.18
819.455	-0.6
819.626	0.03
819.798	0.48
819.969	-0.11
820.14	-0.2
820.311	0.27
820.483	0.21
820.654	0.13
820.825	0.14
820.996	-0.33
821.168	-0.75
821.339	-0.35
821.51	-0.4
821.681	-0.22
821.852	-0.12
822.023	-0.21
822.195	-0.55
822.366	0.12
822.537	0
822.708	0.17
822.879	-0.81
823.05	0.32
823.221	-0.13
823.392	-0.1
823.563	-0.48
823.734	-0.37
823.905	-0.44
824.076	-0.23
824.247	-0.44
824.418	-0.33
824.589	0.41
824.759	-0.35
824.93	-0.31
825.101	-0.59
825.272	0.96
825.443	0.27
825.614	0.81
825.784	-1.39
825.955	0.94
826.126	0.51
826.297	-0.54
826.467	0.58
826.638	0.31
826.809	-0.61
826.98	0.05
827.15	0.21
827.321	0.02
827.492	0.21
827.662	-0.63
827.833	0.6
828.003	0.08
828.174	-0.67
828.345	-0.83
828.515	0.66
828.686	0.14
828.856	-0.32
829.027	0
829.197	-0.48
829.368	0.1
829.538	-0.45
829.709	-0.4
829.879	-0.09
830.049	-0.36
830.22	-0.59
830.39	-0.76
830.56	-0.17
830.731	-0.6
830.901	-0.43
831.072	-0.25
831.242	0.45
831.412	0.26
831.582	-0.44
831.753	-0.98
831.923	0.25
832.093	-0.59
832.263	-0.2
832.434	-0.94
832.604	-0.52
832.774	-0.13
832.944	-0.59
833.114	-0.37
833.284	0.1
833.454	-1.23
833.624	-0.33
833.795	-0.73
833.965	0.43
834.135	0.43
834.305	-1.31
834.475	-1.04
834.645	-0.47
834.815	-0.28
834.985	-0.5
835.155	-0.38
835.325	0.09
835.494	0.54
835.664	-0.38
835.834	-0.68
836.004	-0.01
836.174	-0.09
836.344	-0.66
836.514	-1.69
836.684	-0.66
836.853	-0.34
837.023	0.29
837.193	-0.46
837.363	0.53
837.532	0.09
837.702	0.03
837.872	-0.71
838.041	0.59
838.211	1.29
838.381	-1.17
838.55	-0.38
838.72	2.05
838.89	0.6
839.059	-0.43
839.229	-0.79
839.398	1.35
839.568	-0.52
839.738	-0.07
839.907	0.95
840.077	0.24
840.246	-0.76
840.416	-1
840.585	-0.93
840.755	0.92
840.924	1.12
841.093	-0.96
841.263	-0.38
841.432	0.1
841.602	-0.46
841.771	-1.13
841.94	0.67
842.11	2.04
842.279	1.16
842.448	-1.5
842.617	-0.45
842.787	1.38
842.956	-1.56
843.125	-0.78
843.294	-0.29
843.464	0.85
843.633	0.21
843.802	-1.37
843.971	-0.94
844.14	0.91
844.309	0.27
844.479	-0.59
844.648	-0.79
844.817	-0.88
844.986	0.68
845.155	-0.61
845.324	-1.05
845.493	-0.22
845.662	-1.42
845.831	0.27
846	0.15
846.169	-0.86
846.338	1.48
846.507	-0.13
846.676	0.99
846.844	-0.73
847.013	1.42
847.182	-0.55
847.351	-0.77
847.52	-0.54
847.689	0.24
847.858	0.22
848.026	-0.54
848.195	-0.38
848.364	-0.66
848.533	-0.89
848.701	-0.77
848.87	-0.48
849.039	0.81
849.207	0.51
849.376	0.88
849.545	0.31
849.713	-0.97
849.882	-0.54
850.051	-0.35
850.219	-0.5
850.388	1.14
850.556	-1.28
850.725	-1.39
850.893	0.77
851.062	-0.52
851.23	0.24
851.399	-0.84
851.567	0.24
851.736	-1.11
851.904	-1.2
852.073	-0.56
852.241	1.48
852.41	-0.45
852.578	-0.92
852.746	-0.3
852.915	-0.1
853.083	-0.93
853.251	-0.46
853.42	0.02
853.588	-0.55
853.756	0.81
853.924	0.19
854.093	-0.77
854.261	-0.08
854.429	-1.07
854.597	0.06
854.765	-0.77
854.934	0.49
855.102	1.08
855.27	0.38
855.438	0.54
855.606	0.96
855.774	1.18
855.942	-1.21
856.11	-2.06
856.278	-0.41
856.446	0.94
856.614	-1.26
856.782	-0.82
856.95	1.31
857.118	0.52
857.286	-0.17
857.454	-0.78
857.622	1.8
857.79	1.29
857.958	-2.3
858.126	-0.03
858.294	-2.16
858.462	-0.47
858.629	-0.44
858.797	-0.85
858.965	-0.49
859.133	-0.57
859.301	-0.1
859.468	-0.3
859.636	-1
859.804	1.73
859.971	0.78
860.139	-0.54
860.307	1.77
860.474	-0.89
860.642	-0.8
860.81	-1.05
860.977	0.45
861.145	0.61
861.313	-0.82
861.48	-0.95
861.648	1.74
861.815	-0.97
861.983	-2.19
862.15	-1.8
862.318	1.32
862.485	1.33
862.653	-1.31
862.82	-1.18
862.988	1.46
863.155	1.17
863.322	-0.86
863.49	-2.2
863.657	-0.29
863.824	2.31
863.992	-0.13
864.159	-0.17
864.326	2.49
864.494	-0.57
864.661	2.35
864.828	-1.41
864.996	0.56
865.163	0.22
865.33	-0.59
865.497	-3.24
865.664	-0.74
865.832	-1.52
865.999	-0.98
866.166	-1.78
866.333	-0.21
866.5	-0.47
866.667	-1.02
866.834	0.31
867.001	0.68
867.168	-0.49
867.335	0.68
867.502	-1.88
867.669	-0.09
867.836	1.72
868.003	-2.18
868.17	-0.02
868.337	2.25
868.504	3.07
868.671	-2.12
868.838	-0.6
869.005	-0.39
869.172	-0.27
869.339	-0.69
869.505	-0.84
869.672	-1.43
869.839	1.47
870.006	-2.05
870.173	-2.48
870.339	0.93
870.506	3.63
870.673	-0.64
870.84	-0.38
871.006	-0.26
871.173	-0.45
871.34	-0.52
871.506	-2.65
871.673	-0.15
871.839	-3.11
872.006	-0.14
872.173	-0.5
872.339	-1.23
872.506	0.74
872.672	-0.17
872.839	-1.37
873.005	0.06
873.172	3.98
873.338	0.5
873.505	-0.76
873.671	-1.45
873.838	0.94
874.004	-1.84
874.171	-0.4
874.337	-0.31
874.503	-0.07
874.67	-1.64
874.836	-0.85
875.002	2.64
875.169	-0
875.335	0.17
875.501	-0.23
875.668	0.59
875.834	0.28
876	-1.23
876.166	0.1
876.332	0.59
876.499	3.05
876.665	-0.66
876.831	-0.26
876.997	4.08
877.163	2.13
877.329	-0.7
877.495	0.67
877.662	2.74
877.828	-0.3
877.994	-1.97
878.16	-3.42
878.326	-0.98
878.492	0.22
878.658	-0.23
878.824	-1.16
878.99	0.29
879.156	-1.25
879.322	0.01
879.487	0.65
879.653	1.47
879.819	0.39
879.985	-2.05
880.151	-1.03
880.317	0.01
880.483	1.23
880.648	1.06
880.814	-2.82
880.98	-0.21
881.146	-2.31
881.312	-0.25
881.477	-1.23
881.643	-1.11
881.809	0.64
881.974	-0.23
882.14	-2.37
882.306	-0.42
882.471	3.24
882.637	0.01
882.803	-1.47
882.968	2.39
883.134	4.45
883.299	-1.48
883.465	-1.29
883.63	0.07
883.796	1.92
883.961	0.96
884.127	0.46
884.292	-5.96
884.458	-1.8
884.623	-1.79
