Data from Apollo_Calib_20240827__AbsoluteIrradiance__166__01-55-01-487.txt Node

Date: Wed Aug 28 01:55:01 BST 2024
User: biology
Spectrometer: FLMT08252
Trigger mode: 0
Integration Time (sec): 5.000000E-1
Scans to average: 5
Electric dark correction enabled: true
Nonlinearity correction enabled: false
Boxcar width: 0
XAxis mode: Wavelengths
Number of Pixels in Spectrum: 3648
>>>>>Begin Spectral Data<<<<<
179.588	-0
179.809	-0
180.03	-0
180.251	-0
180.473	-0
180.694	0
180.915	0
181.136	-0
181.357	0
181.578	-0
181.799	-0
182.02	0
182.241	-0
182.462	0
182.683	0
182.904	-0
183.125	-0
183.346	0
183.567	0
183.788	-0
184.009	-0
184.23	0
184.451	0
184.672	-0
184.892	-0
185.113	0
185.334	0
185.555	-0
185.776	-0
185.996	0
186.217	-0
186.438	0
186.659	-0
186.879	0
187.1	-0
187.321	-0
187.541	-0
187.762	0
187.983	-0
188.203	-0
188.424	0
188.644	0
188.865	-0
189.086	-0
189.306	-0
189.527	0
189.747	0
189.968	-0
190.188	0
190.409	0
190.629	0
190.849	-0
191.07	-0
191.29	0
191.511	-0
191.731	-0
191.951	-0
192.172	-0
192.392	-0
192.612	0
192.833	-0
193.053	0
193.273	0
193.493	-0
193.714	-0
193.934	0
194.154	0
194.374	-0
194.594	0
194.815	0
195.035	0
195.255	0
195.475	-0
195.695	0
195.915	0
196.135	-0
196.355	0
196.575	0
196.795	-0
197.015	-0
197.235	-0
197.455	-0
197.675	0
197.895	-0
198.115	-0
198.335	0
198.555	-0
198.775	0
198.995	0
199.214	0
199.434	0
199.654	-0
199.874	-0
200.094	1.09
200.313	-0.46
200.533	-0.18
200.753	-0.81
200.973	0.9
201.192	0.44
201.412	-1.01
201.632	-0.51
201.851	0.66
202.071	-0.46
202.291	-0.01
202.51	-0.33
202.73	0.59
202.95	-0.55
203.169	-0.55
203.389	-0.48
203.608	-0.3
203.828	-0.42
204.047	-0.53
204.267	0.59
204.486	-0.26
204.706	0.09
204.925	-0.16
205.145	-0.52
205.364	0.48
205.583	0.81
205.803	-0.03
206.022	-0.26
206.242	-0.1
206.461	0.43
206.68	-0.36
206.9	-0.08
207.119	0.44
207.338	0.28
207.557	-0.37
207.777	-0.38
207.996	0.02
208.215	0.49
208.434	-0.16
208.654	-0.65
208.873	0.22
209.092	0.51
209.311	-0.18
209.53	-0.11
209.749	-0.02
209.968	-0.12
210.187	-0.28
210.407	-0.43
210.626	-0.23
210.845	0.02
211.064	0.03
211.283	-0.2
211.502	0.31
211.721	-0.06
211.94	-0.24
212.159	0.11
212.377	0.33
212.596	0.41
212.815	-0.03
213.034	0.03
213.253	0.32
213.472	0.29
213.691	-0.17
213.91	0.04
214.128	-0.2
214.347	0.35
214.566	-0.58
214.785	-0.27
215.003	-0.01
215.222	-0.02
215.441	-0.02
215.66	-0.37
215.878	0.06
216.097	0.2
216.316	-0.29
216.534	-0.06
216.753	0.05
216.972	0
217.19	-0.11
217.409	-0.05
217.627	-0.18
217.846	-0.15
218.064	-0
218.283	-0.19
218.501	0.27
218.72	0.22
218.938	-0.27
219.157	-0.01
219.375	0.22
219.594	0.13
219.812	-0.27
220.031	-0.25
220.249	0.32
220.467	0.43
220.686	0.06
220.904	-0.27
221.122	-0.17
221.341	0.36
221.559	0.02
221.777	-0.22
221.995	0.07
222.214	0.03
222.432	-0.16
222.65	0.04
222.868	0.06
223.086	0.13
223.305	-0.06
223.523	0.06
223.741	0.15
223.959	-0.15
224.177	-0.2
224.395	-0.09
224.613	0.1
224.831	0.07
225.049	-0.16
225.267	-0.06
225.485	0
225.703	-0.04
225.921	-0.01
226.139	-0.12
226.357	0.09
226.575	0.02
226.793	-0.17
227.011	0.58
227.229	0.09
227.447	0.12
227.665	-0.09
227.883	-0.28
228.1	-0.04
228.318	0.07
228.536	-0.25
228.754	-0.23
228.972	0.02
229.189	0.14
229.407	-0.15
229.625	-0.04
229.843	0.15
230.06	0.26
230.278	-0.18
230.496	-0
230.713	0.02
230.931	0.29
231.149	-0.05
231.366	-0.23
231.584	-0.1
231.801	0.31
232.019	0.03
232.236	-0.05
232.454	-0.02
232.671	0.1
232.889	-0.05
233.106	-0.14
233.324	-0.16
233.541	-0.02
233.759	0.06
233.976	-0.07
234.194	-0.07
234.411	-0.1
234.628	-0.07
234.846	-0
235.063	-0.1
235.28	-0.04
235.498	-0.05
235.715	-0.15
235.932	0.1
236.149	-0.05
236.367	-0.16
236.584	-0.02
236.801	0.02
237.018	0.1
237.236	-0.03
237.453	-0.18
237.67	0.16
237.887	-0.02
238.104	-0.03
238.321	-0.12
238.538	-0.07
238.755	0.13
238.973	-0.17
239.19	0
239.407	0.01
239.624	0.02
239.841	-0.16
240.058	-0.11
240.275	0.01
240.492	-0.01
240.709	-0.08
240.925	-0.03
241.142	-0.02
241.359	-0.11
241.576	-0.09
241.793	-0.04
242.01	-0.03
242.227	0.07
242.444	0.1
242.66	0.05
242.877	0.04
243.094	-0.07
243.311	0
243.527	-0.04
243.744	0
243.961	0.09
244.178	-0.11
244.394	-0.08
244.611	0.04
244.828	0.08
245.044	-0.13
245.261	-0.02
245.477	-0.01
245.694	0.01
245.911	-0.06
246.127	-0.05
246.344	0.12
246.56	0.02
246.777	-0.06
246.993	-0.08
247.21	0.01
247.426	0.08
247.643	-0.06
247.859	-0.09
248.076	-0.09
248.292	0.22
248.508	0.02
248.725	0.09
248.941	0.02
249.157	0.1
249.374	-0.01
249.59	0.01
249.806	0.05
250.023	0.19
250.239	-0.09
250.455	-0.02
250.671	-0.01
250.888	0.12
251.104	0.02
251.32	-0.08
251.536	-0.04
251.752	0.01
251.969	0.02
252.185	0.02
252.401	0.16
252.617	0.04
252.833	-0.06
253.049	0.06
253.265	0
253.481	0.07
253.697	-0.11
253.913	-0.06
254.129	0.01
254.345	0.03
254.561	-0.04
254.777	0.02
254.993	0.1
255.209	0.04
255.425	-0.06
255.641	-0.06
255.857	0.07
256.073	0.02
256.288	-0.16
256.504	-0.05
256.72	0.1
256.936	0.12
257.152	0.06
257.367	-0.08
257.583	0.04
257.799	0.1
258.015	-0.08
258.23	-0.02
258.446	0.16
258.662	0
258.877	-0.01
259.093	-0.1
259.309	0.01
259.524	0.03
259.74	-0.05
259.955	-0.15
260.171	0.04
260.387	-0.02
260.602	0.08
260.818	0.04
261.033	-0.03
261.249	-0.07
261.464	-0.08
261.68	-0.12
261.895	0.04
262.11	0.08
262.326	-0.02
262.541	-0.09
262.757	0.08
262.972	0.07
263.187	0.04
263.403	-0.02
263.618	0.05
263.833	0
264.049	-0.09
264.264	0.02
264.479	0.02
264.694	0.11
264.91	-0.07
265.125	-0.01
265.34	0.04
265.555	0.1
265.77	0.06
265.986	-0.03
266.201	0.04
266.416	0.08
266.631	0.03
266.846	-0
267.061	0.08
267.276	0.04
267.491	-0.18
267.706	0.06
267.921	0.06
268.136	-0.05
268.351	0
268.566	-0.06
268.781	0.06
268.996	0.1
269.211	0.01
269.426	-0.06
269.641	-0.06
269.856	0.05
270.071	-0.06
270.285	-0.08
270.5	0.05
270.715	0.06
270.93	0.02
271.145	-0.01
271.359	0.01
271.574	-0.06
271.789	0.01
272.004	-0.09
272.218	-0.07
272.433	0.11
272.648	-0.08
272.862	0.06
273.077	0
273.292	0
273.506	-0.08
273.721	-0.06
273.936	0.06
274.15	0.08
274.365	-0.02
274.579	0.01
274.794	0.05
275.008	0.05
275.223	-0.07
275.437	0.01
275.652	0.05
275.866	0.04
276.081	0.04
276.295	0.07
276.509	0.01
276.724	0.03
276.938	-0.02
277.153	0.03
277.367	0.08
277.581	-0.05
277.796	-0.03
278.01	-0.03
278.224	0.04
278.438	0.13
278.653	-0.04
278.867	-0.01
279.081	0.05
279.295	-0.05
279.51	-0
279.724	-0.12
279.938	0.06
280.152	0.03
280.366	-0.03
280.58	0.02
280.794	0.05
281.008	0.06
281.222	0.08
281.437	0.12
281.651	-0
281.865	0.06
282.079	-0.01
282.293	-0.11
282.507	-0.09
282.721	-0.06
282.935	-0.06
283.148	-0.09
283.362	-0
283.576	-0.05
283.79	-0.03
284.004	-0.01
284.218	0.09
284.432	-0.06
284.646	0.08
284.859	-0.02
285.073	-0.01
285.287	0.02
285.501	-0
285.714	0.01
285.928	-0.01
286.142	0.04
286.356	-0.02
286.569	-0.04
286.783	0.13
286.997	0.03
287.21	0.05
287.424	0.03
287.637	-0.01
287.851	-0.03
288.065	0.02
288.278	-0.03
288.492	0.04
288.705	-0.03
288.919	0.08
289.132	-0.03
289.346	0.09
289.559	-0.07
289.773	-0.04
289.986	0
290.2	0.01
290.413	0.06
290.626	-0.04
290.84	-0.04
291.053	0.03
291.267	0.08
291.48	0.01
291.693	-0.02
291.906	-0.06
292.12	-0.01
292.333	-0.06
292.546	-0.01
292.76	0.09
292.973	0.03
293.186	0.03
293.399	0.01
293.612	0.06
293.826	-0
294.039	0.01
294.252	0.03
294.465	0.06
294.678	0.05
294.891	0.03
295.104	-0.04
295.317	0
295.53	-0.02
295.743	0.05
295.956	-0.01
296.169	0.06
296.382	0.01
296.595	0.02
296.808	0
297.021	0.05
297.234	0.05
297.447	0.03
297.66	0.03
297.873	0.08
298.086	0.01
298.299	-0.04
298.511	-0.02
298.724	0
298.937	-0.02
299.15	-0.04
299.363	0.01
299.575	0.03
299.788	0.04
300.001	0.02
300.213	-0.02
300.426	0.01
300.639	-0.02
300.852	-0.05
301.064	0.04
301.277	0.02
301.489	0.01
301.702	0.02
301.915	0
302.127	-0.02
302.34	0.02
302.552	0.04
302.765	-0.02
302.977	0.05
303.19	0.01
303.402	0.01
303.615	-0.01
303.827	-0.01
304.04	-0.05
304.252	0.05
304.464	0.02
304.677	0.13
304.889	0.05
305.102	-0.06
305.314	-0.02
305.526	0.04
305.739	0.06
305.951	-0.04
306.163	0.01
306.375	0.11
306.588	-0.04
306.8	-0.05
307.012	-0.02
307.224	0.06
307.436	0.07
307.649	-0.06
307.861	0.03
308.073	0.01
308.285	0.01
308.497	-0.09
308.709	-0.04
308.921	0.04
309.133	0.08
309.346	-0
309.558	0.02
309.77	0.05
309.982	0.1
310.194	0.02
310.406	-0.02
310.617	0.09
310.829	0.04
311.041	0.03
311.253	-0.03
311.465	-0.01
311.677	0.01
311.889	-0.01
312.101	-0.02
312.313	0.09
312.524	0.03
312.736	-0.01
312.948	-0.01
313.16	0.11
313.372	0.03
313.583	0.03
313.795	0.01
314.007	-0.01
314.218	0.05
314.43	-0
314.642	-0.02
314.853	-0.03
315.065	-0
315.277	0.01
315.488	0.02
315.7	0.05
315.912	0
316.123	0.02
316.335	0.03
316.546	0.1
316.758	-0.01
316.969	-0.03
317.181	0.02
317.392	-0.02
317.604	0.05
317.815	-0.06
318.026	-0.01
318.238	-0.03
318.449	0.03
318.661	-0.05
318.872	-0.08
319.083	-0.02
319.295	0.04
319.506	-0.01
319.717	0
319.929	0.04
320.14	0.01
320.351	0.03
320.562	-0.02
320.774	0.09
320.985	0.01
321.196	-0.02
321.407	-0.09
321.618	0.1
321.829	0.04
322.041	0.04
322.252	0.03
322.463	0.04
322.674	0.08
322.885	-0.03
323.096	-0.01
323.307	0
323.518	0.03
323.729	-0.03
323.94	-0.02
324.151	-0
324.362	0.05
324.573	0.05
324.784	-0.01
324.995	0.03
325.206	-0.02
325.417	0.02
325.628	-0.02
325.838	0.03
326.049	0.01
326.26	0.04
326.471	0
326.682	0.03
326.892	-0.03
327.103	-0.08
327.314	-0.04
327.525	0.05
327.735	0.01
327.946	-0.02
328.157	-0.06
328.368	0.07
328.578	-0.01
328.789	0.07
328.999	0
329.21	-0.03
329.421	0.04
329.631	-0.03
329.842	-0.06
330.052	0.02
330.263	0.02
330.473	0.03
330.684	0.01
330.894	-0.01
331.105	0.02
331.315	0.01
331.526	-0.02
331.736	0.12
331.947	0.02
332.157	0.04
332.367	-0.06
332.578	0.05
332.788	0.09
332.999	0.03
333.209	0.04
333.419	-0.03
333.629	0.01
333.84	0.03
334.05	0.02
334.26	0.06
334.47	0.02
334.681	0.08
334.891	-0.05
335.101	0.06
335.311	0.11
335.521	0.02
335.732	-0.02
335.942	0.09
336.152	0.02
336.362	0.03
336.572	0
336.782	0.05
336.992	0.02
337.202	0
337.412	-0.03
337.622	0.05
337.832	0.01
338.042	0.02
338.252	-0.03
338.462	-0.04
338.672	0.05
338.882	0.01
339.092	0.05
339.302	0.06
339.511	0.09
339.721	-0.06
339.931	-0.06
340.141	0.12
340.351	0.07
340.561	0.06
340.77	0.05
340.98	0.04
341.19	0.04
341.4	-0.01
341.609	-0.04
341.819	0.02
342.029	-0.05
342.238	0.08
342.448	-0.04
342.658	0.04
342.867	0.02
343.077	0.01
343.286	0.01
343.496	0.03
343.706	0.07
343.915	0.02
344.125	0.02
344.334	0.02
344.544	-0.04
344.753	-0.02
344.963	0.01
345.172	0.04
345.381	-0
345.591	0.03
345.8	-0.01
346.01	0.05
346.219	0.05
346.428	-0.13
346.638	-0.01
346.847	0.02
347.056	0.06
347.266	-0.02
347.475	0.05
347.684	0.03
347.893	0.03
348.103	0.02
348.312	0.01
348.521	0.03
348.73	0.03
348.94	-0.01
349.149	-0.05
349.358	0.01
349.567	-0.03
349.776	-0.04
349.985	-0.03
350.194	0.02
350.403	0.02
350.612	-0.01
350.821	0.01
351.03	-0.01
351.239	-0.07
351.448	0.03
351.657	-0
351.866	0.07
352.075	0.01
352.284	-0.03
352.493	-0.04
352.702	0.07
352.911	0.04
353.12	0.06
353.329	0
353.538	0.05
353.746	-0.02
353.955	-0.01
354.164	0.05
354.373	0.02
354.582	0.06
354.79	0.01
354.999	0.05
355.208	0.01
355.416	0.1
355.625	-0.04
355.834	-0.03
356.042	-0.03
356.251	-0.02
356.46	-0
356.668	0.04
356.877	0.13
357.085	0.03
357.294	-0.05
357.503	0.02
357.711	-0.04
357.92	0.12
358.128	0.01
358.337	0
358.545	0.07
358.754	-0.01
358.962	0.02
359.17	0.01
359.379	0.02
359.587	0.07
359.796	0.02
360.004	0.04
360.212	0.03
360.421	0.07
360.629	-0.01
360.837	0.01
361.046	0.05
361.254	0.12
361.462	0.01
361.67	-0.02
361.879	0.03
362.087	0.09
362.295	-0.02
362.503	-0.04
362.711	-0.01
362.92	-0.03
363.128	-0.02
363.336	-0.01
363.544	-0.04
363.752	-0
363.96	0
364.168	-0.03
364.376	0.03
364.584	0.01
364.792	0.07
365	0.04
365.208	0.04
365.416	0.03
365.624	0.06
365.832	0
366.04	0.05
366.248	0.01
366.456	0.05
366.664	0.04
366.872	0.02
367.079	-0
367.287	-0.01
367.495	0.02
367.703	0.04
367.911	0.01
368.118	-0
368.326	0.01
368.534	0.01
368.742	0.04
368.949	-0.01
369.157	-0.04
369.365	0.02
369.572	0.02
369.78	-0.04
369.988	0.07
370.195	0.06
370.403	0.03
370.61	-0.02
370.818	0.02
371.026	0.07
371.233	-0.04
371.441	0.02
371.648	0.03
371.856	0.04
372.063	0.03
372.271	0.01
372.478	0
372.685	-0.02
372.893	0.08
373.1	-0.03
373.308	-0.01
373.515	0.1
373.722	0.03
373.93	0.03
374.137	0.06
374.344	0.1
374.552	0.07
374.759	0.07
374.966	0.07
375.173	0.01
375.381	0.09
375.588	0.02
375.795	-0.06
376.002	0
376.209	-0.01
376.417	0.03
376.624	0.02
376.831	0.05
377.038	0.03
377.245	-0.07
377.452	-0.01
377.659	0.04
377.866	0
378.073	0.04
378.28	0.04
378.487	0.02
378.694	0.06
378.901	0.03
379.108	0.03
379.315	0.05
379.522	0.13
379.729	0.02
379.936	0.01
380.143	0.01
380.35	0.07
380.557	-0.01
380.763	0.04
380.97	0.05
381.177	0.05
381.384	0.06
381.591	-0.03
381.797	0.04
382.004	0.06
382.211	0.09
382.418	0.05
382.624	0.07
382.831	0.07
383.038	0.02
383.244	0.06
383.451	0.03
383.658	0.03
383.864	0.03
384.071	0.04
384.277	0.11
384.484	0.03
384.69	0.12
384.897	0.01
385.103	0.05
385.31	0.05
385.516	0.09
385.723	0.04
385.929	0.08
386.136	0.07
386.342	0.09
386.549	0.06
386.755	0.14
386.961	0.12
387.168	0.09
387.374	0.08
387.58	0.18
387.787	0.09
387.993	0.18
388.199	0.1
388.406	0.07
388.612	0.11
388.818	0.07
389.024	0.13
389.231	0.13
389.437	0.25
389.643	0.19
389.849	0.18
390.055	0.15
390.261	0.19
390.467	0.18
390.674	0.15
390.88	0.21
391.086	0.19
391.292	0.18
391.498	0.28
391.704	0.25
391.91	0.27
392.116	0.27
392.322	0.2
392.528	0.33
392.734	0.32
392.94	0.34
393.146	0.29
393.352	0.38
393.557	0.39
393.763	0.4
393.969	0.49
394.175	0.47
394.381	0.5
394.587	0.48
394.792	0.53
394.998	0.62
395.204	0.64
395.41	0.59
395.615	0.66
395.821	0.76
396.027	0.79
396.233	0.81
396.438	0.84
396.644	0.98
396.85	0.97
397.055	0.94
397.261	1.08
397.466	1.19
397.672	1.18
397.878	1.21
398.083	1.29
398.289	1.29
398.494	1.37
398.7	1.46
398.905	1.36
399.111	1.67
399.316	1.56
399.522	1.68
399.727	1.72
399.932	1.79
400.138	1.81
400.343	1.97
400.549	2.03
400.754	2.17
400.959	2.3
401.165	2.39
401.37	2.47
401.575	2.67
401.78	2.69
401.986	2.84
402.191	2.88
402.396	3.05
402.601	3.18
402.807	3.4
403.012	3.45
403.217	3.75
403.422	3.69
403.627	3.88
403.832	4.02
404.037	4.16
404.243	4.25
404.448	4.41
404.653	4.51
404.858	4.61
405.063	4.67
405.268	4.8
405.473	4.86
405.678	4.9
405.883	5.23
406.088	5.21
406.293	5.15
406.498	5.28
406.703	5.33
406.907	5.42
407.112	5.6
407.317	5.72
407.522	5.78
407.727	5.82
407.932	5.87
408.136	6.02
408.341	5.84
408.546	5.79
408.751	5.87
408.956	5.72
409.16	5.89
409.365	5.79
409.57	5.62
409.774	5.57
409.979	5.49
410.184	5.38
410.388	5.26
410.593	5.28
410.798	5.26
411.002	5.18
411.207	5.04
411.411	4.9
411.616	4.72
411.82	4.76
412.025	4.63
412.229	4.45
412.434	4.38
412.638	4.28
412.843	4.07
413.047	3.97
413.252	3.8
413.456	3.81
413.66	3.63
413.865	3.55
414.069	3.41
414.273	3.36
414.478	3.17
414.682	3.14
414.886	3.01
415.091	2.85
415.295	2.78
415.499	2.81
415.703	2.61
415.908	2.63
416.112	2.44
416.316	2.52
416.52	2.39
416.724	2.26
416.929	2.23
417.133	2.35
417.337	2.14
417.541	2.15
417.745	2.07
417.949	2.07
418.153	2.05
418.357	1.9
418.561	2.06
418.765	1.89
418.969	1.96
419.173	1.91
419.377	1.78
419.581	1.9
419.785	1.74
419.989	1.59
420.193	1.65
420.397	1.63
420.601	1.64
420.804	1.66
421.008	1.52
421.212	1.55
421.416	1.43
421.62	1.33
421.823	1.35
422.027	1.36
422.231	1.22
422.435	1.2
422.638	1.18
422.842	1.07
423.046	1.05
423.249	1.05
423.453	1.04
423.657	1.03
423.86	0.95
424.064	0.97
424.268	0.98
424.471	0.87
424.675	0.96
424.878	0.94
425.082	0.77
425.285	0.82
425.489	0.78
425.692	0.77
425.896	0.68
426.099	0.7
426.303	0.66
426.506	0.57
426.71	0.64
426.913	0.71
427.116	0.69
427.32	0.61
427.523	0.58
427.726	0.69
427.93	0.51
428.133	0.56
428.336	0.54
428.54	0.46
428.743	0.55
428.946	0.59
429.149	0.44
429.353	0.53
429.556	0.5
429.759	0.43
429.962	0.45
430.165	0.47
430.368	0.38
430.571	0.34
430.775	0.39
430.978	0.39
431.181	0.42
431.384	0.42
431.587	0.34
431.79	0.33
431.993	0.3
432.196	0.34
432.399	0.33
432.602	0.42
432.805	0.35
433.008	0.33
433.211	0.29
433.414	0.37
433.616	0.35
433.819	0.35
434.022	0.27
434.225	0.37
434.428	0.36
434.631	0.43
434.833	0.3
435.036	0.32
435.239	0.32
435.442	0.33
435.645	0.29
435.847	0.28
436.05	0.3
436.253	0.26
436.455	0.27
436.658	0.26
436.861	0.33
437.063	0.19
437.266	0.19
437.468	0.31
437.671	0.34
437.874	0.25
438.076	0.17
438.279	0.26
438.481	0.23
438.684	0.15
438.886	0.22
439.089	0.17
439.291	0.18
439.494	0.26
439.696	0.18
439.899	0.18
440.101	0.2
440.303	0.13
440.506	0.23
440.708	0.21
440.91	0.21
441.113	0.15
441.315	0.24
441.517	0.12
441.72	0.21
441.922	0.12
442.124	0.12
442.326	0.18
442.529	0.24
442.731	0.11
442.933	0.26
443.135	0.13
443.337	0.16
443.539	0.19
443.742	0.1
443.944	0.18
444.146	0.09
444.348	0.09
444.55	0.13
444.752	0.05
444.954	0.1
445.156	0.16
445.358	0.06
445.56	0.18
445.762	0.12
445.964	0.13
446.166	0.06
446.368	0.07
446.57	0.12
446.772	0.11
446.974	0.08
447.175	0.13
447.377	0.06
447.579	0.14
447.781	-0.04
447.983	0.16
448.184	0.1
448.386	0.1
448.588	0.02
448.79	0.09
448.991	0.07
449.193	0.06
449.395	0.07
449.597	0.13
449.798	0.1
450	0.11
450.202	0.06
450.403	0.05
450.605	0.1
450.806	0.08
451.008	-0.04
451.21	0.06
451.411	0.04
451.613	0.05
451.814	0.06
452.016	0.08
452.217	0.11
452.419	0.14
452.62	0.08
452.821	0.12
453.023	0.13
453.224	0.14
453.426	0.08
453.627	0.13
453.828	0.12
454.03	0.1
454.231	0.09
454.432	0.06
454.634	0.13
454.835	0.07
455.036	0.03
455.238	0.13
455.439	0.16
455.64	0.02
455.841	0.01
456.042	0.19
456.244	0.12
456.445	0.04
456.646	0.04
456.847	0.1
457.048	0.14
457.249	0.12
457.45	0.35
457.651	0.03
457.852	0.16
458.054	0.07
458.255	0.08
458.456	0.13
458.657	0.13
458.858	-0
459.058	0.08
459.259	0.1
459.46	0.09
459.661	0.07
459.862	0.17
460.063	0.04
460.264	0.13
460.465	-0.03
460.666	0.16
460.866	0.06
461.067	0.11
461.268	0.05
461.469	0.02
461.67	0.07
461.87	0.04
462.071	0.02
462.272	0.04
462.473	0.05
462.673	0.12
462.874	0.04
463.075	0.14
463.275	-0
463.476	0.1
463.676	0.11
463.877	0.09
464.078	0.02
464.278	0.12
464.479	0.06
464.679	0.09
464.88	0.05
465.08	0.16
465.281	0.06
465.481	0.07
465.682	0.08
465.882	0.1
466.083	0.08
466.283	0.08
466.483	0.03
466.684	0.05
466.884	0.06
467.085	0.03
467.285	0.11
467.485	0.03
467.686	0.02
467.886	0
468.086	0.08
468.286	0.09
468.487	0.1
468.687	0.05
468.887	0.03
469.087	0.15
469.287	0.07
469.488	0.02
469.688	0.12
469.888	0.12
470.088	0.06
470.288	0.1
470.488	0.1
470.688	0.02
470.888	0.04
471.088	-0
471.288	0.12
471.488	0.1
471.688	0.09
471.888	0.01
472.088	0.09
472.288	0.09
472.488	0.03
472.688	0.01
472.888	0.06
473.088	0.07
473.288	0.05
473.488	0.05
473.688	0.12
473.887	0.05
474.087	0.03
474.287	0.07
474.487	0.01
474.687	0.06
474.886	0.03
475.086	0.06
475.286	0.08
475.486	0.1
475.685	0.05
475.885	0.02
476.085	0.03
476.284	0.06
476.484	0.02
476.684	0.09
476.883	0.11
477.083	0.06
477.282	0.05
477.482	0.08
477.681	0.1
477.881	0.03
478.08	0.02
478.28	0.01
478.479	0.05
478.679	0.14
478.878	0.01
479.078	0.01
479.277	0.08
479.477	0.04
479.676	0.06
479.875	0.03
480.075	-0.02
480.274	0.05
480.473	0.05
480.673	0
480.872	0.09
481.071	0.05
481.271	0.04
481.47	0
481.669	0.03
481.868	0.05
482.067	0.04
482.267	0.01
482.466	0
482.665	0
482.864	-0.03
483.063	-0.02
483.262	0.04
483.461	0.08
483.661	0.05
483.86	0.02
484.059	0.04
484.258	0.04
484.457	0.03
484.656	0.01
484.855	0.06
485.054	-0
485.253	-0
485.452	-0.03
485.651	0.02
485.849	0.04
486.048	-0
486.247	-0
486.446	0.04
486.645	0.01
486.844	0.02
487.043	0.02
487.241	0.05
487.44	-0.01
487.639	0.02
487.838	0.04
488.037	0.05
488.235	0.09
488.434	0.03
488.633	-0.02
488.831	0.03
489.03	0.04
489.229	0.05
489.427	0.01
489.626	0.05
489.825	0.06
490.023	0.03
490.222	0.01
490.42	0.04
490.619	0.05
490.817	0.04
491.016	0.02
491.214	0.03
491.413	0.01
491.611	0
491.81	0.01
492.008	0.04
492.207	0.03
492.405	0.04
492.604	-0.01
492.802	0
493	0.01
493.199	-0.02
493.397	0.04
493.595	0.01
493.794	0
493.992	0.06
494.19	0.01
494.388	0.04
494.587	0.01
494.785	0.01
494.983	-0.03
495.181	0.02
495.379	0.05
495.578	-0.01
495.776	0.04
495.974	0.03
496.172	0.01
496.37	0.02
496.568	-0.01
496.766	0.01
496.964	0.07
497.162	0.02
497.36	-0.02
497.558	0.04
497.756	0.02
497.954	0.01
498.152	-0
498.35	0.01
498.548	0.03
498.746	0.04
498.944	-0.01
499.142	0.01
499.34	-0.02
499.538	-0.01
499.736	-0.01
499.933	0.06
500.131	0.05
500.329	0.01
500.527	0.04
500.725	0.06
500.922	0.05
501.12	0.03
501.318	0.03
501.516	-0.01
501.713	0.02
501.911	0
502.109	-0.02
502.306	0.03
502.504	0.01
502.701	-0
502.899	0.01
503.097	0.06
503.294	0.02
503.492	0.01
503.689	0.02
503.887	0.04
504.084	0.06
504.282	0.02
504.479	-0.01
504.677	0.02
504.874	-0
505.072	0
505.269	0.01
505.466	0.03
505.664	0.04
505.861	-0.02
506.059	0.01
506.256	0.03
506.453	-0.02
506.651	0.06
506.848	0.03
507.045	0.01
507.242	0.03
507.44	0
507.637	0.02
507.834	0.01
508.031	0.04
508.229	-0.02
508.426	0.03
508.623	0.04
508.82	-0
509.017	-0.01
509.214	-0.02
509.411	0.02
509.608	-0.03
509.805	0.01
510.003	-0
510.2	-0
510.397	0.03
510.594	0.02
510.791	-0.01
510.988	0.01
511.184	0.05
511.381	0.01
511.578	-0.01
511.775	0.01
511.972	-0
512.169	0.01
512.366	0.01
512.563	0.02
512.76	-0
512.956	-0
513.153	-0.01
513.35	0.02
513.547	-0.02
513.744	-0.01
513.94	0.02
514.137	0.01
514.334	0.02
514.53	0.03
514.727	0.01
514.924	0.03
515.12	-0.02
515.317	-0.02
515.514	-0.02
515.71	-0.03
515.907	0
516.103	0.02
516.3	0.05
516.497	0.04
516.693	0.03
516.89	0.01
517.086	-0.01
517.283	0.04
517.479	0.04
517.676	0.01
517.872	-0.01
518.068	-0.01
518.265	0.01
518.461	0.01
518.658	-0
518.854	-0.02
519.05	-0
519.247	-0.02
519.443	0.02
519.639	0.02
519.836	0
520.032	0.02
520.228	0.02
520.424	0.03
520.621	0.02
520.817	0.01
521.013	0.02
521.209	0.01
521.405	0.06
521.601	0.02
521.798	0.02
521.994	0.04
522.19	-0.01
522.386	-0.01
522.582	0.01
522.778	-0.01
522.974	0
523.17	0.02
523.366	0.03
523.562	0.04
523.758	0
523.954	-0.01
524.15	-0.01
524.346	0.04
524.542	0.01
524.738	-0.02
524.934	-0.01
525.129	0.02
525.325	0.02
525.521	0
525.717	0.05
525.913	-0.01
526.109	-0
526.304	-0.02
526.5	0.03
526.696	0.02
526.892	-0
527.087	0.02
527.283	-0.01
527.479	0.01
527.674	0
527.87	0.01
528.066	0
528.261	0.01
528.457	0.03
528.653	0.01
528.848	-0.01
529.044	0.02
529.239	-0.02
529.435	0.05
529.63	-0
529.826	0.05
530.021	0
530.217	0.04
530.412	0
530.608	0.01
530.803	0.02
530.999	-0.01
531.194	-0.03
531.389	0.03
531.585	-0.04
531.78	0.01
531.975	0
532.171	0.04
532.366	-0.01
532.561	-0.02
532.757	-0
532.952	0.01
533.147	0.02
533.342	0.01
533.538	0
533.733	0.04
533.928	-0.03
534.123	-0.03
534.318	-0.01
534.513	-0.01
534.709	-0.01
534.904	0
535.099	0.02
535.294	-0
535.489	-0
535.684	0
535.879	-0.03
536.074	0
536.269	-0
536.464	0
536.659	0.01
536.854	0
537.049	0.01
537.244	0.02
537.439	-0.02
537.634	0.05
537.828	0
538.023	-0
538.218	-0.02
538.413	0.01
538.608	-0.04
538.803	0.01
538.997	-0.03
539.192	0.03
539.387	0.03
539.582	0.02
539.776	0.01
539.971	0
540.166	-0
540.36	-0.04
540.555	0.01
540.75	-0.01
540.944	0
541.139	-0.02
541.334	-0.01
541.528	0.02
541.723	0.02
541.917	-0.02
542.112	-0.03
542.306	-0.02
542.501	-0
542.695	0
542.89	-0.02
543.084	0.02
543.279	0.01
543.473	0.01
543.668	0.01
543.862	-0.01
544.056	0.02
544.251	0
544.445	0
544.64	-0
544.834	-0.02
545.028	0.02
545.222	0.03
545.417	0.04
545.611	-0.01
545.805	0.01
546	-0.01
546.194	-0
546.388	-0.01
546.582	0.01
546.776	0
546.97	0.01
547.165	0.02
547.359	0.02
547.553	-0.01
547.747	0.01
547.941	0.01
548.135	0.03
548.329	0.02
548.523	0.01
548.717	-0
548.911	-0
549.105	-0.01
549.299	0.01
549.493	0.02
549.687	0.01
549.881	0.01
550.075	-0
550.269	-0.04
550.463	0.03
550.657	-0.02
550.85	0
551.044	-0.03
551.238	0.01
551.432	-0.01
551.626	-0.02
551.82	-0.01
552.013	-0.02
552.207	0
552.401	0.03
552.594	0.02
552.788	-0
552.982	-0.01
553.176	-0.03
553.369	0.02
553.563	0.02
553.756	-0.03
553.95	-0.01
554.144	-0.01
554.337	0.02
554.531	0.01
554.724	0.02
554.918	0.01
555.111	0.01
555.305	0.01
555.498	0.04
555.692	0.04
555.885	-0.01
556.079	0.01
556.272	-0.01
556.466	0.01
556.659	0.01
556.852	0.01
557.046	-0
557.239	0.02
557.432	-0.03
557.626	-0.01
557.819	0.02
558.012	0.02
558.206	0.02
558.399	0.01
558.592	0.01
558.785	0.01
558.979	0.01
559.172	0
559.365	0.04
559.558	0.03
559.751	0.01
559.944	0.03
560.138	0.02
560.331	-0.02
560.524	0.02
560.717	-0.01
560.91	0.01
561.103	0.02
561.296	0.02
561.489	-0
561.682	-0.01
561.875	0.04
562.068	0.02
562.261	-0
562.454	0.04
562.647	0.01
562.84	0.02
563.032	-0.02
563.225	0.02
563.418	-0
563.611	0
563.804	0.01
563.997	-0.02
564.19	-0.02
564.382	0.02
564.575	0.02
564.768	-0.01
564.961	-0.01
565.153	-0.01
565.346	0.01
565.539	0.03
565.731	-0
565.924	0.03
566.117	0.03
566.309	-0.01
566.502	0.01
566.695	0.02
566.887	0
567.08	-0.02
567.272	-0.02
567.465	-0
567.657	-0
567.85	0.03
568.042	0.01
568.235	0.04
568.427	-0.02
568.62	0
568.812	0.01
569.005	0.01
569.197	-0.04
569.389	0.01
569.582	0.01
569.774	0.03
569.966	-0.02
570.159	-0.01
570.351	0.02
570.543	-0.02
570.736	0.01
570.928	-0.04
571.12	0.03
571.312	-0.02
571.505	-0.03
571.697	0.03
571.889	-0.01
572.081	-0.01
572.273	-0.03
572.465	0.02
572.658	-0.01
572.85	-0.01
573.042	0
573.234	-0.02
573.426	0.02
573.618	-0.04
573.81	-0.02
574.002	0.03
574.194	0.03
574.386	-0.03
574.578	-0.06
574.77	-0.01
574.962	-0.02
575.154	-0.04
575.346	-0.01
575.538	-0
575.729	-0.02
575.921	-0.02
576.113	-0.01
576.305	0.01
576.497	-0.02
576.689	-0
576.88	-0.01
577.072	0.04
577.264	0
577.456	-0.02
577.647	-0.04
577.839	-0.01
578.031	0.05
578.223	-0.04
578.414	-0.03
578.606	0.02
578.798	0.01
578.989	-0.02
579.181	-0
579.372	0.02
579.564	0.01
579.755	-0
579.947	-0
580.139	0.02
580.33	-0.03
580.522	0
580.713	-0.07
580.905	-0.02
581.096	0
581.287	0.02
581.479	-0.02
581.67	0.03
581.862	0.01
582.053	-0.03
582.244	-0.05
582.436	-0.03
582.627	0
582.818	-0.01
583.01	-0.04
583.201	0.03
583.392	0.02
583.583	0
583.775	-0.03
583.966	-0
584.157	-0.02
584.348	-0.01
584.54	-0.04
584.731	0.02
584.922	-0.01
585.113	-0.02
585.304	0.02
585.495	0.01
585.686	0.02
585.877	-0.01
586.068	-0.01
586.259	0.02
586.45	0.01
586.641	-0.01
586.832	-0.05
587.023	-0
587.214	-0.01
587.405	0.01
587.596	-0.03
587.787	0.04
587.978	0.02
588.169	-0.03
588.36	-0.01
588.551	0.01
588.742	-0.03
588.932	0.02
589.123	-0.01
589.314	0.01
589.505	0.01
589.696	0.01
589.886	-0.01
590.077	-0.03
590.268	-0
590.458	-0.03
590.649	-0.03
590.84	0.02
591.03	-0.01
591.221	-0.03
591.412	-0.06
591.602	0.02
591.793	0.03
591.984	-0.02
592.174	-0.01
592.365	0.04
592.555	-0.06
592.746	0.01
592.936	0.02
593.127	0.04
593.317	0.02
593.508	-0.05
593.698	0.01
593.889	0.01
594.079	-0
594.269	-0.02
594.46	0
594.65	-0.02
594.84	0
595.031	-0.02
595.221	-0.01
595.411	-0.04
595.602	-0
595.792	-0
595.982	-0.01
596.172	0.04
596.363	-0.02
596.553	0.03
596.743	0
596.933	-0.01
597.123	0.04
597.314	-0.04
597.504	-0.01
597.694	0.02
597.884	0.02
598.074	-0.01
598.264	-0.04
598.454	0.01
598.644	0.02
598.834	-0.03
599.024	-0.06
599.214	-0.02
599.404	0.02
599.594	-0.02
599.784	-0.03
599.974	0.03
600.164	0.03
600.354	-0.03
600.544	-0.03
600.734	0.02
600.924	0.05
601.114	-0.02
601.303	-0
601.493	0.02
601.683	-0.04
601.873	-0.01
602.063	-0.05
602.252	0.01
602.442	-0.06
602.632	-0.03
602.821	-0.05
603.011	0.04
603.201	-0
603.39	-0.05
603.58	-0.02
603.77	0.01
603.959	0.02
604.149	-0
604.339	-0.02
604.528	0.03
604.718	0.02
604.907	-0.02
605.097	-0
605.286	-0.05
605.476	0
605.665	0.02
605.855	-0.02
606.044	0.04
606.234	0.02
606.423	-0.02
606.612	-0.04
606.802	-0.01
606.991	0.01
607.181	0.01
607.37	-0.04
607.559	-0.01
607.749	-0.04
607.938	-0.02
608.127	-0.01
608.316	-0.05
608.506	0.02
608.695	-0.03
608.884	-0.02
609.073	0
609.263	0
609.452	0.02
609.641	0
609.83	-0.05
610.019	0.01
610.208	-0.02
610.397	-0.01
610.586	0.05
610.775	-0.03
610.965	-0.04
611.154	-0.02
611.343	0.02
611.532	0.02
611.721	-0.04
611.91	-0
612.099	0.01
612.287	-0.01
612.476	-0.03
612.665	-0
612.854	-0.04
613.043	0.03
613.232	0
613.421	-0.05
613.61	0.03
613.798	-0.03
613.987	0.02
614.176	0.04
614.365	0.03
614.554	-0.01
614.742	0.02
614.931	-0.02
615.12	0.01
615.309	-0.03
615.497	0.01
615.686	-0.04
615.875	-0.03
616.063	0
616.252	-0.02
616.44	-0.02
616.629	-0.02
616.818	0.02
617.006	0
617.195	-0.02
617.383	-0
617.572	0.01
617.76	-0.01
617.949	-0.02
618.137	0.02
618.326	0.05
618.514	-0.02
618.703	-0.05
618.891	0.05
619.079	-0.05
619.268	0.02
619.456	-0.02
619.644	0.04
619.833	0
620.021	-0.05
620.209	-0.05
620.398	0.01
620.586	-0.03
620.774	0.01
620.962	-0.01
621.151	0.06
621.339	-0.01
621.527	-0.02
621.715	-0.03
621.903	0
622.092	-0.05
622.28	-0.01
622.468	0.01
622.656	-0.02
622.844	-0
623.032	-0.03
623.22	-0.04
623.408	0.01
623.596	0.01
623.784	0.03
623.972	-0.02
624.16	-0.03
624.348	0.06
624.536	-0.02
624.724	-0
624.912	0.04
625.1	0.05
625.288	-0.04
625.476	-0.03
625.664	0.03
625.851	-0.03
626.039	-0.01
626.227	0.01
626.415	-0.01
626.603	-0.06
626.79	0.02
626.978	0.01
627.166	0.03
627.354	-0.02
627.541	-0.02
627.729	-0.06
627.917	0.01
628.104	0.04
628.292	0.03
628.48	0
628.667	-0
628.855	0.02
629.042	-0.01
629.23	-0.02
629.418	0
629.605	-0.02
629.793	-0.03
629.98	-0.01
630.168	-0.02
630.355	-0.01
630.543	0.01
630.73	-0.03
630.917	0.02
631.105	0.06
631.292	-0.01
631.48	-0.02
631.667	0.06
631.854	-0.04
632.042	-0.05
632.229	-0.05
632.416	-0.02
632.604	-0.02
632.791	-0.05
632.978	-0.02
633.165	0.02
633.353	0.05
633.54	0.02
633.727	-0.05
633.914	-0.04
634.101	-0.09
634.289	0.05
634.476	-0.02
634.663	-0.06
634.85	0.01
635.037	-0.02
635.224	-0.07
635.411	0.05
635.598	0.04
635.785	0.01
635.972	-0.04
636.159	-0
636.346	-0.04
636.533	0.01
636.72	-0.02
636.907	-0.01
637.094	0.02
637.281	-0
637.468	0.04
637.655	0.01
637.842	-0
638.029	-0.03
638.215	-0.01
638.402	-0.01
638.589	-0.06
638.776	-0.02
638.963	-0.03
639.149	0.02
639.336	0.06
639.523	-0.01
639.709	0.02
639.896	-0
640.083	0.05
640.27	0.04
640.456	0
640.643	0.01
640.829	-0.05
641.016	-0.03
641.203	-0.05
641.389	0.03
641.576	0.01
641.762	-0.01
641.949	-0.04
642.135	-0
642.322	0.01
642.508	-0.05
642.695	-0
642.881	-0.02
643.068	-0
643.254	0
643.441	0.01
643.627	-0.01
643.813	-0.02
644	0
644.186	-0.07
644.372	-0.07
644.559	0.01
644.745	-0.04
644.931	-0.04
645.118	-0.02
645.304	0
645.49	-0.04
645.676	-0.06
645.862	0.01
646.049	0.07
646.235	0.01
646.421	0.08
646.607	0.07
646.793	-0.03
646.979	-0.05
647.165	0.02
647.352	-0.02
647.538	0.02
647.724	0
647.91	0.01
648.096	0.03
648.282	0.04
648.468	-0.02
648.654	0.02
648.84	-0
649.026	-0.02
649.212	-0.02
649.397	-0.04
649.583	-0.04
649.769	0.03
649.955	-0.01
650.141	0.04
650.327	0.04
650.513	-0
650.698	0.02
650.884	-0.08
651.07	0
651.256	0.02
651.442	-0.01
651.627	-0
651.813	-0.01
651.999	0.01
652.184	0.02
652.37	-0.01
652.556	-0.03
652.741	0.04
652.927	-0.07
653.113	-0.02
653.298	-0.02
653.484	-0.02
653.669	-0.06
653.855	-0.02
654.04	-0.03
654.226	-0
654.412	-0.04
654.597	-0.05
654.782	0.03
654.968	0.05
655.153	0.01
655.339	-0.01
655.524	-0.05
655.71	0.02
655.895	-0
656.08	-0.03
656.266	0.01
656.451	0.02
656.636	-0.04
656.822	-0.02
657.007	-0.01
657.192	-0.05
657.378	-0.04
657.563	-0.01
657.748	0
657.933	-0.01
658.118	0.01
658.304	-0.03
658.489	0.02
658.674	0.02
658.859	-0.03
659.044	-0.03
659.229	0.02
659.414	-0.04
659.599	0.01
659.785	-0.05
659.97	-0
660.155	0.01
660.34	-0.01
660.525	-0.02
660.71	-0.04
660.895	-0
661.08	-0.05
661.264	-0.06
661.449	0.02
661.634	0.04
661.819	0
662.004	0.01
662.189	-0.11
662.374	0.01
662.559	-0.03
662.743	-0.06
662.928	0.01
663.113	0.01
663.298	-0.06
663.483	-0.04
663.667	0.02
663.852	-0.05
664.037	0.04
664.221	-0.04
664.406	0.02
664.591	0.01
664.775	-0.03
664.96	-0.03
665.145	-0
665.329	0.04
665.514	-0.03
665.698	-0.02
665.883	-0.04
666.068	0.07
666.252	-0.03
666.437	-0.06
666.621	0
666.806	0
666.99	-0.02
667.174	-0.05
667.359	0.04
667.543	-0.02
667.728	-0.02
667.912	-0.08
668.096	0.03
668.281	-0.01
668.465	-0.01
668.649	-0.01
668.834	-0.04
669.018	-0.03
669.202	-0.04
669.387	-0.05
669.571	0.02
669.755	-0.07
669.939	-0.03
670.124	-0.01
670.308	0.08
670.492	0.04
670.676	-0.01
670.86	-0.02
671.044	-0.02
671.228	0.01
671.413	-0.05
671.597	-0.04
671.781	-0.04
671.965	0.03
672.149	-0.04
672.333	-0.04
672.517	-0.04
672.701	0
672.885	-0.02
673.069	-0.05
673.253	0.08
673.437	-0.04
673.621	-0.06
673.804	-0.05
673.988	0.01
674.172	-0
674.356	-0.08
674.54	-0
674.724	0.12
674.908	0.01
675.091	0.02
675.275	-0.02
675.459	0.05
675.643	0.04
675.826	-0.03
676.01	0
676.194	0.02
676.377	0.04
676.561	0.02
676.745	-0
676.928	-0.04
677.112	0.05
677.296	-0.03
677.479	-0.06
677.663	0.01
677.846	0.02
678.03	-0.03
678.213	-0.05
678.397	0.03
678.58	-0.01
678.764	0.01
678.947	-0.04
679.131	-0.04
679.314	0.08
679.498	0.02
679.681	0.04
679.865	0.03
680.048	0.01
680.231	-0.03
680.415	-0.03
680.598	0.01
680.781	-0.07
680.965	0.01
681.148	0.04
681.331	-0.04
681.514	0.06
681.698	-0.03
681.881	0.02
682.064	-0.01
682.247	-0
682.43	-0.08
682.614	-0.02
682.797	-0.03
682.98	0.02
683.163	-0.06
683.346	0.03
683.529	-0.04
683.712	-0.02
683.895	-0.01
684.078	-0.04
684.261	0.02
684.444	-0.01
684.627	0.01
684.81	-0.04
684.993	-0.04
685.176	-0
685.359	-0.05
685.542	0.01
685.725	0.02
685.908	-0.03
686.091	0.01
686.274	0.03
686.457	0.02
686.639	0.02
686.822	0.02
687.005	-0.02
687.188	0.01
687.371	0.04
687.553	0.02
687.736	0.02
687.919	0.05
688.102	0.08
688.284	-0.04
688.467	-0.06
688.65	-0
688.832	-0.04
689.015	0.02
689.197	-0.08
689.38	0.05
689.563	0.08
689.745	-0.04
689.928	-0.06
690.11	-0
690.293	0
690.475	-0.1
690.658	-0
690.84	-0.03
691.023	-0.06
691.205	-0.03
691.388	-0.03
691.57	0.04
691.752	0.02
691.935	-0.08
692.117	-0.05
692.3	0.01
692.482	-0.01
692.664	0.04
692.847	-0.02
693.029	0.07
693.211	0.01
693.393	-0.02
693.576	-0.01
693.758	0.02
693.94	-0.03
694.122	0
694.304	-0.02
694.487	-0.03
694.669	0.06
694.851	-0.04
695.033	-0.03
695.215	-0.05
695.397	-0.01
695.579	0.01
695.761	-0.03
695.943	-0.06
696.125	0.01
696.308	0
696.49	-0.12
696.671	0.09
696.853	0
697.035	0.12
697.217	-0.02
697.399	-0.01
697.581	-0.05
697.763	-0.02
697.945	-0.03
698.127	0.06
698.309	0.06
698.491	0.02
698.672	0
698.854	0.08
699.036	0.05
699.218	-0.02
699.399	0.01
699.581	0.08
699.763	0.04
699.945	-0.06
700.126	-0.07
700.308	-0.01
700.49	-0.01
700.671	-0.08
700.853	-0.05
701.035	-0
701.216	0
701.398	-0.06
701.579	-0.04
701.761	0.07
701.943	-0.04
702.124	-0.04
702.306	-0
702.487	0.07
702.669	0.03
702.85	-0.05
703.031	-0.04
703.213	0.07
703.394	0.03
703.576	-0.03
703.757	0.04
703.938	0.04
704.12	0.16
704.301	-0.04
704.483	-0.08
704.664	-0.02
704.845	0.05
705.026	0.04
705.208	0
705.389	0.01
705.57	-0.01
705.751	-0.03
705.933	-0.01
706.114	0.01
706.295	0.03
706.476	-0.06
706.657	0.05
706.838	-0.01
707.02	0.02
707.201	-0.08
707.382	-0.02
707.563	0.05
707.744	-0.02
707.925	-0.04
708.106	-0.09
708.287	0.04
708.468	0.14
708.649	0
708.83	-0.02
709.011	-0.04
709.192	0.06
709.373	-0.11
709.554	0.02
709.734	-0.09
709.915	0.01
710.096	-0
710.277	-0.05
710.458	0.02
710.639	0.05
710.819	-0.11
711	0.01
711.181	0.06
711.362	-0.02
711.542	-0
711.723	-0.02
711.904	0.02
712.085	0.02
712.265	-0.02
712.446	-0.13
712.627	-0.05
712.807	-0.01
712.988	-0.03
713.168	-0.07
713.349	0.02
713.53	-0.17
713.71	-0.07
713.891	-0.08
714.071	-0.02
714.252	0.02
714.432	-0.08
714.613	-0.11
714.793	-0
714.974	0.05
715.154	0.03
715.334	-0.01
715.515	0.05
715.695	-0.06
715.876	-0.07
716.056	0.03
716.236	0.02
716.417	-0.03
716.597	-0.03
716.777	0.06
716.957	-0.02
717.138	-0.02
717.318	0.01
717.498	-0.08
717.678	-0.06
717.859	-0.01
718.039	-0.11
718.219	0.02
718.399	-0.03
718.579	-0.1
718.759	-0.11
718.939	0.03
719.12	-0.02
719.3	0.08
719.48	-0.12
719.66	-0.14
719.84	0.11
720.02	0
720.2	-0.08
720.38	-0.06
720.56	0.06
720.74	-0.05
720.92	-0
721.1	0.07
721.279	0.06
721.459	0.02
721.639	-0.07
721.819	0.04
721.999	-0.07
722.179	0.03
722.359	-0.1
722.538	-0.02
722.718	0.02
722.898	-0.03
723.078	-0.06
723.257	0.08
723.437	-0
723.617	-0.07
723.797	-0.07
723.976	0.02
724.156	-0
724.336	0.14
724.515	0.1
724.695	-0.12
724.874	-0.01
725.054	0.04
725.234	-0.08
725.413	0.07
725.593	-0.02
725.772	0.02
725.952	-0.06
726.131	0.01
726.311	-0.02
726.49	-0.02
726.67	-0.04
726.849	-0.08
727.028	0.02
727.208	-0.05
727.387	0.01
727.567	-0.09
727.746	0.05
727.925	-0.05
728.105	-0.1
728.284	-0.06
728.463	0
728.643	0.01
728.822	-0.09
729.001	-0.14
729.18	-0.09
729.359	0.09
729.539	-0.07
729.718	-0.01
729.897	0.01
730.076	-0.07
730.255	-0.12
730.434	-0.08
730.614	0.06
730.793	0.07
730.972	-0.08
731.151	-0.1
731.33	0.03
731.509	-0.02
731.688	0.03
731.867	-0
732.046	-0.2
732.225	0.18
732.404	-0.12
732.583	-0.01
732.762	0.01
732.941	0.07
733.12	0.01
733.298	-0.04
733.477	-0
733.656	-0.11
733.835	-0.16
734.014	0.12
734.193	-0.11
734.371	0.04
734.55	0.04
734.729	-0.15
734.908	0.05
735.086	-0.04
735.265	-0.02
735.444	-0.2
735.623	-0.2
735.801	-0.04
735.98	-0.11
736.159	0.01
736.337	0.07
736.516	0.03
736.694	0.02
736.873	-0.09
737.052	0.07
737.23	0.11
737.409	-0.1
737.587	0.13
737.766	-0.19
737.944	-0.19
738.123	0.04
738.301	0.09
738.479	-0.1
738.658	0.04
738.836	-0.28
739.015	-0.07
739.193	0.03
739.371	-0.12
739.55	-0.03
739.728	-0.13
739.906	0.11
740.085	0.14
740.263	-0.07
740.441	-0.18
740.62	0.11
740.798	0.05
740.976	-0.19
741.154	-0.12
741.332	0.16
741.511	-0.08
741.689	0.04
741.867	0.08
742.045	0.03
742.223	-0.11
742.401	-0.21
742.579	-0.15
742.757	-0
742.935	-0.1
743.114	-0.04
743.292	0.02
743.47	-0.02
743.648	0.08
743.826	-0.08
744.004	0
744.181	0.08
744.359	-0.13
744.537	0.01
744.715	-0.18
744.893	-0.03
745.071	-0.07
745.249	-0.09
745.427	0.04
745.605	0.08
745.782	0.03
745.96	0.17
746.138	-0.02
746.316	0.07
746.493	0.02
746.671	0.02
746.849	-0.06
747.027	0.11
747.204	-0.12
747.382	0.02
747.56	-0.13
747.737	0.06
747.915	-0.13
748.093	0.04
748.27	-0.1
748.448	-0.04
748.625	-0.04
748.803	-0.08
748.98	-0.08
749.158	0.02
749.335	0.13
749.513	-0.01
749.69	-0.08
749.868	-0.01
750.045	-0.05
750.223	-0.08
750.4	-0.17
750.578	0.12
750.755	-0.01
750.932	-0.2
751.11	0.08
751.287	-0.17
751.464	0.11
751.642	-0.07
751.819	0.09
751.996	0.04
752.173	-0.07
752.351	-0.09
752.528	-0
752.705	-0.06
752.882	-0.01
753.06	-0.04
753.237	0.01
753.414	0.11
753.591	0.18
753.768	-0.02
753.945	-0.13
754.122	-0.03
754.299	0.05
754.476	-0.12
754.654	-0.03
754.831	0.11
755.008	-0.04
755.185	-0.07
755.362	-0.11
755.539	0
755.716	-0.08
755.892	-0.11
756.069	-0.06
756.246	-0.11
756.423	-0.08
756.6	0.08
756.777	-0.14
756.954	0.17
757.131	-0.09
757.307	-0.05
757.484	-0.1
757.661	0.06
757.838	0.03
758.015	-0.06
758.191	0.03
758.368	0.01
758.545	0.13
758.721	0.12
758.898	-0.05
759.075	0.02
759.251	0.03
759.428	0.09
759.605	-0.25
759.781	-0.08
759.958	0.07
760.134	0.07
760.311	-0.12
760.488	0.06
760.664	0.12
760.841	-0.03
761.017	-0.16
761.194	0.01
761.37	-0.02
761.547	-0.05
761.723	0.12
761.899	0.04
762.076	-0.11
762.252	-0.1
762.429	-0.08
762.605	0.09
762.781	-0.02
762.958	0.12
763.134	0.04
763.31	-0.12
763.486	0.05
763.663	-0.27
763.839	0.01
764.015	-0.09
764.191	-0.13
764.368	-0.08
764.544	-0.13
764.72	0.03
764.896	0.09
765.072	-0.02
765.248	-0
765.425	-0.04
765.601	0.05
765.777	-0.06
765.953	-0.25
766.129	-0.05
766.305	-0.14
766.481	0.11
766.657	0.03
766.833	0.09
767.009	-0.08
767.185	-0.02
767.361	-0.14
767.537	-0.09
767.713	0.17
767.889	0.01
768.065	0.12
768.24	0.14
768.416	-0.02
768.592	-0.1
768.768	-0.09
768.944	0.03
769.12	-0.22
769.295	-0.01
769.471	0.02
769.647	-0.05
769.823	0.16
769.998	-0.09
770.174	-0.14
770.35	0.25
770.525	0.1
770.701	0.07
770.877	-0.02
771.052	-0.11
771.228	0.06
771.403	0
771.579	0.05
771.755	0.22
771.93	-0.12
772.106	-0.08
772.281	-0.2
772.457	0
772.632	0.11
772.808	-0.31
772.983	-0.2
773.159	-0.09
773.334	-0.01
773.509	0.09
773.685	-0.11
773.86	0.28
774.036	0.22
774.211	-0.09
774.386	-0.07
774.562	0.07
774.737	0.08
774.912	-0.16
775.087	0.01
775.263	0.04
775.438	-0.03
775.613	-0.17
775.788	-0.13
775.964	-0.04
776.139	0.13
776.314	-0.26
776.489	0.05
776.664	-0.06
776.839	-0.12
777.014	-0
777.19	0.17
777.365	0.15
777.54	0.3
777.715	-0.04
777.89	0.02
778.065	-0.03
778.24	-0.04
778.415	0.09
778.59	-0.24
778.765	-0.16
778.94	-0.12
779.115	-0.14
779.289	-0.12
779.464	-0.09
779.639	-0.09
779.814	-0.32
779.989	-0.18
780.164	0.14
780.339	0.08
780.513	-0.2
780.688	-0.17
780.863	-0.08
781.038	0.13
781.212	-0.23
781.387	-0.08
781.562	0.19
781.737	0.06
781.911	0.22
782.086	-0.19
782.261	-0.09
782.435	0.16
782.61	-0.15
782.784	0.03
782.959	0.01
783.134	-0.01
783.308	-0.15
783.483	-0.08
783.657	0.43
783.832	0.02
784.006	-0.38
784.181	-0.06
784.355	0.04
784.53	0.11
784.704	-0.06
784.878	0.4
785.053	0.07
785.227	0.13
785.402	0.43
785.576	-0.27
785.75	-0.01
785.925	-0.16
786.099	0.21
786.273	0.14
786.448	0.01
786.622	0.15
786.796	-0.08
786.97	-0.06
787.145	0.41
787.319	-0.15
787.493	0.05
787.667	-0.3
787.841	0.09
788.015	0.18
788.19	-0.16
788.364	0.15
788.538	0.27
788.712	0.01
788.886	-0.05
789.06	0.11
789.234	0.04
789.408	-0.15
789.582	-0.14
789.756	-0.12
789.93	-0.16
790.104	0.07
790.278	-0.3
790.452	-0.12
790.626	0.26
790.8	-0.01
790.973	0.25
791.147	0.31
791.321	0.31
791.495	-0.12
791.669	-0.04
791.843	0.31
792.016	0.01
792.19	0.39
792.364	-0.33
792.538	0.55
792.711	0.23
792.885	-0.16
793.059	-0.27
793.233	-0.5
793.406	0.1
793.58	-0.12
793.754	-0
793.927	-0.11
794.101	0.14
794.274	-0.03
794.448	0.14
794.622	-0.41
794.795	0.22
794.969	-0.02
795.142	0.17
795.316	-0.19
795.489	-0.19
795.663	0.4
795.836	0.14
796.009	-0.19
796.183	0.24
796.356	0.1
796.53	0.18
796.703	-0.05
796.876	0.5
797.05	-0.02
797.223	0.01
797.396	-0.04
797.57	0.07
797.743	0.01
797.916	-0.05
798.09	-0.12
798.263	0.28
798.436	0.2
798.609	-0.16
798.782	-0.15
798.956	0.16
799.129	0.03
799.302	-0.04
799.475	-0.2
799.648	-0.32
799.821	0.18
799.994	-0.01
800.167	-0.3
800.34	0.04
800.514	0.02
800.687	-0.19
800.86	0.06
801.033	-0.16
801.206	0.07
801.379	-0.25
801.551	0.36
801.724	-0.09
801.897	0.41
802.07	-0.08
802.243	-0.36
802.416	-0.27
802.589	-0.22
802.762	0.05
802.935	-0.25
803.107	-0.05
803.28	0.64
803.453	0.22
803.626	-0.12
803.798	0.12
803.971	-0.37
804.144	-0.01
804.317	0.24
804.489	0.35
804.662	0.18
804.835	-0.13
805.007	-0.25
805.18	0.49
805.353	0.1
805.525	-0.34
805.698	-0.26
805.87	0.18
806.043	0.25
806.215	-0.45
806.388	-0.35
806.56	0.06
806.733	0.51
806.905	0.32
807.078	-0.5
807.25	-0.51
807.423	-0.02
807.595	0.11
807.768	0.04
807.94	0.06
808.112	-0.04
808.285	0.06
808.457	-0.15
808.629	-0.09
808.802	0
808.974	-0.08
809.146	-0.28
809.318	-0.2
809.491	-0
809.663	0.24
809.835	-0.2
810.007	0.02
810.18	-0.04
810.352	-0.6
810.524	-0.28
810.696	-0.26
810.868	0.59
811.04	0.05
811.212	0.38
811.384	0.19
811.556	-0.05
811.728	-0.01
811.901	0.6
812.073	-0.07
812.245	0.19
812.417	0.15
812.589	-0.87
812.76	0.07
812.932	0.28
813.104	0.64
813.276	-0.17
813.448	0.43
813.62	-0.06
813.792	0.08
813.964	0.16
814.136	0.09
814.307	-0.26
814.479	-0.46
814.651	-0.33
814.823	0.7
814.995	-0.16
815.166	-0.4
815.338	-0.23
815.51	-0.27
815.681	0.92
815.853	0.06
816.025	-0.13
816.196	0.37
816.368	-0.23
816.54	-0.14
816.711	-0.18
816.883	0.38
817.054	0.8
817.226	-0.61
817.398	0.25
817.569	-0.04
817.741	-0.34
817.912	0.4
818.084	-0.39
818.255	-0.03
818.426	-0.29
818.598	-0.28
818.769	-0.32
818.941	0.36
819.112	0.24
819.283	-0.03
819.455	-0.63
819.626	-0.24
819.798	0.33
819.969	-0.19
820.14	-0.03
820.311	-0.01
820.483	0.57
820.654	-0.2
820.825	0.13
820.996	-0.37
821.168	-0.42
821.339	-0.24
821.51	-0.19
821.681	-0.31
821.852	0.01
822.023	-0.64
822.195	-0.67
822.366	0.24
822.537	0.02
822.708	-0.22
822.879	-0.01
823.05	0.88
823.221	0.04
823.392	0.45
823.563	-0.21
823.734	0.3
823.905	-0.22
824.076	-0.4
824.247	-0.3
824.418	-0.54
824.589	0.59
824.759	-0.13
824.93	-0.27
825.101	-0.66
825.272	0.64
825.443	0.11
825.614	-0.02
825.784	-0.42
825.955	0.88
826.126	0.41
826.297	-0.03
826.467	1.04
826.638	0.61
826.809	-1.06
826.98	0.22
827.15	0.54
827.321	0.44
827.492	0.31
827.662	0.18
827.833	0.51
828.003	0.39
828.174	-0.5
828.345	-0.53
828.515	0.52
828.686	-0.24
828.856	0
829.027	0.2
829.197	-0.55
829.368	0.36
829.538	0.3
829.709	-0.3
829.879	0.38
830.049	0.02
830.22	-0.22
830.39	0.14
830.56	-0.12
830.731	0.01
830.901	-0.76
831.072	-0.06
831.242	-0.47
831.412	0.14
831.582	-0.46
831.753	-0.99
831.923	-0.07
832.093	-0.1
832.263	0.14
832.434	-0.4
832.604	-0.22
832.774	0.31
832.944	-0.55
833.114	-0.28
833.284	0.39
833.454	-1.04
833.624	-0.69
833.795	-0.06
833.965	0.08
834.135	0.79
834.305	-0.61
834.475	-0.75
834.645	0.11
834.815	-0.18
834.985	-0.47
835.155	-0.19
835.325	0.84
835.494	0.12
835.664	-0.2
835.834	-0.65
836.004	-0.11
836.174	0.07
836.344	-0.42
836.514	-1.33
836.684	-0.81
836.853	-0.2
837.023	0.22
837.193	0.08
837.363	0.3
837.532	1.25
837.702	-0
837.872	-0.28
838.041	0.49
838.211	0.92
838.381	-0.95
838.55	-0.11
838.72	2.07
838.89	0.99
839.059	-0.76
839.229	-0.22
839.398	1.72
839.568	0.02
839.738	-0.87
839.907	0.99
840.077	0.18
840.246	-0.71
840.416	-0.49
840.585	-0.6
840.755	0.94
840.924	0.71
841.093	-0.81
841.263	-0.5
841.432	-0.17
841.602	-0.26
841.771	-0.82
841.94	-0.14
842.11	2.29
842.279	1.75
842.448	-0.44
842.617	-0.22
842.787	1.16
842.956	-0.73
843.125	0.22
843.294	0.16
843.464	1.25
843.633	-0.17
843.802	-0.64
843.971	-0.14
844.14	0.39
844.309	0.15
844.479	-0.61
844.648	-0.46
844.817	-0.52
844.986	0.11
845.155	-1.19
845.324	-0.5
845.493	0.14
845.662	-1.24
845.831	0.78
846	1.04
846.169	0.3
846.338	1.3
846.507	0.56
846.676	0.71
846.844	-0.31
847.013	1.06
847.182	-0.62
847.351	-0.29
847.52	-0.06
847.689	0.53
847.858	-0.26
848.026	-0
848.195	-0.34
848.364	0.63
848.533	-1.02
848.701	-0.33
848.87	0.35
849.039	1.29
849.207	0.33
849.376	1.36
849.545	0.09
849.713	-0.76
849.882	-0.84
850.051	-0.23
850.219	0.26
850.388	1.09
850.556	0.37
850.725	-1
850.893	0.52
851.062	-0.55
851.23	0.84
851.399	-1.45
851.567	-0.78
851.736	0.21
851.904	-1.05
852.073	0.04
852.241	0.27
852.41	0.16
852.578	0.21
852.746	-0.59
852.915	0.86
853.083	-1.32
853.251	-1.1
853.42	-0.88
853.588	0.72
853.756	0.9
853.924	-0.3
854.093	0.11
854.261	0.63
854.429	-1.6
854.597	-0.32
854.765	-1.52
854.934	0.45
855.102	1.17
855.27	-0.37
855.438	1.08
855.606	0.77
855.774	1.38
855.942	-1.43
856.11	-1.58
856.278	0.42
856.446	0.87
856.614	0.74
856.782	-1.46
856.95	0.82
857.118	0.88
857.286	0.15
857.454	-1.37
857.622	0.76
857.79	-0.06
857.958	-1.48
858.126	0.38
858.294	-2.25
858.462	0
858.629	-1.26
858.797	-1.53
858.965	1.44
859.133	0.32
859.301	-0.24
859.468	0.2
859.636	-0.1
859.804	1.63
859.971	0.93
860.139	-0.64
860.307	0.04
860.474	0.53
860.642	-0.2
860.81	-0.96
860.977	-1.7
861.145	1.58
861.313	0.26
861.48	-0.45
861.648	1.74
861.815	-0.13
861.983	-0.38
862.15	0.04
862.318	0.1
862.485	0.95
862.653	-0.69
862.82	-0.95
862.988	1.67
863.155	1.58
863.322	-0.44
863.49	-1.64
863.657	-1.39
863.824	1.97
863.992	0.47
864.159	0.25
864.326	3.17
864.494	-0.76
864.661	2.46
864.828	-0.82
864.996	1.22
865.163	1.31
865.33	-1.62
865.497	-2.07
865.664	-0.92
865.832	-2.66
865.999	0.97
866.166	-0.93
866.333	-2.21
866.5	-0.03
866.667	0.41
866.834	-0.73
867.001	0.73
867.168	-1.89
867.335	-0.62
867.502	-2.37
867.669	-0.16
867.836	-0.03
868.003	-1.13
868.17	1.41
868.337	2.21
868.504	2.5
868.671	-2.48
868.838	-1.42
869.005	1.04
869.172	0.03
869.339	0.3
869.505	0.44
869.672	-0.4
869.839	2.69
870.006	-0.06
870.173	-0.98
870.339	1.55
870.506	2.07
870.673	-0.96
870.84	1.74
871.006	0.33
871.173	0.49
871.34	0.77
871.506	-1.54
871.673	-0.32
871.839	-1.99
872.006	0.23
872.173	-0.59
872.339	0.81
872.506	2.34
872.672	-0.35
872.839	-1.46
873.005	-0.37
873.172	2.88
873.338	1.98
873.505	-1.17
873.671	0.88
873.838	1.64
874.004	-2.3
874.171	0.63
874.337	-0.26
874.503	1.41
874.67	0.59
874.836	-1.86
875.002	0.97
875.169	0.61
875.335	-0.72
875.501	0.42
875.668	0.99
875.834	1.52
876	0.48
876.166	0.77
876.332	0.52
876.499	4.42
876.665	-0.38
876.831	-0.91
876.997	2.14
877.163	0.99
877.329	-0.9
877.495	0.91
877.662	0.38
877.828	0.02
877.994	-0.88
878.16	-2.27
878.326	-2.35
878.492	0.28
878.658	-1.33
878.824	1.65
878.99	0.91
879.156	-0.93
879.322	2.15
879.487	-1.18
879.653	0.47
879.819	-0.43
879.985	-1.21
880.151	-0.67
880.317	-0.04
880.483	-0.77
880.648	-0
880.814	-1.33
880.98	2.04
881.146	-2.35
881.312	-2.27
881.477	-0.68
881.643	-0.38
881.809	3.62
881.974	2.18
882.14	-1.6
882.306	1.04
882.471	3.43
882.637	-1.77
882.803	-0.37
882.968	1.91
883.134	1.87
883.299	0.21
883.465	0.3
883.63	1.34
883.796	1.03
883.961	1
884.127	0.19
884.292	-4.34
884.458	-0.83
884.623	-0.83
