Data from Apollo_Calib_20240827__AbsoluteIrradiance__74__00-23-01-702.txt Node

Date: Wed Aug 28 00:23:01 BST 2024
User: biology
Spectrometer: FLMT08252
Trigger mode: 0
Integration Time (sec): 5.000000E-1
Scans to average: 5
Electric dark correction enabled: true
Nonlinearity correction enabled: false
Boxcar width: 0
XAxis mode: Wavelengths
Number of Pixels in Spectrum: 3648
>>>>>Begin Spectral Data<<<<<
179.588	-0
179.809	-0
180.03	-0
180.251	-0
180.473	-0
180.694	0
180.915	0
181.136	-0
181.357	0
181.578	0
181.799	-0
182.02	-0
182.241	0
182.462	-0
182.683	0
182.904	-0
183.125	-0
183.346	0
183.567	0
183.788	-0
184.009	-0
184.23	0
184.451	-0
184.672	-0
184.892	-0
185.113	0
185.334	0
185.555	-0
185.776	-0
185.996	0
186.217	0
186.438	-0
186.659	-0
186.879	-0
187.1	-0
187.321	-0
187.541	-0
187.762	-0
187.983	-0
188.203	-0
188.424	-0
188.644	-0
188.865	-0
189.086	-0
189.306	-0
189.527	-0
189.747	0
189.968	-0
190.188	0
190.409	-0
190.629	0
190.849	-0
191.07	-0
191.29	0
191.511	-0
191.731	-0
191.951	-0
192.172	0
192.392	-0
192.612	-0
192.833	-0
193.053	0
193.273	0
193.493	-0
193.714	-0
193.934	0
194.154	0
194.374	0
194.594	0
194.815	-0
195.035	-0
195.255	0
195.475	-0
195.695	0
195.915	0
196.135	-0
196.355	0
196.575	0
196.795	-0
197.015	-0
197.235	-0
197.455	-0
197.675	0
197.895	-0
198.115	-0
198.335	0
198.555	-0
198.775	0
198.995	0
199.214	0
199.434	-0
199.654	-0
199.874	-0
200.094	0.54
200.313	-0.59
200.533	-0.13
200.753	-1.06
200.973	0.66
201.192	0.24
201.412	-0.71
201.632	-0.61
201.851	0.7
202.071	-0.52
202.291	-0.18
202.51	-1.07
202.73	-0.02
202.95	-0.25
203.169	-0.49
203.389	-0.29
203.608	-0.09
203.828	-0.8
204.047	-0.02
204.267	0.07
204.486	-0.21
204.706	-0.22
204.925	0.07
205.145	-0.39
205.364	0.19
205.583	0.35
205.803	-0.32
206.022	-0.84
206.242	0.1
206.461	-0.02
206.68	-0.37
206.9	-0.07
207.119	0.57
207.338	0.52
207.557	-0.17
207.777	0.16
207.996	0.06
208.215	0.52
208.434	-0.47
208.654	-0.36
208.873	0.13
209.092	0.29
209.311	-0.04
209.53	-0.37
209.749	-0.17
209.968	-0.35
210.187	-0.13
210.407	-0.72
210.626	-0.21
210.845	0.06
211.064	0.12
211.283	-0.51
211.502	0.03
211.721	0.08
211.94	-0.04
212.159	-0.09
212.377	0.16
212.596	0.38
212.815	-0.1
213.034	0.06
213.253	-0.09
213.472	0.22
213.691	-0.04
213.91	-0.44
214.128	-0.23
214.347	0.21
214.566	-0.36
214.785	-0.3
215.003	0.17
215.222	0.03
215.441	-0.24
215.66	-0.28
215.878	-0.01
216.097	0.18
216.316	-0.36
216.534	-0.14
216.753	-0.02
216.972	-0.18
217.19	-0.15
217.409	-0.32
217.627	-0.22
217.846	-0.18
218.064	-0.03
218.283	-0.18
218.501	0.19
218.72	0.19
218.938	-0.22
219.157	-0.06
219.375	0.17
219.594	-0.01
219.812	-0.23
220.031	-0.16
220.249	0.24
220.467	0.19
220.686	-0.1
220.904	-0.21
221.122	-0.19
221.341	0.23
221.559	-0.07
221.777	-0.14
221.995	-0.07
222.214	0.04
222.432	-0.2
222.65	0.17
222.868	-0.02
223.086	0.06
223.305	-0.01
223.523	-0.11
223.741	0.14
223.959	-0.15
224.177	-0.27
224.395	-0.13
224.613	0.03
224.831	-0.03
225.049	-0.06
225.267	-0.24
225.485	-0.01
225.703	-0.1
225.921	-0.04
226.139	-0.15
226.357	0
226.575	-0.08
226.793	-0.12
227.011	0.33
227.229	-0.1
227.447	0.1
227.665	-0.08
227.883	-0.3
228.1	-0.06
228.318	0.04
228.536	-0.27
228.754	-0.22
228.972	0.09
229.189	0.02
229.407	-0.13
229.625	-0.07
229.843	0
230.06	0.03
230.278	-0.21
230.496	-0.11
230.713	0.13
230.931	0.05
231.149	-0.22
231.366	-0.31
231.584	0.01
231.801	0.31
232.019	-0.07
232.236	-0.2
232.454	-0.13
232.671	-0.05
232.889	-0.18
233.106	-0.13
233.324	-0.08
233.541	-0
233.759	-0.06
233.976	-0.12
234.194	-0.06
234.411	-0.01
234.628	-0.1
234.846	-0.13
235.063	-0.06
235.28	-0.07
235.498	-0.07
235.715	-0.2
235.932	0.05
236.149	0.03
236.367	-0.13
236.584	-0.04
236.801	-0.06
237.018	0.04
237.236	-0.03
237.453	-0.23
237.67	0.05
237.887	0.02
238.104	-0.07
238.321	-0.12
238.538	-0.1
238.755	0.07
238.973	-0.21
239.19	-0.09
239.407	0.03
239.624	-0.03
239.841	-0.14
240.058	-0.05
240.275	0.07
240.492	-0.03
240.709	-0.03
240.925	-0.07
241.142	-0.02
241.359	-0.14
241.576	-0.2
241.793	-0.11
242.01	-0.07
242.227	-0.01
242.444	0.06
242.66	0.08
242.877	-0.02
243.094	-0.07
243.311	0.04
243.527	-0.04
243.744	0.03
243.961	0.06
244.178	-0.11
244.394	-0.03
244.611	-0.01
244.828	0.06
245.044	-0.1
245.261	-0.07
245.477	-0.01
245.694	-0.01
245.911	-0.05
246.127	-0
246.344	0.11
246.56	-0.01
246.777	-0.08
246.993	-0.04
247.21	-0.01
247.426	0.02
247.643	-0.09
247.859	-0.19
248.076	-0.02
248.292	0.05
248.508	-0.08
248.725	0.02
248.941	0.14
249.157	-0.02
249.374	-0.19
249.59	-0.05
249.806	-0.03
250.023	-0.01
250.239	-0.19
250.455	-0.15
250.671	-0.02
250.888	0.06
251.104	0.01
251.32	-0.13
251.536	-0.05
251.752	-0.08
251.969	-0.01
252.185	0.03
252.401	0.15
252.617	-0.06
252.833	-0.01
253.049	-0.03
253.265	-0.02
253.481	-0.04
253.697	-0.08
253.913	-0.1
254.129	-0.04
254.345	0.07
254.561	-0.06
254.777	-0.01
254.993	0.08
255.209	-0.02
255.425	-0.08
255.641	-0.13
255.857	0.04
256.073	-0.09
256.288	-0.11
256.504	-0.08
256.72	-0.02
256.936	0.13
257.152	-0.07
257.367	-0.09
257.583	-0
257.799	0.09
258.015	-0.07
258.23	-0.06
258.446	0.12
258.662	-0.09
258.877	-0.06
259.093	-0.07
259.309	0.04
259.524	0.02
259.74	-0.03
259.955	-0.13
260.171	-0.05
260.387	-0.07
260.602	0.02
260.818	0.02
261.033	-0.18
261.249	-0.07
261.464	-0.07
261.68	-0.07
261.895	-0.02
262.11	0.05
262.326	-0.09
262.541	-0.11
262.757	0.04
262.972	0.02
263.187	0.02
263.403	-0.08
263.618	0.08
263.833	-0.06
264.049	-0.09
264.264	-0.03
264.479	0.06
264.694	0.08
264.91	-0.1
265.125	-0.07
265.34	0.05
265.555	0.16
265.77	0.02
265.986	0.01
266.201	0.02
266.416	-0.01
266.631	-0.04
266.846	-0.03
267.061	0.03
267.276	-0
267.491	-0.11
267.706	0.05
267.921	-0.02
268.136	-0.02
268.351	-0.02
268.566	-0.16
268.781	0.1
268.996	-0.01
269.211	-0.06
269.426	-0.08
269.641	-0.02
269.856	0.01
270.071	-0.08
270.285	-0.1
270.5	0.01
270.715	0.04
270.93	-0.06
271.145	0.05
271.359	-0.02
271.574	-0.04
271.789	-0.04
272.004	0.06
272.218	0.03
272.433	0
272.648	-0.04
272.862	0.05
273.077	-0
273.292	-0
273.506	-0.1
273.721	-0.07
273.936	-0.01
274.15	0
274.365	-0
274.579	0.01
274.794	-0.06
275.008	-0
275.223	-0.14
275.437	0.02
275.652	-0.03
275.866	0.04
276.081	-0.05
276.295	0.08
276.509	-0.02
276.724	0.03
276.938	-0.01
277.153	0
277.367	0.05
277.581	-0.06
277.796	-0.05
278.01	-0.07
278.224	0.02
278.438	0.17
278.653	-0.09
278.867	-0.07
279.081	0.03
279.295	-0.04
279.51	-0.02
279.724	-0.14
279.938	0.07
280.152	0.05
280.366	-0.13
280.58	-0
280.794	0.11
281.008	0.01
281.222	-0.02
281.437	0.13
281.651	-0.03
281.865	0.04
282.079	-0.02
282.293	-0.15
282.507	-0.03
282.721	-0.02
282.935	0.02
283.148	-0.06
283.362	-0.03
283.576	-0.11
283.79	-0.01
284.004	-0.04
284.218	0.03
284.432	-0.02
284.646	-0.04
284.859	-0.06
285.073	-0.05
285.287	-0
285.501	-0.03
285.714	-0.03
285.928	-0.04
286.142	0.03
286.356	-0.02
286.569	-0.02
286.783	0.06
286.997	0.01
287.21	0.02
287.424	-0.02
287.637	0.01
287.851	-0.01
288.065	0.02
288.278	-0.01
288.492	-0.04
288.705	-0.04
288.919	0.01
289.132	-0.07
289.346	0.07
289.559	-0.03
289.773	-0.06
289.986	-0.06
290.2	-0.04
290.413	0.01
290.626	-0.08
290.84	-0.07
291.053	-0.02
291.267	0.01
291.48	-0.02
291.693	-0.02
291.906	-0.01
292.12	-0
292.333	-0.04
292.546	-0.02
292.76	0.09
292.973	0.03
293.186	0.01
293.399	-0.1
293.612	0.06
293.826	-0
294.039	-0.01
294.252	-0.01
294.465	0.02
294.678	0.01
294.891	0.02
295.104	-0.04
295.317	0.01
295.53	-0
295.743	-0.07
295.956	0.01
296.169	0.09
296.382	0
296.595	-0.05
296.808	-0.05
297.021	0.02
297.234	0.06
297.447	0
297.66	0
297.873	0.08
298.086	-0
298.299	-0.03
298.511	-0.07
298.724	-0
298.937	-0.01
299.15	-0.05
299.363	-0.01
299.575	0.05
299.788	-0
300.001	-0.04
300.213	0.04
300.426	0.03
300.639	-0.05
300.852	-0.06
301.064	0.03
301.277	0.09
301.489	0.03
301.702	0.03
301.915	0.01
302.127	-0.03
302.34	-0
302.552	0
302.765	-0.06
302.977	0.04
303.19	-0.04
303.402	-0.04
303.615	-0.01
303.827	-0.02
304.04	-0.03
304.252	0.06
304.464	-0.02
304.677	0.12
304.889	0.06
305.102	-0.05
305.314	-0.06
305.526	0.06
305.739	0.04
305.951	-0.03
306.163	-0.01
306.375	0.02
306.588	-0.03
306.8	-0.03
307.012	-0.08
307.224	-0.01
307.436	0.06
307.649	-0.06
307.861	-0
308.073	0.05
308.285	-0.01
308.497	-0.05
308.709	-0.04
308.921	0.02
309.133	0.03
309.346	0.01
309.558	0.01
309.77	0.02
309.982	0.04
310.194	0.07
310.406	-0.08
310.617	0.05
310.829	0.01
311.041	0.04
311.253	-0.03
311.465	-0.03
311.677	-0.01
311.889	0.01
312.101	-0.03
312.313	0.05
312.524	-0
312.736	-0.03
312.948	-0.01
313.16	0.03
313.372	-0
313.583	0.02
313.795	-0.02
314.007	-0.04
314.218	0.04
314.43	-0.03
314.642	-0.05
314.853	-0.07
315.065	-0.01
315.277	-0.01
315.488	0.02
315.7	0.03
315.912	0.02
316.123	-0.02
316.335	-0.05
316.546	0.1
316.758	-0.06
316.969	0
317.181	0.02
317.392	-0.03
317.604	0.04
317.815	-0.06
318.026	-0.04
318.238	-0.03
318.449	-0.03
318.661	-0.11
318.872	-0.02
319.083	-0.06
319.295	0
319.506	-0.02
319.717	0.02
319.929	0.01
320.14	-0.01
320.351	0.03
320.562	-0.06
320.774	-0.04
320.985	-0.02
321.196	-0.02
321.407	-0.07
321.618	0
321.829	-0
322.041	0.01
322.252	0
322.463	-0.01
322.674	-0
322.885	-0.04
323.096	-0.02
323.307	0
323.518	0.01
323.729	-0.03
323.94	0
324.151	-0.05
324.362	0
324.573	0.02
324.784	-0.04
324.995	0.09
325.206	0.01
325.417	-0.01
325.628	-0.02
325.838	0.02
326.049	0.01
326.26	-0.03
326.471	-0.03
326.682	0.05
326.892	-0.02
327.103	-0.07
327.314	-0.07
327.525	0.08
327.735	-0.02
327.946	-0.06
328.157	-0.07
328.368	0.03
328.578	-0.06
328.789	-0.02
328.999	-0.03
329.21	-0.04
329.421	0.05
329.631	-0.02
329.842	-0.08
330.052	-0.02
330.263	0.03
330.473	0.03
330.684	-0.03
330.894	-0.02
331.105	-0
331.315	-0
331.526	-0.07
331.736	0.06
331.947	-0.01
332.157	-0.01
332.367	-0.06
332.578	0.02
332.788	0.01
332.999	-0.02
333.209	0
333.419	-0.06
333.629	-0.02
333.84	-0
334.05	-0.02
334.26	0.07
334.47	-0.05
334.681	0.04
334.891	-0.04
335.101	0.03
335.311	0.08
335.521	-0.01
335.732	-0.06
335.942	0.06
336.152	0.02
336.362	-0.03
336.572	0.04
336.782	0.01
336.992	-0.05
337.202	-0.08
337.412	-0.03
337.622	0.01
337.832	-0.01
338.042	-0.01
338.252	-0.03
338.462	-0
338.672	0.03
338.882	-0.08
339.092	0.02
339.302	0.06
339.511	-0.03
339.721	-0.01
339.931	-0.04
340.141	-0.01
340.351	0.06
340.561	0.05
340.77	-0.02
340.98	0.01
341.19	-0.01
341.4	-0.04
341.609	-0.05
341.819	-0.03
342.029	-0.08
342.238	-0.02
342.448	-0.04
342.658	0.03
342.867	-0.02
343.077	-0.03
343.286	0.02
343.496	-0.03
343.706	0.07
343.915	-0.05
344.125	0.01
344.334	0.04
344.544	-0.08
344.753	-0.03
344.963	-0.02
345.172	-0.01
345.381	-0.02
345.591	-0.01
345.8	0.01
346.01	0.05
346.219	-0.01
346.428	-0.13
346.638	-0.04
346.847	0.01
347.056	0.03
347.266	-0.04
347.475	-0.02
347.684	0.01
347.893	0.02
348.103	0.05
348.312	0
348.521	0.01
348.73	-0.02
348.94	-0.02
349.149	-0.01
349.358	0.01
349.567	-0.04
349.776	-0.06
349.985	-0.01
350.194	0.03
350.403	0.05
350.612	-0.08
350.821	0.01
351.03	0
351.239	-0.07
351.448	-0.01
351.657	-0.02
351.866	0.04
352.075	-0
352.284	0
352.493	-0.04
352.702	0.01
352.911	0.04
353.12	-0.03
353.329	0
353.538	-0.01
353.746	0.02
353.955	-0.05
354.164	0.02
354.373	-0.03
354.582	-0.01
354.79	0.04
354.999	0.03
355.208	-0.03
355.416	0.06
355.625	-0.04
355.834	-0.05
356.042	0
356.251	0
356.46	-0.02
356.668	-0.02
356.877	0.04
357.085	0.01
357.294	-0.1
357.503	-0.01
357.711	0
357.92	0.1
358.128	0.03
358.337	-0.02
358.545	0
358.754	-0.01
358.962	0.02
359.17	-0.03
359.379	0.03
359.587	0.04
359.796	-0.02
360.004	0.04
360.212	0.05
360.421	0.05
360.629	-0
360.837	-0.03
361.046	0.06
361.254	0.05
361.462	-0.02
361.67	-0.04
361.879	0.02
362.087	0.06
362.295	0
362.503	0.01
362.711	-0.07
362.92	-0.02
363.128	0
363.336	-0.06
363.544	-0.05
363.752	-0.02
363.96	-0
364.168	-0.05
364.376	-0.01
364.584	-0
364.792	0.05
365	-0
365.208	0
365.416	0.06
365.624	0.02
365.832	-0.03
366.04	0.02
366.248	0.02
366.456	-0
366.664	0.04
366.872	0.02
367.079	0
367.287	-0.01
367.495	0.02
367.703	-0.01
367.911	-0.03
368.118	0.02
368.326	-0.02
368.534	-0.01
368.742	0.12
368.949	-0.06
369.157	-0.04
369.365	0.03
369.572	-0.06
369.78	-0.01
369.988	0.05
370.195	0.03
370.403	0.07
370.61	-0.01
370.818	0.03
371.026	0.09
371.233	-0.02
371.441	0.08
371.648	-0
371.856	0.03
372.063	-0
372.271	-0.02
372.478	0.01
372.685	0.04
372.893	0.09
373.1	0.05
373.308	0.01
373.515	0.1
373.722	0.09
373.93	0.05
374.137	0.06
374.344	0.12
374.552	0.07
374.759	0.06
374.966	0.01
375.173	0.05
375.381	0.13
375.588	0.07
375.795	0.02
376.002	0.03
376.209	0.05
376.417	0.08
376.624	0.07
376.831	0.1
377.038	0.06
377.245	0.01
377.452	0.06
377.659	0.08
377.866	0.08
378.073	0.12
378.28	0.16
378.487	0.15
378.694	0.17
378.901	0.15
379.108	0.14
379.315	0.19
379.522	0.24
379.729	0.19
379.936	0.19
380.143	0.18
380.35	0.2
380.557	0.21
380.763	0.22
380.97	0.2
381.177	0.25
381.384	0.26
381.591	0.26
381.797	0.21
382.004	0.24
382.211	0.27
382.418	0.24
382.624	0.27
382.831	0.28
383.038	0.2
383.244	0.21
383.451	0.2
383.658	0.24
383.864	0.21
384.071	0.17
384.277	0.28
384.484	0.19
384.69	0.24
384.897	0.22
385.103	0.18
385.31	0.13
385.516	0.13
385.723	0.11
385.929	0.13
386.136	0.13
386.342	0.14
386.549	0.12
386.755	0.17
386.961	0.12
387.168	0.1
387.374	0.12
387.58	0.12
387.787	0.07
387.993	0.1
388.199	0.1
388.406	0.09
388.612	0.09
388.818	0.06
389.024	0.1
389.231	0.09
389.437	0.1
389.643	0.09
389.849	0.07
390.055	0.07
390.261	0.05
390.467	0.09
390.674	0.02
390.88	0.05
391.086	0.11
391.292	0.01
391.498	0.05
391.704	0.06
391.91	0.05
392.116	0.04
392.322	-0.03
392.528	0.02
392.734	0.01
392.94	0.04
393.146	-0.02
393.352	0.04
393.557	-0.02
393.763	0.01
393.969	0.07
394.175	0.02
394.381	0.04
394.587	0
394.792	-0
394.998	0.07
395.204	0.08
395.41	-0
395.615	0.05
395.821	0.04
396.027	0.05
396.233	-0.02
396.438	0.03
396.644	0.11
396.85	0.04
397.055	0.03
397.261	0
397.466	0.12
397.672	0
397.878	0.05
398.083	0
398.289	0
398.494	0.05
398.7	0.06
398.905	-0.09
399.111	0.06
399.316	-0.02
399.522	0.02
399.727	0.03
399.932	0.01
400.138	-0.02
400.343	0.06
400.549	0.01
400.754	0
400.959	0.04
401.165	-0.02
401.37	-0.04
401.575	0.06
401.78	0.03
401.986	-0.01
402.191	0.01
402.396	-0.02
402.601	0.04
402.807	0.05
403.012	0.02
403.217	0.02
403.422	-0
403.627	0.02
403.832	-0.01
404.037	0
404.243	0.05
404.448	-0.02
404.653	0.02
404.858	0.02
405.063	0.02
405.268	-0.03
405.473	-0.05
405.678	-0.01
405.883	0.1
406.088	0.02
406.293	-0.05
406.498	-0.05
406.703	0.03
406.907	-0.01
407.112	-0.06
407.317	0
407.522	0.07
407.727	-0.04
407.932	-0.01
408.136	0.04
408.341	0.04
408.546	0.01
408.751	-0
408.956	-0.03
409.16	0.02
409.365	-0.04
409.57	-0.04
409.774	0.02
409.979	0.04
410.184	0.04
410.388	-0.01
410.593	0.06
410.798	0
411.002	-0.01
411.207	-0.02
411.411	0.02
411.616	-0.03
411.82	-0.03
412.025	0.03
412.229	-0.08
412.434	0.04
412.638	-0
412.843	-0.01
413.047	0
413.252	-0.05
413.456	0.01
413.66	0.02
413.865	-0.08
414.069	0.05
414.273	-0.02
414.478	-0.01
414.682	-0.04
414.886	-0.02
415.091	-0.08
415.295	-0.09
415.499	-0.03
415.703	-0.01
415.908	-0.03
416.112	-0.09
416.316	-0.02
416.52	0.01
416.724	-0.06
416.929	-0.06
417.133	0.12
417.337	-0.04
417.541	-0.06
417.745	-0.01
417.949	0.06
418.153	0.03
418.357	-0.06
418.561	0.11
418.765	-0.05
418.969	0.08
419.173	-0
419.377	-0.03
419.581	0.06
419.785	-0.01
419.989	-0.08
420.193	-0.06
420.397	-0.02
420.601	0.04
420.804	0.03
421.008	-0.01
421.212	0.02
421.416	0.02
421.62	-0.04
421.823	0.02
422.027	0.08
422.231	0
422.435	0.02
422.638	0.01
422.842	0.01
423.046	-0.06
423.249	0.05
423.453	0.01
423.657	0.02
423.86	0.02
424.064	-0.02
424.268	0.07
424.471	-0.04
424.675	0.05
424.878	0.06
425.082	-0.03
425.285	0.07
425.489	-0.02
425.692	0.02
425.896	-0.04
426.099	0.05
426.303	-0.03
426.506	-0.11
426.71	0.04
426.913	0.07
427.116	0.01
427.32	-0
427.523	0.04
427.726	0.12
427.93	-0.07
428.133	-0.01
428.336	-0.04
428.54	-0.1
428.743	0.01
428.946	-0.01
429.149	-0.04
429.353	-0.04
429.556	0.01
429.759	-0.02
429.962	-0.01
430.165	0.03
430.368	-0.05
430.571	-0.01
430.775	0.01
430.978	-0.06
431.181	0.05
431.384	0.02
431.587	0.01
431.79	0.01
431.993	0.02
432.196	-0.04
432.399	-0.02
432.602	0.04
432.805	-0.04
433.008	-0.03
433.211	-0.07
433.414	0.07
433.616	0.06
433.819	0.01
434.022	-0.07
434.225	0.05
434.428	-0.01
434.631	0.08
434.833	-0.03
435.036	-0.04
435.239	0.05
435.442	0.02
435.645	0
435.847	-0
436.05	0.07
436.253	0.04
436.455	-0.03
436.658	0
436.861	0.06
437.063	-0.01
437.266	-0.01
437.468	0.04
437.671	0.13
437.874	0.02
438.076	-0.03
438.279	0
438.481	0.04
438.684	-0
438.886	0.07
439.089	-0.03
439.291	-0.04
439.494	0.01
439.696	0.01
439.899	-0.01
440.101	0.02
440.303	-0.02
440.506	0.06
440.708	0.02
440.91	0.1
441.113	-0.03
441.315	0.06
441.517	-0.02
441.72	0.05
441.922	-0.02
442.124	-0.02
442.326	0.09
442.529	0.11
442.731	-0.01
442.933	0.12
443.135	0.02
443.337	-0.01
443.539	0.02
443.742	-0.02
443.944	0.06
444.146	-0
444.348	0.01
444.55	0.04
444.752	0.03
444.954	0.03
445.156	0.02
445.358	0.03
445.56	0.05
445.762	0.07
445.964	0.04
446.166	0.04
446.368	0.01
446.57	0.1
446.772	0.06
446.974	0.02
447.175	0.04
447.377	0.03
447.579	0.05
447.781	-0.03
447.983	0.14
448.184	0.02
448.386	0.09
448.588	-0
448.79	0.06
448.991	0.05
449.193	0.05
449.395	0.05
449.597	0.08
449.798	0.06
450	0.03
450.202	0.07
450.403	0.06
450.605	0.03
450.806	0.04
451.008	-0.02
451.21	0.04
451.411	0.05
451.613	0.01
451.814	0.04
452.016	0.11
452.217	0.1
452.419	0.12
452.62	0.01
452.821	0.06
453.023	0.09
453.224	0.1
453.426	0.06
453.627	0.04
453.828	0.06
454.03	0.09
454.231	0.14
454.432	-0.01
454.634	0.16
454.835	-0.03
455.036	-0
455.238	0.06
455.439	0.08
455.64	-0.04
455.841	-0.02
456.042	0.14
456.244	0.05
456.445	-0
456.646	-0.02
456.847	0.04
457.048	0.05
457.249	0.09
457.45	0.17
457.651	-0.02
457.852	0.04
458.054	0.03
458.255	0.01
458.456	0.07
458.657	0.03
458.858	-0.02
459.058	-0.02
459.259	0.09
459.46	-0.06
459.661	-0.01
459.862	0.14
460.063	-0.04
460.264	0.08
460.465	-0.07
460.666	0.14
460.866	0.02
461.067	0.01
461.268	-0
461.469	-0.01
461.67	0.01
461.87	-0.02
462.071	-0.01
462.272	-0.03
462.473	0.03
462.673	0.05
462.874	-0.02
463.075	-0.03
463.275	-0.04
463.476	0.08
463.676	0.04
463.877	0.01
464.078	-0.02
464.278	0.06
464.479	-0.01
464.679	-0.02
464.88	-0.01
465.08	0.04
465.281	-0.03
465.481	-0.03
465.682	-0.02
465.882	0.04
466.083	0.01
466.283	0.01
466.483	0.04
466.684	-0.04
466.884	-0.02
467.085	0.01
467.285	0.05
467.485	-0.06
467.686	0.01
467.886	-0.07
468.086	-0
468.286	-0.01
468.487	0.01
468.687	-0.05
468.887	-0.03
469.087	0.03
469.287	0
469.488	-0.1
469.688	0.05
469.888	0.04
470.088	0.08
470.288	0.03
470.488	0.01
470.688	-0.04
470.888	-0.01
471.088	-0.03
471.288	0.07
471.488	0
471.688	0.04
471.888	-0.03
472.088	0.01
472.288	0.03
472.488	-0.05
472.688	-0.04
472.888	-0.01
473.088	-0.01
473.288	0.03
473.488	0.02
473.688	0.09
473.887	-0.01
474.087	-0.02
474.287	0.01
474.487	0.01
474.687	0.02
474.886	-0.04
475.086	0.03
475.286	-0.01
475.486	0.06
475.685	0
475.885	-0.03
476.085	-0.03
476.284	0.03
476.484	-0.03
476.684	0.02
476.883	0.02
477.083	0.03
477.282	-0.02
477.482	0.05
477.681	0.05
477.881	0
478.08	-0.05
478.28	-0.04
478.479	0
478.679	0.06
478.878	-0.04
479.078	-0.03
479.277	-0.01
479.477	-0.04
479.676	0.01
479.875	-0.01
480.075	-0.07
480.274	0.02
480.473	0.02
480.673	-0.03
480.872	-0.01
481.071	0.01
481.271	-0.01
481.47	-0.02
481.669	-0.04
481.868	-0.01
482.067	-0.03
482.267	-0.05
482.466	-0.02
482.665	-0.03
482.864	-0.07
483.063	-0.03
483.262	0.01
483.461	0.05
483.661	0.02
483.86	-0
484.059	-0
484.258	-0.02
484.457	-0.01
484.656	0.01
484.855	0.05
485.054	-0.03
485.253	-0.04
485.452	-0.03
485.651	0.01
485.849	0.01
486.048	-0
486.247	-0.04
486.446	-0.01
486.645	-0.05
486.844	-0.05
487.043	-0.01
487.241	0.02
487.44	-0.03
487.639	-0.02
487.838	0.02
488.037	-0.03
488.235	0.04
488.434	0
488.633	-0.02
488.831	0.02
489.03	0.01
489.229	-0.02
489.427	-0.01
489.626	0.04
489.825	0.03
490.023	-0.01
490.222	-0.01
490.42	0
490.619	0.01
490.817	0.01
491.016	-0.01
491.214	0.03
491.413	0
491.611	-0.02
491.81	0.01
492.008	0.01
492.207	0.02
492.405	0
492.604	-0.05
492.802	-0.03
493	0.01
493.199	-0.03
493.397	-0
493.595	-0.01
493.794	-0.03
493.992	0.04
494.19	-0.02
494.388	-0.01
494.587	-0.02
494.785	0.01
494.983	-0.04
495.181	-0
495.379	-0.01
495.578	0
495.776	0.01
495.974	-0.02
496.172	-0.02
496.37	0
496.568	-0.02
496.766	-0.03
496.964	0
497.162	-0
497.36	-0.04
497.558	-0.01
497.756	0.02
497.954	-0.01
498.152	-0.03
498.35	-0.02
498.548	-0.01
498.746	0
498.944	-0.03
499.142	0.01
499.34	-0.03
499.538	-0.01
499.736	-0.03
499.933	0.04
500.131	0.01
500.329	-0
500.527	0.01
500.725	0.02
500.922	0.02
501.12	-0
501.318	0.01
501.516	-0.03
501.713	-0.01
501.911	-0.02
502.109	-0.03
502.306	0.01
502.504	0
502.701	-0
502.899	-0.02
503.097	0.01
503.294	-0.02
503.492	-0.02
503.689	0
503.887	0.01
504.084	0.03
504.282	0.01
504.479	-0.03
504.677	0.02
504.874	-0.03
505.072	0.02
505.269	-0.01
505.466	0.01
505.664	0
505.861	-0.04
506.059	-0.03
506.256	0
506.453	0
506.651	0.04
506.848	0.02
507.045	-0
507.242	-0.01
507.44	-0.01
507.637	-0.01
507.834	-0.02
508.031	0.03
508.229	-0.03
508.426	0
508.623	0
508.82	-0.02
509.017	-0.04
509.214	-0.01
509.411	0.01
509.608	-0.02
509.805	-0
510.003	-0.03
510.2	-0.03
510.397	-0
510.594	-0.01
510.791	-0.02
510.988	-0.01
511.184	0
511.381	-0.01
511.578	-0.03
511.775	0.03
511.972	-0.03
512.169	-0.01
512.366	-0.04
512.563	0.01
512.76	-0.01
512.956	0.02
513.153	-0.01
513.35	0
513.547	-0.02
513.744	-0.02
513.94	-0.03
514.137	-0.01
514.334	0
514.53	-0.01
514.727	0
514.924	0.03
515.12	-0.02
515.317	-0.03
515.514	-0.01
515.71	-0.02
515.907	-0.01
516.103	-0.01
516.3	-0.01
516.497	0.03
516.693	0.04
516.89	-0.01
517.086	-0.01
517.283	-0.01
517.479	0.01
517.676	-0.01
517.872	-0.02
518.068	-0.02
518.265	-0.02
518.461	-0.02
518.658	-0.03
518.854	0.01
519.05	-0.01
519.247	-0.03
519.443	-0.02
519.639	0
519.836	-0.01
520.032	-0.02
520.228	-0.02
520.424	0.05
520.621	0.01
520.817	-0.02
521.013	0.03
521.209	0.01
521.405	0.02
521.601	-0.01
521.798	0
521.994	0.03
522.19	-0.03
522.386	-0.04
522.582	-0.01
522.778	-0.01
522.974	-0.01
523.17	-0.02
523.366	0
523.562	0.04
523.758	-0.03
523.954	-0.04
524.15	-0.01
524.346	0
524.542	-0.01
524.738	-0.03
524.934	-0
525.129	-0.07
525.325	-0.01
525.521	0.01
525.717	0.02
525.913	-0.02
526.109	-0.01
526.304	-0.01
526.5	0.01
526.696	0
526.892	0.01
527.087	0.02
527.283	-0.03
527.479	0
527.674	-0.02
527.87	-0.01
528.066	0.01
528.261	-0
528.457	-0
528.653	-0.01
528.848	-0.01
529.044	0.01
529.239	-0.01
529.435	0.01
529.63	0.01
529.826	0.03
530.021	-0
530.217	0.01
530.412	-0
530.608	-0.04
530.803	0.01
530.999	-0.01
531.194	-0.05
531.389	0.01
531.585	-0.05
531.78	-0.01
531.975	-0.01
532.171	0.02
532.366	-0.01
532.561	-0
532.757	-0.01
532.952	-0.01
533.147	-0.01
533.342	-0.02
533.538	-0.01
533.733	0.03
533.928	0.01
534.123	-0.01
534.318	-0.04
534.513	-0.02
534.709	-0
534.904	-0.02
535.099	-0.02
535.294	-0.01
535.489	0.01
535.684	-0.04
535.879	-0.04
536.074	-0.01
536.269	-0.05
536.464	-0
536.659	0.02
536.854	-0.02
537.049	0.01
537.244	-0
537.439	-0.02
537.634	0.03
537.828	0
538.023	-0
538.218	-0.04
538.413	0.02
538.608	-0.04
538.803	-0
538.997	-0.04
539.192	0.01
539.387	0.01
539.582	0
539.776	0.01
539.971	-0.03
540.166	-0
540.36	-0.03
540.555	-0.03
540.75	-0.02
540.944	-0.01
541.139	-0.02
541.334	-0.02
541.528	0.01
541.723	0.01
541.917	-0.02
542.112	-0.05
542.306	-0.03
542.501	-0.02
542.695	-0.01
542.89	-0.02
543.084	0.01
543.279	-0.01
543.473	-0.03
543.668	-0.02
543.862	-0.01
544.056	-0.01
544.251	-0.01
544.445	0
544.64	-0.01
544.834	-0.03
545.028	-0.01
545.222	0.01
545.417	-0.01
545.611	-0
545.805	-0.01
546	0
546.194	-0.01
546.388	-0.02
546.582	0.01
546.776	-0
546.97	-0.01
547.165	-0.01
547.359	0
547.553	0
547.747	-0
547.941	-0.01
548.135	-0.03
548.329	0.01
548.523	0.02
548.717	-0.01
548.911	-0.01
549.105	-0.02
549.299	-0
549.493	0
549.687	-0
549.881	0.01
550.075	-0.02
550.269	-0.03
550.463	0.02
550.657	-0.03
550.85	-0
551.044	-0.03
551.238	0.01
551.432	-0.01
551.626	-0.02
551.82	-0.01
552.013	-0.01
552.207	-0.01
552.401	0
552.594	-0
552.788	-0.02
552.982	0.01
553.176	-0.03
553.369	0.01
553.563	-0
553.756	-0.05
553.95	-0.04
554.144	0
554.337	0.03
554.531	-0
554.724	-0.02
554.918	-0.02
555.111	0.01
555.305	-0
555.498	0.02
555.692	0.01
555.885	-0.01
556.079	0
556.272	0
556.466	0.03
556.659	0.03
556.852	-0.01
557.046	-0.02
557.239	0.03
557.432	-0.03
557.626	-0.02
557.819	0.01
558.012	0.01
558.206	0
558.399	-0.02
558.592	0.01
558.785	-0.01
558.979	0
559.172	-0
559.365	0.02
559.558	0.02
559.751	-0.03
559.944	0.01
560.138	-0.02
560.331	-0.01
560.524	0.01
560.717	-0.02
560.91	-0.02
561.103	0
561.296	-0.01
561.489	-0.02
561.682	-0
561.875	0.02
562.068	0.01
562.261	0
562.454	0.02
562.647	0.01
562.84	0.01
563.032	-0
563.225	0.01
563.418	-0.04
563.611	-0.01
563.804	-0.01
563.997	-0.04
564.19	-0.05
564.382	-0.02
564.575	-0.01
564.768	-0.01
564.961	0.01
565.153	-0.02
565.346	0.01
565.539	0.01
565.731	0.04
565.924	0.02
566.117	-0.01
566.309	-0.01
566.502	-0.02
566.695	-0.02
566.887	-0
567.08	-0.03
567.272	-0.01
567.465	0
567.657	0.01
567.85	0.02
568.042	0.01
568.235	0.03
568.427	0.01
568.62	0
568.812	0
569.005	-0.01
569.197	-0.04
569.389	-0.02
569.582	-0.01
569.774	-0
569.966	-0.04
570.159	-0.04
570.351	-0.02
570.543	-0.04
570.736	0
570.928	-0.04
571.12	0.01
571.312	-0.02
571.505	-0.03
571.697	0.02
571.889	-0.04
572.081	-0.03
572.273	-0.02
572.465	0.03
572.658	-0.03
572.85	-0
573.042	-0.02
573.234	-0.01
573.426	0.02
573.618	-0.05
573.81	-0.02
574.002	0.06
574.194	0.04
574.386	-0.03
574.578	-0.08
574.77	-0.02
574.962	-0.02
575.154	-0.01
575.346	-0.02
575.538	-0.02
575.729	-0.03
575.921	-0.03
576.113	-0
576.305	0
576.497	-0.02
576.689	-0
576.88	-0.03
577.072	-0
577.264	-0.01
577.456	-0.02
577.647	-0.06
577.839	-0.01
578.031	0.03
578.223	-0.03
578.414	-0.05
578.606	0.01
578.798	-0.01
578.989	-0.02
579.181	-0.02
579.372	-0.01
579.564	-0.03
579.755	-0.01
579.947	0
580.139	-0.01
580.33	-0.06
580.522	-0.01
580.713	-0.05
580.905	-0.01
581.096	-0.01
581.287	-0
581.479	-0
581.67	0.01
581.862	-0
582.053	-0
582.244	-0.05
582.436	-0.02
582.627	-0.02
582.818	-0.03
583.01	-0.04
583.201	0.02
583.392	0.02
583.583	-0
583.775	-0.02
583.966	-0.03
584.157	-0.02
584.348	-0.02
584.54	-0.06
584.731	0.01
584.922	0
585.113	-0.04
585.304	0.03
585.495	0.02
585.686	-0
585.877	0.01
586.068	0
586.259	0.04
586.45	0.01
586.641	-0.02
586.832	-0.05
587.023	0.02
587.214	-0
587.405	0.01
587.596	-0.03
587.787	0.02
587.978	0.02
588.169	-0.05
588.36	-0.03
588.551	0
588.742	-0.02
588.932	-0
589.123	-0.03
589.314	-0.01
589.505	-0.01
589.696	0
589.886	-0.03
590.077	-0.06
590.268	-0.01
590.458	-0.03
590.649	-0.03
590.84	0.02
591.03	-0.04
591.221	-0.04
591.412	-0.05
591.602	0.01
591.793	0.01
591.984	-0.04
592.174	-0
592.365	0.03
592.555	-0.02
592.746	0
592.936	-0
593.127	-0.01
593.317	0.02
593.508	-0.02
593.698	-0.02
593.889	-0.01
594.079	-0
594.269	-0.04
594.46	-0.03
594.65	-0.01
594.84	-0.03
595.031	-0.05
595.221	-0.01
595.411	-0.05
595.602	0.02
595.792	-0.02
595.982	-0.02
596.172	0.02
596.363	-0
596.553	-0.02
596.743	-0.01
596.933	0.01
597.123	0.02
597.314	-0.03
597.504	-0.04
597.694	0.03
597.884	-0.02
598.074	-0.03
598.264	-0.02
598.454	-0.01
598.644	0
598.834	-0.01
599.024	-0.08
599.214	-0.04
599.404	0.03
599.594	-0.04
599.784	-0.03
599.974	0.05
600.164	0.01
600.354	-0.06
600.544	-0.06
600.734	0
600.924	0.01
601.114	-0
601.303	0.01
601.493	-0.01
601.683	-0.02
601.873	-0.01
602.063	-0.04
602.252	0.01
602.442	-0.09
602.632	-0.02
602.821	-0.03
603.011	0.01
603.201	-0.01
603.39	-0.04
603.58	-0.01
603.77	0.01
603.959	0.02
604.149	-0.01
604.339	-0.01
604.528	0.01
604.718	0.03
604.907	-0.01
605.097	-0.02
605.286	0.01
605.476	0.02
605.665	0.02
605.855	-0.01
606.044	0.02
606.234	-0.01
606.423	-0
606.612	-0.06
606.802	0
606.991	-0
607.181	0
607.37	-0.05
607.559	-0.01
607.749	-0.06
607.938	-0.02
608.127	0
608.316	-0.02
608.506	0.01
608.695	-0.03
608.884	-0.03
609.073	-0.03
609.263	-0.01
609.452	0.04
609.641	0.01
609.83	-0.02
610.019	-0.01
610.208	-0.03
610.397	-0.03
610.586	-0.04
610.775	-0.01
610.965	-0.01
611.154	-0.04
611.343	-0.01
611.532	-0.01
611.721	-0.04
611.91	-0.02
612.099	0.02
612.287	0
612.476	-0.02
612.665	0
612.854	0
613.043	0.05
613.232	-0.02
613.421	-0.02
613.61	-0.01
613.798	-0.04
613.987	0.02
614.176	-0.01
614.365	0.02
614.554	-0.04
614.742	0.02
614.931	-0.03
615.12	0.02
615.309	-0.02
615.497	0
615.686	-0.03
615.875	-0.02
616.063	0.01
616.252	-0.03
616.44	-0.03
616.629	0.02
616.818	0.03
617.006	0.01
617.195	0.01
617.383	0.03
617.572	-0.02
617.76	0.01
617.949	-0
618.137	0.01
618.326	0.07
618.514	-0.03
618.703	-0.05
618.891	0.03
619.079	-0.04
619.268	0.03
619.456	-0.03
619.644	0.06
619.833	-0.01
620.021	-0.03
620.209	-0.05
620.398	-0.01
620.586	0.03
620.774	-0
620.962	-0
621.151	0.06
621.339	0.01
621.527	-0.05
621.715	-0.03
621.903	-0.05
622.092	-0.04
622.28	-0.01
622.468	-0.02
622.656	-0.05
622.844	0.01
623.032	-0.02
623.22	-0.07
623.408	0.03
623.596	-0.03
623.784	0
623.972	-0.02
624.16	0
624.348	0.02
624.536	-0.01
624.724	-0.01
624.912	0.02
625.1	0.02
625.288	-0.02
625.476	-0.05
625.664	0.03
625.851	-0.02
626.039	-0.02
626.227	-0
626.415	-0.02
626.603	-0.05
626.79	-0.01
626.978	-0.02
627.166	0
627.354	-0.01
627.541	-0.04
627.729	-0.05
627.917	0.01
628.104	0.04
628.292	0.03
628.48	-0.02
628.667	-0.02
628.855	0.04
629.042	-0.01
629.23	-0.02
629.418	-0.02
629.605	-0.02
629.793	-0.01
629.98	-0.04
630.168	-0.02
630.355	-0.03
630.543	0.02
630.73	-0.04
630.917	0.04
631.105	0.07
631.292	0.01
631.48	-0.01
631.667	0.05
631.854	0.02
632.042	-0.02
632.229	-0.04
632.416	-0
632.604	-0.01
632.791	-0.06
632.978	0.01
633.165	-0
633.353	0.04
633.54	0.02
633.727	-0.08
633.914	-0.03
634.101	-0.05
634.289	0.04
634.476	-0.02
634.663	-0.02
634.85	0.02
635.037	-0.03
635.224	-0.05
635.411	0.04
635.598	0.01
635.785	-0.01
635.972	0.02
636.159	0.04
636.346	-0.02
636.533	0.01
636.72	0.02
636.907	-0.01
637.094	0.01
637.281	0.02
637.468	0.03
637.655	0.02
637.842	0.02
638.029	-0.03
638.215	0.01
638.402	-0.01
638.589	-0.03
638.776	-0.02
638.963	-0.01
639.149	0.03
639.336	0.08
639.523	-0.02
639.709	0.02
639.896	0.02
640.083	0.09
640.27	0.02
640.456	0.01
640.643	0.06
640.829	-0.02
641.016	0.01
641.203	-0.02
641.389	0.03
641.576	0.05
641.762	0
641.949	-0.01
642.135	0.06
642.322	0.01
642.508	-0.02
642.695	0.03
642.881	-0
643.068	0.02
643.254	0.01
643.441	0.03
643.627	0.02
643.813	0.01
644	0.05
644.186	-0.01
644.372	0.05
644.559	0.03
644.745	0
644.931	-0
645.118	0.03
645.304	0.01
645.49	-0.01
645.676	0.02
645.862	0.04
646.049	0.09
646.235	-0
646.421	0.08
646.607	0.08
646.793	0
646.979	-0
647.165	0.04
647.352	0.02
647.538	0.07
647.724	0.02
647.91	0.05
648.096	0.06
648.282	0.03
648.468	0.03
648.654	0.06
648.84	0.06
649.026	0.03
649.212	0.04
649.397	0.03
649.583	0.01
649.769	0.05
649.955	0.05
650.141	0.05
650.327	0.09
650.513	0.03
650.698	0.08
650.884	-0.02
651.07	0.06
651.256	0.06
651.442	0.05
651.627	0.03
651.813	0.06
651.999	0.07
652.184	0.06
652.37	0.07
652.556	0.03
652.741	0.13
652.927	-0.03
653.113	0.03
653.298	0.1
653.484	0.04
653.669	0.03
653.855	0.08
654.04	0.07
654.226	0.07
654.412	0.07
654.597	0.02
654.782	0.1
654.968	0.09
655.153	0.09
655.339	0.06
655.524	0.05
655.71	0.08
655.895	0.1
656.08	0.08
656.266	0.09
656.451	0.09
656.636	0.06
656.822	0.11
657.007	0.09
657.192	0.1
657.378	0.04
657.563	0.1
657.748	0.11
657.933	0.12
658.118	0.09
658.304	0.05
658.489	0.11
658.674	0.1
658.859	0.03
659.044	0.11
659.229	0.14
659.414	0.08
659.599	0.06
659.785	0.02
659.97	0.1
660.155	0.12
660.34	0.11
660.525	0.07
660.71	0.09
660.895	0.11
661.08	0.06
661.264	0.07
661.449	0.13
661.634	0.13
661.819	0.09
662.004	0.08
662.189	0.03
662.374	0.04
662.559	0.02
662.743	0.04
662.928	0.11
663.113	0.05
663.298	0
663.483	0.06
663.667	0.09
663.852	0.03
664.037	0.1
664.221	0.02
664.406	0.05
664.591	0.08
664.775	0.08
664.96	0.01
665.145	0.03
665.329	0.06
665.514	0.03
665.698	0.03
665.883	-0
666.068	0.11
666.252	0.04
666.437	0.01
666.621	0.01
666.806	0.04
666.99	-0.01
667.174	0.01
667.359	0.13
667.543	0.03
667.728	0.01
667.912	-0.03
668.096	0.07
668.281	0.01
668.465	-0.04
668.649	0.03
668.834	-0.05
669.018	-0.01
669.202	-0
669.387	-0
669.571	0.04
669.755	-0.01
669.939	-0.01
670.124	0.02
670.308	0.05
670.492	0.03
670.676	0.03
670.86	-0.01
671.044	-0.06
671.228	-0.01
671.413	-0.05
671.597	-0.04
671.781	-0.01
671.965	0.04
672.149	-0.01
672.333	-0.01
672.517	-0.02
672.701	0.01
672.885	-0.02
673.069	-0.05
673.253	0.03
673.437	-0.03
673.621	-0.04
673.804	-0.03
673.988	-0
674.172	-0.04
674.356	-0.05
674.54	-0
674.724	0.07
674.908	0.01
675.091	0.03
675.275	0.01
675.459	0.01
675.643	0.04
675.826	0.04
676.01	0.01
676.194	-0.01
676.377	0.05
676.561	0.01
676.745	-0.01
676.928	0
677.112	0.05
677.296	-0
677.479	-0.03
677.663	-0.03
677.846	0.03
678.03	-0.04
678.213	-0.01
678.397	-0.04
678.58	-0.05
678.764	-0.03
678.947	-0.06
679.131	-0.06
679.314	-0.02
679.498	-0.05
679.681	0.01
679.865	0
680.048	-0.03
680.231	0.01
680.415	-0.02
680.598	0.01
680.781	-0.02
680.965	-0.07
681.148	0.01
681.331	0
681.514	-0.01
681.698	-0.04
681.881	0.02
682.064	0
682.247	-0.04
682.43	-0.11
682.614	0.04
682.797	0.02
682.98	0.02
683.163	-0.06
683.346	-0.04
683.529	-0.06
683.712	-0.06
683.895	0.02
684.078	-0.06
684.261	-0.02
684.444	0.05
684.627	-0.01
684.81	-0.05
684.993	-0.04
685.176	0
685.359	-0.07
685.542	0
685.725	-0.04
685.908	-0.02
686.091	-0.05
686.274	-0.01
686.457	0.01
686.639	-0.03
686.822	0.03
687.005	-0.04
687.188	-0.05
687.371	0.05
687.553	0.03
687.736	-0
687.919	0.06
688.102	0.07
688.284	-0.07
688.467	0.02
688.65	-0.03
688.832	-0.03
689.015	-0.04
689.197	-0.07
689.38	0.03
689.563	0.01
689.745	-0.02
689.928	-0.1
690.11	-0.01
690.293	0.02
690.475	-0.07
690.658	0.03
690.84	-0.03
691.023	-0.03
691.205	0
691.388	0.01
691.57	0.07
691.752	-0
691.935	-0.07
692.117	-0.01
692.3	0.03
692.482	-0.04
692.664	-0.01
692.847	0
693.029	0.03
693.211	0.02
693.393	-0.03
693.576	-0.01
693.758	-0.02
693.94	-0.06
694.122	-0.05
694.304	-0.07
694.487	-0.07
694.669	0.05
694.851	-0.07
695.033	0.01
695.215	-0.05
695.397	-0.02
695.579	0.06
695.761	-0.03
695.943	-0.07
696.125	0.08
696.308	0.01
696.49	-0.09
696.671	0.11
696.853	0
697.035	0.1
697.217	0.02
697.399	-0.01
697.581	0.02
697.763	-0.03
697.945	-0.04
698.127	-0.05
698.309	0.06
698.491	-0.01
698.672	-0.02
698.854	0.07
699.036	0.08
699.218	-0.02
699.399	0.07
699.581	0.03
699.763	0.01
699.945	-0.03
700.126	-0.04
700.308	0.02
700.49	0.06
700.671	-0.09
700.853	-0.09
701.035	-0.09
701.216	-0.04
701.398	-0.07
701.579	-0.01
701.761	0.05
701.943	-0.06
702.124	-0.09
702.306	-0.05
702.487	0.13
702.669	-0.01
702.85	-0.03
703.031	-0.1
703.213	0.1
703.394	0.04
703.576	-0
703.757	-0.01
703.938	0.06
704.12	0.19
704.301	-0.02
704.483	-0.01
704.664	-0.02
704.845	0.01
705.026	0.02
705.208	0.01
705.389	0.05
705.57	-0
705.751	-0.02
705.933	-0.04
706.114	0.05
706.295	-0.04
706.476	-0.16
706.657	0.11
706.838	0
707.02	-0
707.201	-0.1
707.382	-0.04
707.563	0.03
707.744	-0.02
707.925	-0.08
708.106	0.03
708.287	-0.01
708.468	0.1
708.649	-0.01
708.83	0.02
709.011	-0.06
709.192	0.06
709.373	-0.14
709.554	-0.04
709.734	0.1
709.915	0.01
710.096	0.06
710.277	-0.07
710.458	0.03
710.639	0.03
710.819	-0.08
711	-0.01
711.181	0.09
711.362	0.07
711.542	0.03
711.723	0.04
711.904	-0.02
712.085	-0
712.265	0.03
712.446	-0.03
712.627	-0.05
712.807	0
712.988	0.03
713.168	-0.08
713.349	-0.05
713.53	-0.12
713.71	-0.06
713.891	-0.1
714.071	-0.02
714.252	0.05
714.432	0.02
714.613	-0.08
714.793	-0.02
714.974	0.08
715.154	0.09
715.334	0.03
715.515	0.15
715.695	-0.04
715.876	-0.04
716.056	-0.07
716.236	-0.02
716.417	-0.02
716.597	-0.03
716.777	0.16
716.957	0.04
717.138	0.06
717.318	0.03
717.498	-0.07
717.678	-0
717.859	-0.04
718.039	-0.11
718.219	0.07
718.399	0.02
718.579	0.06
718.759	-0.04
718.939	0.07
719.12	-0
719.3	-0
719.48	-0.16
719.66	-0.11
719.84	0.07
720.02	0.03
720.2	-0.03
720.38	-0
720.56	0.07
720.74	0.01
720.92	-0.04
721.1	0.1
721.279	0.2
721.459	-0
721.639	0.01
721.819	0.05
721.999	-0.05
722.179	0.08
722.359	-0.12
722.538	-0.03
722.718	-0.01
722.898	0
723.078	-0.06
723.257	-0.05
723.437	0.04
723.617	0.05
723.797	0.01
723.976	0.06
724.156	0.1
724.336	0.09
724.515	0.16
724.695	-0.03
724.874	0.07
725.054	0
725.234	-0.05
725.413	0.05
725.593	0.02
725.772	-0.07
725.952	0.02
726.131	0.02
726.311	0.06
726.49	-0
726.67	-0
726.849	-0.06
727.028	0.14
727.208	0.02
727.387	0.06
727.567	-0.03
727.746	-0
727.925	-0.05
728.105	0.04
728.284	0.09
728.463	-0.02
728.643	0.13
728.822	-0.09
729.001	-0.02
729.18	0.04
729.359	0.16
729.539	0.05
729.718	0.14
729.897	0.04
730.076	0.04
730.255	-0.03
730.434	0.09
730.614	0.14
730.793	0.14
730.972	0.05
731.151	-0.02
731.33	0.17
731.509	0.04
731.688	0.1
731.867	0.06
732.046	-0
732.225	0.27
732.404	0.03
732.583	-0.07
732.762	0.05
732.941	0.23
733.12	0.03
733.298	0.06
733.477	0.16
733.656	0.07
733.835	0.02
734.014	0.1
734.193	0.17
734.371	0.15
734.55	0.13
734.729	-0.08
734.908	-0.03
735.086	0.07
735.265	0.2
735.444	-0.09
735.623	0.07
735.801	-0.01
735.98	0.03
736.159	0.02
736.337	0.18
736.516	0.16
736.694	0.13
736.873	-0.01
737.052	0.26
737.23	0.14
737.409	0.02
737.587	0.23
737.766	-0.12
737.944	-0.01
738.123	0.16
738.301	0.05
738.479	0.04
738.658	0.05
738.836	-0.09
739.015	0.13
739.193	0.17
739.371	-0.01
739.55	0.02
739.728	-0.08
739.906	0.17
740.085	0.25
740.263	0.12
740.441	-0.09
740.62	0.33
740.798	0.26
740.976	-0.06
741.154	-0.11
741.332	0.14
741.511	0.11
741.689	0.12
741.867	0.2
742.045	0.03
742.223	0.08
742.401	-0.02
742.579	0
742.757	0.04
742.935	-0.14
743.114	-0.03
743.292	-0.03
743.47	0.01
743.648	0.06
743.826	-0.07
744.004	0.08
744.181	-0.02
744.359	-0.03
744.537	0.01
744.715	0.02
744.893	0.1
745.071	0.02
745.249	-0.05
745.427	0.07
745.605	0.08
745.782	-0
745.96	0.04
746.138	0.03
746.316	0.08
746.493	-0.05
746.671	0.07
746.849	-0.04
747.027	0.23
747.204	-0.15
747.382	0.07
747.56	-0.15
747.737	0.04
747.915	-0.07
748.093	0.01
748.27	-0.06
748.448	-0.08
748.625	-0.14
748.803	-0.12
748.98	-0
749.158	0.04
749.335	0.09
749.513	-0.02
749.69	0.01
749.868	-0.03
750.045	0.02
750.223	0.01
750.4	-0.19
750.578	0.25
750.755	0
750.932	-0.12
751.11	0.04
751.287	-0.14
751.464	0.16
751.642	-0.12
751.819	-0.01
751.996	0.01
752.173	-0.13
752.351	-0.01
752.528	-0.09
752.705	0.01
752.882	-0.09
753.06	0.08
753.237	0.13
753.414	0.12
753.591	0.1
753.768	0.04
753.945	-0.07
754.122	-0.09
754.299	0.02
754.476	-0.13
754.654	0.04
754.831	0.06
755.008	0.09
755.185	-0.08
755.362	-0.09
755.539	0.01
755.716	-0.07
755.892	-0.15
756.069	-0.04
756.246	-0.05
756.423	-0.12
756.6	0.05
756.777	-0.09
756.954	0.16
757.131	-0.08
757.307	-0.08
757.484	-0.18
757.661	0.01
757.838	0.04
758.015	-0
758.191	-0.02
758.368	-0
758.545	0.1
758.721	-0.04
758.898	-0.01
759.075	0
759.251	0.12
759.428	0.04
759.605	-0.2
759.781	-0.03
759.958	0.09
760.134	-0.04
760.311	-0.19
760.488	0.13
760.664	0.04
760.841	0.02
761.017	-0.14
761.194	0.03
761.37	0.05
761.547	0.08
761.723	-0.15
761.899	0.05
762.076	-0.11
762.252	-0.2
762.429	-0.06
762.605	0.09
762.781	-0.04
762.958	0.07
763.134	-0.09
763.31	-0.12
763.486	0.04
763.663	-0.1
763.839	0.04
764.015	-0.16
764.191	-0.07
764.368	-0.01
764.544	-0.17
764.72	0.08
764.896	0.15
765.072	-0.02
765.248	-0.01
765.425	0
765.601	-0.04
765.777	0.09
765.953	-0.24
766.129	-0.11
766.305	-0.16
766.481	0.04
766.657	0.03
766.833	0.06
767.009	-0.14
767.185	-0.1
767.361	-0.08
767.537	-0.05
767.713	0.07
767.889	-0.18
768.065	0.07
768.24	-0.16
768.416	0.05
768.592	-0.07
768.768	-0.06
768.944	0.02
769.12	-0.19
769.295	-0.01
769.471	0.03
769.647	0.01
769.823	0.07
769.998	-0.02
770.174	-0.02
770.35	0.3
770.525	0.32
770.701	0.06
770.877	-0.09
771.052	-0.06
771.228	-0.06
771.403	-0.06
771.579	0.13
771.755	0.36
771.93	-0.06
772.106	-0.11
772.281	-0.12
772.457	-0
772.632	0.01
772.808	-0.25
772.983	-0.18
773.159	-0.11
773.334	0.04
773.509	-0.1
773.685	-0.02
773.86	0.23
774.036	0.18
774.211	-0.18
774.386	-0.09
774.562	0.05
774.737	0.22
774.912	-0.16
775.087	0.08
775.263	-0.12
775.438	-0.08
775.613	-0.19
775.788	0.02
775.964	0.1
776.139	0.37
776.314	-0.11
776.489	0.05
776.664	0.04
776.839	-0.11
777.014	0.18
777.19	0.12
777.365	0.07
777.54	0.16
777.715	-0.08
777.89	-0.18
778.065	-0.13
778.24	-0.02
778.415	-0.07
778.59	-0.13
778.765	-0.06
778.94	0
779.115	-0.19
779.289	-0.04
779.464	-0.1
779.639	-0.06
779.814	-0.23
779.989	-0.02
780.164	0.07
780.339	0.05
780.513	-0.27
780.688	-0.13
780.863	-0.2
781.038	0.03
781.212	-0.11
781.387	0.07
781.562	0.21
781.737	0.08
781.911	0.14
782.086	-0.07
782.261	-0.1
782.435	0.24
782.61	-0.16
782.784	-0.08
782.959	0.16
783.134	-0.04
783.308	-0.39
783.483	-0.09
783.657	0.35
783.832	0.35
784.006	-0.33
784.181	-0.1
784.355	0.3
784.53	0.16
784.704	-0.25
784.878	0.19
785.053	0.01
785.227	-0.01
785.402	0.38
785.576	-0.03
785.75	0.1
785.925	-0.08
786.099	-0.19
786.273	0.14
786.448	0.22
786.622	0.03
786.796	0.02
786.97	-0.23
787.145	0.47
787.319	-0.54
787.493	-0.17
787.667	-0.45
787.841	-0.17
788.015	0.11
788.19	-0.1
788.364	-0.01
788.538	0.04
788.712	-0
788.886	-0
789.06	0.2
789.234	0.2
789.408	-0.36
789.582	-0.2
789.756	-0.14
789.93	-0.14
790.104	-0.24
790.278	-0.06
790.452	-0.14
790.626	0.05
790.8	-0.12
790.973	0
791.147	0.07
791.321	0.12
791.495	0.21
791.669	-0
791.843	0.03
792.016	-0.14
792.19	0.41
792.364	-0.19
792.538	0.49
792.711	0.35
792.885	-0.17
793.059	-0.33
793.233	-0.51
793.406	0.21
793.58	-0.03
793.754	0.05
793.927	-0.28
794.101	0.16
794.274	0.21
794.448	0.02
794.622	-0.32
794.795	0.26
794.969	-0.06
795.142	0.24
795.316	-0.13
795.489	-0.35
795.663	0.28
795.836	-0.25
796.009	-0.3
796.183	0.45
796.356	0.25
796.53	0.16
796.703	-0.11
796.876	0.59
797.05	-0.14
797.223	-0.35
797.396	0.13
797.57	0.09
797.743	0.23
797.916	0.04
798.09	0
798.263	0.07
798.436	0.23
798.609	-0.33
798.782	-0.14
798.956	-0.07
799.129	-0.15
799.302	-0.07
799.475	-0.14
799.648	-0.26
799.821	-0.15
799.994	-0.02
800.167	-0.41
800.34	0.22
800.514	0.09
800.687	0.1
800.86	-0.22
801.033	-0.19
801.206	-0.1
801.379	-0.42
801.551	0.24
801.724	0.2
801.897	0.35
802.07	-0.16
802.243	-0.45
802.416	0.06
802.589	-0.29
802.762	-0.11
802.935	-0.08
803.107	0.24
803.28	0.18
803.453	0.14
803.626	-0.03
803.798	0.04
803.971	-0.37
804.144	0.18
804.317	-0.12
804.489	0.26
804.662	-0.16
804.835	-0
805.007	-0.28
805.18	0.38
805.353	0.05
805.525	-0.04
805.698	-0.08
805.87	-0.03
806.043	0.44
806.215	-0.4
806.388	-0.27
806.56	0.11
806.733	0.45
806.905	0.22
807.078	-0.48
807.25	-0.09
807.423	0.3
807.595	-0.23
807.768	0.21
807.94	0.31
808.112	0.35
808.285	-0.24
808.457	-0.21
808.629	0.15
808.802	0.07
808.974	-0.07
809.146	-0.26
809.318	-0.75
809.491	0.02
809.663	-0
809.835	-0.36
810.007	0.17
810.18	0.21
810.352	-0.21
810.524	-0.2
810.696	0.06
810.868	0.47
811.04	-0.3
811.212	-0.02
811.384	0.48
811.556	-0.1
811.728	0.17
811.901	0.48
812.073	-0.11
812.245	0.5
812.417	-0.06
812.589	-0.6
812.76	0.08
812.932	0.1
813.104	0.09
813.276	-0.05
813.448	0.44
813.62	-0.11
813.792	-0.03
813.964	0.21
814.136	0.18
814.307	-0.28
814.479	-0.5
814.651	-0.34
814.823	0.57
814.995	-0.01
815.166	0.23
815.338	-0.37
815.51	-0.46
815.681	0.51
815.853	0.42
816.025	-0.3
816.196	0.9
816.368	-0.19
816.54	-0.34
816.711	-0.43
816.883	0.08
817.054	0.75
817.226	-0.73
817.398	0.02
817.569	-0.36
817.741	-0.12
817.912	-0.17
818.084	-0.21
818.255	0.22
818.426	-0.14
818.598	-0.41
818.769	-0.15
818.941	0.37
819.112	0.49
819.283	0.36
819.455	-0.16
819.626	-0.21
819.798	0.12
819.969	0.18
820.14	-0.06
820.311	-0.02
820.483	0.13
820.654	-0.14
820.825	0.27
820.996	-0.08
821.168	-0.22
821.339	-0.15
821.51	-0.52
821.681	-0.42
821.852	-0.31
822.023	-0.21
822.195	-0.42
822.366	0.6
822.537	-0.03
822.708	0.18
822.879	-0.32
823.05	0.95
823.221	-0.39
823.392	0.08
823.563	0.05
823.734	0.28
823.905	0.19
824.076	-0.22
824.247	-0.19
824.418	-0.16
824.589	0.76
824.759	-0.6
824.93	-0.28
825.101	-0.99
825.272	0.55
825.443	0.38
825.614	1.13
825.784	-0.93
825.955	0.69
826.126	0.25
826.297	0.33
826.467	0.66
826.638	0.73
826.809	-1.22
826.98	-0.28
827.15	-0.57
827.321	-0.21
827.492	0.25
827.662	-0.06
827.833	0.66
828.003	0.34
828.174	-0.43
828.345	-0.77
828.515	0.57
828.686	-0.29
828.856	-0.26
829.027	0.45
829.197	-0.54
829.368	-0.14
829.538	-0.5
829.709	-0.88
829.879	0.03
830.049	0.12
830.22	-0.62
830.39	0.23
830.56	0.29
830.731	-0.36
830.901	-0.2
831.072	-0.11
831.242	-0.43
831.412	0.27
831.582	-0.2
831.753	-0.84
831.923	0.38
832.093	-0.43
832.263	-0.3
832.434	-0.48
832.604	-0.29
832.774	0.15
832.944	-0.04
833.114	-0.81
833.284	0.56
833.454	-0.69
833.624	-0.46
833.795	-0.05
833.965	0.62
834.135	1.11
834.305	-0.92
834.475	-1.12
834.645	-0.26
834.815	-0.25
834.985	-0.84
835.155	-0.47
835.325	0.31
835.494	0.2
835.664	-0.57
835.834	-1.22
836.004	-0.09
836.174	0.78
836.344	-0.29
836.514	-1.06
836.684	-0.53
836.853	-0.06
837.023	-0.3
837.193	0.05
837.363	0.11
837.532	0.34
837.702	-0.25
837.872	-0.41
838.041	0.14
838.211	1.5
838.381	-0.78
838.55	-0.12
838.72	2.12
838.89	0.7
839.059	-0.82
839.229	-0.53
839.398	0.48
839.568	-0.01
839.738	0.53
839.907	0.61
840.077	-0.47
840.246	-0.99
840.416	-0.81
840.585	-0.82
840.755	0.6
840.924	0.21
841.093	-0.63
841.263	-0.33
841.432	0.37
841.602	-1.1
841.771	-0.72
841.94	0.28
842.11	2.18
842.279	1.2
842.448	-0.75
842.617	-0.63
842.787	0.67
842.956	-0.57
843.125	0.29
843.294	0.52
843.464	0.16
843.633	-0.06
843.802	-1.06
843.971	-0.25
844.14	0.34
844.309	0.73
844.479	-1.06
844.648	-1.1
844.817	-0.69
844.986	-0.31
845.155	0.07
845.324	-0.33
845.493	-0.78
845.662	-0.4
845.831	0.01
846	-0.17
846.169	0.15
846.338	0.86
846.507	0.21
846.676	-0.66
846.844	-0.16
847.013	0.91
847.182	-0.4
847.351	-0.61
847.52	-0.21
847.689	0.41
847.858	-0.17
848.026	-0.35
848.195	0.63
848.364	-0.3
848.533	-0.46
848.701	-0.85
848.87	0.26
849.039	0.8
849.207	0.86
849.376	-0.23
849.545	0.58
849.713	-0.8
849.882	-0.92
850.051	-0.72
850.219	0.04
850.388	0.71
850.556	-0.36
850.725	-0.3
850.893	-0.01
851.062	-0.58
851.23	0.67
851.399	-1.69
851.567	-1.38
851.736	-0.43
851.904	-1.13
852.073	0.53
852.241	-0.09
852.41	-0.98
852.578	-0.18
852.746	-0.55
852.915	-0.06
853.083	-0.62
853.251	-1.29
853.42	-0.59
853.588	0.31
853.756	0.88
853.924	-0.06
854.093	-0.18
854.261	-0.73
854.429	-1.05
854.597	0.3
854.765	-1.38
854.934	0.47
855.102	1.06
855.27	-0.18
855.438	0.65
855.606	1.31
855.774	1.96
855.942	-1.33
856.11	-2.72
856.278	1.5
856.446	1.13
856.614	-0.63
856.782	-0.32
856.95	0.12
857.118	0.18
857.286	-0.11
857.454	-1.11
857.622	0.34
857.79	-0.95
857.958	-1.26
858.126	0.36
858.294	-2.65
858.462	-0.36
858.629	-0.64
858.797	-1.08
858.965	0.26
859.133	-0.52
859.301	-0.06
859.468	0.12
859.636	-1.78
859.804	0.51
859.971	0.82
860.139	-0.95
860.307	-0.93
860.474	-0.92
860.642	-0.32
860.81	-0.61
860.977	-1.2
861.145	-0.23
861.313	0.06
861.48	-0.36
861.648	-0.25
861.815	-0.29
861.983	-1.11
862.15	0.32
862.318	1
862.485	0.54
862.653	-1.34
862.82	-1.22
862.988	1.87
863.155	0.71
863.322	-1.47
863.49	-2.06
863.657	-0.56
863.824	1.66
863.992	1.25
864.159	-0.44
864.326	1.39
864.494	-0.11
864.661	0.43
864.828	-1.16
864.996	0.4
865.163	3.09
865.33	-1.49
865.497	-1.85
865.664	-0.88
865.832	-1.97
865.999	-0.7
866.166	-1.81
866.333	-0.54
866.5	-1.85
866.667	0.15
866.834	-0.75
867.001	0.42
867.168	-1.16
867.335	0.19
867.502	-1.68
867.669	0.74
867.836	2.37
868.003	-1.82
868.17	0.47
868.337	2.84
868.504	1.73
868.671	-1.28
868.838	-0.72
869.005	0.2
869.172	0.64
869.339	-0.27
869.505	-0.41
869.672	-0.95
869.839	0.34
870.006	0.23
870.173	-2.84
870.339	1.81
870.506	3.11
870.673	-0.92
870.84	1.4
871.006	0.98
871.173	-1.95
871.34	0.01
871.506	-0.93
871.673	0.6
871.839	-1.55
872.006	-0.02
872.173	-0.68
872.339	-0.84
872.506	1.69
872.672	0.15
872.839	-2.3
873.005	-0.35
873.172	3.43
873.338	0.43
873.505	1.34
873.671	-0.14
873.838	1.5
874.004	-1.98
874.171	-2.24
874.337	1.59
874.503	0.32
874.67	0.44
874.836	-1.19
875.002	2.95
875.169	0.92
875.335	1.85
875.501	0.01
875.668	0.42
875.834	0.23
876	-0.7
876.166	1.71
876.332	-1.1
876.499	1.66
876.665	-0.44
876.831	-2.6
876.997	1.77
877.163	1.36
877.329	-2.4
877.495	-1.43
877.662	-0.5
877.828	0.25
877.994	-0.83
878.16	-2.07
878.326	-1.56
878.492	1.05
878.658	-0.21
878.824	1.93
878.99	0.52
879.156	0.39
879.322	2.31
879.487	-0.71
879.653	-1.37
879.819	-1.36
879.985	-0.73
880.151	0.74
880.317	1.03
880.483	-0.53
880.648	-0.15
880.814	-2.97
880.98	-0.19
881.146	-2.52
881.312	0.52
881.477	-0.68
881.643	-0.79
881.809	1.65
881.974	0.43
882.14	-3.97
882.306	-0
882.471	0.88
882.637	-0.68
882.803	1.25
882.968	1.81
883.134	2.78
883.299	1.18
883.465	-0.68
883.63	1.38
883.796	-0.64
883.961	1.26
884.127	1
884.292	-3.51
884.458	-2.5
884.623	-2.49
