Data from Apollo_Calib_20240827__AbsoluteIrradiance__177__02-06-00-660.txt Node

Date: Wed Aug 28 02:06:00 BST 2024
User: biology
Spectrometer: FLMT08252
Trigger mode: 0
Integration Time (sec): 5.000000E-1
Scans to average: 5
Electric dark correction enabled: true
Nonlinearity correction enabled: false
Boxcar width: 0
XAxis mode: Wavelengths
Number of Pixels in Spectrum: 3648
>>>>>Begin Spectral Data<<<<<
179.588	-0
179.809	-0
180.03	-0
180.251	-0
180.473	-0
180.694	0
180.915	0
181.136	-0
181.357	0
181.578	-0
181.799	-0
182.02	-0
182.241	-0
182.462	-0
182.683	0
182.904	-0
183.125	0
183.346	0
183.567	0
183.788	-0
184.009	-0
184.23	0
184.451	0
184.672	-0
184.892	-0
185.113	0
185.334	0
185.555	-0
185.776	-0
185.996	0
186.217	0
186.438	0
186.659	-0
186.879	0
187.1	0
187.321	-0
187.541	-0
187.762	0
187.983	0
188.203	-0
188.424	0
188.644	0
188.865	0
189.086	0
189.306	-0
189.527	0
189.747	0
189.968	-0
190.188	0
190.409	0
190.629	0
190.849	-0
191.07	-0
191.29	0
191.511	0
191.731	-0
191.951	-0
192.172	-0
192.392	-0
192.612	0
192.833	0
193.053	0
193.273	0
193.493	0
193.714	-0
193.934	0
194.154	0
194.374	-0
194.594	0
194.815	0
195.035	0
195.255	0
195.475	-0
195.695	0
195.915	0
196.135	-0
196.355	0
196.575	0
196.795	0
197.015	-0
197.235	-0
197.455	-0
197.675	0
197.895	-0
198.115	-0
198.335	0
198.555	-0
198.775	0
198.995	0
199.214	0
199.434	-0
199.654	-0
199.874	0
200.094	1.26
200.313	-0.06
200.533	-0.34
200.753	-0.6
200.973	1.22
201.192	0.49
201.412	-1.07
201.632	-0.33
201.851	0.65
202.071	-0.74
202.291	-0.52
202.51	-0.49
202.73	0.34
202.95	-0.22
203.169	-0.58
203.389	-0.19
203.608	0.21
203.828	-0.52
204.047	-0.18
204.267	0.62
204.486	0.1
204.706	0.25
204.925	-0.07
205.145	0.26
205.364	0.44
205.583	0.39
205.803	-0.25
206.022	-0.21
206.242	0.47
206.461	0.36
206.68	-0.4
206.9	0.21
207.119	0.5
207.338	0.69
207.557	0.09
207.777	-0.13
207.996	-0.13
208.215	0.4
208.434	-0.38
208.654	-0.44
208.873	0.27
209.092	0.79
209.311	-0.2
209.53	-0.08
209.749	0.17
209.968	-0.19
210.187	-0.18
210.407	-0.43
210.626	0.03
210.845	0.48
211.064	0.19
211.283	-0.16
211.502	0.51
211.721	0.13
211.94	-0.08
212.159	0.21
212.377	0.32
212.596	0.23
212.815	0.02
213.034	0.06
213.253	0.39
213.472	0.1
213.691	0.14
213.91	-0.07
214.128	-0.09
214.347	0.07
214.566	-0.24
214.785	-0.3
215.003	0.28
215.222	0.18
215.441	-0.11
215.66	-0.18
215.878	0.01
216.097	0.05
216.316	-0.08
216.534	-0.09
216.753	0.11
216.972	-0.08
217.19	-0.11
217.409	0.03
217.627	-0.13
217.846	-0.09
218.064	0.07
218.283	-0.1
218.501	0.67
218.72	0.13
218.938	-0.13
219.157	-0.25
219.375	0.16
219.594	0.16
219.812	-0.21
220.031	-0.19
220.249	0.34
220.467	0.48
220.686	-0.13
220.904	-0.25
221.122	-0.17
221.341	0.31
221.559	-0.01
221.777	-0.14
221.995	-0.04
222.214	0.22
222.432	-0.22
222.65	0.01
222.868	0.06
223.086	0.12
223.305	0.15
223.523	-0.04
223.741	0.36
223.959	0.03
224.177	-0.2
224.395	-0
224.613	0.12
224.831	0.33
225.049	-0.16
225.267	0.03
225.485	0.12
225.703	0.04
225.921	-0.04
226.139	-0.18
226.357	0.26
226.575	0.13
226.793	-0.15
227.011	0.63
227.229	0.07
227.447	0.17
227.665	-0.03
227.883	-0.17
228.1	0.12
228.318	0.25
228.536	-0.27
228.754	-0.19
228.972	0.2
229.189	0.07
229.407	0.07
229.625	-0.02
229.843	0.28
230.06	0.23
230.278	-0.03
230.496	-0.04
230.713	-0.02
230.931	0.07
231.149	0.01
231.366	-0.21
231.584	0.1
231.801	0.45
232.019	-0.02
232.236	-0.16
232.454	-0.08
232.671	0.13
232.889	-0.01
233.106	-0.11
233.324	0.09
233.541	-0.01
233.759	-0.05
233.976	-0.07
234.194	0.03
234.411	0.05
234.628	-0.13
234.846	0.01
235.063	0.06
235.28	-0.09
235.498	0.01
235.715	-0.11
235.932	0.16
236.149	-0.02
236.367	0.03
236.584	0.03
236.801	0.05
237.018	0.11
237.236	0.09
237.453	-0.15
237.67	0.23
237.887	-0.01
238.104	-0.07
238.321	-0.01
238.538	-0.1
238.755	0.19
238.973	-0.18
239.19	0.04
239.407	0.09
239.624	0.03
239.841	-0.14
240.058	-0.12
240.275	0.09
240.492	0
240.709	0.03
240.925	0.01
241.142	0.06
241.359	-0.08
241.576	-0.09
241.793	0
242.01	0.04
242.227	0.11
242.444	0.01
242.66	0.1
242.877	0.06
243.094	-0.04
243.311	0.01
243.527	-0.02
243.744	0
243.961	0.16
244.178	-0.14
244.394	0.05
244.611	0.16
244.828	0.19
245.044	-0.01
245.261	-0
245.477	0.11
245.694	0.05
245.911	0.03
246.127	0.04
246.344	0.24
246.56	0.03
246.777	0.02
246.993	0.05
247.21	0.09
247.426	0.07
247.643	0.04
247.859	-0.04
248.076	0.05
248.292	0.2
248.508	-0.03
248.725	0.04
248.941	0.06
249.157	0.17
249.374	-0.02
249.59	0.05
249.806	-0
250.023	0.15
250.239	-0.03
250.455	-0.04
250.671	0.13
250.888	0.04
251.104	0.05
251.32	0.03
251.536	-0.1
251.752	0.02
251.969	0
252.185	0.07
252.401	0.22
252.617	0.09
252.833	-0.07
253.049	0.06
253.265	0
253.481	-0.03
253.697	0.03
253.913	-0.04
254.129	-0
254.345	0.04
254.561	0.01
254.777	-0.01
254.993	0.1
255.209	0.06
255.425	-0
255.641	0
255.857	0.12
256.073	-0.04
256.288	-0.09
256.504	-0.07
256.72	0.05
256.936	0.15
257.152	0.03
257.367	-0.05
257.583	0.06
257.799	0.12
258.015	-0.06
258.23	-0.02
258.446	0.14
258.662	-0.02
258.877	-0.05
259.093	-0.06
259.309	0.09
259.524	0.14
259.74	0.01
259.955	-0.09
260.171	0.02
260.387	0.08
260.602	0.09
260.818	0.07
261.033	-0.06
261.249	-0.01
261.464	-0.07
261.68	-0.11
261.895	0.06
262.11	0.17
262.326	-0.05
262.541	-0.03
262.757	0.05
262.972	-0
263.187	0.05
263.403	0.07
263.618	0.03
263.833	0.06
264.049	0.02
264.264	-0.02
264.479	0.06
264.694	0.1
264.91	-0.06
265.125	0.03
265.34	0.09
265.555	0.21
265.77	0.06
265.986	-0.08
266.201	0.04
266.416	0.08
266.631	0.03
266.846	-0.04
267.061	0.07
267.276	0.05
267.491	-0.17
267.706	0.04
267.921	0.06
268.136	0
268.351	-0.02
268.566	-0.02
268.781	0.17
268.996	0.1
269.211	0.02
269.426	-0.06
269.641	-0
269.856	0.11
270.071	0.02
270.285	-0
270.5	0.15
270.715	0.14
270.93	0.04
271.145	0.07
271.359	0.08
271.574	-0.03
271.789	-0.01
272.004	-0.05
272.218	-0.02
272.433	0.05
272.648	-0.05
272.862	0.13
273.077	0.01
273.292	0.02
273.506	-0.02
273.721	-0.02
273.936	0.09
274.15	0.1
274.365	0.01
274.579	0.07
274.794	0.06
275.008	0.14
275.223	-0.02
275.437	0.02
275.652	0.13
275.866	0.04
276.081	-0
276.295	0.07
276.509	0.04
276.724	0.01
276.938	-0.01
277.153	0.02
277.367	0.04
277.581	-0.04
277.796	-0.05
278.01	-0
278.224	0.08
278.438	0.17
278.653	-0
278.867	-0.01
279.081	-0.04
279.295	0.01
279.51	0.07
279.724	-0.09
279.938	0.07
280.152	0.05
280.366	-0.01
280.58	0.04
280.794	0.17
281.008	0.07
281.222	0.04
281.437	0.16
281.651	0.03
281.865	0.13
282.079	0
282.293	-0.06
282.507	-0.04
282.721	0.02
282.935	0.05
283.148	-0.07
283.362	-0.01
283.576	-0.01
283.79	0.05
284.004	-0.03
284.218	0.12
284.432	-0.07
284.646	0.02
284.859	-0.03
285.073	0.01
285.287	0.05
285.501	0
285.714	-0.01
285.928	0.03
286.142	0.02
286.356	-0.04
286.569	-0.02
286.783	0.06
286.997	0.08
287.21	0.04
287.424	0.05
287.637	-0.01
287.851	0.01
288.065	0.02
288.278	0.03
288.492	0
288.705	0.04
288.919	0.06
289.132	-0.06
289.346	0.11
289.559	-0.03
289.773	-0.03
289.986	0.02
290.2	0.02
290.413	0.11
290.626	-0.04
290.84	0.04
291.053	0.01
291.267	0.09
291.48	0.03
291.693	0.05
291.906	-0
292.12	0
292.333	-0.01
292.546	0.03
292.76	0.08
292.973	0.04
293.186	0.04
293.399	-0.03
293.612	0.07
293.826	0.01
294.039	0.01
294.252	-0.02
294.465	0.06
294.678	0.07
294.891	0.05
295.104	0.03
295.317	0.03
295.53	0.07
295.743	-0
295.956	-0.02
296.169	0.09
296.382	0.04
296.595	0.03
296.808	-0.03
297.021	0.07
297.234	0.07
297.447	0.04
297.66	0.05
297.873	0.05
298.086	0.06
298.299	0.03
298.511	-0.06
298.724	0.06
298.937	0
299.15	-0.02
299.363	0.04
299.575	0.07
299.788	0.04
300.001	0
300.213	-0.01
300.426	0.01
300.639	-0
300.852	-0.02
301.064	0.04
301.277	0.04
301.489	0.07
301.702	0.08
301.915	0.04
302.127	0.03
302.34	0.02
302.552	0.11
302.765	0.01
302.977	0.06
303.19	-0.01
303.402	0.03
303.615	-0.01
303.827	0.05
304.04	0.01
304.252	0.08
304.464	-0
304.677	0.13
304.889	0.07
305.102	-0.03
305.314	-0.01
305.526	0.04
305.739	0.04
305.951	-0.01
306.163	-0.03
306.375	0.09
306.588	-0
306.8	-0.04
307.012	-0.01
307.224	0.02
307.436	0.08
307.649	-0.01
307.861	0
308.073	0.04
308.285	-0.02
308.497	-0.02
308.709	-0.02
308.921	0.06
309.133	0.05
309.346	0.02
309.558	-0.02
309.77	0.07
309.982	0.06
310.194	0.07
310.406	-0.01
310.617	0.08
310.829	0.03
311.041	0.04
311.253	-0.01
311.465	-0.02
311.677	0.06
311.889	0.04
312.101	-0.04
312.313	0.06
312.524	0.06
312.736	0
312.948	0.02
313.16	0.11
313.372	0.04
313.583	0.09
313.795	0.02
314.007	0.04
314.218	0.05
314.43	0.03
314.642	-0.01
314.853	-0
315.065	0.05
315.277	0.05
315.488	0.01
315.7	0.06
315.912	0.03
316.123	0.03
316.335	0.01
316.546	0.12
316.758	0
316.969	0.04
317.181	0.08
317.392	0.02
317.604	0.07
317.815	0.01
318.026	-0.03
318.238	0.03
318.449	0.04
318.661	-0.02
318.872	-0.01
319.083	-0.02
319.295	0.04
319.506	-0.01
319.717	0.05
319.929	0.03
320.14	0.06
320.351	0.04
320.562	-0.01
320.774	0.01
320.985	0
321.196	0
321.407	-0.05
321.618	0.06
321.829	0.03
322.041	0.05
322.252	0.05
322.463	0.02
322.674	0.07
322.885	-0.01
323.096	-0.01
323.307	-0
323.518	0.06
323.729	0
323.94	0.05
324.151	-0.01
324.362	0.04
324.573	0.05
324.784	-0.02
324.995	0.07
325.206	0.06
325.417	0.01
325.628	0.04
325.838	0
326.049	0.02
326.26	0.07
326.471	-0.02
326.682	0.05
326.892	0.04
327.103	-0.01
327.314	-0.04
327.525	0.11
327.735	0.04
327.946	-0.01
328.157	-0.01
328.368	0.07
328.578	0.03
328.789	0.06
328.999	0.05
329.21	0.02
329.421	0.06
329.631	-0.04
329.842	-0.03
330.052	0.06
330.263	0.07
330.473	0.04
330.684	0.04
330.894	0.03
331.105	0.06
331.315	0.02
331.526	-0.03
331.736	0.09
331.947	0.05
332.157	0.04
332.367	0
332.578	0.06
332.788	0.1
332.999	0.01
333.209	0.03
333.419	-0
333.629	0.03
333.84	0.09
334.05	-0.01
334.26	0.11
334.47	0.04
334.681	0.07
334.891	-0.01
335.101	0.05
335.311	0.12
335.521	0.04
335.732	-0.02
335.942	0.08
336.152	0.04
336.362	0.03
336.572	0.04
336.782	0.11
336.992	-0.01
337.202	0
337.412	-0.03
337.622	0.09
337.832	0.01
338.042	0.03
338.252	0.03
338.462	0.04
338.672	0.05
338.882	0.01
339.092	0
339.302	0.11
339.511	0.06
339.721	0.02
339.931	-0.02
340.141	0.09
340.351	0.06
340.561	0.03
340.77	0.01
340.98	0.05
341.19	0.04
341.4	-0.02
341.609	-0
341.819	0.03
342.029	0.01
342.238	0.05
342.448	0.01
342.658	0.07
342.867	0.05
343.077	0.05
343.286	0.03
343.496	0.06
343.706	0.09
343.915	-0.01
344.125	0.02
344.334	0.07
344.544	-0.02
344.753	0.03
344.963	0.01
345.172	-0
345.381	0.03
345.591	-0.01
345.8	0.03
346.01	0.11
346.219	0.1
346.428	0.04
346.638	0.06
346.847	0.04
347.056	0.11
347.266	0.02
347.475	0.05
347.684	0.05
347.893	0.06
348.103	0.07
348.312	0.02
348.521	0.04
348.73	0.02
348.94	0.05
349.149	0.04
349.358	0.03
349.567	0.01
349.776	-0.04
349.985	0.02
350.194	0.06
350.403	0.06
350.612	0.01
350.821	0.01
351.03	-0
351.239	-0.05
351.448	0.03
351.657	0.06
351.866	0.07
352.075	0.06
352.284	-0.01
352.493	-0.02
352.702	0.09
352.911	0.06
353.12	0.06
353.329	0.02
353.538	0.07
353.746	0.03
353.955	-0.01
354.164	0.05
354.373	0.03
354.582	0.07
354.79	0.07
354.999	0.09
355.208	0.02
355.416	0.13
355.625	-0.04
355.834	0.03
356.042	0.05
356.251	0
356.46	-0.03
356.668	0.03
356.877	0.13
357.085	0.07
357.294	-0.04
357.503	0.06
357.711	-0.01
357.92	0.17
358.128	0.1
358.337	0.02
358.545	0.06
358.754	0.03
358.962	0.09
359.17	0.02
359.379	0.04
359.587	0.07
359.796	0.05
360.004	0.07
360.212	0.11
360.421	0.07
360.629	0.05
360.837	0.04
361.046	0.09
361.254	0.16
361.462	0.06
361.67	0.02
361.879	0.06
362.087	0.09
362.295	0.02
362.503	0.03
362.711	0
362.92	0.05
363.128	0.02
363.336	0.01
363.544	-0.02
363.752	0.05
363.96	0.03
364.168	0.02
364.376	0.04
364.584	0.06
364.792	0.03
365	0.05
365.208	0.06
365.416	0.09
365.624	0.08
365.832	0.05
366.04	0.09
366.248	0.03
366.456	0.04
366.664	0.06
366.872	0.06
367.079	0.05
367.287	0.05
367.495	0.08
367.703	0.04
367.911	0.03
368.118	0.06
368.326	0.07
368.534	0.02
368.742	0.06
368.949	0.01
369.157	0.03
369.365	0.07
369.572	0.04
369.78	-0.02
369.988	0.05
370.195	0.08
370.403	0.1
370.61	0.02
370.818	0.05
371.026	0.14
371.233	0.01
371.441	0.05
371.648	0.01
371.856	0.05
372.063	0.05
372.271	0.03
372.478	0.01
372.685	0.05
372.893	0.08
373.1	0.04
373.308	0.03
373.515	0.11
373.722	0.08
373.93	0.08
374.137	0.07
374.344	0.13
374.552	0.07
374.759	0.06
374.966	0.07
375.173	0.08
375.381	0.12
375.588	0.07
375.795	-0.02
376.002	0.05
376.209	-0
376.417	0.08
376.624	0.03
376.831	0.09
377.038	0.09
377.245	-0
377.452	0.02
377.659	0.05
377.866	0.01
378.073	0.06
378.28	0.06
378.487	0.13
378.694	0.08
378.901	0.09
379.108	0.04
379.315	0.13
379.522	0.12
379.729	0.07
379.936	0.06
380.143	0.08
380.35	0.08
380.557	0.05
380.763	0.06
380.97	0.09
381.177	0.12
381.384	0.1
381.591	0.04
381.797	0.11
382.004	0.12
382.211	0.13
382.418	0.09
382.624	0.11
382.831	0.13
383.038	0.13
383.244	0.14
383.451	0.08
383.658	0.11
383.864	0.14
384.071	0.08
384.277	0.2
384.484	0.08
384.69	0.14
384.897	0.07
385.103	0.11
385.31	0.11
385.516	0.13
385.723	0.13
385.929	0.16
386.136	0.12
386.342	0.21
386.549	0.13
386.755	0.26
386.961	0.21
387.168	0.21
387.374	0.21
387.58	0.26
387.787	0.23
387.993	0.23
388.199	0.21
388.406	0.2
388.612	0.22
388.818	0.23
389.024	0.26
389.231	0.36
389.437	0.41
389.643	0.36
389.849	0.33
390.055	0.35
390.261	0.36
390.467	0.37
390.674	0.39
390.88	0.43
391.086	0.54
391.292	0.45
391.498	0.54
391.704	0.55
391.91	0.62
392.116	0.58
392.322	0.55
392.528	0.71
392.734	0.63
392.94	0.75
393.146	0.76
393.352	0.81
393.557	0.84
393.763	0.87
393.969	0.95
394.175	0.97
394.381	1.05
394.587	1
394.792	1.14
394.998	1.26
395.204	1.33
395.41	1.28
395.615	1.38
395.821	1.48
396.027	1.6
396.233	1.67
396.438	1.76
396.644	1.97
396.85	2
397.055	2.07
397.261	2.14
397.466	2.19
397.672	2.35
397.878	2.54
398.083	2.59
398.289	2.59
398.494	2.73
398.7	2.87
398.905	2.9
399.111	3.22
399.316	3.11
399.522	3.34
399.727	3.51
399.932	3.63
400.138	3.72
400.343	3.99
400.549	4.02
400.754	4.36
400.959	4.47
401.165	4.85
401.37	4.88
401.575	5.18
401.78	5.27
401.986	5.57
402.191	5.79
402.396	6.1
402.601	6.32
402.807	6.54
403.012	6.75
403.217	7.24
403.422	7.25
403.627	7.54
403.832	7.94
404.037	8.01
404.243	8.11
404.448	8.45
404.653	8.69
404.858	8.9
405.063	8.76
405.268	9.17
405.473	9.27
405.678	9.45
405.883	9.89
406.088	9.89
406.293	9.78
406.498	10.22
406.703	10.04
406.907	10.39
407.112	10.8
407.317	10.92
407.522	11.03
407.727	11.18
407.932	11.27
408.136	11.41
408.341	11.13
408.546	11.21
408.751	11.2
408.956	10.94
409.16	11.28
409.365	11.18
409.57	10.78
409.774	10.8
409.979	10.71
410.184	10.47
410.388	10.19
410.593	10.39
410.798	10.17
411.002	10.17
411.207	9.87
411.411	9.73
411.616	9.33
411.82	9.32
412.025	9.1
412.229	8.98
412.434	8.62
412.638	8.35
412.843	8.16
413.047	7.93
413.252	7.66
413.456	7.68
413.66	7.38
413.865	7.09
414.069	6.88
414.273	6.74
414.478	6.49
414.682	6.32
414.886	6.09
415.091	5.89
415.295	5.75
415.499	5.7
415.703	5.42
415.908	5.41
416.112	5.18
416.316	5.13
416.52	4.93
416.724	4.84
416.929	4.63
417.133	4.84
417.337	4.49
417.541	4.44
417.745	4.36
417.949	4.26
418.153	4.26
418.357	4.07
418.561	4.12
418.765	3.91
418.969	3.86
419.173	3.88
419.377	3.63
419.581	3.77
419.785	3.6
419.989	3.43
420.193	3.48
420.397	3.29
420.601	3.35
420.804	3.28
421.008	3.09
421.212	3.1
421.416	2.94
421.62	2.86
421.823	2.71
422.027	2.72
422.231	2.59
422.435	2.44
422.638	2.34
422.842	2.34
423.046	2.22
423.249	2.24
423.453	2.11
423.657	2.15
423.86	2.03
424.064	1.99
424.268	2.05
424.471	1.82
424.675	2.04
424.878	1.81
425.082	1.7
425.285	1.82
425.489	1.63
425.692	1.62
425.896	1.5
426.099	1.52
426.303	1.36
426.506	1.41
426.71	1.43
426.913	1.43
427.116	1.43
427.32	1.26
427.523	1.31
427.726	1.32
427.93	1.18
428.133	1.25
428.336	1.17
428.54	1.13
428.743	1.17
428.946	1.16
429.149	1.12
429.353	1.1
429.556	1.1
429.759	1.03
429.962	0.93
430.165	0.98
430.368	0.94
430.571	0.88
430.775	0.89
430.978	0.84
431.181	0.83
431.384	0.86
431.587	0.79
431.79	0.76
431.993	0.8
432.196	0.8
432.399	0.72
432.602	0.77
432.805	0.75
433.008	0.78
433.211	0.72
433.414	0.81
433.616	0.79
433.819	0.7
434.022	0.58
434.225	0.74
434.428	0.76
434.631	0.82
434.833	0.68
435.036	0.63
435.239	0.68
435.442	0.68
435.645	0.64
435.847	0.59
436.05	0.67
436.253	0.62
436.455	0.56
436.658	0.56
436.861	0.63
437.063	0.54
437.266	0.49
437.468	0.56
437.671	0.66
437.874	0.5
438.076	0.44
438.279	0.47
438.481	0.54
438.684	0.45
438.886	0.49
439.089	0.39
439.291	0.45
439.494	0.52
439.696	0.4
439.899	0.43
440.101	0.45
440.303	0.37
440.506	0.48
440.708	0.39
440.91	0.45
441.113	0.37
441.315	0.45
441.517	0.32
441.72	0.43
441.922	0.28
442.124	0.35
442.326	0.37
442.529	0.46
442.731	0.32
442.933	0.44
443.135	0.34
443.337	0.27
443.539	0.34
443.742	0.26
443.944	0.32
444.146	0.27
444.348	0.31
444.55	0.25
444.752	0.32
444.954	0.21
445.156	0.26
445.358	0.24
445.56	0.33
445.762	0.28
445.964	0.22
446.166	0.21
446.368	0.27
446.57	0.3
446.772	0.2
446.974	0.22
447.175	0.24
447.377	0.19
447.579	0.26
447.781	0.13
447.983	0.33
448.184	0.22
448.386	0.26
448.588	0.13
448.79	0.15
448.991	0.22
449.193	0.19
449.395	0.2
449.597	0.25
449.798	0.24
450	0.23
450.202	0.2
450.403	0.2
450.605	0.22
450.806	0.23
451.008	0.15
451.21	0.15
451.411	0.22
451.613	0.16
451.814	0.19
452.016	0.19
452.217	0.2
452.419	0.21
452.62	0.17
452.821	0.16
453.023	0.26
453.224	0.26
453.426	0.14
453.627	0.12
453.828	0.2
454.03	0.18
454.231	0.24
454.432	0.14
454.634	0.27
454.835	0.14
455.036	0.11
455.238	0.21
455.439	0.23
455.64	0.09
455.841	0.14
456.042	0.31
456.244	0.22
456.445	0.1
456.646	0.08
456.847	0.15
457.048	0.23
457.249	0.2
457.45	0.38
457.651	0.14
457.852	0.23
458.054	0.16
458.255	0.16
458.456	0.19
458.657	0.19
458.858	0.13
459.058	0.14
459.259	0.19
459.46	0.18
459.661	0.17
459.862	0.28
460.063	0.15
460.264	0.21
460.465	0.07
460.666	0.24
460.866	0.09
461.067	0.15
461.268	0.09
461.469	0.1
461.67	0.16
461.87	0.14
462.071	0.11
462.272	0.13
462.473	0.13
462.673	0.21
462.874	0.08
463.075	0.16
463.275	0.07
463.476	0.15
463.676	0.16
463.877	0.16
464.078	0.18
464.278	0.21
464.479	0.12
464.679	0.15
464.88	0.15
465.08	0.22
465.281	0.16
465.481	0.12
465.682	0.17
465.882	0.16
466.083	0.18
466.283	0.16
466.483	0.16
466.684	0.11
466.884	0.11
467.085	0.14
467.285	0.18
467.485	0.08
467.686	0.12
467.886	0.11
468.086	0.11
468.286	0.16
468.487	0.14
468.687	0.13
468.887	0.13
469.087	0.22
469.287	0.14
469.488	0.11
469.688	0.16
469.888	0.16
470.088	0.15
470.288	0.18
470.488	0.16
470.688	0.1
470.888	0.11
471.088	0.08
471.288	0.18
471.488	0.12
471.688	0.14
471.888	0.08
472.088	0.2
472.288	0.2
472.488	0.09
472.688	0.12
472.888	0.14
473.088	0.13
473.288	0.14
473.488	0.1
473.688	0.17
473.887	0.1
474.087	0.06
474.287	0.12
474.487	0.1
474.687	0.17
474.886	0.09
475.086	0.09
475.286	0.11
475.486	0.09
475.685	0.12
475.885	0.1
476.085	0.14
476.284	0.13
476.484	0.09
476.684	0.11
476.883	0.2
477.083	0.11
477.282	0.07
477.482	0.16
477.681	0.11
477.881	0.07
478.08	0.07
478.28	0.03
478.479	0.09
478.679	0.15
478.878	0.08
479.078	0.06
479.277	0.09
479.477	0.1
479.676	0.1
479.875	0.08
480.075	0.01
480.274	0.13
480.473	0.12
480.673	0.04
480.872	0.12
481.071	0.09
481.271	0.09
481.47	0.05
481.669	0.06
481.868	0.03
482.067	0.03
482.267	0.03
482.466	0.05
482.665	0.03
482.864	0.01
483.063	0.03
483.262	0.08
483.461	0.11
483.661	0.1
483.86	0.06
484.059	0.09
484.258	0.07
484.457	0.06
484.656	0.06
484.855	0.12
485.054	0.03
485.253	0.03
485.452	0.03
485.651	0.05
485.849	0.09
486.048	0.03
486.247	0.03
486.446	0.07
486.645	0.02
486.844	0.04
487.043	0.04
487.241	0.08
487.44	0.02
487.639	0.05
487.838	0.08
488.037	0.07
488.235	0.11
488.434	0.04
488.633	0.02
488.831	0.08
489.03	0.09
489.229	0.04
489.427	0.03
489.626	0.09
489.825	0.11
490.023	0.06
490.222	0.02
490.42	0.09
490.619	0.1
490.817	0.06
491.016	0.06
491.214	0.07
491.413	0.03
491.611	0.03
491.81	0.06
492.008	0.07
492.207	0.05
492.405	0.06
492.604	0.02
492.802	0.02
493	0.06
493.199	0.04
493.397	0.05
493.595	0.05
493.794	0.03
493.992	0.12
494.19	0.04
494.388	0.06
494.587	0.04
494.785	0.07
494.983	-0.01
495.181	0.05
495.379	0.05
495.578	0.06
495.776	0.05
495.974	0.06
496.172	0.05
496.37	0.03
496.568	0.01
496.766	0.01
496.964	0.09
497.162	0.06
497.36	0.03
497.558	0.07
497.756	0.08
497.954	0.06
498.152	0.01
498.35	0.03
498.548	0.02
498.746	0.06
498.944	0.02
499.142	0.03
499.34	0.02
499.538	0.03
499.736	0.03
499.933	0.09
500.131	0.08
500.329	0.05
500.527	0.07
500.725	0.08
500.922	0.06
501.12	0.07
501.318	0.03
501.516	0.03
501.713	0.05
501.911	0.03
502.109	0.02
502.306	0.06
502.504	0.06
502.701	0.02
502.899	0.03
503.097	0.1
503.294	0.05
503.492	0.03
503.689	0.04
503.887	0.05
504.084	0.07
504.282	0.05
504.479	0.01
504.677	0.04
504.874	0.02
505.072	0.04
505.269	0.03
505.466	0.06
505.664	0.04
505.861	0.01
506.059	0.03
506.256	0.06
506.453	0.03
506.651	0.08
506.848	0.06
507.045	0.03
507.242	0.05
507.44	0.03
507.637	0.04
507.834	0.03
508.031	0.04
508.229	0.01
508.426	0.05
508.623	0.04
508.82	0.02
509.017	0.01
509.214	0.02
509.411	0.01
509.608	-0
509.805	0.03
510.003	0.01
510.2	0
510.397	0.05
510.594	0
510.791	-0.01
510.988	0.01
511.184	0.07
511.381	0.03
511.578	0.01
511.775	0.06
511.972	0.01
512.169	0.02
512.366	0.03
512.563	0.06
512.76	0.01
512.956	0.07
513.153	0.01
513.35	0.02
513.547	0.01
513.744	0
513.94	0.02
514.137	0.03
514.334	0.02
514.53	0.01
514.727	0.03
514.924	0.06
515.12	0.01
515.317	0
515.514	0.02
515.71	-0
515.907	0.02
516.103	0.03
516.3	0.04
516.497	0.07
516.693	0.03
516.89	0.03
517.086	-0.01
517.283	0.07
517.479	0.02
517.676	0.01
517.872	0.01
518.068	0.02
518.265	0.01
518.461	-0
518.658	-0
518.854	0.03
519.05	0.03
519.247	0.01
519.443	0.05
519.639	0.04
519.836	0.05
520.032	0.02
520.228	0.02
520.424	0.05
520.621	0.04
520.817	0.03
521.013	0.04
521.209	0.04
521.405	0.09
521.601	0.02
521.798	0.01
521.994	0.07
522.19	0.02
522.386	0.01
522.582	0.02
522.778	0.02
522.974	-0
523.17	0.01
523.366	0.04
523.562	0.04
523.758	0.02
523.954	0.02
524.15	-0.01
524.346	0.05
524.542	0.03
524.738	0
524.934	0.01
525.129	0.02
525.325	0.03
525.521	0.01
525.717	0.06
525.913	0.01
526.109	0.02
526.304	0.02
526.5	0.04
526.696	0.05
526.892	0.01
527.087	0.02
527.283	-0
527.479	0.03
527.674	0.02
527.87	0.03
528.066	0.02
528.261	0.04
528.457	0.05
528.653	0.02
528.848	0.03
529.044	0.02
529.239	0.01
529.435	0.04
529.63	0.02
529.826	0.06
530.021	0.04
530.217	0.04
530.412	0.03
530.608	0
530.803	0.01
530.999	0.02
531.194	-0.02
531.389	0.03
531.585	-0.04
531.78	0.01
531.975	0.01
532.171	0.04
532.366	0.03
532.561	0.02
532.757	-0.01
532.952	-0
533.147	0.02
533.342	0.01
533.538	0
533.733	0.05
533.928	0.03
534.123	0.02
534.318	-0.01
534.513	0.02
534.709	0.02
534.904	0.02
535.099	-0.01
535.294	0.01
535.489	0.04
535.684	0.01
535.879	0
536.074	0.02
536.269	0.01
536.464	0.04
536.659	0.03
536.854	0.02
537.049	0.02
537.244	0.04
537.439	0.03
537.634	0.05
537.828	0.01
538.023	0.01
538.218	-0.01
538.413	0.02
538.608	-0
538.803	0.02
538.997	-0.01
539.192	0.05
539.387	0.02
539.582	0.01
539.776	0.02
539.971	-0.01
540.166	0.03
540.36	-0.01
540.555	0
540.75	-0
540.944	0.01
541.139	-0.01
541.334	-0.01
541.528	0.02
541.723	0.06
541.917	0.01
542.112	-0.02
542.306	-0
542.501	0.02
542.695	0.01
542.89	0.02
543.084	0.01
543.279	0.01
543.473	0.03
543.668	-0
543.862	0.01
544.056	0.05
544.251	0.02
544.445	-0.01
544.64	0.01
544.834	0
545.028	0.03
545.222	0.03
545.417	0.04
545.611	0.03
545.805	0
546	0.01
546.194	0.01
546.388	-0.02
546.582	0.04
546.776	0.02
546.97	0
547.165	0.02
547.359	0.04
547.553	-0.01
547.747	-0
547.941	0.03
548.135	0.01
548.329	0.04
548.523	0.03
548.717	0
548.911	0.01
549.105	-0
549.299	0.03
549.493	0.02
549.687	0.03
549.881	0.02
550.075	0.03
550.269	-0.01
550.463	0.02
550.657	-0.02
550.85	0.02
551.044	-0.01
551.238	0.02
551.432	0.02
551.626	-0.02
551.82	0.03
552.013	-0.01
552.207	0.03
552.401	0.04
552.594	0.02
552.788	0
552.982	0.03
553.176	-0.03
553.369	0.03
553.563	0.02
553.756	-0.04
553.95	0
554.144	0.02
554.337	0.05
554.531	0.02
554.724	0.02
554.918	0.02
555.111	0.03
555.305	0.01
555.498	0.06
555.692	0.03
555.885	-0
556.079	0
556.272	-0
556.466	0.03
556.659	0.02
556.852	0.02
557.046	0.01
557.239	0.03
557.432	-0
557.626	-0.01
557.819	0
558.012	0.04
558.206	0.05
558.399	0.01
558.592	0
558.785	0
558.979	0.05
559.172	0.02
559.365	0.04
559.558	0.03
559.751	0.02
559.944	-0
560.138	-0.01
560.331	0
560.524	-0.01
560.717	0
560.91	-0
561.103	0.05
561.296	0.01
561.489	0.06
561.682	0.01
561.875	0.04
562.068	0.01
562.261	0.01
562.454	0.04
562.647	0.05
562.84	0.01
563.032	0.01
563.225	0.01
563.418	0.01
563.611	-0.01
563.804	0.01
563.997	0.01
564.19	-0.02
564.382	0.01
564.575	0.02
564.768	-0.01
564.961	0.01
565.153	-0.02
565.346	0.04
565.539	0.05
565.731	0.05
565.924	0.02
566.117	0.01
566.309	0.03
566.502	-0.01
566.695	-0
566.887	0.05
567.08	0.01
567.272	0
567.465	-0
567.657	-0
567.85	0.04
568.042	0.02
568.235	0.03
568.427	-0
568.62	-0
568.812	0.02
569.005	0
569.197	-0.03
569.389	0.01
569.582	0.02
569.774	0.01
569.966	-0.02
570.159	-0.03
570.351	0.01
570.543	-0.02
570.736	0.02
570.928	-0.02
571.12	0.01
571.312	0.02
571.505	-0.01
571.697	0.06
571.889	-0.04
572.081	0
572.273	-0.01
572.465	0.05
572.658	0.02
572.85	0.03
573.042	0.01
573.234	0.01
573.426	0.05
573.618	-0.04
573.81	0.04
574.002	0.03
574.194	0.06
574.386	-0.01
574.578	-0.05
574.77	-0
574.962	0
575.154	-0.01
575.346	-0.01
575.538	0.01
575.729	-0.01
575.921	-0.01
576.113	0
576.305	0.01
576.497	-0
576.689	-0.01
576.88	-0.01
577.072	0.03
577.264	0.02
577.456	0.02
577.647	-0.03
577.839	0.01
578.031	0.04
578.223	-0.01
578.414	-0.04
578.606	0.02
578.798	0.03
578.989	-0.03
579.181	-0.01
579.372	-0.01
579.564	-0.01
579.755	0.02
579.947	0.02
580.139	0.02
580.33	-0.05
580.522	0
580.713	-0.05
580.905	-0
581.096	0.02
581.287	-0.01
581.479	-0.02
581.67	0.03
581.862	-0
582.053	-0.02
582.244	-0.05
582.436	-0.02
582.627	-0.02
582.818	-0.02
583.01	-0.02
583.201	0.02
583.392	0.05
583.583	0.04
583.775	-0.02
583.966	0
584.157	0
584.348	0
584.54	-0.05
584.731	0.01
584.922	-0
585.113	-0.01
585.304	0.06
585.495	0.02
585.686	0.02
585.877	0.01
586.068	0.02
586.259	0.02
586.45	0.01
586.641	-0.03
586.832	-0.07
587.023	0.02
587.214	0
587.405	0.01
587.596	-0.03
587.787	0.05
587.978	0.01
588.169	-0.02
588.36	-0.03
588.551	0.03
588.742	0.01
588.932	0.02
589.123	0.01
589.314	0.04
589.505	0.01
589.696	0.02
589.886	-0
590.077	-0.04
590.268	0.03
590.458	-0.04
590.649	-0.03
590.84	0.03
591.03	-0
591.221	-0.03
591.412	-0.03
591.602	0.02
591.793	0.03
591.984	-0.02
592.174	-0
592.365	0.06
592.555	-0.03
592.746	0.02
592.936	0.02
593.127	0.03
593.317	0.03
593.508	-0.04
593.698	-0
593.889	-0
594.079	0.03
594.269	-0.03
594.46	-0.01
594.65	-0
594.84	0
595.031	-0.02
595.221	-0.02
595.411	-0.04
595.602	0.04
595.792	-0
595.982	0.01
596.172	0.06
596.363	0.03
596.553	0
596.743	0.03
596.933	0.01
597.123	0.04
597.314	-0.04
597.504	0
597.694	0.05
597.884	0.03
598.074	-0
598.264	-0
598.454	0.03
598.644	-0.03
598.834	-0.01
599.024	-0.07
599.214	-0
599.404	0.05
599.594	-0.02
599.784	-0.03
599.974	0.05
600.164	0.04
600.354	-0.02
600.544	-0.03
600.734	-0.01
600.924	0.06
601.114	-0.02
601.303	0.02
601.493	0.02
601.683	-0
601.873	0.01
602.063	-0.02
602.252	0.03
602.442	-0.05
602.632	-0.02
602.821	-0.05
603.011	0.03
603.201	-0.02
603.39	-0.03
603.58	-0.04
603.77	0.03
603.959	0.06
604.149	0.01
604.339	-0.04
604.528	0.02
604.718	0.01
604.907	-0
605.097	-0.03
605.286	-0.04
605.476	0.03
605.665	0.02
605.855	-0.03
606.044	0.07
606.234	0.02
606.423	0.01
606.612	-0.02
606.802	0
606.991	0.04
607.181	0.03
607.37	-0.04
607.559	0.03
607.749	-0.03
607.938	0
608.127	-0.02
608.316	-0.03
608.506	0.01
608.695	-0
608.884	-0.02
609.073	0.01
609.263	0.05
609.452	0.05
609.641	0
609.83	-0.04
610.019	0.01
610.208	-0.04
610.397	-0
610.586	0.03
610.775	-0.02
610.965	-0.04
611.154	-0.02
611.343	0.03
611.532	0.01
611.721	-0.01
611.91	-0.01
612.099	0.03
612.287	0
612.476	-0.01
612.665	0.01
612.854	-0.01
613.043	0.05
613.232	-0
613.421	-0.05
613.61	0.02
613.798	-0.01
613.987	0.04
614.176	-0.02
614.365	0.04
614.554	0.02
614.742	0.06
614.931	-0.01
615.12	0.01
615.309	0.01
615.497	-0.02
615.686	-0.04
615.875	-0.02
616.063	0.01
616.252	-0.01
616.44	0.01
616.629	0.01
616.818	0.04
617.006	-0.01
617.195	-0.02
617.383	0.01
617.572	0
617.76	-0.02
617.949	-0.02
618.137	0.02
618.326	0.06
618.514	-0.02
618.703	-0.01
618.891	0.04
619.079	-0.05
619.268	0.04
619.456	-0.01
619.644	0.08
619.833	-0.01
620.021	-0.02
620.209	-0.03
620.398	0.03
620.586	-0.02
620.774	0.02
620.962	0.01
621.151	0.05
621.339	-0
621.527	-0.03
621.715	-0.02
621.903	-0.02
622.092	-0.03
622.28	0.01
622.468	-0.03
622.656	-0.01
622.844	0
623.032	-0.02
623.22	-0.06
623.408	0.03
623.596	0.03
623.784	0.01
623.972	-0
624.16	-0
624.348	0.08
624.536	-0
624.724	-0.03
624.912	0.03
625.1	0.04
625.288	0
625.476	-0.03
625.664	0.02
625.851	-0.05
626.039	0
626.227	0.02
626.415	0
626.603	-0.06
626.79	-0.02
626.978	0.01
627.166	0.01
627.354	0
627.541	-0.04
627.729	-0.06
627.917	0.02
628.104	0.05
628.292	0.01
628.48	-0.01
628.667	0.04
628.855	-0
629.042	0
629.23	-0.01
629.418	0.02
629.605	-0
629.793	-0.04
629.98	-0
630.168	0.02
630.355	0
630.543	0.01
630.73	-0.01
630.917	0.05
631.105	0.03
631.292	-0
631.48	-0.01
631.667	0.03
631.854	-0.02
632.042	-0.03
632.229	-0.05
632.416	-0
632.604	-0
632.791	-0.05
632.978	0.03
633.165	0.03
633.353	0.05
633.54	0.02
633.727	-0.06
633.914	-0.02
634.101	-0.09
634.289	0.04
634.476	-0.01
634.663	-0.04
634.85	0.04
635.037	-0.04
635.224	-0.05
635.411	0.01
635.598	0.03
635.785	-0.01
635.972	-0
636.159	0.03
636.346	-0.04
636.533	0.01
636.72	-0.03
636.907	0.02
637.094	0.01
637.281	-0.02
637.468	0.02
637.655	-0.02
637.842	-0
638.029	-0.02
638.215	0.02
638.402	-0
638.589	-0.03
638.776	-0.03
638.963	-0.01
639.149	0.05
639.336	0.05
639.523	0.01
639.709	0.01
639.896	0.02
640.083	0.07
640.27	0.02
640.456	-0.03
640.643	0.02
640.829	-0.07
641.016	-0.03
641.203	-0.05
641.389	0.03
641.576	0.04
641.762	0.01
641.949	-0.02
642.135	0.04
642.322	0.01
642.508	-0.06
642.695	0.01
642.881	-0.03
643.068	-0.02
643.254	-0.01
643.441	0.06
643.627	0.02
643.813	-0.03
644	0.05
644.186	-0.04
644.372	-0.05
644.559	0.05
644.745	-0.02
644.931	-0.01
645.118	-0.03
645.304	-0.03
645.49	-0
645.676	-0.01
645.862	0.02
646.049	0.04
646.235	0.02
646.421	0.06
646.607	0.07
646.793	-0
646.979	-0.02
647.165	-0.01
647.352	0
647.538	0.03
647.724	-0.04
647.91	0
648.096	0.03
648.282	0.01
648.468	-0.03
648.654	0.03
648.84	0.03
649.026	0.04
649.212	0.01
649.397	0.01
649.583	-0.07
649.769	0
649.955	-0.03
650.141	0.01
650.327	0.04
650.513	-0.03
650.698	-0.02
650.884	-0.08
651.07	0.03
651.256	0.03
651.442	-0.03
651.627	-0.01
651.813	-0.01
651.999	0.02
652.184	-0
652.37	-0.01
652.556	-0.04
652.741	0.05
652.927	-0.07
653.113	-0
653.298	0.02
653.484	0.01
653.669	-0.07
653.855	-0
654.04	0.02
654.226	0.01
654.412	-0
654.597	-0.04
654.782	-0.01
654.968	0.05
655.153	0.01
655.339	-0.04
655.524	-0.04
655.71	0.07
655.895	-0
656.08	-0.03
656.266	0.05
656.451	0.01
656.636	-0.06
656.822	0.03
657.007	-0.03
657.192	-0.03
657.378	-0.07
657.563	0.03
657.748	0.08
657.933	0.01
658.118	-0.03
658.304	-0.02
658.489	0.01
658.674	0.03
658.859	-0.02
659.044	0.01
659.229	0.01
659.414	-0.03
659.599	-0.02
659.785	-0.06
659.97	-0.01
660.155	0.03
660.34	0.02
660.525	-0.01
660.71	-0.03
660.895	0.02
661.08	-0.01
661.264	-0.03
661.449	0.05
661.634	0.03
661.819	0.02
662.004	0.03
662.189	-0.06
662.374	-0.03
662.559	-0.05
662.743	-0.04
662.928	-0.01
663.113	-0.01
663.298	-0.09
663.483	-0.04
663.667	-0
663.852	-0.06
664.037	0.04
664.221	-0.03
664.406	0.03
664.591	0.05
664.775	0.03
664.96	-0.04
665.145	-0
665.329	0.02
665.514	-0.06
665.698	0
665.883	-0.04
666.068	0.04
666.252	-0.01
666.437	-0.04
666.621	-0.02
666.806	0.05
666.99	0
667.174	-0.01
667.359	0.08
667.543	-0.05
667.728	0.01
667.912	-0.03
668.096	0.03
668.281	-0.03
668.465	-0.02
668.649	-0.01
668.834	-0.05
669.018	-0.02
669.202	-0.02
669.387	-0.05
669.571	0.05
669.755	-0.04
669.939	-0.03
670.124	0.01
670.308	0.07
670.492	0.04
670.676	-0.02
670.86	-0.02
671.044	-0.04
671.228	0.05
671.413	-0.04
671.597	-0
671.781	-0.02
671.965	0.02
672.149	0.02
672.333	-0.02
672.517	-0.01
672.701	0.01
672.885	-0.04
673.069	-0.06
673.253	0.07
673.437	-0.02
673.621	-0.01
673.804	-0.03
673.988	-0.02
674.172	-0.01
674.356	-0.04
674.54	0
674.724	0.06
674.908	-0.01
675.091	0.02
675.275	-0.01
675.459	0.07
675.643	0.08
675.826	-0.01
676.01	0.04
676.194	0.01
676.377	0.04
676.561	-0
676.745	-0
676.928	0.03
677.112	0.03
677.296	-0.04
677.479	-0.03
677.663	0
677.846	-0.01
678.03	0.02
678.213	-0.03
678.397	0.03
678.58	-0.07
678.764	-0.03
678.947	-0.02
679.131	-0.03
679.314	0
679.498	-0.01
679.681	0.02
679.865	0.06
680.048	0
680.231	-0.02
680.415	-0.03
680.598	-0.04
680.781	-0.05
680.965	0.01
681.148	0.04
681.331	-0.03
681.514	0.08
681.698	-0.03
681.881	0
682.064	-0.04
682.247	0.02
682.43	-0.07
682.614	0.03
682.797	0.04
682.98	0.05
683.163	-0.06
683.346	-0
683.529	-0.01
683.712	-0.03
683.895	0.06
684.078	-0.07
684.261	-0.02
684.444	-0.01
684.627	0.02
684.81	-0.02
684.993	0
685.176	0.02
685.359	-0.02
685.542	-0.04
685.725	0.05
685.908	-0.03
686.091	-0.03
686.274	0.03
686.457	0.01
686.639	-0
686.822	0.01
687.005	0.04
687.188	0.07
687.371	0.05
687.553	0.02
687.736	0.03
687.919	0.1
688.102	0.1
688.284	-0.05
688.467	0.02
688.65	-0.02
688.832	0
689.015	-0.03
689.197	-0.07
689.38	0.06
689.563	0.06
689.745	-0.05
689.928	-0.01
690.11	-0.05
690.293	0.01
690.475	-0.08
690.658	-0
690.84	0.04
691.023	-0
691.205	-0.07
691.388	0.01
691.57	0.04
691.752	0.09
691.935	-0.08
692.117	-0.02
692.3	0.05
692.482	-0.01
692.664	-0.05
692.847	-0.03
693.029	0.07
693.211	-0.01
693.393	-0.03
693.576	0.01
693.758	-0.03
693.94	-0.03
694.122	-0.03
694.304	-0
694.487	-0
694.669	0.06
694.851	-0.06
695.033	0.01
695.215	-0.05
695.397	-0.04
695.579	0.01
695.761	-0.11
695.943	-0.09
696.125	0.07
696.308	0.02
696.49	-0.11
696.671	0.11
696.853	-0.02
697.035	0.06
697.217	0
697.399	0.02
697.581	-0.08
697.763	-0.05
697.945	-0.03
698.127	-0.01
698.309	0.05
698.491	-0.03
698.672	0.07
698.854	0.04
699.036	0.07
699.218	-0.04
699.399	0.06
699.581	0.05
699.763	-0.02
699.945	-0.02
700.126	-0.07
700.308	0.03
700.49	0
700.671	-0.14
700.853	-0.06
701.035	-0.02
701.216	0.01
701.398	-0.05
701.579	-0.02
701.761	0.08
701.943	-0.03
702.124	-0.06
702.306	-0.03
702.487	0.11
702.669	-0.04
702.85	-0.05
703.031	-0.09
703.213	0.11
703.394	0.05
703.576	-0.05
703.757	0.03
703.938	0.03
704.12	0.18
704.301	-0
704.483	-0.06
704.664	0.01
704.845	0.09
705.026	0.04
705.208	-0.04
705.389	0.03
705.57	0.01
705.751	-0.02
705.933	-0.02
706.114	0.01
706.295	0.03
706.476	-0.04
706.657	0.06
706.838	0.02
707.02	-0.03
707.201	-0.01
707.382	-0.09
707.563	0.02
707.744	0.01
707.925	-0.07
708.106	-0.04
708.287	-0.02
708.468	0.09
708.649	0
708.83	0.01
709.011	-0.06
709.192	0.1
709.373	-0.07
709.554	-0.02
709.734	0.03
709.915	0.09
710.096	0.08
710.277	-0.12
710.458	-0.03
710.639	0.03
710.819	-0.1
711	-0.01
711.181	0.09
711.362	0.06
711.542	0.05
711.723	0
711.904	0.1
712.085	0.03
712.265	-0.03
712.446	-0.04
712.627	-0.07
712.807	-0
712.988	-0.02
713.168	-0.07
713.349	0.06
713.53	-0.13
713.71	-0.04
713.891	-0.07
714.071	-0.04
714.252	-0.08
714.432	0.01
714.613	-0.04
714.793	-0.03
714.974	0.08
715.154	0.06
715.334	0.04
715.515	0.11
715.695	-0.14
715.876	0.01
716.056	-0.04
716.236	-0.05
716.417	-0.02
716.597	-0.05
716.777	0.19
716.957	0
717.138	-0.04
717.318	0.03
717.498	-0.09
717.678	-0.01
717.859	0
718.039	-0.12
718.219	0.01
718.399	0.04
718.579	-0.12
718.759	-0.05
718.939	0.01
719.12	-0
719.3	0
719.48	-0.08
719.66	-0.06
719.84	0.1
720.02	0.02
720.2	-0.09
720.38	-0.01
720.56	0.09
720.74	-0.03
720.92	0.06
721.1	0.11
721.279	0.08
721.459	0.02
721.639	-0.02
721.819	0.05
721.999	-0.02
722.179	0.05
722.359	-0.11
722.538	0
722.718	0.01
722.898	-0.06
723.078	-0.04
723.257	-0.04
723.437	-0.05
723.617	0
723.797	-0.05
723.976	-0.03
724.156	-0.03
724.336	0.08
724.515	0.08
724.695	-0.16
724.874	-0.08
725.054	0.04
725.234	-0.04
725.413	0
725.593	-0.01
725.772	-0.05
725.952	-0.06
726.131	-0.06
726.311	0.04
726.49	0.03
726.67	-0.12
726.849	0.01
727.028	0.03
727.208	-0.02
727.387	-0
727.567	-0.08
727.746	-0.08
727.925	-0.08
728.105	-0.04
728.284	-0.04
728.463	-0.06
728.643	0.06
728.822	-0.15
729.001	-0.04
729.18	-0.1
729.359	0.1
729.539	-0.05
729.718	0.02
729.897	0.08
730.076	-0.09
730.255	-0.09
730.434	0.03
730.614	-0.02
730.793	0.03
730.972	-0.05
731.151	-0.05
731.33	0.07
731.509	0.04
731.688	0.08
731.867	0.01
732.046	-0.1
732.225	0.24
732.404	-0.08
732.583	-0.11
732.762	-0.07
732.941	0.06
733.12	0.01
733.298	-0.11
733.477	0.1
733.656	-0.06
733.835	-0.02
734.014	0.13
734.193	-0.02
734.371	-0.01
734.55	0.02
734.729	-0.13
734.908	-0.04
735.086	-0
735.265	0.06
735.444	-0.15
735.623	-0.12
735.801	-0.14
735.98	0.03
736.159	-0.06
736.337	0.07
736.516	0.1
736.694	-0
736.873	0
737.052	0.08
737.23	0.12
737.409	-0.1
737.587	0.17
737.766	-0.2
737.944	-0.08
738.123	0.04
738.301	0.09
738.479	-0.06
738.658	-0.03
738.836	-0.22
739.015	0.01
739.193	0.08
739.371	-0.02
739.55	-0.11
739.728	-0.06
739.906	0.11
740.085	0.12
740.263	0.07
740.441	-0.18
740.62	0.15
740.798	0.03
740.976	-0.04
741.154	-0.08
741.332	0.18
741.511	-0.03
741.689	0.05
741.867	0.12
742.045	-0.04
742.223	0.01
742.401	-0.06
742.579	-0.04
742.757	0.04
742.935	-0.09
743.114	-0.08
743.292	-0.1
743.47	0.07
743.648	-0.02
743.826	0.01
744.004	0
744.181	0.01
744.359	0.02
744.537	-0.04
744.715	0.05
744.893	-0.04
745.071	-0.07
745.249	-0.08
745.427	-0.1
745.605	0.1
745.782	-0.01
745.96	-0.01
746.138	0.05
746.316	0.04
746.493	-0.05
746.671	-0.01
746.849	-0.04
747.027	0.2
747.204	0.01
747.382	0.01
747.56	-0.04
747.737	-0
747.915	-0.05
748.093	0.06
748.27	0.05
748.448	-0.02
748.625	-0.18
748.803	-0.06
748.98	0.03
749.158	-0.07
749.335	0.17
749.513	0.05
749.69	0.06
749.868	0.06
750.045	-0
750.223	-0.13
750.4	-0.2
750.578	0.14
750.755	0.06
750.932	-0.2
751.11	0.01
751.287	-0.05
751.464	0.09
751.642	-0.18
751.819	0.02
751.996	-0
752.173	-0.03
752.351	-0.11
752.528	0.03
752.705	-0.1
752.882	-0.12
753.06	0.05
753.237	0.09
753.414	0.13
753.591	0.12
753.768	-0.06
753.945	-0.09
754.122	-0.07
754.299	0.11
754.476	-0.17
754.654	-0.01
754.831	0.04
755.008	0.03
755.185	-0.11
755.362	-0.14
755.539	0.05
755.716	-0.01
755.892	-0.03
756.069	-0.05
756.246	-0.06
756.423	-0.04
756.6	0.13
756.777	0.01
756.954	0.2
757.131	0.08
757.307	-0.08
757.484	-0.05
757.661	-0.02
757.838	0.05
758.015	-0.15
758.191	0.05
758.368	-0.04
758.545	0.09
758.721	-0.01
758.898	-0.2
759.075	0.17
759.251	0.06
759.428	0.05
759.605	-0.11
759.781	-0.08
759.958	0.12
760.134	-0.05
760.311	-0.16
760.488	0.2
760.664	0.1
760.841	0.08
761.017	-0.02
761.194	0.06
761.37	0.09
761.547	0.08
761.723	-0.03
761.899	0.07
762.076	-0.09
762.252	-0.15
762.429	-0.05
762.605	0.14
762.781	-0.07
762.958	-0
763.134	-0.03
763.31	-0.1
763.486	0.06
763.663	-0.11
763.839	-0.04
764.015	-0.18
764.191	-0
764.368	-0.08
764.544	-0.12
764.72	-0.08
764.896	0.06
765.072	-0.03
765.248	-0
765.425	0.03
765.601	-0.01
765.777	-0.03
765.953	-0.29
766.129	-0.02
766.305	-0.13
766.481	0.08
766.657	-0.06
766.833	0.12
767.009	-0.06
767.185	-0.03
767.361	0.07
767.537	-0.02
767.713	0.12
767.889	-0.03
768.065	0.06
768.24	-0.08
768.416	0.07
768.592	-0.11
768.768	-0.06
768.944	0.03
769.12	-0.09
769.295	-0.11
769.471	0.01
769.647	-0.06
769.823	0.09
769.998	-0.05
770.174	-0.11
770.35	0.32
770.525	0.19
770.701	0.04
770.877	-0.08
771.052	-0.06
771.228	0.08
771.403	0.02
771.579	-0.06
771.755	0.25
771.93	-0.08
772.106	-0.11
772.281	-0.09
772.457	0.03
772.632	0.1
772.808	-0.25
772.983	-0.17
773.159	-0.04
773.334	0.13
773.509	-0.03
773.685	-0.11
773.86	0.37
774.036	0.16
774.211	0.02
774.386	-0.1
774.562	0.01
774.737	-0.11
774.912	-0.25
775.087	0.07
775.263	-0.03
775.438	-0.15
775.613	-0.05
775.788	-0.04
775.964	0.28
776.139	0.27
776.314	-0.19
776.489	0.05
776.664	0.04
776.839	-0.18
777.014	0.12
777.19	0.12
777.365	0.3
777.54	0.22
777.715	-0.15
777.89	0.02
778.065	-0.25
778.24	0.13
778.415	0.22
778.59	-0.11
778.765	-0.05
778.94	0.06
779.115	-0.09
779.289	0.07
779.464	0.17
779.639	-0.11
779.814	-0.08
779.989	-0.08
780.164	0.18
780.339	0.11
780.513	-0.25
780.688	-0.27
780.863	0.01
781.038	0.06
781.212	-0.12
781.387	-0.03
781.562	0.28
781.737	0.2
781.911	0.25
782.086	-0.27
782.261	0.15
782.435	0.3
782.61	0.01
782.784	0.02
782.959	0.28
783.134	0.02
783.308	-0.25
783.483	0.02
783.657	0.41
783.832	0.17
784.006	-0.18
784.181	0.08
784.355	0.34
784.53	0.03
784.704	-0.1
784.878	0.14
785.053	0.09
785.227	0.19
785.402	0.56
785.576	-0.28
785.75	-0.17
785.925	-0.09
786.099	-0.04
786.273	0.03
786.448	0.08
786.622	0.11
786.796	0.02
786.97	-0.19
787.145	0.69
787.319	-0.13
787.493	-0.03
787.667	-0.37
787.841	-0.06
788.015	0.33
788.19	-0.12
788.364	0.04
788.538	0.3
788.712	0.34
788.886	-0.08
789.06	0.17
789.234	0.26
789.408	-0.28
789.582	-0
789.756	-0.03
789.93	-0
790.104	0.09
790.278	-0.17
790.452	-0.12
790.626	0.01
790.8	-0.27
790.973	0.11
791.147	0.35
791.321	0.39
791.495	0.14
791.669	-0.06
791.843	0.02
792.016	0.11
792.19	0.54
792.364	-0.11
792.538	0.53
792.711	0.28
792.885	-0.11
793.059	-0.25
793.233	-0.63
793.406	0.12
793.58	-0.03
793.754	0.11
793.927	-0
794.101	0.1
794.274	0.22
794.448	0.18
794.622	-0.15
794.795	0.37
794.969	0.03
795.142	0.3
795.316	-0.05
795.489	0.06
795.663	0.13
795.836	-0.07
796.009	-0.3
796.183	0.14
796.356	0.08
796.53	0.07
796.703	-0.1
796.876	0.56
797.05	-0.16
797.223	-0.14
797.396	-0.03
797.57	0.04
797.743	0.4
797.916	-0.15
798.09	-0.11
798.263	0.26
798.436	0.26
798.609	-0.19
798.782	-0
798.956	0.19
799.129	0.03
799.302	-0.35
799.475	0
799.648	-0.08
799.821	-0.22
799.994	-0.19
800.167	-0.45
800.34	0.05
800.514	0.06
800.687	-0.23
800.86	-0.19
801.033	-0.01
801.206	0.2
801.379	-0.35
801.551	0.2
801.724	0.56
801.897	0.24
802.07	-0.18
802.243	-0.36
802.416	-0.19
802.589	-0.25
802.762	0.07
802.935	-0.04
803.107	0.44
803.28	0.37
803.453	0.21
803.626	-0.04
803.798	0.34
803.971	-0.26
804.144	-0.13
804.317	0.09
804.489	0.31
804.662	-0.23
804.835	0.03
805.007	-0.29
805.18	0.59
805.353	0.21
805.525	-0.21
805.698	-0.25
805.87	0.15
806.043	0.3
806.215	-0.03
806.388	-0.21
806.56	0.02
806.733	0.26
806.905	0.09
807.078	0.04
807.25	-0.03
807.423	0.28
807.595	0.04
807.768	-0.05
807.94	0.14
808.112	-0.18
808.285	0.02
808.457	-0.15
808.629	0.23
808.802	0.23
808.974	-0.1
809.146	0.03
809.318	-0.07
809.491	0.24
809.663	0.01
809.835	-0.21
810.007	0.24
810.18	-0.24
810.352	-0.64
810.524	-0.19
810.696	0.3
810.868	0.3
811.04	0.08
811.212	0.12
811.384	0.25
811.556	0.31
811.728	0.06
811.901	0.59
812.073	0.02
812.245	0.3
812.417	0.27
812.589	-0.54
812.76	0.12
812.932	0.39
813.104	0.49
813.276	-0.34
813.448	0.2
813.62	0.07
813.792	-0.07
813.964	0.1
814.136	0.33
814.307	-0.14
814.479	0.01
814.651	-0.04
814.823	0.93
814.995	-0.13
815.166	-0.02
815.338	-0.03
815.51	-0.62
815.681	1.12
815.853	-0.04
816.025	-0.27
816.196	0.55
816.368	0.43
816.54	-0.73
816.711	-0.23
816.883	0.26
817.054	0.78
817.226	-0.57
817.398	0.13
817.569	-0.45
817.741	0.02
817.912	-0.05
818.084	-0.28
818.255	0.4
818.426	-0.49
818.598	-0.25
818.769	-0.09
818.941	0.5
819.112	0.54
819.283	-0.18
819.455	-0.41
819.626	0.02
819.798	-0.08
819.969	0.41
820.14	-0.01
820.311	0
820.483	0.09
820.654	0.1
820.825	0.07
820.996	-0.05
821.168	-0.82
821.339	0.15
821.51	-0.53
821.681	-0.04
821.852	0.09
822.023	-0.37
822.195	-0.16
822.366	0.65
822.537	-0.03
822.708	0.29
822.879	-0.13
823.05	0.99
823.221	-0.35
823.392	0.31
823.563	0.14
823.734	0.09
823.905	0.22
824.076	-0.33
824.247	-0.49
824.418	-0.36
824.589	0.7
824.759	0.25
824.93	-0.06
825.101	-0.58
825.272	0.43
825.443	0.58
825.614	0.26
825.784	-0.86
825.955	1.25
826.126	1.07
826.297	-0.28
826.467	0.78
826.638	0.9
826.809	-1.06
826.98	0.19
827.15	0.36
827.321	-0.26
827.492	0.81
827.662	0.41
827.833	1.24
828.003	0.46
828.174	-0.6
828.345	-0.96
828.515	0.43
828.686	0.37
828.856	0.22
829.027	0.42
829.197	-0.11
829.368	0.33
829.538	0.12
829.709	-0.59
829.879	0.31
830.049	0.18
830.22	-0.63
830.39	0.34
830.56	0.5
830.731	-0.25
830.901	-0.16
831.072	-0.17
831.242	0.29
831.412	0.11
831.582	0.26
831.753	-0.91
831.923	-0.04
832.093	0.18
832.263	-0.24
832.434	-0.33
832.604	0.17
832.774	0.81
832.944	0.08
833.114	-0.18
833.284	-0.05
833.454	-1.02
833.624	-0.1
833.795	0.02
833.965	0.58
834.135	0.97
834.305	-0.87
834.475	-0.77
834.645	0.32
834.815	-0.22
834.985	-0.45
835.155	-0.49
835.325	0.95
835.494	0.3
835.664	-0.1
835.834	-1.03
836.004	0.27
836.174	0.25
836.344	0.15
836.514	-0.95
836.684	-0.16
836.853	0.23
837.023	-0.34
837.193	-0.3
837.363	0.34
837.532	-0.01
837.702	0.22
837.872	-0.81
838.041	-0.14
838.211	1.28
838.381	-0.69
838.55	-0.32
838.72	1.61
838.89	1.95
839.059	0.71
839.229	-0.56
839.398	1.49
839.568	0.25
839.738	-0.28
839.907	0.99
840.077	-0.1
840.246	-0.92
840.416	-0.8
840.585	-0.62
840.755	1.13
840.924	0.76
841.093	-0.5
841.263	-0.41
841.432	0.45
841.602	-0.74
841.771	-0.62
841.94	0.56
842.11	1.73
842.279	0.36
842.448	-0.09
842.617	-1.04
842.787	0.82
842.956	-0.52
843.125	0.01
843.294	-0.54
843.464	1.12
843.633	0.09
843.802	-1.29
843.971	0.06
844.14	0.73
844.309	0.61
844.479	-1.02
844.648	-0.51
844.817	-0.42
844.986	-0.14
845.155	-0.39
845.324	-0.5
845.493	-0.35
845.662	-0.67
845.831	0.57
846	0.21
846.169	-0.18
846.338	1.03
846.507	-0.22
846.676	0.68
846.844	-0.69
847.013	1.27
847.182	-0.3
847.351	-0.76
847.52	0.14
847.689	0.92
847.858	-0.4
848.026	-0.4
848.195	0.18
848.364	0.1
848.533	-0.84
848.701	-0.07
848.87	0.81
849.039	1.1
849.207	1.51
849.376	0.14
849.545	1.49
849.713	-0.17
849.882	0.16
850.051	0.49
850.219	0.53
850.388	0.43
850.556	-0.56
850.725	-0.78
850.893	-0.31
851.062	-0.29
851.23	-0.25
851.399	-1.45
851.567	-1.05
851.736	-0.31
851.904	-1.16
852.073	0.53
852.241	1.62
852.41	-0.31
852.578	-0.75
852.746	-0.5
852.915	0.85
853.083	0.05
853.251	-0.42
853.42	-0.59
853.588	0.44
853.756	-0
853.924	0.01
854.093	-0.93
854.261	-0.37
854.429	-1.18
854.597	0.94
854.765	-0.43
854.934	0.46
855.102	1.47
855.27	0.28
855.438	0.12
855.606	1.48
855.774	1.52
855.942	-1
856.11	-0.94
856.278	-0.94
856.446	0.59
856.614	0.36
856.782	-0.73
856.95	1.75
857.118	1.12
857.286	-1.08
857.454	-1
857.622	2.03
857.79	0.81
857.958	-1.12
858.126	-0.71
858.294	-2.2
858.462	-0.04
858.629	-1.33
858.797	-0.8
858.965	0.57
859.133	0.55
859.301	-0.54
859.468	-0.77
859.636	-0.13
859.804	0.41
859.971	1.49
860.139	-1.39
860.307	0.21
860.474	1.05
860.642	-0.61
860.81	-0.86
860.977	-0.63
861.145	1.15
861.313	-0.32
861.48	-0.08
861.648	0.83
861.815	0.07
861.983	-1.74
862.15	-0.64
862.318	0.4
862.485	1.12
862.653	-1.34
862.82	-0.87
862.988	1.71
863.155	0.78
863.322	-0.7
863.49	-0.62
863.657	0.3
863.824	2.49
863.992	0.07
864.159	0.21
864.326	0.58
864.494	-0.87
864.661	2.39
864.828	-0.82
864.996	0.47
865.163	2.18
865.33	-0.47
865.497	-2.15
865.664	-0.22
865.832	-1.56
865.999	-1.74
866.166	0.04
866.333	-1.22
866.5	0.4
866.667	-0.26
866.834	-0.27
867.001	0.66
867.168	-1.3
867.335	-0.95
867.502	-1.7
867.669	-0.88
867.836	2.74
868.003	-0.28
868.17	1.43
868.337	-1.83
868.504	3.2
868.671	-1.23
868.838	-0.89
869.005	0.15
869.172	1.56
869.339	-0.1
869.505	-1.59
869.672	0.74
869.839	0.79
870.006	0.35
870.173	-1.96
870.339	-0
870.506	2.94
870.673	-1.25
870.84	-0.06
871.006	0.54
871.173	0.24
871.34	0.45
871.506	-0.56
871.673	0.75
871.839	-3.77
872.006	0.6
872.173	0.36
872.339	-0.51
872.506	1.72
872.672	-0.62
872.839	-1.42
873.005	0.13
873.172	2.72
873.338	1.82
873.505	1.14
873.671	1.77
873.838	-0.29
874.004	-1.7
874.171	-3.01
874.337	1.45
874.503	2.03
874.67	0.45
874.836	-0.42
875.002	2.07
875.169	0.26
875.335	0.43
875.501	-1.28
875.668	2.6
875.834	-0.53
876	1.24
876.166	0.62
876.332	-0.2
876.499	2.34
876.665	-0.4
876.831	-0.91
876.997	2.38
877.163	0.77
877.329	-0.55
877.495	0.04
877.662	1.46
877.828	-1.23
877.994	1.03
878.16	-4.77
878.326	-2.85
878.492	1.13
878.658	0.85
878.824	0.28
878.99	1.73
879.156	0.24
879.322	2.63
879.487	-0.32
879.653	0.58
879.819	0.32
879.985	-1.51
880.151	-0.08
880.317	0.95
880.483	-1.03
880.648	1.83
880.814	-4.11
880.98	-0.6
881.146	-1.8
881.312	-0.68
881.477	-0.62
881.643	0.6
881.809	2.48
881.974	1.22
882.14	-2.84
882.306	1.47
882.471	2.99
882.637	0.04
882.803	1.14
882.968	3.29
883.134	5.16
883.299	-0.04
883.465	0.07
883.63	1.27
883.796	0.17
883.961	1.09
884.127	0.48
884.292	-3.05
884.458	-2.12
884.623	-2.12
