Data from Apollo_Calib_20240827__AbsoluteIrradiance__92__00-41-00-062.txt Node

Date: Wed Aug 28 00:41:00 BST 2024
User: biology
Spectrometer: FLMT08252
Trigger mode: 0
Integration Time (sec): 5.000000E-1
Scans to average: 5
Electric dark correction enabled: true
Nonlinearity correction enabled: false
Boxcar width: 0
XAxis mode: Wavelengths
Number of Pixels in Spectrum: 3648
>>>>>Begin Spectral Data<<<<<
179.588	-0
179.809	-0
180.03	-0
180.251	-0
180.473	-0
180.694	0
180.915	0
181.136	-0
181.357	0
181.578	-0
181.799	-0
182.02	-0
182.241	-0
182.462	-0
182.683	0
182.904	0
183.125	-0
183.346	0
183.567	0
183.788	-0
184.009	-0
184.23	0
184.451	-0
184.672	-0
184.892	-0
185.113	0
185.334	-0
185.555	-0
185.776	-0
185.996	0
186.217	0
186.438	-0
186.659	-0
186.879	-0
187.1	-0
187.321	-0
187.541	-0
187.762	-0
187.983	-0
188.203	0
188.424	-0
188.644	-0
188.865	0
189.086	-0
189.306	-0
189.527	-0
189.747	-0
189.968	-0
190.188	0
190.409	-0
190.629	0
190.849	-0
191.07	-0
191.29	0
191.511	0
191.731	-0
191.951	-0
192.172	-0
192.392	-0
192.612	-0
192.833	0
193.053	-0
193.273	0
193.493	-0
193.714	0
193.934	0
194.154	0
194.374	-0
194.594	-0
194.815	-0
195.035	-0
195.255	0
195.475	-0
195.695	0
195.915	0
196.135	-0
196.355	0
196.575	0
196.795	-0
197.015	-0
197.235	-0
197.455	-0
197.675	-0
197.895	-0
198.115	-0
198.335	0
198.555	-0
198.775	0
198.995	-0
199.214	0
199.434	0
199.654	-0
199.874	-0
200.094	0.64
200.313	-0.27
200.533	-0.85
200.753	-1.03
200.973	0.99
201.192	-0.46
201.412	-1.24
201.632	-0.76
201.851	0.86
202.071	-1.11
202.291	-0.38
202.51	-0.89
202.73	-0.05
202.95	-0.45
203.169	-0.29
203.389	0.03
203.608	0.06
203.828	-0.9
204.047	-0.4
204.267	0.4
204.486	-0.3
204.706	0.22
204.925	-0.53
205.145	-0.5
205.364	-0.07
205.583	0.52
205.803	-0.33
206.022	-0.51
206.242	0.07
206.461	-0.14
206.68	-0.45
206.9	0.05
207.119	-0.06
207.338	0.31
207.557	-0.32
207.777	-0.09
207.996	-0.26
208.215	0.49
208.434	-0.15
208.654	-0.45
208.873	-0.02
209.092	0.25
209.311	-0.37
209.53	-0.63
209.749	0.07
209.968	-0.21
210.187	-0.3
210.407	-0.53
210.626	-0.25
210.845	0.09
211.064	-0.03
211.283	-0.4
211.502	0.22
211.721	-0.03
211.94	-0.02
212.159	-0.11
212.377	0.2
212.596	0.18
212.815	0.08
213.034	-0.04
213.253	0.1
213.472	0.21
213.691	-0.05
213.91	-0.25
214.128	-0.24
214.347	0.36
214.566	-0.41
214.785	-0.4
215.003	-0.02
215.222	0.07
215.441	-0.05
215.66	-0.4
215.878	0.03
216.097	0.12
216.316	-0.26
216.534	-0.22
216.753	-0.01
216.972	-0.03
217.19	-0.17
217.409	-0.3
217.627	-0.28
217.846	-0.29
218.064	-0.01
218.283	-0.22
218.501	0.45
218.72	0.13
218.938	-0.25
219.157	-0.18
219.375	0.02
219.594	0.21
219.812	-0.28
220.031	-0.13
220.249	0.14
220.467	0.22
220.686	-0.05
220.904	-0.22
221.122	-0.17
221.341	0.12
221.559	0.01
221.777	-0.25
221.995	0.04
222.214	0.03
222.432	-0.17
222.65	-0.04
222.868	0.06
223.086	0.08
223.305	0.13
223.523	-0.09
223.741	0.23
223.959	-0.26
224.177	-0.26
224.395	-0.23
224.613	-0.03
224.831	0.03
225.049	-0.12
225.267	-0.07
225.485	0.15
225.703	-0.05
225.921	-0.06
226.139	-0.03
226.357	-0.08
226.575	-0.05
226.793	-0.21
227.011	0.47
227.229	-0.02
227.447	0.1
227.665	-0.14
227.883	-0.22
228.1	0.12
228.318	-0.05
228.536	-0.33
228.754	-0.2
228.972	0.08
229.189	-0.01
229.407	-0.09
229.625	-0.05
229.843	0.08
230.06	0.03
230.278	-0.1
230.496	-0.04
230.713	0.03
230.931	0.15
231.149	-0.06
231.366	-0.22
231.584	-0.19
231.801	0.23
232.019	-0.13
232.236	-0.21
232.454	-0.18
232.671	0.05
232.889	-0.09
233.106	-0.1
233.324	-0.09
233.541	-0.11
233.759	0.06
233.976	-0.02
234.194	-0.08
234.411	-0.04
234.628	-0.15
234.846	-0.1
235.063	-0.08
235.28	-0.14
235.498	-0.08
235.715	-0.14
235.932	0.04
236.149	0
236.367	-0.11
236.584	0.05
236.801	-0.15
237.018	0.07
237.236	0
237.453	-0.17
237.67	0.1
237.887	-0.04
238.104	-0.04
238.321	-0.13
238.538	-0.17
238.755	0.12
238.973	-0.18
239.19	-0.09
239.407	-0.01
239.624	-0.05
239.841	-0.19
240.058	-0.09
240.275	-0.06
240.492	-0.05
240.709	-0.06
240.925	-0.07
241.142	-0.03
241.359	-0.24
241.576	-0.12
241.793	-0.01
242.01	-0.01
242.227	0.06
242.444	0.07
242.66	0.05
242.877	-0.02
243.094	-0.12
243.311	0.05
243.527	-0.01
243.744	0.06
243.961	0.04
244.178	-0.12
244.394	-0.11
244.611	0.05
244.828	0.09
245.044	-0.2
245.261	0.01
245.477	0.05
245.694	-0.09
245.911	-0.08
246.127	-0.06
246.344	0.05
246.56	-0.03
246.777	-0.04
246.993	0.07
247.21	0.02
247.426	0.07
247.643	-0.11
247.859	-0.11
248.076	-0.05
248.292	0.12
248.508	0.01
248.725	0.01
248.941	0.06
249.157	0.06
249.374	-0.05
249.59	-0.03
249.806	-0.01
250.023	0.03
250.239	-0.04
250.455	-0.1
250.671	-0.1
250.888	-0.04
251.104	0.02
251.32	-0.1
251.536	-0.03
251.752	-0.06
251.969	0.02
252.185	-0.01
252.401	0.11
252.617	-0.01
252.833	-0.06
253.049	-0.07
253.265	-0.09
253.481	-0.01
253.697	-0.03
253.913	-0.18
254.129	0
254.345	0.03
254.561	-0.07
254.777	-0.03
254.993	0.06
255.209	-0.04
255.425	-0.01
255.641	-0.08
255.857	0.1
256.073	-0.06
256.288	-0.11
256.504	-0.01
256.72	0.01
256.936	0.1
257.152	-0.08
257.367	-0.09
257.583	0.03
257.799	0.04
258.015	-0.06
258.23	-0.04
258.446	0.07
258.662	-0.02
258.877	-0.08
259.093	-0.12
259.309	-0.08
259.524	0.13
259.74	-0.04
259.955	-0.06
260.171	0.02
260.387	-0.07
260.602	0.05
260.818	0.06
261.033	-0.12
261.249	-0.03
261.464	-0.05
261.68	-0.12
261.895	-0.03
262.11	0.06
262.326	-0.05
262.541	-0.13
262.757	0.07
262.972	0
263.187	-0.01
263.403	-0.01
263.618	0.06
263.833	-0.01
264.049	-0.11
264.264	-0.05
264.479	0.04
264.694	0.02
264.91	-0.09
265.125	-0.05
265.34	-0.05
265.555	0.12
265.77	0.06
265.986	-0.07
266.201	0.01
266.416	0.13
266.631	-0.05
266.846	-0.03
267.061	0.04
267.276	0.04
267.491	-0.14
267.706	0.01
267.921	0.03
268.136	-0
268.351	-0.05
268.566	-0.09
268.781	0.08
268.996	-0.01
269.211	-0.02
269.426	-0.01
269.641	-0.08
269.856	0.05
270.071	-0.02
270.285	-0.07
270.5	0.05
270.715	0.02
270.93	-0.03
271.145	0.01
271.359	0.02
271.574	-0.04
271.789	-0.04
272.004	-0.06
272.218	-0.08
272.433	-0.05
272.648	-0.11
272.862	-0.01
273.077	-0.03
273.292	-0.02
273.506	-0.05
273.721	0.02
273.936	0.02
274.15	0.03
274.365	0.03
274.579	0.07
274.794	-0.04
275.008	0.07
275.223	-0.1
275.437	0.02
275.652	0.02
275.866	0.02
276.081	-0.03
276.295	0.08
276.509	0.01
276.724	-0.03
276.938	0.05
277.153	0.03
277.367	0.03
277.581	-0.03
277.796	-0.07
278.01	-0.12
278.224	0.04
278.438	0.07
278.653	-0.04
278.867	-0.07
279.081	0.04
279.295	-0.01
279.51	0.03
279.724	-0.11
279.938	-0
280.152	0.04
280.366	-0.09
280.58	0.02
280.794	0.02
281.008	0.05
281.222	0.05
281.437	0.01
281.651	-0.05
281.865	0.06
282.079	-0.06
282.293	-0.11
282.507	-0.09
282.721	-0.05
282.935	0.02
283.148	-0.1
283.362	-0.07
283.576	-0.03
283.79	-0
284.004	-0.03
284.218	0.06
284.432	-0.06
284.646	-0.03
284.859	0
285.073	-0.04
285.287	0.04
285.501	-0.04
285.714	0
285.928	-0
286.142	-0.01
286.356	-0.02
286.569	-0.05
286.783	0.09
286.997	0.02
287.21	-0.03
287.424	-0.01
287.637	0.01
287.851	-0.02
288.065	-0.02
288.278	-0.04
288.492	-0.03
288.705	-0.01
288.919	0.07
289.132	-0.1
289.346	0.06
289.559	-0.1
289.773	-0.03
289.986	-0.02
290.2	-0.05
290.413	0.06
290.626	-0.09
290.84	0
291.053	-0.04
291.267	0.13
291.48	-0.01
291.693	-0
291.906	-0.07
292.12	-0.04
292.333	0.01
292.546	0
292.76	0.07
292.973	0.01
293.186	-0.01
293.399	-0.04
293.612	0.04
293.826	-0.02
294.039	-0.01
294.252	-0.05
294.465	0
294.678	0.04
294.891	-0
295.104	-0.03
295.317	-0.04
295.53	-0.03
295.743	-0.05
295.956	-0.02
296.169	0.05
296.382	0.02
296.595	-0.03
296.808	-0.05
297.021	0.03
297.234	0.03
297.447	-0.02
297.66	0
297.873	0.02
298.086	0.05
298.299	-0
298.511	-0.07
298.724	-0.02
298.937	-0.06
299.15	-0.04
299.363	-0.02
299.575	0.02
299.788	-0.01
300.001	-0.02
300.213	-0.05
300.426	-0.01
300.639	-0.03
300.852	-0
301.064	0.03
301.277	0.06
301.489	0.03
301.702	0.04
301.915	0
302.127	-0.04
302.34	-0.02
302.552	-0
302.765	-0.01
302.977	0.01
303.19	-0.07
303.402	-0.04
303.615	-0.03
303.827	-0.02
304.04	-0.02
304.252	0.03
304.464	-0.05
304.677	0.08
304.889	-0.04
305.102	-0.04
305.314	-0.03
305.526	0.03
305.739	0.04
305.951	-0.05
306.163	-0.02
306.375	0.06
306.588	-0.01
306.8	-0.05
307.012	-0.07
307.224	0.01
307.436	0.09
307.649	-0.1
307.861	0.02
308.073	0.03
308.285	-0.02
308.497	0.02
308.709	-0.04
308.921	0.04
309.133	0.05
309.346	0.01
309.558	-0.05
309.77	0.03
309.982	0.03
310.194	0.02
310.406	-0.03
310.617	0.05
310.829	-0.07
311.041	0.02
311.253	-0.03
311.465	-0.02
311.677	0.01
311.889	-0.05
312.101	-0
312.313	0.01
312.524	0.02
312.736	-0.05
312.948	-0.05
313.16	0.08
313.372	0
313.583	-0.01
313.795	-0
314.007	-0.08
314.218	0.04
314.43	-0.01
314.642	-0.02
314.853	-0.03
315.065	0
315.277	0.01
315.488	0
315.7	0.03
315.912	0.03
316.123	-0.02
316.335	-0.05
316.546	0.12
316.758	-0.03
316.969	-0.01
317.181	-0.03
317.392	-0.04
317.604	0.06
317.815	-0.07
318.026	-0.06
318.238	-0.03
318.449	-0
318.661	-0.09
318.872	-0.04
319.083	-0.05
319.295	-0.02
319.506	-0.02
319.717	0
319.929	0.02
320.14	-0.02
320.351	0.01
320.562	-0.02
320.774	-0.01
320.985	-0.01
321.196	-0.08
321.407	-0.02
321.618	0.01
321.829	-0.01
322.041	0.01
322.252	-0.04
322.463	0.02
322.674	0.01
322.885	-0.04
323.096	-0
323.307	-0.01
323.518	0.03
323.729	-0.06
323.94	-0.02
324.151	-0.04
324.362	0.01
324.573	-0.01
324.784	-0.03
324.995	0.04
325.206	-0.02
325.417	-0.04
325.628	-0
325.838	-0.01
326.049	-0.05
326.26	0.03
326.471	-0.01
326.682	0.05
326.892	0
327.103	-0.05
327.314	-0.06
327.525	0.01
327.735	-0.01
327.946	-0.05
328.157	-0.03
328.368	0.03
328.578	-0.03
328.789	0.02
328.999	-0.05
329.21	-0.02
329.421	-0.01
329.631	-0.04
329.842	-0.06
330.052	0.02
330.263	0.06
330.473	0.01
330.684	0.02
330.894	-0.02
331.105	0.02
331.315	-0.01
331.526	-0.07
331.736	0.08
331.947	0.01
332.157	0.01
332.367	-0.06
332.578	0.01
332.788	0.08
332.999	0.01
333.209	0.02
333.419	-0.06
333.629	0.01
333.84	0.02
334.05	-0.01
334.26	0.05
334.47	-0.02
334.681	0.06
334.891	-0.01
335.101	0.01
335.311	0.1
335.521	0.02
335.732	-0.01
335.942	0.02
336.152	0.04
336.362	0.03
336.572	-0
336.782	0.04
336.992	-0.05
337.202	-0.04
337.412	-0.06
337.622	0.04
337.832	-0
338.042	-0.01
338.252	-0.05
338.462	-0.05
338.672	0.03
338.882	-0.05
339.092	-0.06
339.302	0.03
339.511	0.04
339.721	-0.03
339.931	-0.04
340.141	0.01
340.351	0.05
340.561	0.03
340.77	-0.02
340.98	-0.03
341.19	-0.01
341.4	-0.01
341.609	-0.03
341.819	0.02
342.029	-0.06
342.238	-0.02
342.448	-0.03
342.658	0.03
342.867	0
343.077	-0.01
343.286	0
343.496	-0
343.706	0.04
343.915	-0.03
344.125	0.02
344.334	0.03
344.544	-0.07
344.753	-0.01
344.963	-0.03
345.172	0.02
345.381	-0.05
345.591	-0.05
345.8	0.02
346.01	0.05
346.219	0.08
346.428	-0.13
346.638	-0.01
346.847	0.01
347.056	0.06
347.266	-0.03
347.475	0.04
347.684	0.01
347.893	0.03
348.103	-0.01
348.312	-0.05
348.521	-0.02
348.73	0.02
348.94	-0
349.149	-0.02
349.358	0.02
349.567	0.02
349.776	-0.08
349.985	-0.01
350.194	0.05
350.403	-0.01
350.612	-0.04
350.821	-0.01
351.03	-0
351.239	-0.01
351.448	0.01
351.657	-0.01
351.866	0.04
352.075	-0.02
352.284	-0.02
352.493	-0.02
352.702	0.02
352.911	0.03
353.12	-0.01
353.329	-0.02
353.538	0.02
353.746	0.01
353.955	-0.03
354.164	0
354.373	-0.01
354.582	0.03
354.79	-0.02
354.999	0.04
355.208	0
355.416	0.07
355.625	-0.03
355.834	-0.01
356.042	-0.02
356.251	0.01
356.46	-0.03
356.668	0
356.877	0.06
357.085	0.06
357.294	-0.1
357.503	0.01
357.711	-0.03
357.92	0.09
358.128	0.01
358.337	0
358.545	-0.01
358.754	0.02
358.962	0.03
359.17	0.01
359.379	0.01
359.587	0.02
359.796	0
360.004	0
360.212	-0
360.421	0.09
360.629	0
360.837	-0.02
361.046	-0.02
361.254	0.04
361.462	0
361.67	-0.03
361.879	0.02
362.087	0.04
362.295	0.03
362.503	-0.02
362.711	-0.03
362.92	-0.02
363.128	-0.02
363.336	-0.03
363.544	-0.07
363.752	0.01
363.96	-0.05
364.168	0.02
364.376	0.04
364.584	0.02
364.792	0.06
365	0.03
365.208	0
365.416	0
365.624	0.06
365.832	-0.02
366.04	0.06
366.248	0.05
366.456	0.05
366.664	-0
366.872	-0
367.079	0.05
367.287	0.04
367.495	0.05
367.703	0.01
367.911	0
368.118	0.03
368.326	0.05
368.534	0.02
368.742	0.09
368.949	-0.02
369.157	0.04
369.365	0.12
369.572	0.07
369.78	0.05
369.988	0.13
370.195	0.15
370.403	0.15
370.61	0.08
370.818	0.13
371.026	0.22
371.233	0.12
371.441	0.18
371.648	0.18
371.856	0.23
372.063	0.22
372.271	0.22
372.478	0.23
372.685	0.28
372.893	0.33
373.1	0.29
373.308	0.32
373.515	0.46
373.722	0.4
373.93	0.38
374.137	0.46
374.344	0.5
374.552	0.52
374.759	0.52
374.966	0.51
375.173	0.56
375.381	0.64
375.588	0.6
375.795	0.56
376.002	0.7
376.209	0.68
376.417	0.75
376.624	0.81
376.831	0.86
377.038	0.85
377.245	0.85
377.452	0.97
377.659	1
377.866	1.08
378.073	1.12
378.28	1.16
378.487	1.28
378.694	1.32
378.901	1.39
379.108	1.42
379.315	1.55
379.522	1.66
379.729	1.64
379.936	1.66
380.143	1.76
380.35	1.81
380.557	1.95
380.763	1.95
380.97	2.02
381.177	2.14
381.384	2.18
381.591	2.24
381.797	2.2
382.004	2.38
382.211	2.37
382.418	2.39
382.624	2.47
382.831	2.39
383.038	2.44
383.244	2.37
383.451	2.37
383.658	2.29
383.864	2.31
384.071	2.26
384.277	2.38
384.484	2.18
384.69	2.18
384.897	2.05
385.103	2.02
385.31	1.91
385.516	1.87
385.723	1.82
385.929	1.74
386.136	1.65
386.342	1.57
386.549	1.5
386.755	1.5
386.961	1.43
387.168	1.32
387.374	1.25
387.58	1.22
387.787	1.19
387.993	1.08
388.199	1.06
388.406	1.03
388.612	0.95
388.818	0.96
389.024	0.89
389.231	0.87
389.437	0.91
389.643	0.83
389.849	0.77
390.055	0.8
390.261	0.78
390.467	0.75
390.674	0.68
390.88	0.68
391.086	0.65
391.292	0.67
391.498	0.63
391.704	0.62
391.91	0.6
392.116	0.49
392.322	0.45
392.528	0.58
392.734	0.54
392.94	0.52
393.146	0.5
393.352	0.47
393.557	0.41
393.763	0.45
393.969	0.49
394.175	0.44
394.381	0.43
394.587	0.35
394.792	0.35
394.998	0.39
395.204	0.37
395.41	0.31
395.615	0.34
395.821	0.32
396.027	0.32
396.233	0.26
396.438	0.24
396.644	0.36
396.85	0.26
397.055	0.21
397.261	0.24
397.466	0.29
397.672	0.19
397.878	0.24
398.083	0.2
398.289	0.14
398.494	0.22
398.7	0.24
398.905	0.11
399.111	0.23
399.316	0.12
399.522	0.22
399.727	0.16
399.932	0.14
400.138	0.13
400.343	0.19
400.549	0.17
400.754	0.14
400.959	0.15
401.165	0.15
401.37	0.12
401.575	0.18
401.78	0.15
401.986	0.1
402.191	0.12
402.396	0.11
402.601	0.18
402.807	0.14
403.012	0.13
403.217	0.15
403.422	0.08
403.627	0.16
403.832	0.06
404.037	0.12
404.243	0.14
404.448	0.09
404.653	0.09
404.858	0.12
405.063	0.12
405.268	0.05
405.473	0.03
405.678	0.06
405.883	0.22
406.088	0.1
406.293	0.01
406.498	0.08
406.703	0.15
406.907	0.11
407.112	0.08
407.317	0.09
407.522	0.11
407.727	0.04
407.932	0.06
408.136	0.13
408.341	0.04
408.546	0.08
408.751	0.1
408.956	0.04
409.16	0.07
409.365	0.05
409.57	0.03
409.774	0.03
409.979	0.12
410.184	0.06
410.388	0.02
410.593	0.07
410.798	0.04
411.002	0.05
411.207	0.07
411.411	0.04
411.616	0.02
411.82	0.04
412.025	0.09
412.229	-0.01
412.434	0.14
412.638	0.04
412.843	-0.02
413.047	0.05
413.252	0.04
413.456	0.05
413.66	0.04
413.865	-0.02
414.069	0.08
414.273	0
414.478	0.03
414.682	-0
414.886	0
415.091	-0.02
415.295	-0.07
415.499	0
415.703	-0.02
415.908	0.02
416.112	-0.09
416.316	0.02
416.52	-0.02
416.724	0
416.929	-0.02
417.133	0.08
417.337	-0.01
417.541	-0.03
417.745	0.04
417.949	0
418.153	0.06
418.357	-0.05
418.561	0.11
418.765	0.05
418.969	0.09
419.173	0.06
419.377	-0.01
419.581	0.06
419.785	-0.01
419.989	-0.03
420.193	0
420.397	0.01
420.601	0.05
420.804	0.05
421.008	0.05
421.212	0.06
421.416	0.05
421.62	0.04
421.823	0
422.027	0.07
422.231	0.04
422.435	0.02
422.638	0.04
422.842	0.01
423.046	0.04
423.249	0.01
423.453	0.02
423.657	0.07
423.86	0.01
424.064	-0.01
424.268	0.1
424.471	-0.01
424.675	0.07
424.878	0.08
425.082	0
425.285	0.06
425.489	0.03
425.692	-0.01
425.896	-0.04
426.099	0.04
426.303	-0.07
426.506	-0.06
426.71	0.06
426.913	0.03
427.116	0.06
427.32	0.06
427.523	-0.01
427.726	0.07
427.93	-0.03
428.133	0.04
428.336	-0.03
428.54	-0.03
428.743	0.07
428.946	0.11
429.149	-0
429.353	0.02
429.556	-0.03
429.759	0.02
429.962	0.01
430.165	0.03
430.368	0.02
430.571	0.02
430.775	0.03
430.978	0.04
431.181	0.07
431.384	0.04
431.587	0.02
431.79	0.03
431.993	-0.03
432.196	0.02
432.399	-0.02
432.602	0.09
432.805	0.05
433.008	0.01
433.211	-0.05
433.414	0.07
433.616	0.08
433.819	0.05
434.022	-0.06
434.225	0.07
434.428	0.05
434.631	0.1
434.833	0.06
435.036	0.01
435.239	0.08
435.442	0.04
435.645	0.04
435.847	0.06
436.05	0.1
436.253	0.07
436.455	-0.02
436.658	0.03
436.861	0.12
437.063	0.01
437.266	-0
437.468	0.02
437.671	0.16
437.874	0.04
438.076	-0.04
438.279	-0.02
438.481	0.03
438.684	0.03
438.886	0.06
439.089	-0.04
439.291	0.01
439.494	0.05
439.696	-0.01
439.899	0.05
440.101	0.04
440.303	-0.04
440.506	0.11
440.708	0.01
440.91	0.08
441.113	0.02
441.315	0.07
441.517	-0.02
441.72	0.09
441.922	0.01
442.124	0.03
442.326	0.02
442.529	0.11
442.731	-0.02
442.933	0.16
443.135	0.11
443.337	0.02
443.539	0.03
443.742	0.04
443.944	0.04
444.146	0.06
444.348	0.05
444.55	0.08
444.752	0.06
444.954	0.01
445.156	0.05
445.358	0.01
445.56	0.13
445.762	0.01
445.964	0.11
446.166	0.02
446.368	0.02
446.57	0.09
446.772	0.07
446.974	0.04
447.175	0.01
447.377	0.03
447.579	0.02
447.781	0.01
447.983	0.13
448.184	0.09
448.386	0.08
448.588	-0
448.79	0.07
448.991	0.05
449.193	0.08
449.395	0.09
449.597	0.13
449.798	0.09
450	0.11
450.202	0.04
450.403	0.08
450.605	0.09
450.806	0.05
451.008	0.02
451.21	0.06
451.411	0.07
451.613	0.04
451.814	0.09
452.016	0.14
452.217	0.04
452.419	0.08
452.62	0.09
452.821	0.12
453.023	0.14
453.224	0.09
453.426	0.05
453.627	0.05
453.828	0.12
454.03	0.06
454.231	0.09
454.432	-0.01
454.634	0.17
454.835	0.04
455.036	-0
455.238	0.06
455.439	0.1
455.64	0.01
455.841	0.05
456.042	0.13
456.244	0.06
456.445	-0.03
456.646	-0.03
456.847	0.03
457.048	0.03
457.249	0
457.45	0.18
457.651	0.02
457.852	0.08
458.054	0.05
458.255	-0.01
458.456	0.04
458.657	0.02
458.858	-0.04
459.058	0
459.259	0.01
459.46	-0.03
459.661	0.01
459.862	0.1
460.063	0.04
460.264	0.06
460.465	-0.03
460.666	0.14
460.866	0.01
461.067	0.05
461.268	0.04
461.469	0.03
461.67	0.02
461.87	0.02
462.071	-0
462.272	-0.02
462.473	0.02
462.673	0.07
462.874	-0.01
463.075	0.02
463.275	-0.01
463.476	0.07
463.676	-0
463.877	0.04
464.078	-0.02
464.278	0.03
464.479	-0.04
464.679	0.03
464.88	-0.03
465.08	0.11
465.281	-0.02
465.481	0.03
465.682	-0.02
465.882	0.03
466.083	0.06
466.283	-0
466.483	-0
466.684	-0.02
466.884	-0.01
467.085	-0.01
467.285	0.02
467.485	-0.03
467.686	0.02
467.886	-0.01
468.086	0.03
468.286	0.02
468.487	-0
468.687	-0.01
468.887	-0.01
469.087	0.01
469.287	0.02
469.488	-0.08
469.688	0.02
469.888	0.02
470.088	0.02
470.288	0.06
470.488	0.07
470.688	-0.03
470.888	0.01
471.088	0.02
471.288	0.06
471.488	0.06
471.688	0
471.888	-0.02
472.088	0.05
472.288	0.04
472.488	-0.03
472.688	-0.02
472.888	-0.01
473.088	0.02
473.288	0.04
473.488	0.01
473.688	0.05
473.887	0.02
474.087	0.01
474.287	0
474.487	-0
474.687	0.03
474.886	-0.05
475.086	0
475.286	-0.01
475.486	-0
475.685	-0.01
475.885	0
476.085	0
476.284	-0.01
476.484	-0.02
476.684	0.05
476.883	0.05
477.083	0.04
477.282	-0.04
477.482	0.02
477.681	0.07
477.881	-0
478.08	-0.03
478.28	-0.02
478.479	0.03
478.679	0.1
478.878	-0.04
479.078	-0
479.277	0
479.477	0.03
479.676	0.04
479.875	-0.01
480.075	-0.02
480.274	0.02
480.473	0.04
480.673	-0.03
480.872	0.03
481.071	0.02
481.271	0.04
481.47	0
481.669	-0.01
481.868	-0.01
482.067	0.01
482.267	-0.02
482.466	-0.02
482.665	-0.02
482.864	-0.04
483.063	-0.02
483.262	0.04
483.461	0.06
483.661	0.03
483.86	-0
484.059	-0.01
484.258	0.03
484.457	-0.02
484.656	0.03
484.855	0.03
485.054	-0.04
485.253	-0.03
485.452	-0.06
485.651	-0
485.849	0.03
486.048	-0
486.247	0
486.446	0.01
486.645	-0.02
486.844	-0.02
487.043	-0.01
487.241	0.01
487.44	-0.02
487.639	-0.02
487.838	0.04
488.037	0
488.235	0.04
488.434	0.03
488.633	-0.01
488.831	-0
489.03	0.03
489.229	0.01
489.427	0.01
489.626	0.04
489.825	0.03
490.023	0.01
490.222	-0.02
490.42	0.02
490.619	0.03
490.817	0.01
491.016	-0
491.214	0.03
491.413	-0.01
491.611	0.01
491.81	-0
492.008	0.01
492.207	0.01
492.405	0.02
492.604	-0.03
492.802	-0.01
493	0
493.199	-0.02
493.397	0.02
493.595	-0.01
493.794	-0.01
493.992	0.05
494.19	-0
494.388	0.01
494.587	-0.02
494.785	-0.01
494.983	-0.03
495.181	0
495.379	0
495.578	-0.02
495.776	0.02
495.974	0.02
496.172	-0.01
496.37	-0.02
496.568	-0.03
496.766	-0.02
496.964	0.03
497.162	0
497.36	-0.04
497.558	0.01
497.756	0.02
497.954	0.01
498.152	-0.02
498.35	-0
498.548	-0.03
498.746	-0
498.944	-0.04
499.142	-0
499.34	-0.03
499.538	-0.02
499.736	-0.02
499.933	0.02
500.131	0.02
500.329	0.01
500.527	0.04
500.725	0.04
500.922	0.03
501.12	0.01
501.318	0.01
501.516	-0.01
501.713	0.01
501.911	0
502.109	-0.04
502.306	-0
502.504	-0.01
502.701	-0.02
502.899	-0.01
503.097	0.02
503.294	0
503.492	-0.03
503.689	0.01
503.887	0.01
504.084	0.05
504.282	-0.01
504.479	-0.02
504.677	0.01
504.874	-0.04
505.072	0
505.269	-0
505.466	-0
505.664	0.02
505.861	-0.04
506.059	-0.04
506.256	0.02
506.453	-0.02
506.651	0.03
506.848	0.03
507.045	0.02
507.242	-0
507.44	-0.02
507.637	-0
507.834	0
508.031	0.01
508.229	-0.03
508.426	-0
508.623	0.02
508.82	-0.02
509.017	-0.01
509.214	-0.01
509.411	-0.02
509.608	-0.02
509.805	-0.01
510.003	-0.02
510.2	-0.01
510.397	0.02
510.594	-0.03
510.791	-0.04
510.988	-0.02
511.184	0.03
511.381	-0.01
511.578	-0.01
511.775	0
511.972	-0.02
512.169	-0.03
512.366	-0
512.563	0.01
512.76	-0
512.956	0.01
513.153	-0.01
513.35	0.01
513.547	-0.01
513.744	-0.02
513.94	-0.02
514.137	0.01
514.334	-0.01
514.53	-0.01
514.727	-0
514.924	0.04
515.12	-0.01
515.317	-0.02
515.514	-0.01
515.71	-0.02
515.907	-0.02
516.103	-0.01
516.3	-0
516.497	0.02
516.693	0.02
516.89	-0
517.086	-0.03
517.283	0.05
517.479	-0.01
517.676	-0.02
517.872	0.02
518.068	-0.03
518.265	-0.02
518.461	-0.02
518.658	-0.01
518.854	0.01
519.05	-0.01
519.247	-0.04
519.443	0.02
519.639	0.02
519.836	-0.01
520.032	0
520.228	0.01
520.424	0.03
520.621	0
520.817	-0.01
521.013	0.01
521.209	0.01
521.405	0.05
521.601	-0
521.798	-0.01
521.994	0.01
522.19	-0.03
522.386	-0.04
522.582	-0
522.778	-0.01
522.974	-0
523.17	0
523.366	0.01
523.562	0.02
523.758	0
523.954	-0.03
524.15	-0.01
524.346	0.01
524.542	-0
524.738	-0.02
524.934	0
525.129	-0
525.325	0.02
525.521	-0.01
525.717	0.01
525.913	0
526.109	-0.02
526.304	-0
526.5	0.02
526.696	0.01
526.892	-0.01
527.087	0.01
527.283	-0.03
527.479	0
527.674	-0.01
527.87	-0.01
528.066	-0.02
528.261	0
528.457	0.01
528.653	-0.02
528.848	-0.01
529.044	0.01
529.239	0
529.435	0.01
529.63	0.01
529.826	0.03
530.021	-0.03
530.217	0
530.412	-0.02
530.608	-0.02
530.803	-0
530.999	-0
531.194	-0.04
531.389	0
531.585	-0.04
531.78	-0.02
531.975	0.01
532.171	0.01
532.366	-0.01
532.561	-0
532.757	0
532.952	-0.01
533.147	0.02
533.342	-0.01
533.538	-0
533.733	0.02
533.928	0.01
534.123	-0.02
534.318	-0.02
534.513	-0.01
534.709	0.01
534.904	0
535.099	-0.03
535.294	-0.01
535.489	0
535.684	-0
535.879	-0.01
536.074	0.02
536.269	-0
536.464	-0
536.659	0
536.854	-0.03
537.049	-0
537.244	-0.01
537.439	-0.01
537.634	0.03
537.828	-0.02
538.023	0.01
538.218	-0.03
538.413	-0
538.608	-0.03
538.803	-0.01
538.997	-0.03
539.192	0.02
539.387	0.02
539.582	-0
539.776	0.02
539.971	-0.03
540.166	-0.01
540.36	-0.02
540.555	-0
540.75	-0.01
540.944	-0.01
541.139	-0.03
541.334	-0.01
541.528	0.03
541.723	0.01
541.917	-0.02
542.112	-0.04
542.306	-0.02
542.501	0
542.695	0.02
542.89	-0.01
543.084	0
543.279	-0.01
543.473	-0.03
543.668	-0.01
543.862	-0
544.056	0.03
544.251	-0.01
544.445	0.01
544.64	0
544.834	-0.02
545.028	-0
545.222	-0.01
545.417	0.02
545.611	0.02
545.805	0.01
546	-0.01
546.194	-0.01
546.388	-0.03
546.582	0.01
546.776	0
546.97	0.01
547.165	0.03
547.359	0.02
547.553	-0.01
547.747	-0.01
547.941	0.01
548.135	-0.01
548.329	0.02
548.523	-0
548.717	0
548.911	-0
549.105	-0.03
549.299	-0.01
549.493	0.03
549.687	0.01
549.881	0.01
550.075	-0.01
550.269	-0.03
550.463	0.02
550.657	-0.03
550.85	0.01
551.044	-0.03
551.238	-0.01
551.432	-0.01
551.626	-0.04
551.82	0.01
552.013	-0.04
552.207	0.02
552.401	0.01
552.594	0.01
552.788	0
552.982	-0
553.176	-0.02
553.369	0.01
553.563	0.01
553.756	-0.04
553.95	-0.02
554.144	0.01
554.337	0.01
554.531	-0.01
554.724	-0.01
554.918	-0.02
555.111	0.03
555.305	0.01
555.498	0.03
555.692	0.01
555.885	-0.03
556.079	-0
556.272	-0.02
556.466	0.02
556.659	0.01
556.852	-0.03
557.046	-0.01
557.239	0.01
557.432	-0.03
557.626	-0.03
557.819	0
558.012	0.02
558.206	0.02
558.399	0.02
558.592	0
558.785	-0.01
558.979	-0
559.172	-0.01
559.365	0.03
559.558	0.02
559.751	0.01
559.944	-0.02
560.138	-0.04
560.331	-0.01
560.524	-0.01
560.717	-0.01
560.91	-0.01
561.103	0
561.296	-0.01
561.489	0.01
561.682	0.01
561.875	0.05
562.068	-0.01
562.261	-0.01
562.454	0.04
562.647	0.01
562.84	0.02
563.032	-0
563.225	-0.01
563.418	-0.02
563.611	-0.02
563.804	-0.02
563.997	-0.03
564.19	-0.03
564.382	-0
564.575	-0.02
564.768	0.01
564.961	-0.01
565.153	-0.01
565.346	0.02
565.539	0.02
565.731	0.02
565.924	0.03
566.117	0.03
566.309	-0
566.502	-0.02
566.695	-0.01
566.887	-0.01
567.08	-0.01
567.272	-0.01
567.465	-0.03
567.657	-0.01
567.85	0
568.042	0
568.235	0.02
568.427	0.01
568.62	0.01
568.812	0.01
569.005	-0.02
569.197	-0.03
569.389	0
569.582	0.04
569.774	0.03
569.966	-0.03
570.159	-0.03
570.351	0.02
570.543	-0.02
570.736	-0
570.928	-0.02
571.12	0.01
571.312	-0.01
571.505	-0.03
571.697	-0.01
571.889	-0.03
572.081	-0.02
572.273	-0.02
572.465	0.03
572.658	-0.01
572.85	-0.01
573.042	-0.02
573.234	-0.02
573.426	0.03
573.618	-0.04
573.81	0.01
574.002	0.02
574.194	0.03
574.386	-0.03
574.578	-0.08
574.77	-0.02
574.962	-0.01
575.154	-0.01
575.346	-0.01
575.538	0.02
575.729	-0
575.921	0.01
576.113	-0.01
576.305	0.03
576.497	-0.01
576.689	0.01
576.88	-0.02
577.072	-0.01
577.264	0
577.456	0
577.647	-0.05
577.839	-0
578.031	0.02
578.223	-0.04
578.414	-0.05
578.606	0
578.798	0.01
578.989	-0.04
579.181	0.03
579.372	-0.01
579.564	0
579.755	0.01
579.947	0
580.139	0.02
580.33	-0.03
580.522	-0.01
580.713	-0.07
580.905	-0.01
581.096	0.03
581.287	0.02
581.479	0.01
581.67	-0
581.862	-0.02
582.053	0
582.244	-0.06
582.436	-0.01
582.627	0
582.818	-0.04
583.01	-0.05
583.201	-0.01
583.392	0.01
583.583	-0.02
583.775	-0.01
583.966	-0.02
584.157	-0.02
584.348	-0.02
584.54	-0.04
584.731	0.01
584.922	0
585.113	-0.02
585.304	0.01
585.495	0.02
585.686	-0.01
585.877	-0.01
586.068	0.02
586.259	0
586.45	-0.01
586.641	-0.03
586.832	-0.05
587.023	-0.02
587.214	-0.02
587.405	0.01
587.596	-0.01
587.787	0.01
587.978	0
588.169	-0.03
588.36	-0.03
588.551	0.01
588.742	-0.02
588.932	0.01
589.123	-0.01
589.314	0.04
589.505	0.02
589.696	-0.01
589.886	-0.03
590.077	-0.03
590.268	0.01
590.458	-0.04
590.649	-0.04
590.84	0.03
591.03	-0.04
591.221	-0.04
591.412	-0.04
591.602	-0.02
591.793	0.02
591.984	-0.05
592.174	-0.03
592.365	0.04
592.555	-0.02
592.746	0.02
592.936	0
593.127	0.01
593.317	0.02
593.508	-0.02
593.698	-0.03
593.889	-0.02
594.079	-0
594.269	-0.01
594.46	0.01
594.65	-0.01
594.84	-0.02
595.031	-0.02
595.221	0.01
595.411	-0.05
595.602	0
595.792	-0.01
595.982	-0.03
596.172	0.04
596.363	0.01
596.553	-0
596.743	-0.01
596.933	0
597.123	-0
597.314	-0.03
597.504	-0.02
597.694	-0
597.884	-0.02
598.074	-0.03
598.264	-0.02
598.454	0.01
598.644	-0.01
598.834	-0.01
599.024	-0.06
599.214	-0.04
599.404	0.01
599.594	-0.04
599.784	-0.03
599.974	0.04
600.164	-0.02
600.354	-0.02
600.544	-0.04
600.734	-0.02
600.924	0.01
601.114	-0.03
601.303	-0.01
601.493	0.01
601.683	-0.02
601.873	0.01
602.063	-0.05
602.252	0.03
602.442	-0.06
602.632	-0.04
602.821	-0.03
603.011	-0.01
603.201	-0.03
603.39	-0.04
603.58	-0.04
603.77	-0.01
603.959	0.02
604.149	-0.03
604.339	-0.02
604.528	0.01
604.718	0.01
604.907	-0.02
605.097	-0.04
605.286	0.01
605.476	-0.01
605.665	0.01
605.855	-0.01
606.044	0.01
606.234	0.02
606.423	-0.01
606.612	-0.05
606.802	-0.02
606.991	-0.02
607.181	-0.02
607.37	-0.07
607.559	-0.01
607.749	-0.05
607.938	-0.03
608.127	-0.01
608.316	-0.02
608.506	0.02
608.695	0.01
608.884	-0.04
609.073	-0.02
609.263	0.02
609.452	0.02
609.641	-0
609.83	-0.05
610.019	-0.03
610.208	-0.04
610.397	-0.01
610.586	-0
610.775	-0.04
610.965	-0.02
611.154	-0.01
611.343	0
611.532	0.02
611.721	-0.04
611.91	-0
612.099	-0
612.287	-0.02
612.476	-0.04
612.665	0.01
612.854	-0.03
613.043	0.04
613.232	-0.01
613.421	-0.07
613.61	-0.01
613.798	-0.03
613.987	0.02
614.176	-0.02
614.365	-0
614.554	0.01
614.742	0.01
614.931	-0.04
615.12	0.01
615.309	-0.03
615.497	-0.01
615.686	-0.05
615.875	-0.02
616.063	-0
616.252	-0.04
616.44	0.01
616.629	-0.02
616.818	-0.01
617.006	-0.01
617.195	0.02
617.383	0.01
617.572	0.02
617.76	-0.03
617.949	-0.03
618.137	0.02
618.326	0.02
618.514	-0.05
618.703	-0.03
618.891	0.03
619.079	-0.07
619.268	0
619.456	-0.04
619.644	0.02
619.833	-0.01
620.021	-0.03
620.209	-0.06
620.398	0.02
620.586	-0.02
620.774	0
620.962	-0.02
621.151	0.03
621.339	-0.05
621.527	-0.03
621.715	-0.03
621.903	-0.04
622.092	-0.01
622.28	0.02
622.468	-0.04
622.656	-0.03
622.844	0.02
623.032	-0.04
623.22	-0.05
623.408	0
623.596	0.03
623.784	-0
623.972	-0.04
624.16	-0.01
624.348	0.02
624.536	-0.02
624.724	-0.01
624.912	0.02
625.1	0.02
625.288	-0.04
625.476	-0.03
625.664	0.02
625.851	-0.02
626.039	-0.01
626.227	0.03
626.415	-0.05
626.603	-0.05
626.79	-0.01
626.978	-0.04
627.166	0.01
627.354	0.02
627.541	-0.01
627.729	-0.04
627.917	0.02
628.104	0.01
628.292	0.02
628.48	0.05
628.667	0
628.855	0
629.042	-0.01
629.23	-0.04
629.418	-0.05
629.605	0.01
629.793	-0.02
629.98	-0.01
630.168	-0.04
630.355	-0.02
630.543	0
630.73	-0.01
630.917	0.01
631.105	0.05
631.292	-0.05
631.48	-0.02
631.667	0.06
631.854	0.04
632.042	-0.01
632.229	-0.03
632.416	0
632.604	0
632.791	-0.04
632.978	0.02
633.165	0.02
633.353	0.05
633.54	0.03
633.727	-0.04
633.914	0
634.101	-0.05
634.289	0.05
634.476	-0.03
634.663	-0.01
634.85	0.02
635.037	-0.01
635.224	-0.08
635.411	0.02
635.598	0.05
635.785	0.02
635.972	0.02
636.159	0.03
636.346	-0.03
636.533	0.01
636.72	0.02
636.907	0
637.094	0.03
637.281	0
637.468	0.02
637.655	0.01
637.842	0
638.029	-0.03
638.215	0.03
638.402	0.05
638.589	-0.02
638.776	-0.01
638.963	-0.05
639.149	0.02
639.336	0.06
639.523	0
639.709	0.01
639.896	0.02
640.083	0.07
640.27	0
640.456	-0
640.643	0.05
640.829	-0.04
641.016	0.02
641.203	-0.02
641.389	0.04
641.576	0.06
641.762	0
641.949	0
642.135	0
642.322	0.03
642.508	-0.02
642.695	0.01
642.881	-0.01
643.068	0.03
643.254	0.02
643.441	0.09
643.627	0
643.813	0.01
644	0.04
644.186	0.02
644.372	0.03
644.559	0.08
644.745	0.01
644.931	0.01
645.118	0.03
645.304	0.04
645.49	0.02
645.676	0.03
645.862	0.02
646.049	0.05
646.235	0.04
646.421	0.08
646.607	0.08
646.793	0.01
646.979	-0
647.165	0.02
647.352	0.02
647.538	0.07
647.724	0.04
647.91	0.05
648.096	0.05
648.282	0.11
648.468	0.04
648.654	0.04
648.84	0.04
649.026	0.06
649.212	0.05
649.397	0.04
649.583	0.03
649.769	0.08
649.955	0.08
650.141	0.07
650.327	0.15
650.513	0.03
650.698	0.06
650.884	0.01
651.07	0.06
651.256	0.04
651.442	0.08
651.627	0.05
651.813	0.06
651.999	0.07
652.184	0.08
652.37	0.04
652.556	0.03
652.741	0.16
652.927	0
653.113	0.07
653.298	0.06
653.484	0.09
653.669	0.01
653.855	0.07
654.04	0.1
654.226	0.1
654.412	0.09
654.597	0.05
654.782	0.08
654.968	0.13
655.153	0.09
655.339	0.07
655.524	0.06
655.71	0.13
655.895	0.07
656.08	0.06
656.266	0.12
656.451	0.09
656.636	0.04
656.822	0.1
657.007	0.05
657.192	0.07
657.378	0.05
657.563	0.11
657.748	0.12
657.933	0.11
658.118	0.09
658.304	0.09
658.489	0.15
658.674	0.11
658.859	0.02
659.044	0.09
659.229	0.14
659.414	0.07
659.599	0.11
659.785	0.05
659.97	0.07
660.155	0.13
660.34	0.14
660.525	0.06
660.71	0.08
660.895	0.11
661.08	0.09
661.264	0.07
661.449	0.12
661.634	0.14
661.819	0.09
662.004	0.11
662.189	0.02
662.374	0.02
662.559	0.05
662.743	0.02
662.928	0.05
663.113	0.06
663.298	-0.01
663.483	0.03
663.667	0.03
663.852	0
664.037	0.09
664.221	0.01
664.406	0.06
664.591	0.04
664.775	0
664.96	-0.02
665.145	0.02
665.329	0.07
665.514	0
665.698	0.02
665.883	0
666.068	0.05
666.252	0.04
666.437	-0.02
666.621	0.02
666.806	0.01
666.99	0.02
667.174	-0.05
667.359	0.03
667.543	-0.03
667.728	0.01
667.912	-0.04
668.096	0.05
668.281	-0.01
668.465	0
668.649	0
668.834	0.01
669.018	0.02
669.202	-0.03
669.387	-0.01
669.571	0.06
669.755	-0.04
669.939	-0.01
670.124	-0.01
670.308	0.04
670.492	0.01
670.676	0.01
670.86	-0.02
671.044	-0.02
671.228	0.04
671.413	-0.06
671.597	-0.03
671.781	-0
671.965	0.02
672.149	-0.03
672.333	-0.05
672.517	-0.04
672.701	0.01
672.885	0.01
673.069	-0.08
673.253	-0.01
673.437	-0.01
673.621	-0.02
673.804	-0
673.988	-0.04
674.172	-0.04
674.356	-0.06
674.54	-0.03
674.724	0.09
674.908	0
675.091	0.05
675.275	-0.02
675.459	0.03
675.643	0.06
675.826	-0.03
676.01	-0.02
676.194	-0.02
676.377	0.03
676.561	0
676.745	-0.01
676.928	-0.03
677.112	0.01
677.296	-0.03
677.479	-0.04
677.663	-0
677.846	0.02
678.03	-0.01
678.213	-0.07
678.397	0.01
678.58	-0.01
678.764	-0.01
678.947	-0.05
679.131	-0.09
679.314	0.01
679.498	-0.03
679.681	0
679.865	0.11
680.048	-0.03
680.231	-0.02
680.415	-0.04
680.598	-0.05
680.781	-0.06
680.965	-0.04
681.148	-0
681.331	-0.03
681.514	-0.02
681.698	-0.07
681.881	0.02
682.064	-0.04
682.247	-0.01
682.43	-0.07
682.614	0.02
682.797	-0
682.98	0.01
683.163	-0.06
683.346	-0.05
683.529	-0.01
683.712	-0.04
683.895	-0.01
684.078	-0.06
684.261	-0.04
684.444	0
684.627	-0.01
684.81	-0.02
684.993	-0.01
685.176	-0.04
685.359	-0.03
685.542	-0.01
685.725	0.05
685.908	-0.03
686.091	-0.09
686.274	0.01
686.457	-0.02
686.639	-0.08
686.822	-0
687.005	0.01
687.188	0
687.371	0.02
687.553	0.05
687.736	-0.01
687.919	0.05
688.102	0.04
688.284	-0.03
688.467	-0.03
688.65	-0.02
688.832	-0.06
689.015	-0.02
689.197	-0.06
689.38	0.07
689.563	0.02
689.745	-0.05
689.928	-0.05
690.11	-0.01
690.293	0.06
690.475	-0.08
690.658	-0.04
690.84	-0.07
691.023	-0.06
691.205	-0.05
691.388	-0
691.57	0.05
691.752	0.01
691.935	-0.09
692.117	-0.05
692.3	0.01
692.482	0.03
692.664	-0.01
692.847	-0.03
693.029	0.03
693.211	-0
693.393	-0.01
693.576	-0.06
693.758	-0.04
693.94	-0.06
694.122	-0.08
694.304	-0.01
694.487	-0.07
694.669	0.03
694.851	-0.06
695.033	0.01
695.215	-0.03
695.397	-0.04
695.579	0
695.761	-0.06
695.943	-0.06
696.125	0.07
696.308	0.03
696.49	-0.08
696.671	0.1
696.853	-0.03
697.035	0.09
697.217	-0.03
697.399	-0.01
697.581	-0.06
697.763	-0.01
697.945	-0.06
698.127	0.02
698.309	0
698.491	-0
698.672	0
698.854	0.02
699.036	0.02
699.218	-0.06
699.399	0.03
699.581	0.05
699.763	0.02
699.945	-0.07
700.126	-0.05
700.308	0.02
700.49	0.02
700.671	-0.16
700.853	-0.06
701.035	-0.07
701.216	-0.03
701.398	-0.09
701.579	-0.02
701.761	0.07
701.943	-0.05
702.124	-0.07
702.306	-0.02
702.487	0.09
702.669	-0.01
702.85	-0.05
703.031	-0.07
703.213	0.08
703.394	-0.01
703.576	-0.06
703.757	0.05
703.938	0.02
704.12	0.12
704.301	0.02
704.483	-0.07
704.664	-0.02
704.845	0.07
705.026	0.02
705.208	0
705.389	0
705.57	0.01
705.751	0.01
705.933	-0.01
706.114	0.04
706.295	0.03
706.476	-0.03
706.657	0.11
706.838	-0.03
707.02	0.02
707.201	-0.08
707.382	-0.03
707.563	0
707.744	-0.02
707.925	-0.07
708.106	-0.07
708.287	0.03
708.468	0.08
708.649	0.03
708.83	0.05
709.011	-0.02
709.192	0.06
709.373	-0.13
709.554	-0.04
709.734	0.03
709.915	-0.02
710.096	-0.04
710.277	-0.08
710.458	-0
710.639	0.02
710.819	-0.09
711	-0.02
711.181	0.07
711.362	0.01
711.542	-0.04
711.723	-0.01
711.904	0.11
712.085	-0
712.265	0.03
712.446	-0.06
712.627	-0.02
712.807	0.04
712.988	-0.01
713.168	-0.03
713.349	0.06
713.53	-0.05
713.71	-0.01
713.891	-0.05
714.071	-0.05
714.252	-0.02
714.432	-0.01
714.613	-0.08
714.793	0.01
714.974	0.01
715.154	0.01
715.334	0.09
715.515	0.14
715.695	-0.05
715.876	-0.04
716.056	-0.04
716.236	-0.02
716.417	-0.01
716.597	-0.08
716.777	0.15
716.957	-0.01
717.138	-0.04
717.318	0.01
717.498	-0.1
717.678	0.02
717.859	0.04
718.039	-0.17
718.219	0.03
718.399	0.1
718.579	-0.06
718.759	-0.07
718.939	-0.03
719.12	0.02
719.3	0.04
719.48	-0.09
719.66	-0.08
719.84	0.1
720.02	0
720.2	-0.05
720.38	-0
720.56	0.06
720.74	-0.02
720.92	0.05
721.1	0.05
721.279	0.1
721.459	0.01
721.639	-0.07
721.819	0.02
721.999	0
722.179	0.04
722.359	-0.1
722.538	0.07
722.718	0.09
722.898	-0.01
723.078	-0
723.257	0.02
723.437	0.01
723.617	0.03
723.797	0.05
723.976	-0.03
724.156	0.14
724.336	0.16
724.515	0.18
724.695	-0.09
724.874	-0.06
725.054	0.13
725.234	-0.03
725.413	0.05
725.593	0.02
725.772	-0.02
725.952	0.09
726.131	0.05
726.311	0
726.49	-0.01
726.67	0.01
726.849	-0.05
727.028	0.07
727.208	-0.03
727.387	0.01
727.567	0.01
727.746	-0
727.925	-0.01
728.105	-0.08
728.284	0.09
728.463	-0.07
728.643	0.09
728.822	-0.02
729.001	0.04
729.18	0.12
729.359	0.08
729.539	0.01
729.718	0.07
729.897	0.07
730.076	0.03
730.255	-0.1
730.434	0.05
730.614	0.09
730.793	0.24
730.972	0.05
731.151	0.08
731.33	0.18
731.509	0.09
731.688	0.09
731.867	0.05
732.046	-0.07
732.225	0.22
732.404	-0.03
732.583	0.07
732.762	0.07
732.941	0.14
733.12	0.07
733.298	0.04
733.477	0.08
733.656	0.11
733.835	-0.08
734.014	0.08
734.193	0.03
734.371	0.09
734.55	0.12
734.729	-0.06
734.908	0.06
735.086	0.12
735.265	0.13
735.444	-0.07
735.623	-0
735.801	0.01
735.98	0.13
736.159	0.07
736.337	0.09
736.516	0.08
736.694	0.03
736.873	0.07
737.052	0.03
737.23	0.12
737.409	0.09
737.587	0.26
737.766	-0.08
737.944	0.04
738.123	0.07
738.301	0.2
738.479	-0.05
738.658	0.1
738.836	-0.13
739.015	0.13
739.193	0.07
739.371	0
739.55	-0.05
739.728	-0.07
739.906	0.08
740.085	0.14
740.263	0.05
740.441	-0.14
740.62	0.25
740.798	0.15
740.976	0.02
741.154	-0.05
741.332	0.06
741.511	-0.03
741.689	0.2
741.867	0.08
742.045	-0.07
742.223	0.13
742.401	0.08
742.579	-0.01
742.757	0.04
742.935	-0.09
743.114	0.04
743.292	-0.04
743.47	-0.03
743.648	0.18
743.826	-0.01
744.004	0.05
744.181	0.07
744.359	-0.07
744.537	-0.06
744.715	-0.1
744.893	0.04
745.071	-0.05
745.249	-0.09
745.427	-0.08
745.605	0.05
745.782	0.03
745.96	0
746.138	-0.05
746.316	0.02
746.493	0.03
746.671	0.03
746.849	-0.08
747.027	0.11
747.204	-0.14
747.382	0.1
747.56	-0.14
747.737	-0.11
747.915	-0.12
748.093	-0.05
748.27	-0.04
748.448	-0.05
748.625	-0.1
748.803	-0.01
748.98	-0.05
749.158	0.02
749.335	-0.01
749.513	0.02
749.69	-0.01
749.868	0.06
750.045	0.07
750.223	-0.15
750.4	-0.21
750.578	0.23
750.755	-0.03
750.932	-0.13
751.11	0.11
751.287	-0.26
751.464	0.02
751.642	-0.11
751.819	0.12
751.996	0.07
752.173	-0.01
752.351	-0.13
752.528	-0.04
752.705	-0.08
752.882	-0.11
753.06	0
753.237	0.03
753.414	0.12
753.591	0.04
753.768	-0.1
753.945	-0.04
754.122	-0.08
754.299	-0.01
754.476	-0.11
754.654	-0.02
754.831	0.1
755.008	-0.01
755.185	-0.07
755.362	-0.08
755.539	-0
755.716	-0.02
755.892	-0.08
756.069	-0.11
756.246	-0.05
756.423	-0.02
756.6	0.04
756.777	-0.03
756.954	0.2
757.131	-0.04
757.307	-0.03
757.484	-0.08
757.661	0.1
757.838	-0.1
758.015	-0.21
758.191	0.09
758.368	-0.08
758.545	0.14
758.721	-0.01
758.898	-0.1
759.075	0.03
759.251	0.04
759.428	0.05
759.605	-0.19
759.781	-0.04
759.958	0.04
760.134	0.01
760.311	-0.05
760.488	-0
760.664	0.08
760.841	0.03
761.017	-0.06
761.194	0.09
761.37	-0.01
761.547	-0.12
761.723	-0.05
761.899	0.15
762.076	-0.21
762.252	-0.11
762.429	-0.07
762.605	0.06
762.781	0.03
762.958	0.13
763.134	-0.07
763.31	-0.14
763.486	-0.08
763.663	-0.25
763.839	0.05
764.015	-0.17
764.191	-0.07
764.368	-0.13
764.544	-0.13
764.72	0.01
764.896	0.04
765.072	0.05
765.248	-0.15
765.425	-0.11
765.601	-0.02
765.777	-0.04
765.953	-0.31
766.129	-0.06
766.305	-0.16
766.481	-0.12
766.657	0.08
766.833	0.12
767.009	-0.26
767.185	-0.04
767.361	0.01
767.537	-0.23
767.713	-0.06
767.889	-0.01
768.065	0.05
768.24	-0.02
768.416	0.18
768.592	-0.15
768.768	-0.09
768.944	0.09
769.12	-0.19
769.295	-0.11
769.471	-0.01
769.647	-0.08
769.823	0.05
769.998	-0.14
770.174	-0.07
770.35	0.15
770.525	0.1
770.701	0.13
770.877	-0.07
771.052	-0.08
771.228	0.05
771.403	-0.06
771.579	0.11
771.755	0.27
771.93	-0.09
772.106	-0.19
772.281	-0.24
772.457	-0.09
772.632	-0.04
772.808	-0.12
772.983	-0.2
773.159	-0.2
773.334	0.07
773.509	0.01
773.685	-0.11
773.86	0.24
774.036	0.16
774.211	-0.08
774.386	-0.12
774.562	0
774.737	-0.12
774.912	-0.09
775.087	-0.05
775.263	-0.02
775.438	-0.06
775.613	-0.28
775.788	-0.04
775.964	0.05
776.139	0.16
776.314	-0.26
776.489	0.08
776.664	-0.02
776.839	-0.17
777.014	0.1
777.19	0.07
777.365	0.19
777.54	0.18
777.715	-0.09
777.89	0.11
778.065	-0.13
778.24	-0.15
778.415	0.24
778.59	-0.11
778.765	-0.25
778.94	-0.04
779.115	-0.12
779.289	-0.02
779.464	-0.09
779.639	-0.08
779.814	-0.27
779.989	-0.25
780.164	0.1
780.339	-0.03
780.513	-0.03
780.688	-0.21
780.863	0.05
781.038	0.14
781.212	-0.2
781.387	-0.01
781.562	0.32
781.737	0.14
781.911	0.06
782.086	-0.09
782.261	-0.03
782.435	0.12
782.61	-0.11
782.784	-0.04
782.959	0.14
783.134	-0.24
783.308	-0.39
783.483	-0.17
783.657	0.26
783.832	0.02
784.006	-0.3
784.181	-0.01
784.355	0.25
784.53	-0.05
784.704	-0.37
784.878	0.17
785.053	0.13
785.227	0.18
785.402	0.26
785.576	-0.12
785.75	-0.13
785.925	-0.16
786.099	0.03
786.273	-0.02
786.448	0.16
786.622	0.09
786.796	0.07
786.97	-0.23
787.145	0.44
787.319	-0.3
787.493	-0.14
787.667	-0.5
787.841	-0.11
788.015	0.14
788.19	-0.11
788.364	-0.08
788.538	0.03
788.712	0.03
788.886	-0.09
789.06	0.06
789.234	0.09
789.408	-0.17
789.582	-0.17
789.756	-0.12
789.93	-0.15
790.104	0.03
790.278	-0.22
790.452	-0.31
790.626	0.09
790.8	-0.28
790.973	0.16
791.147	0.02
791.321	0.2
791.495	-0.07
791.669	0.05
791.843	0
792.016	0
792.19	0.18
792.364	-0.34
792.538	0.51
792.711	0.25
792.885	-0.09
793.059	-0.3
793.233	-0.5
793.406	0.16
793.58	0.17
793.754	-0.12
793.927	-0.09
794.101	0.27
794.274	-0.01
794.448	0.12
794.622	-0.15
794.795	0.03
794.969	-0.28
795.142	0.29
795.316	-0.3
795.489	-0.16
795.663	0.33
795.836	0.03
796.009	-0.16
796.183	0.08
796.356	0.26
796.53	0.01
796.703	-0.53
796.876	0.41
797.05	-0.17
797.223	0.19
797.396	0.16
797.57	-0.01
797.743	0.45
797.916	-0.08
798.09	-0.22
798.263	0.22
798.436	-0.06
798.609	-0.12
798.782	-0.32
798.956	0.08
799.129	-0.01
799.302	-0.14
799.475	-0.09
799.648	-0.2
799.821	-0.16
799.994	-0.09
800.167	-0.5
800.34	0
800.514	-0.17
800.687	-0.08
800.86	-0.16
801.033	-0.03
801.206	0.11
801.379	-0.46
801.551	0.24
801.724	0.02
801.897	0.05
802.07	-0.23
802.243	-0.54
802.416	-0.08
802.589	-0.23
802.762	-0.07
802.935	-0.11
803.107	-0.17
803.28	0.05
803.453	0.12
803.626	-0.06
803.798	0.04
803.971	-0.23
804.144	-0.06
804.317	0.14
804.489	0.14
804.662	-0.14
804.835	-0.19
805.007	-0.34
805.18	0.08
805.353	0.44
805.525	-0.36
805.698	-0.17
805.87	0.25
806.043	-0.02
806.215	-0.31
806.388	-0.16
806.56	0.07
806.733	-0.08
806.905	-0.06
807.078	-0.03
807.25	-0.65
807.423	0.28
807.595	-0.14
807.768	-0.05
807.94	0.1
808.112	-0.13
808.285	0.07
808.457	-0.22
808.629	0.19
808.802	0.04
808.974	-0.16
809.146	-0.15
809.318	-0.53
809.491	-0.14
809.663	0.16
809.835	-0.21
810.007	0.29
810.18	-0.25
810.352	-0.72
810.524	-0.27
810.696	-0.1
810.868	0.33
811.04	-0.23
811.212	0
811.384	0.39
811.556	0.14
811.728	-0.25
811.901	0.39
812.073	-0.1
812.245	0.06
812.417	-0.01
812.589	-0.52
812.76	0.02
812.932	0.23
813.104	0.04
813.276	-0.02
813.448	0.46
813.62	-0.17
813.792	0.01
813.964	-0.08
814.136	-0.09
814.307	-0.28
814.479	-0.04
814.651	-0.19
814.823	0.44
814.995	0.02
815.166	0.2
815.338	-0.79
815.51	-0.69
815.681	0.52
815.853	0.08
816.025	-0.01
816.196	0.45
816.368	-0.03
816.54	-0.64
816.711	-0.47
816.883	0.34
817.054	0.47
817.226	-0.66
817.398	-0.16
817.569	-0.33
817.741	0.05
817.912	-0.27
818.084	-0.22
818.255	0.03
818.426	-0.27
818.598	0.32
818.769	-0.43
818.941	-0.33
819.112	0.57
819.283	-0.15
819.455	-0.68
819.626	0.05
819.798	-0.06
819.969	0.27
820.14	-0.09
820.311	-0.5
820.483	0.39
820.654	-0
820.825	0.23
820.996	-0.41
821.168	-0.43
821.339	-0.33
821.51	-0.18
821.681	-0.24
821.852	-0.17
822.023	-0.42
822.195	-0.94
822.366	0.36
822.537	-0.01
822.708	0.34
822.879	-0.29
823.05	0.61
823.221	-0.04
823.392	0.14
823.563	-0.02
823.734	0.21
823.905	-0.48
824.076	-0.44
824.247	-0.76
824.418	-0.56
824.589	0.28
824.759	0.1
824.93	-0.25
825.101	-0.76
825.272	0.23
825.443	0.31
825.614	-0.02
825.784	-1.01
825.955	0.89
826.126	0.78
826.297	-0.25
826.467	1.24
826.638	0.69
826.809	-0.19
826.98	-0.29
827.15	-0.06
827.321	-0.55
827.492	0.22
827.662	-0.01
827.833	0.63
828.003	-0.22
828.174	-0.75
828.345	-0.57
828.515	0.48
828.686	0.62
828.856	-0.48
829.027	-0.34
829.197	0.3
829.368	-0.26
829.538	-0.66
829.709	-0.45
829.879	-0.14
830.049	-0.05
830.22	-0.43
830.39	-0.21
830.56	0.65
830.731	-0.76
830.901	-0.44
831.072	-0.74
831.242	-0.2
831.412	-0.11
831.582	0.22
831.753	-0.41
831.923	0.61
832.093	-0.55
832.263	-0.62
832.434	-0.34
832.604	-0.08
832.774	0.3
832.944	-0.01
833.114	-0.18
833.284	0.44
833.454	-1.09
833.624	-0.43
833.795	-0.42
833.965	0.14
834.135	0.36
834.305	-0.42
834.475	-1.15
834.645	-0.21
834.815	-0.49
834.985	-0.17
835.155	-0.52
835.325	0.85
835.494	-0.35
835.664	-0.81
835.834	-1.65
836.004	-0.28
836.174	-0.42
836.344	-0.09
836.514	-0.73
836.684	-0.13
836.853	0.11
837.023	0.26
837.193	-0.71
837.363	0.13
837.532	-0.31
837.702	-0.58
837.872	-0.68
838.041	0.69
838.211	0.89
838.381	-0.73
838.55	0.07
838.72	1.4
838.89	0.92
839.059	-0.01
839.229	-0.74
839.398	0.21
839.568	-0.29
839.738	-0.96
839.907	0.46
840.077	0.35
840.246	-0.74
840.416	-0.83
840.585	-1.29
840.755	0.63
840.924	0.8
841.093	-0.31
841.263	-0.45
841.432	-0.83
841.602	-0.28
841.771	-0.98
841.94	-0.2
842.11	1.32
842.279	0.82
842.448	-0.77
842.617	-0.59
842.787	0.3
842.956	-0.89
843.125	-0.52
843.294	0.37
843.464	1.3
843.633	-0.15
843.802	-0.7
843.971	-0.14
844.14	0.07
844.309	0.1
844.479	-0.51
844.648	-1.03
844.817	-1.09
844.986	-0.02
845.155	0.03
845.324	-0.51
845.493	-0.62
845.662	-1.25
845.831	-0.15
846	-0.19
846.169	-0.2
846.338	1.07
846.507	-0.4
846.676	-0.01
846.844	-0.72
847.013	-1.08
847.182	-1.19
847.351	-0.81
847.52	0.28
847.689	0.67
847.858	-0.48
848.026	-0.72
848.195	-0.84
848.364	-0.25
848.533	-1.02
848.701	-1.25
848.87	-0.38
849.039	0.69
849.207	0.75
849.376	0.85
849.545	0.78
849.713	-1.44
849.882	-0.67
850.051	0.47
850.219	-0.38
850.388	0.68
850.556	-1.05
850.725	-0.95
850.893	0.79
851.062	-0.99
851.23	0.79
851.399	-1.5
851.567	-0.77
851.736	-0.85
851.904	-1.07
852.073	-0.16
852.241	-0.04
852.41	-0.81
852.578	-0.11
852.746	-0.9
852.915	-0.02
853.083	0.5
853.251	-0.77
853.42	-0.95
853.588	-0.44
853.756	0.84
853.924	-0.6
854.093	-1.05
854.261	-0.1
854.429	-0.45
854.597	-0.11
854.765	-1.83
854.934	0
855.102	0.04
855.27	-0.49
855.438	-0.16
855.606	0.43
855.774	0.3
855.942	-1.65
856.11	-0.69
856.278	0.78
856.446	-0.25
856.614	0.51
856.782	-0.53
856.95	1.13
857.118	-0.89
857.286	0.06
857.454	-1.44
857.622	1.33
857.79	0.49
857.958	-1.76
858.126	-0.09
858.294	-3.27
858.462	-0.29
858.629	-0.32
858.797	-1.45
858.965	-0.72
859.133	0.76
859.301	-1.06
859.468	1.06
859.636	-1.14
859.804	0.66
859.971	0.65
860.139	-0.53
860.307	-0.4
860.474	0.2
860.642	-0.77
860.81	-1.13
860.977	-0.35
861.145	1.31
861.313	-0.41
861.48	-0.28
861.648	0.87
861.815	0.12
861.983	-1.78
862.15	0.09
862.318	1.51
862.485	-0.19
862.653	-0.32
862.82	-1.49
862.988	1.84
863.155	-0.34
863.322	-0.37
863.49	-2.04
863.657	-1.51
863.824	1.46
863.992	-0.19
864.159	-0.55
864.326	0.92
864.494	-0.38
864.661	2.99
864.828	-2.06
864.996	0.59
865.163	2.25
865.33	-1.32
865.497	-1.53
865.664	-0.41
865.832	-2.24
865.999	-2.38
866.166	-0.39
866.333	-0.82
866.5	-1.21
866.667	-1.71
866.834	-1.22
867.001	0.96
867.168	-1.78
867.335	-0.88
867.502	-1.22
867.669	-0.2
867.836	1.9
868.003	0.26
868.17	0.44
868.337	2.68
868.504	-0.03
868.671	-2.56
868.838	-2.07
869.005	-1.86
869.172	0.19
869.339	0.84
869.505	-0.48
869.672	-0.74
869.839	1.85
870.006	-1.24
870.173	-1.52
870.339	-0.28
870.506	0.42
870.673	-2.74
870.84	0.49
871.006	1
871.173	-1.72
871.34	-0.87
871.506	-2.16
871.673	0.15
871.839	-2.84
872.006	-0.85
872.173	-0.55
872.339	-0.24
872.506	1.23
872.672	-0.46
872.839	-2.42
873.005	-1.76
873.172	4.89
873.338	1.57
873.505	0.56
873.671	-0.68
873.838	0.73
874.004	-2
874.171	0.04
874.337	-0.51
874.503	1.38
874.67	-1.2
874.836	-1.22
875.002	2.2
875.169	0.93
875.335	-0.17
875.501	0.15
875.668	0.68
875.834	-0.14
876	-0.85
876.166	0.49
876.332	1.93
876.499	1.67
876.665	-2.51
876.831	0.15
876.997	1.49
877.163	-0.54
877.329	-1.22
877.495	-0.14
877.662	1.07
877.828	-0.21
877.994	-0.88
878.16	-2.86
878.326	-2.6
878.492	0.34
878.658	-2.44
878.824	1.57
878.99	1.53
879.156	-1.93
879.322	3.89
879.487	-1.51
879.653	0.21
879.819	-1
879.985	-1.67
880.151	-0.01
880.317	0.36
880.483	-0.22
880.648	1.09
880.814	-3.5
880.98	0.57
881.146	-1.87
881.312	-1.44
881.477	0.08
881.643	0.4
881.809	-0.03
881.974	0.5
882.14	-2.3
882.306	0.08
882.471	2.23
882.637	-1.82
882.803	-0.12
882.968	2.61
883.134	1.09
883.299	-0.52
883.465	-0.2
883.63	1.61
883.796	1.63
883.961	0.27
884.127	-0.72
884.292	-3.63
884.458	-1.06
884.623	-1.06
