Data from Apollo_Calib_20240827__AbsoluteIrradiance__168__01-57-03-082.txt Node

Date: Wed Aug 28 01:57:03 BST 2024
User: biology
Spectrometer: FLMT08252
Trigger mode: 0
Integration Time (sec): 5.000000E-1
Scans to average: 5
Electric dark correction enabled: true
Nonlinearity correction enabled: false
Boxcar width: 0
XAxis mode: Wavelengths
Number of Pixels in Spectrum: 3648
>>>>>Begin Spectral Data<<<<<
179.588	-0
179.809	-0
180.03	-0
180.251	-0
180.473	-0
180.694	0
180.915	0
181.136	-0
181.357	0
181.578	0
181.799	-0
182.02	-0
182.241	0
182.462	-0
182.683	0
182.904	-0
183.125	-0
183.346	0
183.567	0
183.788	-0
184.009	-0
184.23	0
184.451	0
184.672	-0
184.892	-0
185.113	0
185.334	0
185.555	-0
185.776	0
185.996	0
186.217	0
186.438	0
186.659	-0
186.879	-0
187.1	-0
187.321	0
187.541	-0
187.762	-0
187.983	0
188.203	0
188.424	0
188.644	-0
188.865	0
189.086	-0
189.306	-0
189.527	-0
189.747	0
189.968	-0
190.188	0
190.409	0
190.629	0
190.849	-0
191.07	0
191.29	0
191.511	0
191.731	-0
191.951	-0
192.172	0
192.392	0
192.612	-0
192.833	0
193.053	0
193.273	0
193.493	-0
193.714	-0
193.934	0
194.154	0
194.374	0
194.594	0
194.815	-0
195.035	-0
195.255	-0
195.475	-0
195.695	0
195.915	0
196.135	-0
196.355	0
196.575	0
196.795	0
197.015	-0
197.235	-0
197.455	-0
197.675	0
197.895	-0
198.115	-0
198.335	0
198.555	0
198.775	0
198.995	-0
199.214	0
199.434	-0
199.654	-0
199.874	-0
200.094	0.95
200.313	-0.42
200.533	-0.4
200.753	-0.82
200.973	0.58
201.192	0.6
201.412	-0.8
201.632	-0.4
201.851	0.94
202.071	-0.34
202.291	-0.16
202.51	-0.63
202.73	0.28
202.95	-0.04
203.169	-0.52
203.389	-0.29
203.608	-0.15
203.828	-0.45
204.047	0.06
204.267	0.2
204.486	0.22
204.706	0.02
204.925	0.08
205.145	-0.39
205.364	0.33
205.583	0.7
205.803	-0.06
206.022	-0.7
206.242	0.13
206.461	-0.06
206.68	-0.47
206.9	0.1
207.119	0.53
207.338	0.69
207.557	-0.09
207.777	0.18
207.996	-0.01
208.215	0.41
208.434	-0.01
208.654	-0.22
208.873	-0.02
209.092	0.48
209.311	-0.25
209.53	-0.18
209.749	-0.18
209.968	-0.05
210.187	-0.03
210.407	-0.46
210.626	0.13
210.845	0.16
211.064	-0.11
211.283	-0.28
211.502	0.39
211.721	0.25
211.94	0.05
212.159	0.3
212.377	0.35
212.596	0.17
212.815	0.01
213.034	-0.02
213.253	0.27
213.472	0.14
213.691	-0.16
213.91	-0.25
214.128	0.1
214.347	0.51
214.566	-0.52
214.785	-0.18
215.003	-0.01
215.222	0.16
215.441	0.04
215.66	-0.4
215.878	0.04
216.097	0.26
216.316	-0.38
216.534	-0.24
216.753	0.06
216.972	-0.06
217.19	-0.05
217.409	-0.1
217.627	-0.22
217.846	0
218.064	0.13
218.283	-0.15
218.501	0.56
218.72	0.16
218.938	-0.27
219.157	-0.03
219.375	0.17
219.594	0.16
219.812	-0.26
220.031	-0.22
220.249	0.4
220.467	0.19
220.686	-0.12
220.904	-0.14
221.122	-0.05
221.341	0.32
221.559	-0.03
221.777	-0.25
221.995	-0.09
222.214	0.11
222.432	-0.12
222.65	0.17
222.868	0.01
223.086	0.12
223.305	0.08
223.523	-0.12
223.741	0.2
223.959	0.02
224.177	-0.23
224.395	-0.1
224.613	-0.02
224.831	0.18
225.049	-0.15
225.267	0.01
225.485	0.11
225.703	0.04
225.921	-0.02
226.139	-0.17
226.357	0.09
226.575	-0.03
226.793	-0.14
227.011	0.65
227.229	0.08
227.447	0.13
227.665	-0.01
227.883	-0.32
228.1	0.03
228.318	0.04
228.536	-0.29
228.754	-0.1
228.972	0.15
229.189	0.13
229.407	-0.08
229.625	-0.06
229.843	0.09
230.06	0.13
230.278	-0.06
230.496	0.09
230.713	0.07
230.931	0.14
231.149	0.02
231.366	-0.11
231.584	0.03
231.801	0.36
232.019	-0.04
232.236	-0.12
232.454	-0.13
232.671	0.13
232.889	0.01
233.106	-0.16
233.324	-0.02
233.541	0.02
233.759	0.09
233.976	0.01
234.194	-0.04
234.411	-0.1
234.628	-0.08
234.846	-0.09
235.063	-0.03
235.28	-0.07
235.498	-0.01
235.715	-0.07
235.932	0.1
236.149	-0.09
236.367	-0.11
236.584	0.04
236.801	-0.23
237.018	0.11
237.236	0.02
237.453	-0.16
237.67	0.07
237.887	0.03
238.104	-0.08
238.321	-0.16
238.538	-0.09
238.755	0.11
238.973	-0.15
239.19	0
239.407	0.02
239.624	0.09
239.841	-0.08
240.058	-0.11
240.275	0.05
240.492	0.02
240.709	0.12
240.925	-0.09
241.142	0.01
241.359	-0.13
241.576	-0.03
241.793	-0.04
242.01	0.02
242.227	0.14
242.444	0.06
242.66	0.13
242.877	0
243.094	0
243.311	0.03
243.527	-0.01
243.744	0.08
243.961	0.04
244.178	-0.07
244.394	-0.05
244.611	0.11
244.828	0.15
245.044	-0.07
245.261	-0.05
245.477	0.09
245.694	0.08
245.911	-0.06
246.127	-0.04
246.344	0.12
246.56	0.13
246.777	-0.06
246.993	0.02
247.21	-0.02
247.426	0.14
247.643	0.02
247.859	-0.09
248.076	0
248.292	0.23
248.508	-0.08
248.725	0.03
248.941	0.05
249.157	0.11
249.374	-0.05
249.59	0.07
249.806	0.02
250.023	0.08
250.239	-0.03
250.455	-0.08
250.671	0.04
250.888	0.03
251.104	-0.01
251.32	0.04
251.536	-0.07
251.752	0.03
251.969	-0.04
252.185	-0.03
252.401	0.16
252.617	0.04
252.833	0.03
253.049	0.03
253.265	0.06
253.481	0.07
253.697	-0.05
253.913	-0.08
254.129	0.04
254.345	0.01
254.561	-0.01
254.777	-0.02
254.993	0.08
255.209	-0.04
255.425	-0.03
255.641	-0.08
255.857	0.08
256.073	0.01
256.288	-0.11
256.504	-0.01
256.72	-0.05
256.936	0.14
257.152	-0.01
257.367	-0.1
257.583	0.07
257.799	0.07
258.015	-0.04
258.23	-0.08
258.446	0.14
258.662	-0.01
258.877	-0.07
259.093	-0.07
259.309	0.02
259.524	0.06
259.74	-0.08
259.955	-0.08
260.171	0.01
260.387	-0.02
260.602	0.07
260.818	0.02
261.033	-0.04
261.249	-0
261.464	-0.03
261.68	-0.13
261.895	-0.04
262.11	0.09
262.326	0.02
262.541	-0.06
262.757	0.09
262.972	0
263.187	-0.04
263.403	-0.01
263.618	0.07
263.833	0.08
264.049	-0.07
264.264	0.02
264.479	0.12
264.694	0.12
264.91	-0.08
265.125	-0.08
265.34	0.03
265.555	0.15
265.77	0.02
265.986	-0.03
266.201	-0
266.416	0.12
266.631	0.02
266.846	-0.04
267.061	0.07
267.276	0.06
267.491	-0.08
267.706	0.02
267.921	0.05
268.136	0.08
268.351	-0.01
268.566	-0.09
268.781	0.1
268.996	0.12
269.211	-0.05
269.426	-0.04
269.641	-0.04
269.856	0.08
270.071	-0.05
270.285	-0.08
270.5	0.06
270.715	0.03
270.93	0.01
271.145	0.06
271.359	0.07
271.574	-0.07
271.789	0.04
272.004	-0.09
272.218	0.03
272.433	0.11
272.648	-0.11
272.862	0.09
273.077	0
273.292	0.02
273.506	0.01
273.721	-0
273.936	0.03
274.15	0.05
274.365	-0.03
274.579	0.02
274.794	0.01
275.008	0.02
275.223	-0.1
275.437	0.05
275.652	0.03
275.866	0.02
276.081	-0.01
276.295	0.07
276.509	0.02
276.724	0.02
276.938	-0
277.153	0.03
277.367	0.06
277.581	0
277.796	-0.03
278.01	-0.05
278.224	0.06
278.438	0.19
278.653	-0
278.867	-0.03
279.081	0.06
279.295	-0.03
279.51	0.01
279.724	-0.05
279.938	0.09
280.152	0.04
280.366	-0.05
280.58	0.08
280.794	0.08
281.008	0.08
281.222	0.09
281.437	0.08
281.651	-0.01
281.865	0.06
282.079	-0.02
282.293	-0.11
282.507	-0.04
282.721	-0.04
282.935	0
283.148	-0.03
283.362	-0.09
283.576	-0.04
283.79	0
284.004	-0.05
284.218	0.12
284.432	-0.06
284.646	-0.01
284.859	0
285.073	-0.02
285.287	0.07
285.501	0.01
285.714	0.06
285.928	-0.01
286.142	-0.01
286.356	-0.03
286.569	0.01
286.783	0.12
286.997	0.06
287.21	-0.01
287.424	0.01
287.637	-0.02
287.851	0.05
288.065	0.07
288.278	-0.01
288.492	0.01
288.705	0.06
288.919	-0
289.132	-0.05
289.346	0.11
289.559	-0.07
289.773	-0.06
289.986	0.01
290.2	0.02
290.413	0.05
290.626	-0.03
290.84	0
291.053	-0.01
291.267	0.04
291.48	-0.02
291.693	-0.01
291.906	-0.01
292.12	0.03
292.333	-0.02
292.546	-0.02
292.76	0.08
292.973	0.03
293.186	0.01
293.399	-0.01
293.612	0.03
293.826	0.04
294.039	0.02
294.252	0.03
294.465	0.07
294.678	0.05
294.891	0.02
295.104	-0.05
295.317	0.04
295.53	-0
295.743	0
295.956	0.01
296.169	0.09
296.382	0.07
296.595	0.01
296.808	-0.04
297.021	0.08
297.234	0.05
297.447	0.02
297.66	0.02
297.873	0.07
298.086	0.08
298.299	-0.01
298.511	-0.04
298.724	0.04
298.937	-0.02
299.15	-0
299.363	0.02
299.575	0.05
299.788	0.07
300.001	-0
300.213	-0.01
300.426	-0.01
300.639	-0
300.852	-0.04
301.064	0.06
301.277	0.07
301.489	0.05
301.702	0.04
301.915	0.06
302.127	0.03
302.34	0.04
302.552	0.01
302.765	-0.03
302.977	0.04
303.19	-0.03
303.402	0.03
303.615	0.01
303.827	-0
304.04	0.03
304.252	-0
304.464	-0.01
304.677	0.12
304.889	0.04
305.102	-0
305.314	-0.01
305.526	0.1
305.739	0.03
305.951	-0.03
306.163	-0.05
306.375	0.04
306.588	-0.04
306.8	-0
307.012	-0.01
307.224	0.06
307.436	0.05
307.649	-0.07
307.861	0.03
308.073	0.05
308.285	0.05
308.497	-0.02
308.709	-0.02
308.921	0.01
309.133	0.08
309.346	0
309.558	0
309.77	0.05
309.982	0.07
310.194	0.06
310.406	-0.02
310.617	0.1
310.829	0.04
311.041	-0.01
311.253	-0.02
311.465	0.04
311.677	0.01
311.889	0.01
312.101	-0.03
312.313	0.03
312.524	0.08
312.736	-0.04
312.948	-0.03
313.16	0.06
313.372	0.05
313.583	-0.02
313.795	-0.04
314.007	-0
314.218	0.05
314.43	0.03
314.642	-0.01
314.853	-0.04
315.065	0.07
315.277	0.01
315.488	0.01
315.7	0.06
315.912	-0
316.123	0.02
316.335	0.01
316.546	0.13
316.758	0.01
316.969	-0.02
317.181	0.02
317.392	0.04
317.604	0.05
317.815	-0.03
318.026	-0.03
318.238	-0.03
318.449	0.01
318.661	-0.09
318.872	-0.05
319.083	-0.05
319.295	-0
319.506	-0.02
319.717	0.01
319.929	0.05
320.14	-0
320.351	0.04
320.562	0.01
320.774	0.02
320.985	0.05
321.196	-0.02
321.407	-0.05
321.618	0.03
321.829	0.04
322.041	0.08
322.252	-0.01
322.463	0.08
322.674	0.01
322.885	-0.05
323.096	0
323.307	-0
323.518	0.04
323.729	-0.02
323.94	0.03
324.151	-0.01
324.362	0.03
324.573	0.02
324.784	0.02
324.995	0.07
325.206	0.06
325.417	-0.01
325.628	0.01
325.838	0.05
326.049	-0.01
326.26	0
326.471	0.05
326.682	0.05
326.892	0.07
327.103	-0.04
327.314	-0
327.525	0.06
327.735	0.04
327.946	-0.02
328.157	-0.02
328.368	0.07
328.578	-0.01
328.789	0.07
328.999	0.02
329.21	0.01
329.421	0.05
329.631	-0
329.842	0.01
330.052	0.01
330.263	0.05
330.473	0.02
330.684	-0
330.894	0.03
331.105	0.01
331.315	0.01
331.526	-0.04
331.736	0.11
331.947	0.03
332.157	0.02
332.367	-0.02
332.578	0.05
332.788	0.08
332.999	0.02
333.209	0.05
333.419	-0.05
333.629	0.06
333.84	0.04
334.05	0.03
334.26	0.03
334.47	0.03
334.681	0.08
334.891	-0.01
335.101	0.06
335.311	0.08
335.521	0.04
335.732	-0.01
335.942	0.05
336.152	0.07
336.362	0.03
336.572	0.02
336.782	0.07
336.992	0.02
337.202	-0.02
337.412	-0.02
337.622	0.01
337.832	0.04
338.042	0.01
338.252	0.03
338.462	-0
338.672	0.02
338.882	0.01
339.092	-0.01
339.302	0.07
339.511	0.04
339.721	-0.02
339.931	0.02
340.141	0.06
340.351	0.06
340.561	0.04
340.77	0.01
340.98	0.01
341.19	0.03
341.4	0.02
341.609	-0.03
341.819	0.01
342.029	-0.02
342.238	0.01
342.448	0.02
342.658	0.06
342.867	0.03
343.077	0.01
343.286	0.05
343.496	0.02
343.706	0.12
343.915	-0.02
344.125	-0.01
344.334	0.06
344.544	0
344.753	0.01
344.963	-0.02
345.172	0
345.381	0.01
345.591	-0.03
345.8	0.03
346.01	0.1
346.219	0.09
346.428	-0.15
346.638	0.03
346.847	-0
347.056	0.07
347.266	-0.03
347.475	0.06
347.684	0.03
347.893	0.01
348.103	0.04
348.312	0.01
348.521	0.02
348.73	0.03
348.94	0.04
349.149	0.02
349.358	0.02
349.567	-0.02
349.776	-0.04
349.985	-0
350.194	0.05
350.403	0.04
350.612	0.02
350.821	0.01
351.03	-0
351.239	-0.02
351.448	0.04
351.657	-0.05
351.866	0.09
352.075	0.06
352.284	-0.02
352.493	-0.03
352.702	0.04
352.911	0.02
353.12	0.03
353.329	0.01
353.538	0.05
353.746	0.04
353.955	-0
354.164	0.06
354.373	0.01
354.582	0.07
354.79	0.03
354.999	0.03
355.208	0.02
355.416	0.08
355.625	-0.06
355.834	-0.02
356.042	0.01
356.251	-0.01
356.46	-0.01
356.668	0.07
356.877	0.11
357.085	0.12
357.294	-0.02
357.503	0.04
357.711	0.01
357.92	0.13
358.128	0.08
358.337	0.01
358.545	0.03
358.754	0
358.962	0.06
359.17	0.02
359.379	0.04
359.587	0.09
359.796	0.03
360.004	0.08
360.212	0.04
360.421	0.07
360.629	0.01
360.837	0.03
361.046	0.05
361.254	0.13
361.462	0.06
361.67	0.02
361.879	0.02
362.087	0.07
362.295	0.03
362.503	-0.01
362.711	-0.02
362.92	0.04
363.128	0.01
363.336	-0.02
363.544	-0.04
363.752	0.02
363.96	0.01
364.168	0.01
364.376	0.01
364.584	0.01
364.792	0.05
365	0.07
365.208	0.04
365.416	-0.01
365.624	0.04
365.832	0.03
366.04	0.07
366.248	0.04
366.456	0.06
366.664	0.02
366.872	0.07
367.079	0.04
367.287	0.02
367.495	0.05
367.703	0.01
367.911	0
368.118	0.01
368.326	0.01
368.534	-0.02
368.742	0.09
368.949	-0
369.157	-0.01
369.365	0.05
369.572	0.01
369.78	-0.02
369.988	0.06
370.195	0.05
370.403	0.05
370.61	0
370.818	0.03
371.026	0.1
371.233	0.01
371.441	0.05
371.648	0.01
371.856	0.07
372.063	0.03
372.271	0.02
372.478	0.01
372.685	0.02
372.893	0.08
373.1	0.03
373.308	-0.01
373.515	0.11
373.722	0.08
373.93	-0.01
374.137	0.07
374.344	0.11
374.552	0.08
374.759	0.04
374.966	-0.01
375.173	-0.01
375.381	0.1
375.588	0.02
375.795	-0.03
376.002	0.01
376.209	0
376.417	0.02
376.624	-0.01
376.831	0.05
377.038	0.02
377.245	0
377.452	0.02
377.659	0.03
377.866	0.03
378.073	0.05
378.28	0.02
378.487	0.08
378.694	0.04
378.901	0.02
379.108	0.08
379.315	0.1
379.522	0.16
379.729	0.08
379.936	0.03
380.143	0.07
380.35	0.07
380.557	0.02
380.763	0.09
380.97	0.06
381.177	0.07
381.384	0.06
381.591	0.01
381.797	0.06
382.004	0.09
382.211	0.07
382.418	0.09
382.624	0.1
382.831	0.08
383.038	0.05
383.244	0.06
383.451	0.06
383.658	0.09
383.864	0.02
384.071	-0.02
384.277	0.16
384.484	0.02
384.69	0.14
384.897	0.05
385.103	0.05
385.31	0.01
385.516	0.1
385.723	0.05
385.929	0.07
386.136	0.09
386.342	0.13
386.549	0.1
386.755	0.15
386.961	0.1
387.168	0.12
387.374	0.11
387.58	0.18
387.787	0.16
387.993	0.14
388.199	0.16
388.406	0.16
388.612	0.17
388.818	0.2
389.024	0.18
389.231	0.19
389.437	0.23
389.643	0.26
389.849	0.26
390.055	0.18
390.261	0.23
390.467	0.31
390.674	0.22
390.88	0.31
391.086	0.31
391.292	0.29
391.498	0.37
391.704	0.37
391.91	0.34
392.116	0.34
392.322	0.3
392.528	0.49
392.734	0.43
392.94	0.49
393.146	0.46
393.352	0.54
393.557	0.52
393.763	0.55
393.969	0.61
394.175	0.61
394.381	0.66
394.587	0.63
394.792	0.72
394.998	0.83
395.204	0.87
395.41	0.86
395.615	0.94
395.821	1.02
396.027	1.04
396.233	1.1
396.438	1.08
396.644	1.3
396.85	1.25
397.055	1.31
397.261	1.39
397.466	1.57
397.672	1.47
397.878	1.61
398.083	1.71
398.289	1.71
398.494	1.85
398.7	1.9
398.905	1.91
399.111	2.07
399.316	2.04
399.522	2.18
399.727	2.29
399.932	2.4
400.138	2.49
400.343	2.68
400.549	2.67
400.754	2.96
400.959	3.02
401.165	3.18
401.37	3.32
401.575	3.66
401.78	3.6
401.986	3.81
402.191	3.91
402.396	4.07
402.601	4.3
402.807	4.46
403.012	4.53
403.217	4.97
403.422	4.94
403.627	5.14
403.832	5.33
404.037	5.45
404.243	5.55
404.448	5.69
404.653	5.91
404.858	6.05
405.063	6.01
405.268	6.3
405.473	6.4
405.678	6.45
405.883	6.79
406.088	6.86
406.293	6.73
406.498	6.99
406.703	6.92
406.907	7.09
407.112	7.23
407.317	7.63
407.522	7.69
407.727	7.63
407.932	7.7
408.136	7.9
408.341	7.59
408.546	7.66
408.751	7.66
408.956	7.51
409.16	7.7
409.365	7.57
409.57	7.33
409.774	7.25
409.979	7.27
410.184	7.15
410.388	6.94
410.593	7.08
410.798	6.86
411.002	6.8
411.207	6.69
411.411	6.53
411.616	6.27
411.82	6.3
412.025	6.01
412.229	5.9
412.434	5.77
412.638	5.57
412.843	5.35
413.047	5.24
413.252	5.11
413.456	5.07
413.66	4.84
413.865	4.75
414.069	4.54
414.273	4.43
414.478	4.25
414.682	4.03
414.886	4.05
415.091	3.8
415.295	3.76
415.499	3.77
415.703	3.54
415.908	3.56
416.112	3.34
416.316	3.46
416.52	3.23
416.724	3.14
416.929	3.05
417.133	3.18
417.337	2.91
417.541	2.95
417.745	2.79
417.949	2.76
418.153	2.66
418.357	2.67
418.561	2.71
418.765	2.5
418.969	2.57
419.173	2.52
419.377	2.4
419.581	2.46
419.785	2.33
419.989	2.23
420.193	2.29
420.397	2.22
420.601	2.2
420.804	2.15
421.008	1.97
421.212	1.97
421.416	1.9
421.62	1.75
421.823	1.77
422.027	1.82
422.231	1.61
422.435	1.58
422.638	1.56
422.842	1.53
423.046	1.44
423.249	1.44
423.453	1.45
423.657	1.35
423.86	1.24
424.064	1.3
424.268	1.35
424.471	1.17
424.675	1.22
424.878	1.13
425.082	1.08
425.285	1.2
425.489	1.05
425.692	1.01
425.896	0.91
426.099	0.98
426.303	0.92
426.506	0.85
426.71	0.92
426.913	0.97
427.116	0.9
427.32	0.8
427.523	0.8
427.726	0.92
427.93	0.75
428.133	0.77
428.336	0.73
428.54	0.68
428.743	0.68
428.946	0.77
429.149	0.69
429.353	0.72
429.556	0.72
429.759	0.63
429.962	0.59
430.165	0.62
430.368	0.59
430.571	0.54
430.775	0.58
430.978	0.54
431.181	0.53
431.384	0.5
431.587	0.49
431.79	0.51
431.993	0.48
432.196	0.47
432.399	0.48
432.602	0.57
432.805	0.43
433.008	0.47
433.211	0.44
433.414	0.5
433.616	0.51
433.819	0.44
434.022	0.35
434.225	0.47
434.428	0.51
434.631	0.55
434.833	0.37
435.036	0.42
435.239	0.44
435.442	0.4
435.645	0.36
435.847	0.38
436.05	0.42
436.253	0.39
436.455	0.3
436.658	0.37
436.861	0.46
437.063	0.34
437.266	0.36
437.468	0.37
437.671	0.46
437.874	0.32
438.076	0.26
438.279	0.23
438.481	0.27
438.684	0.3
438.886	0.33
439.089	0.22
439.291	0.24
439.494	0.29
439.696	0.25
439.899	0.28
440.101	0.32
440.303	0.24
440.506	0.31
440.708	0.27
440.91	0.3
441.113	0.18
441.315	0.25
441.517	0.18
441.72	0.34
441.922	0.23
442.124	0.21
442.326	0.29
442.529	0.27
442.731	0.16
442.933	0.32
443.135	0.19
443.337	0.15
443.539	0.21
443.742	0.15
443.944	0.21
444.146	0.2
444.348	0.22
444.55	0.16
444.752	0.15
444.954	0.14
445.156	0.15
445.358	0.16
445.56	0.22
445.762	0.09
445.964	0.17
446.166	0.13
446.368	0.12
446.57	0.16
446.772	0.08
446.974	0.16
447.175	0.18
447.377	0.1
447.579	0.17
447.781	0.08
447.983	0.2
448.184	0.2
448.386	0.15
448.588	0.06
448.79	0.15
448.991	0.1
449.193	0.08
449.395	0.16
449.597	0.16
449.798	0.15
450	0.16
450.202	0.1
450.403	0.13
450.605	0.15
450.806	0.14
451.008	0.06
451.21	0.11
451.411	0.16
451.613	0.15
451.814	0.1
452.016	0.12
452.217	0.11
452.419	0.15
452.62	0.14
452.821	0.09
453.023	0.14
453.224	0.17
453.426	0.17
453.627	0.12
453.828	0.14
454.03	0.12
454.231	0.14
454.432	0.08
454.634	0.18
454.835	0.05
455.036	0.05
455.238	0.17
455.439	0.19
455.64	0.07
455.841	0.1
456.042	0.17
456.244	0.13
456.445	0.09
456.646	0.03
456.847	0.12
457.048	0.21
457.249	0.14
457.45	0.32
457.651	0.05
457.852	0.13
458.054	0.11
458.255	0.07
458.456	0.14
458.657	0.09
458.858	0.09
459.058	0.16
459.259	0.18
459.46	0.11
459.661	0.11
459.862	0.15
460.063	0.04
460.264	0.18
460.465	-0.01
460.666	0.22
460.866	0.13
461.067	0.09
461.268	0.04
461.469	0.05
461.67	0.06
461.87	0.08
462.071	0.12
462.272	0.04
462.473	0.09
462.673	0.15
462.874	0.04
463.075	0.11
463.275	0.09
463.476	0.05
463.676	0.09
463.877	0.1
464.078	0.12
464.278	0.12
464.479	0.07
464.679	0.12
464.88	0.11
465.08	0.2
465.281	0.11
465.481	0.05
465.682	0.1
465.882	0.09
466.083	0.13
466.283	0.09
466.483	0.08
466.684	0.05
466.884	0.07
467.085	0.06
467.285	0.12
467.485	0.04
467.686	0.05
467.886	0.06
468.086	0.1
468.286	0.08
468.487	0.05
468.687	0.02
468.887	0.06
469.087	0.15
469.287	0.07
469.488	0.01
469.688	0.12
469.888	0.11
470.088	0.13
470.288	0.13
470.488	0.16
470.688	0.02
470.888	0.06
471.088	0.05
471.288	0.1
471.488	0.13
471.688	0.11
471.888	0.04
472.088	0.14
472.288	0.17
472.488	0.06
472.688	0.05
472.888	0.1
473.088	0.05
473.288	0.1
473.488	0.08
473.688	0.12
473.887	0.06
474.087	0.04
474.287	0.08
474.487	0.05
474.687	0.07
474.886	0.05
475.086	0.04
475.286	0.1
475.486	0.09
475.685	0.08
475.885	0.04
476.085	0.07
476.284	0.09
476.484	0.05
476.684	0.1
476.883	0.12
477.083	0.08
477.282	0.05
477.482	0.13
477.681	0.14
477.881	0.07
478.08	0.02
478.28	0.04
478.479	0.11
478.679	0.12
478.878	0.04
479.078	0.02
479.277	0.03
479.477	0.03
479.676	0.1
479.875	0.07
480.075	0
480.274	0.06
480.473	0.09
480.673	0.04
480.872	0.07
481.071	0.07
481.271	0.06
481.47	0.03
481.669	0.04
481.868	-0.01
482.067	0.03
482.267	0.02
482.466	0.04
482.665	0.03
482.864	0
483.063	0
483.262	0.03
483.461	0.08
483.661	0.1
483.86	0.06
484.059	0.02
484.258	0.07
484.457	0.02
484.656	0.03
484.855	0.08
485.054	0.01
485.253	0
485.452	-0.02
485.651	0.02
485.849	0.03
486.048	0.01
486.247	0.02
486.446	0.07
486.645	0
486.844	0.01
487.043	0.03
487.241	0.05
487.44	0.03
487.639	0.04
487.838	0.04
488.037	0.05
488.235	0.07
488.434	0.04
488.633	0.02
488.831	0.06
489.03	0.07
489.229	0.05
489.427	0.04
489.626	0.06
489.825	0.1
490.023	0.05
490.222	0.01
490.42	0.06
490.619	0.06
490.817	0.03
491.016	0.03
491.214	0.05
491.413	0
491.611	0.03
491.81	0.03
492.008	0.04
492.207	0.09
492.405	0.04
492.604	0.01
492.802	0.01
493	0.05
493.199	0.01
493.397	0.04
493.595	0.04
493.794	0.01
493.992	0.06
494.19	0.04
494.388	0.06
494.587	0.01
494.785	0.03
494.983	-0
495.181	0.02
495.379	0.05
495.578	0.02
495.776	0.03
495.974	0.05
496.172	0.04
496.37	0.04
496.568	0
496.766	0
496.964	0.03
497.162	0.04
497.36	0.01
497.558	0.03
497.756	0.04
497.954	0.02
498.152	0.01
498.35	0.01
498.548	0.01
498.746	0.02
498.944	0.01
499.142	0.02
499.34	0.01
499.538	0.02
499.736	0.01
499.933	0.05
500.131	0.05
500.329	0.03
500.527	0.03
500.725	0.07
500.922	0.07
501.12	0.04
501.318	0.02
501.516	0.01
501.713	0.03
501.911	0.01
502.109	0
502.306	0.04
502.504	0.02
502.701	0.03
502.899	0.02
503.097	0.06
503.294	0.03
503.492	0.01
503.689	0.03
503.887	0.04
504.084	0.06
504.282	0.02
504.479	-0.01
504.677	0.03
504.874	-0.01
505.072	0.05
505.269	0.04
505.466	0.04
505.664	0.02
505.861	-0.02
506.059	0.01
506.256	0.05
506.453	0.01
506.651	0.06
506.848	0.03
507.045	0.02
507.242	0.02
507.44	0.02
507.637	0.02
507.834	0.03
508.031	0.03
508.229	-0.01
508.426	0.01
508.623	0.04
508.82	0.02
509.017	-0
509.214	0.02
509.411	0.03
509.608	-0.01
509.805	0.02
510.003	0
510.2	0.01
510.397	0.04
510.594	0
510.791	-0.01
510.988	0.03
511.184	0.05
511.381	0.01
511.578	0.01
511.775	0.05
511.972	0.02
512.169	0
512.366	0.01
512.563	0.05
512.76	0.01
512.956	0.05
513.153	0
513.35	0.03
513.547	-0
513.744	-0
513.94	0
514.137	0.03
514.334	0.02
514.53	0
514.727	0.03
514.924	0.05
515.12	0.01
515.317	0.01
515.514	0
515.71	-0.02
515.907	0.01
516.103	0.01
516.3	0.02
516.497	0.04
516.693	0.03
516.89	0.02
517.086	0.01
517.283	0.04
517.479	0.01
517.676	0.01
517.872	0.01
518.068	-0.01
518.265	0.01
518.461	0
518.658	-0
518.854	0.03
519.05	0.01
519.247	0.02
519.443	0.03
519.639	0.03
519.836	0.01
520.032	0.02
520.228	0.02
520.424	0.06
520.621	0.02
520.817	0.02
521.013	0.03
521.209	0.01
521.405	0.04
521.601	0.02
521.798	0.02
521.994	0.07
522.19	-0.01
522.386	-0.01
522.582	-0
522.778	0.01
522.974	0.02
523.17	0.01
523.366	0.01
523.562	0.03
523.758	0.01
523.954	-0.01
524.15	0.01
524.346	0.03
524.542	0.02
524.738	-0.01
524.934	-0.01
525.129	-0
525.325	0.02
525.521	-0
525.717	0.04
525.913	0.01
526.109	0.02
526.304	0
526.5	0.02
526.696	0.04
526.892	0.01
527.087	0.02
527.283	-0.02
527.479	0.04
527.674	-0.01
527.87	-0.01
528.066	-0
528.261	0.04
528.457	0.01
528.653	0
528.848	0.02
529.044	0.01
529.239	0.02
529.435	0.03
529.63	0.02
529.826	0.06
530.021	0.03
530.217	0.03
530.412	0.01
530.608	0
530.803	0.02
530.999	-0.01
531.194	-0.02
531.389	0.03
531.585	-0.02
531.78	-0
531.975	-0
532.171	0.02
532.366	0.02
532.561	0.01
532.757	-0.02
532.952	0.01
533.147	0.03
533.342	0.01
533.538	-0.02
533.733	0.04
533.928	-0
534.123	0
534.318	0.01
534.513	0.01
534.709	0.04
534.904	-0.01
535.099	0
535.294	0.01
535.489	0.01
535.684	-0.01
535.879	-0.01
536.074	0.03
536.269	0.01
536.464	0.02
536.659	0.03
536.854	0.01
537.049	0.03
537.244	0.02
537.439	0.02
537.634	0.03
537.828	0.02
538.023	0.02
538.218	-0.04
538.413	0
538.608	-0
538.803	0.02
538.997	-0.02
539.192	0.02
539.387	0.03
539.582	0.03
539.776	0.01
539.971	-0
540.166	0.02
540.36	-0.05
540.555	-0.01
540.75	-0
540.944	-0
541.139	-0.02
541.334	0.02
541.528	0
541.723	0.02
541.917	0.01
542.112	-0.03
542.306	-0.01
542.501	0.01
542.695	-0
542.89	-0.01
543.084	0.01
543.279	-0
543.473	0.01
543.668	-0.01
543.862	0
544.056	0.03
544.251	0
544.445	0.01
544.64	0.01
544.834	-0.02
545.028	0.01
545.222	0.01
545.417	0.04
545.611	0.01
545.805	0.01
546	-0.02
546.194	0
546.388	0
546.582	0.02
546.776	-0.01
546.97	0.01
547.165	0.02
547.359	0.05
547.553	-0.01
547.747	-0
547.941	0.02
548.135	-0
548.329	0.01
548.523	0.03
548.717	0.01
548.911	0.02
549.105	0.01
549.299	0.01
549.493	0.03
549.687	0.04
549.881	0.02
550.075	0.01
550.269	-0.02
550.463	0.01
550.657	-0.01
550.85	0.02
551.044	-0
551.238	0.02
551.432	-0.02
551.626	-0.02
551.82	-0
552.013	-0.01
552.207	0.03
552.401	0.04
552.594	-0.01
552.788	0.01
552.982	0
553.176	0.01
553.369	0.02
553.563	0.02
553.756	-0.02
553.95	-0.01
554.144	0.01
554.337	0.04
554.531	0
554.724	0.01
554.918	0.02
555.111	0.04
555.305	0.02
555.498	0.07
555.692	0.03
555.885	-0.02
556.079	0.03
556.272	-0.02
556.466	0.02
556.659	0.02
556.852	0.01
557.046	-0
557.239	0.02
557.432	-0.02
557.626	-0.01
557.819	0.02
558.012	0.03
558.206	0
558.399	-0.01
558.592	0.01
558.785	0.02
558.979	0.01
559.172	0.01
559.365	0.03
559.558	0.02
559.751	0.02
559.944	0.03
560.138	-0.02
560.331	-0.01
560.524	-0
560.717	-0
560.91	-0.01
561.103	0.02
561.296	-0.01
561.489	0.02
561.682	0.02
561.875	0.03
562.068	0.03
562.261	0.04
562.454	0.06
562.647	0.01
562.84	0.02
563.032	0.01
563.225	0.02
563.418	0.03
563.611	-0.01
563.804	-0.01
563.997	-0.03
564.19	-0.02
564.382	0.02
564.575	-0
564.768	0
564.961	0.01
565.153	0
565.346	0.02
565.539	0.01
565.731	0.03
565.924	0
566.117	0.02
566.309	0.02
566.502	-0.02
566.695	0.01
566.887	0.02
567.08	-0.01
567.272	-0.01
567.465	-0.01
567.657	0
567.85	0.01
568.042	0.02
568.235	0.03
568.427	-0.02
568.62	0.01
568.812	0.02
569.005	0.01
569.197	-0.03
569.389	0.01
569.582	0.02
569.774	-0.01
569.966	-0.03
570.159	0
570.351	0.01
570.543	-0.02
570.736	0
570.928	0
571.12	0
571.312	-0.02
571.505	-0.02
571.697	0
571.889	-0
572.081	0.01
572.273	-0.03
572.465	0.05
572.658	-0.01
572.85	0.02
573.042	-0.02
573.234	0
573.426	0.04
573.618	-0.03
573.81	0.01
574.002	0.06
574.194	0.04
574.386	-0.03
574.578	-0.06
574.77	-0.01
574.962	-0.01
575.154	-0.03
575.346	-0.02
575.538	0
575.729	-0.01
575.921	-0.02
576.113	-0.02
576.305	0.03
576.497	-0.01
576.689	0
576.88	-0.01
577.072	0.02
577.264	0
577.456	-0
577.647	-0.04
577.839	0
578.031	0.05
578.223	-0.03
578.414	-0.02
578.606	0.04
578.798	0.01
578.989	-0.02
579.181	-0
579.372	0.01
579.564	-0.01
579.755	0.02
579.947	0.01
580.139	0.02
580.33	-0.02
580.522	-0.01
580.713	-0.04
580.905	-0.01
581.096	0.02
581.287	-0
581.479	-0
581.67	0.02
581.862	0.01
582.053	-0.03
582.244	-0.04
582.436	-0.02
582.627	0.01
582.818	-0.01
583.01	-0.05
583.201	0.02
583.392	0.02
583.583	-0.01
583.775	-0.02
583.966	-0.01
584.157	-0.01
584.348	-0.01
584.54	-0.06
584.731	0
584.922	0.02
585.113	-0.01
585.304	0.05
585.495	0.03
585.686	-0
585.877	0.03
586.068	0.01
586.259	0.02
586.45	0.03
586.641	-0.02
586.832	-0.04
587.023	0.01
587.214	-0.01
587.405	-0.01
587.596	-0.02
587.787	0.03
587.978	0
588.169	-0.04
588.36	-0.02
588.551	0.01
588.742	-0.02
588.932	0.02
589.123	-0.02
589.314	0.02
589.505	0.02
589.696	0.01
589.886	-0.01
590.077	-0.04
590.268	0.01
590.458	-0.04
590.649	-0.04
590.84	0.02
591.03	-0.02
591.221	-0.05
591.412	-0.04
591.602	0.01
591.793	0.04
591.984	-0.03
592.174	-0.01
592.365	0.09
592.555	-0.01
592.746	0.04
592.936	0.03
593.127	0.02
593.317	0.04
593.508	-0.01
593.698	0
593.889	0
594.079	0.02
594.269	-0.01
594.46	0
594.65	-0
594.84	0.01
595.031	-0.03
595.221	-0.01
595.411	-0.04
595.602	0.04
595.792	-0.02
595.982	-0.02
596.172	0.04
596.363	-0.01
596.553	-0.01
596.743	0.01
596.933	-0.01
597.123	0.02
597.314	-0.01
597.504	-0.03
597.694	0.03
597.884	0.03
598.074	0
598.264	-0.03
598.454	0.03
598.644	0.03
598.834	0.02
599.024	-0.05
599.214	-0.02
599.404	0.01
599.594	-0.01
599.784	-0.05
599.974	0.02
600.164	0
600.354	-0.03
600.544	-0.04
600.734	0
600.924	0.04
601.114	-0.01
601.303	-0.02
601.493	-0
601.683	-0
601.873	-0.01
602.063	-0.04
602.252	0.03
602.442	-0.05
602.632	-0.04
602.821	-0.03
603.011	0.03
603.201	-0.01
603.39	-0.04
603.58	-0.02
603.77	0.01
603.959	0.04
604.149	0.03
604.339	-0.01
604.528	0.03
604.718	0.03
604.907	-0.04
605.097	-0.03
605.286	-0.04
605.476	0.02
605.665	0.01
605.855	0
606.044	0
606.234	-0.01
606.423	0
606.612	-0.06
606.802	0.05
606.991	0.03
607.181	-0
607.37	-0.04
607.559	-0.01
607.749	-0.03
607.938	0
608.127	-0.03
608.316	-0
608.506	0
608.695	0
608.884	-0.02
609.073	0.01
609.263	-0.01
609.452	0.03
609.641	-0.01
609.83	-0.02
610.019	-0.03
610.208	-0.03
610.397	0.01
610.586	0.03
610.775	-0.01
610.965	-0.02
611.154	-0.03
611.343	0.02
611.532	-0.03
611.721	-0.01
611.91	-0.02
612.099	0.03
612.287	0.01
612.476	-0.01
612.665	0.02
612.854	-0.01
613.043	0.04
613.232	-0.01
613.421	-0.05
613.61	0
613.798	-0
613.987	0.04
614.176	0
614.365	-0
614.554	0.01
614.742	0.03
614.931	-0.02
615.12	0.04
615.309	-0.01
615.497	-0.02
615.686	-0.01
615.875	-0
616.063	-0
616.252	-0.05
616.44	0.01
616.629	0
616.818	0.01
617.006	-0
617.195	-0.03
617.383	0.01
617.572	0.02
617.76	-0.02
617.949	-0
618.137	0.02
618.326	0.02
618.514	-0.04
618.703	-0.03
618.891	0.07
619.079	-0.05
619.268	0.02
619.456	-0.04
619.644	0.06
619.833	-0.02
620.021	-0.01
620.209	-0.04
620.398	0.01
620.586	0.01
620.774	0.03
620.962	0.01
621.151	0.03
621.339	0
621.527	-0.02
621.715	-0.04
621.903	-0.05
622.092	-0.05
622.28	0.02
622.468	-0.02
622.656	0.03
622.844	0.01
623.032	-0.02
623.22	-0.05
623.408	0.02
623.596	0.03
623.784	0.02
623.972	-0.03
624.16	-0.02
624.348	0.02
624.536	0.01
624.724	-0.05
624.912	-0
625.1	0.03
625.288	-0.03
625.476	-0
625.664	0.02
625.851	-0.04
626.039	-0.01
626.227	-0.01
626.415	-0.05
626.603	-0.05
626.79	-0.02
626.978	0
627.166	0.01
627.354	0.01
627.541	-0.02
627.729	-0.06
627.917	0.02
628.104	0.04
628.292	-0.01
628.48	0.01
628.667	-0.03
628.855	0.02
629.042	-0.01
629.23	-0.02
629.418	-0.03
629.605	0.01
629.793	-0.01
629.98	-0.02
630.168	0.01
630.355	-0.01
630.543	0.02
630.73	-0.04
630.917	0.03
631.105	0.03
631.292	-0.04
631.48	-0.03
631.667	0.04
631.854	-0.01
632.042	-0.02
632.229	-0.04
632.416	-0.02
632.604	-0.02
632.791	-0.01
632.978	0.03
633.165	0.03
633.353	0.05
633.54	0.03
633.727	-0.06
633.914	-0.02
634.101	-0.05
634.289	0.04
634.476	-0.02
634.663	-0.02
634.85	0
635.037	-0.04
635.224	-0.07
635.411	0.02
635.598	0.03
635.785	-0.01
635.972	-0.02
636.159	0.03
636.346	-0.05
636.533	-0.01
636.72	-0.01
636.907	-0.01
637.094	0.02
637.281	0
637.468	0.03
637.655	-0
637.842	-0.01
638.029	-0
638.215	0
638.402	0.01
638.589	-0.01
638.776	0
638.963	-0
639.149	0.03
639.336	0.05
639.523	-0.02
639.709	0
639.896	-0.01
640.083	0.03
640.27	0.04
640.456	-0.01
640.643	-0
640.829	-0.05
641.016	-0.02
641.203	-0.05
641.389	0.04
641.576	0.02
641.762	-0
641.949	-0.03
642.135	0.01
642.322	-0
642.508	-0.05
642.695	-0.02
642.881	-0.04
643.068	-0.02
643.254	-0.05
643.441	0.05
643.627	0.01
643.813	-0.05
644	0.03
644.186	-0.02
644.372	-0.04
644.559	0.03
644.745	-0.05
644.931	-0.06
645.118	0.02
645.304	-0.01
645.49	-0.03
645.676	0
645.862	-0.01
646.049	0.06
646.235	-0
646.421	0.07
646.607	0.08
646.793	-0.01
646.979	-0.02
647.165	-0.02
647.352	-0.01
647.538	0.05
647.724	-0.01
647.91	-0
648.096	0.03
648.282	0.03
648.468	-0.03
648.654	-0
648.84	-0
649.026	0.01
649.212	0
649.397	-0.04
649.583	-0.04
649.769	0.02
649.955	0.02
650.141	0.01
650.327	0.06
650.513	-0.06
650.698	0.04
650.884	-0.05
651.07	-0.05
651.256	-0.02
651.442	-0.02
651.627	-0.02
651.813	-0.02
651.999	0.02
652.184	0.01
652.37	-0.02
652.556	-0
652.741	0.02
652.927	-0.05
653.113	-0.03
653.298	0.02
653.484	0.01
653.669	-0.06
653.855	-0.04
654.04	0
654.226	-0.03
654.412	-0.04
654.597	-0.04
654.782	-0
654.968	0.04
655.153	0.01
655.339	-0.03
655.524	-0.08
655.71	0.03
655.895	-0.02
656.08	-0.03
656.266	0.02
656.451	0.03
656.636	-0.06
656.822	0.01
657.007	-0.06
657.192	-0.02
657.378	-0.05
657.563	-0
657.748	0.03
657.933	0.01
658.118	-0.02
658.304	0
658.489	0.03
658.674	-0.02
658.859	-0.03
659.044	-0.01
659.229	0.02
659.414	-0.03
659.599	-0.04
659.785	-0.05
659.97	-0.02
660.155	0
660.34	-0.01
660.525	-0.01
660.71	-0.02
660.895	0.03
661.08	-0.04
661.264	-0.03
661.449	0.04
661.634	0.03
661.819	-0.01
662.004	0.03
662.189	-0.06
662.374	-0.02
662.559	-0.05
662.743	-0.09
662.928	-0.03
663.113	-0.03
663.298	-0.05
663.483	-0.05
663.667	0
663.852	-0.04
664.037	0.02
664.221	-0.03
664.406	0.01
664.591	0.01
664.775	0.02
664.96	-0.01
665.145	0.03
665.329	0.01
665.514	-0.04
665.698	-0.02
665.883	-0.05
666.068	0.08
666.252	-0
666.437	-0.06
666.621	0.01
666.806	0.07
666.99	-0.02
667.174	-0.06
667.359	0.09
667.543	-0.02
667.728	-0.02
667.912	-0.07
668.096	0.02
668.281	-0.04
668.465	-0.01
668.649	-0.03
668.834	-0.05
669.018	-0
669.202	-0.03
669.387	-0.02
669.571	0.05
669.755	-0.02
669.939	-0.01
670.124	-0
670.308	0.04
670.492	0.03
670.676	-0
670.86	-0.05
671.044	-0.05
671.228	0
671.413	-0.02
671.597	-0.04
671.781	-0.01
671.965	0.01
672.149	0.01
672.333	0.03
672.517	-0.06
672.701	0.07
672.885	-0.02
673.069	-0.07
673.253	0.04
673.437	-0.02
673.621	-0.05
673.804	-0.02
673.988	-0
674.172	0.01
674.356	-0.06
674.54	-0.02
674.724	0.09
674.908	-0
675.091	0.03
675.275	-0.06
675.459	0.02
675.643	-0.04
675.826	0.04
676.01	0.02
676.194	-0.02
676.377	0.05
676.561	0.05
676.745	0.01
676.928	-0.02
677.112	0.05
677.296	-0.05
677.479	-0.04
677.663	-0.05
677.846	-0.01
678.03	0.02
678.213	-0.05
678.397	0.01
678.58	-0.02
678.764	-0.01
678.947	-0.07
679.131	-0.03
679.314	0.03
679.498	-0.05
679.681	0
679.865	0.02
680.048	-0
680.231	0
680.415	0.03
680.598	0
680.781	-0.03
680.965	-0
681.148	0.04
681.331	-0.05
681.514	0.01
681.698	-0.05
681.881	0.03
682.064	-0.02
682.247	-0.01
682.43	-0.09
682.614	-0.02
682.797	0.01
682.98	0.01
683.163	-0.04
683.346	0.02
683.529	-0.02
683.712	-0.09
683.895	0
684.078	-0.02
684.261	-0.05
684.444	0
684.627	-0.01
684.81	-0.02
684.993	-0.04
685.176	-0.02
685.359	-0
685.542	0
685.725	0.03
685.908	-0.02
686.091	-0.02
686.274	0.04
686.457	0.01
686.639	-0.01
686.822	0
687.005	0
687.188	0.04
687.371	0.07
687.553	0.02
687.736	0.02
687.919	0.1
688.102	0.08
688.284	-0.02
688.467	0.03
688.65	-0.04
688.832	-0
689.015	0.02
689.197	-0.1
689.38	0.05
689.563	0.06
689.745	-0.02
689.928	-0.04
690.11	0
690.293	0.01
690.475	-0.08
690.658	0.04
690.84	-0.05
691.023	-0.03
691.205	-0.02
691.388	-0.01
691.57	0.06
691.752	0.02
691.935	-0.06
692.117	0.03
692.3	0.03
692.482	-0
692.664	0.02
692.847	0.01
693.029	0.07
693.211	0.07
693.393	-0.02
693.576	-0.07
693.758	-0.04
693.94	-0.08
694.122	-0.02
694.304	-0.05
694.487	-0.04
694.669	0.07
694.851	-0.07
695.033	-0.01
695.215	-0.05
695.397	-0.02
695.579	0.02
695.761	-0.01
695.943	-0.09
696.125	0.06
696.308	-0.02
696.49	-0.08
696.671	0.07
696.853	-0.05
697.035	0.11
697.217	-0.02
697.399	0.01
697.581	-0.04
697.763	-0.01
697.945	-0.04
698.127	-0.03
698.309	0.04
698.491	-0.01
698.672	0.01
698.854	0.06
699.036	0.1
699.218	-0.04
699.399	0.06
699.581	0.07
699.763	-0.04
699.945	-0.04
700.126	-0.02
700.308	-0.01
700.49	-0.04
700.671	-0.08
700.853	-0.02
701.035	-0.03
701.216	0.01
701.398	-0.01
701.579	-0.03
701.761	0.05
701.943	-0.05
702.124	-0.08
702.306	-0.07
702.487	0.13
702.669	-0.02
702.85	-0.04
703.031	-0.05
703.213	0.04
703.394	0.06
703.576	-0.04
703.757	0.04
703.938	0.01
704.12	0.1
704.301	0
704.483	-0.09
704.664	-0.01
704.845	0.05
705.026	0.03
705.208	-0.04
705.389	0
705.57	0
705.751	-0.09
705.933	0
706.114	0.11
706.295	-0.06
706.476	-0.09
706.657	0.01
706.838	-0.03
707.02	0.03
707.201	-0.05
707.382	-0.03
707.563	-0.01
707.744	-0.03
707.925	-0.06
708.106	-0.1
708.287	0.02
708.468	0.12
708.649	-0.06
708.83	0.02
709.011	0.05
709.192	0.07
709.373	-0.12
709.554	-0.02
709.734	-0.03
709.915	0.03
710.096	0.04
710.277	-0.14
710.458	0.06
710.639	0.02
710.819	-0.08
711	0.05
711.181	0.03
711.362	0.01
711.542	0.08
711.723	-0.05
711.904	0.1
712.085	0.01
712.265	-0.03
712.446	-0.06
712.627	-0.01
712.807	-0.05
712.988	-0.02
713.168	-0.09
713.349	0.04
713.53	-0.15
713.71	-0.1
713.891	-0.07
714.071	-0
714.252	-0.1
714.432	-0.02
714.613	-0.12
714.793	0.01
714.974	0.08
715.154	0.09
715.334	0.03
715.515	0.05
715.695	-0.04
715.876	0.01
716.056	-0.07
716.236	-0.04
716.417	-0.01
716.597	-0.03
716.777	0.1
716.957	-0.04
717.138	-0.01
717.318	0.04
717.498	-0.07
717.678	-0
717.859	-0
718.039	-0.12
718.219	0.04
718.399	0.02
718.579	-0.04
718.759	-0.07
718.939	0.02
719.12	-0.03
719.3	-0.02
719.48	-0.16
719.66	-0.1
719.84	-0.02
720.02	0.02
720.2	-0.06
720.38	-0.02
720.56	0.07
720.74	-0
720.92	0.02
721.1	0.1
721.279	0.14
721.459	0.05
721.639	-0.08
721.819	0.02
721.999	-0
722.179	0.1
722.359	-0.04
722.538	0.02
722.718	-0.05
722.898	-0.03
723.078	-0.08
723.257	0.03
723.437	0.04
723.617	0.05
723.797	-0.1
723.976	-0.02
724.156	0.02
724.336	0.05
724.515	0.18
724.695	-0.1
724.874	-0.04
725.054	0.05
725.234	-0.04
725.413	0.05
725.593	-0.11
725.772	0.03
725.952	-0.11
726.131	-0.05
726.311	-0.05
726.49	-0.01
726.67	-0.1
726.849	-0.04
727.028	0.02
727.208	-0.04
727.387	-0.04
727.567	-0.19
727.746	-0.03
727.925	-0.05
728.105	-0.13
728.284	-0.06
728.463	-0.08
728.643	0.01
728.822	-0.12
729.001	-0.16
729.18	-0.01
729.359	0.06
729.539	-0.04
729.718	-0.02
729.897	0.06
730.076	-0.05
730.255	-0.1
730.434	0.02
730.614	-0.02
730.793	0.13
730.972	-0.01
731.151	-0.01
731.33	0.1
731.509	0.02
731.688	-0.01
731.867	-0.03
732.046	-0.19
732.225	0.14
732.404	-0.04
732.583	-0.09
732.762	-0
732.941	-0.02
733.12	0
733.298	0.02
733.477	0.1
733.656	-0.01
733.835	-0.04
734.014	0.03
734.193	0.01
734.371	0.1
734.55	0
734.729	-0.13
734.908	0.04
735.086	0.03
735.265	0.01
735.444	-0.12
735.623	-0.09
735.801	-0.14
735.98	-0.08
736.159	-0.16
736.337	0.11
736.516	0.01
736.694	-0.02
736.873	-0.15
737.052	0.09
737.23	0.04
737.409	-0.03
737.587	0.05
737.766	-0.08
737.944	-0.06
738.123	-0.07
738.301	0.12
738.479	-0.01
738.658	-0.07
738.836	-0.18
739.015	0.03
739.193	0.08
739.371	-0.05
739.55	0.01
739.728	-0.12
739.906	0.08
740.085	0.22
740.263	-0.01
740.441	-0.21
740.62	0.11
740.798	0.08
740.976	-0.09
741.154	-0.01
741.332	0.06
741.511	-0.04
741.689	0.04
741.867	0.1
742.045	-0.01
742.223	-0.01
742.401	-0.12
742.579	-0.06
742.757	0.05
742.935	-0.22
743.114	-0.07
743.292	-0
743.47	-0.04
743.648	-0.08
743.826	-0.11
744.004	0.07
744.181	0.09
744.359	-0.1
744.537	-0.08
744.715	-0.01
744.893	-0.07
745.071	-0.02
745.249	-0.06
745.427	-0.03
745.605	0.04
745.782	-0.05
745.96	0.05
746.138	-0.02
746.316	0.13
746.493	-0.06
746.671	0.01
746.849	-0.06
747.027	0.2
747.204	-0.16
747.382	0.14
747.56	-0.25
747.737	-0.05
747.915	-0.01
748.093	-0.02
748.27	-0.06
748.448	-0.07
748.625	-0.15
748.803	-0.09
748.98	-0.03
749.158	0.01
749.335	0.03
749.513	0.02
749.69	-0.03
749.868	-0.01
750.045	0.1
750.223	-0.17
750.4	-0.16
750.578	0.16
750.755	0.03
750.932	-0.07
751.11	0.06
751.287	-0.14
751.464	0.15
751.642	-0.07
751.819	0.03
751.996	-0.05
752.173	-0.03
752.351	-0.16
752.528	0.01
752.705	-0.07
752.882	-0.14
753.06	0.1
753.237	0.06
753.414	0.07
753.591	0.18
753.768	-0.02
753.945	-0.03
754.122	0.01
754.299	0.17
754.476	-0.05
754.654	-0.01
754.831	0.1
755.008	0.04
755.185	-0.16
755.362	-0.18
755.539	-0.01
755.716	0.02
755.892	-0.04
756.069	-0.04
756.246	-0.08
756.423	-0.04
756.6	0.22
756.777	-0
756.954	0.03
757.131	-0.07
757.307	-0.1
757.484	-0.17
757.661	0.03
757.838	0.04
758.015	-0.17
758.191	0.13
758.368	-0.02
758.545	0.12
758.721	0.14
758.898	-0.16
759.075	0.04
759.251	0.1
759.428	-0.05
759.605	-0.14
759.781	-0.21
759.958	0.14
760.134	0.05
760.311	-0.02
760.488	0.11
760.664	0.1
760.841	-0.11
761.017	-0.07
761.194	0.14
761.37	0.01
761.547	0.11
761.723	-0.11
761.899	0.12
762.076	-0.08
762.252	-0.19
762.429	-0.18
762.605	0.12
762.781	-0.02
762.958	0.08
763.134	-0.09
763.31	-0.13
763.486	0.19
763.663	-0.14
763.839	-0.02
764.015	-0.23
764.191	-0.02
764.368	-0.06
764.544	-0.01
764.72	0
764.896	0.14
765.072	0.07
765.248	0.04
765.425	0.02
765.601	0.02
765.777	0.02
765.953	-0.29
766.129	-0.08
766.305	-0.1
766.481	0.05
766.657	0.02
766.833	0.12
767.009	-0.16
767.185	-0.07
767.361	-0.05
767.537	-0.12
767.713	-0.01
767.889	0
768.065	0.03
768.24	-0.04
768.416	-0
768.592	0.03
768.768	0.16
768.944	-0
769.12	-0.14
769.295	-0.06
769.471	-0.06
769.647	-0.15
769.823	0.14
769.998	-0.07
770.174	-0.11
770.35	0.34
770.525	0.21
770.701	0.01
770.877	-0.03
771.052	-0.1
771.228	0.25
771.403	0.03
771.579	0.19
771.755	0.26
771.93	-0.02
772.106	-0.07
772.281	-0.13
772.457	-0.01
772.632	0.05
772.808	-0.18
772.983	-0.07
773.159	-0.2
773.334	0.22
773.509	-0.1
773.685	-0.13
773.86	0.26
774.036	0.17
774.211	-0.01
774.386	-0.08
774.562	0.13
774.737	0.24
774.912	-0.24
775.087	0.04
775.263	-0.05
775.438	0.04
775.613	-0.01
775.788	-0.13
775.964	0.17
776.139	0.28
776.314	-0.23
776.489	0.04
776.664	0.06
776.839	-0.28
777.014	0.06
777.19	0.16
777.365	0.06
777.54	0.17
777.715	0.02
777.89	0.22
778.065	-0.2
778.24	-0.14
778.415	0.1
778.59	-0.18
778.765	-0.08
778.94	0.06
779.115	-0.04
779.289	-0.16
779.464	-0.04
779.639	-0.02
779.814	-0.32
779.989	-0.19
780.164	0.2
780.339	0.05
780.513	-0.15
780.688	-0.08
780.863	-0.07
781.038	0.19
781.212	-0.25
781.387	0.04
781.562	0.14
781.737	0.01
781.911	0.24
782.086	-0.09
782.261	-0.15
782.435	0.17
782.61	-0.05
782.784	-0.05
782.959	0.32
783.134	-0.16
783.308	-0.21
783.483	-0.07
783.657	0.3
783.832	0.12
784.006	-0.3
784.181	-0.08
784.355	0.24
784.53	0.13
784.704	-0.34
784.878	0.28
785.053	0.12
785.227	0.25
785.402	0.26
785.576	-0.12
785.75	0.1
785.925	-0.05
786.099	-0.03
786.273	-0.05
786.448	-0.06
786.622	0.04
786.796	0.11
786.97	0.02
787.145	0.54
787.319	-0.13
787.493	-0.18
787.667	-0.47
787.841	-0.21
788.015	0.12
788.19	-0.21
788.364	0.01
788.538	0.06
788.712	0.24
788.886	0.05
789.06	0.16
789.234	0.2
789.408	-0.3
789.582	-0.21
789.756	-0.07
789.93	-0.11
790.104	-0.02
790.278	0.07
790.452	-0.2
790.626	0.19
790.8	-0.01
790.973	0.12
791.147	0.25
791.321	0.25
791.495	0.16
791.669	-0.03
791.843	0.08
792.016	-0.1
792.19	0.48
792.364	-0.37
792.538	0.5
792.711	0.13
792.885	-0.13
793.059	-0.13
793.233	-0.62
793.406	0.34
793.58	0.07
793.754	0.05
793.927	-0.19
794.101	0.29
794.274	0.11
794.448	0.19
794.622	-0.03
794.795	0.29
794.969	-0.21
795.142	0.21
795.316	0.03
795.489	-0.15
795.663	0.19
795.836	-0.17
796.009	-0.14
796.183	0.49
796.356	0.21
796.53	-0.08
796.703	-0.11
796.876	0.5
797.05	-0.3
797.223	0.07
797.396	0.04
797.57	0.03
797.743	0.15
797.916	-0.16
798.09	-0.05
798.263	0.11
798.436	0.03
798.609	-0.04
798.782	0.15
798.956	0.01
799.129	-0.05
799.302	-0.07
799.475	-0.22
799.648	-0.05
799.821	-0.01
799.994	0.08
800.167	-0.16
800.34	0.04
800.514	0.02
800.687	-0.3
800.86	0.03
801.033	0.04
801.206	0.07
801.379	-0.16
801.551	0.17
801.724	0.21
801.897	0.34
802.07	-0.04
802.243	-0.46
802.416	-0.23
802.589	0.09
802.762	0.08
802.935	0.01
803.107	-0.01
803.28	0.32
803.453	0.33
803.626	-0.11
803.798	-0.03
803.971	-0.15
804.144	0.21
804.317	-0.08
804.489	0.3
804.662	-0.02
804.835	0.16
805.007	-0.23
805.18	0.15
805.353	0.15
805.525	-0.41
805.698	-0.19
805.87	0.2
806.043	0.45
806.215	-0.56
806.388	-0.28
806.56	0.15
806.733	0.38
806.905	0.12
807.078	-0.15
807.25	-0.26
807.423	0.34
807.595	0.18
807.768	-0.01
807.94	0.31
808.112	-0.09
808.285	0.26
808.457	-0.07
808.629	0.15
808.802	0.09
808.974	0.17
809.146	-0.21
809.318	-0.43
809.491	-0.11
809.663	0.29
809.835	-0.18
810.007	-0.07
810.18	-0.15
810.352	-0.15
810.524	-0.02
810.696	0.33
810.868	0.56
811.04	-0.28
811.212	0.02
811.384	0.35
811.556	-0.37
811.728	-0.09
811.901	0.53
812.073	-0.06
812.245	0.47
812.417	-0.45
812.589	-0.62
812.76	0.16
812.932	0.34
813.104	0.04
813.276	-0.13
813.448	0.53
813.62	-0.19
813.792	-0.08
813.964	0.27
814.136	0.14
814.307	-0.13
814.479	-0.24
814.651	-0.1
814.823	0.61
814.995	-0.16
815.166	0.16
815.338	0
815.51	-0.45
815.681	0.99
815.853	-0.06
816.025	-0.02
816.196	0.68
816.368	0.3
816.54	0.02
816.711	-0.17
816.883	-0
817.054	1.25
817.226	-0.65
817.398	0.03
817.569	-0.17
817.741	0.21
817.912	-0.13
818.084	-0.28
818.255	0.08
818.426	-0.23
818.598	0.01
818.769	-0.44
818.941	0.68
819.112	0.34
819.283	0.19
819.455	-0.57
819.626	0.25
819.798	0.25
819.969	0.3
820.14	-0.26
820.311	0.04
820.483	0.1
820.654	0.03
820.825	-0.22
820.996	-0.1
821.168	-0.23
821.339	-0.02
821.51	-0.48
821.681	-0.34
821.852	-0.02
822.023	-0.32
822.195	-0.43
822.366	0.47
822.537	0.18
822.708	-0.41
822.879	-0.32
823.05	0.85
823.221	-0.33
823.392	0.19
823.563	-0.24
823.734	-0.23
823.905	0.03
824.076	-0.18
824.247	-0.52
824.418	-0.02
824.589	0.54
824.759	-0.22
824.93	-0.13
825.101	-0.75
825.272	0.73
825.443	0.53
825.614	-0.07
825.784	-1.08
825.955	0.68
826.126	0.72
826.297	0.47
826.467	1.15
826.638	1.05
826.809	-0.66
826.98	-0.11
827.15	-0.1
827.321	-0.42
827.492	0.44
827.662	0.16
827.833	1.21
828.003	0.44
828.174	-0.34
828.345	-0.76
828.515	0.82
828.686	0.15
828.856	-0.02
829.027	0.03
829.197	0.4
829.368	0.64
829.538	-0.46
829.709	-0.27
829.879	0.28
830.049	0.14
830.22	-0.61
830.39	-0.01
830.56	0.11
830.731	0.29
830.901	-0.65
831.072	-0.07
831.242	-0.32
831.412	0.31
831.582	-0.24
831.753	-0.78
831.923	0.27
832.093	0.41
832.263	0.28
832.434	-0.13
832.604	-0.28
832.774	0.19
832.944	-0.46
833.114	-0.47
833.284	0.25
833.454	-0.71
833.624	-0.43
833.795	-0.4
833.965	0.7
834.135	0.96
834.305	-0.74
834.475	-0.36
834.645	0.18
834.815	-0.43
834.985	-0.99
835.155	-0.1
835.325	-0.17
835.494	-0.18
835.664	0.18
835.834	-0.5
836.004	-0.45
836.174	0.63
836.344	0.15
836.514	-0.76
836.684	-0.28
836.853	-0.09
837.023	0.11
837.193	-0.05
837.363	0.87
837.532	0.46
837.702	0.17
837.872	-1.07
838.041	0.37
838.211	1.73
838.381	-0.57
838.55	-0.52
838.72	1.7
838.89	1.33
839.059	-0.43
839.229	-0.5
839.398	0.9
839.568	-0.16
839.738	0.39
839.907	0.6
840.077	-0.19
840.246	-0.07
840.416	0.25
840.585	-0.89
840.755	0.39
840.924	0.37
841.093	-1.86
841.263	-0.03
841.432	0.13
841.602	-0.88
841.771	-0.69
841.94	-0.26
842.11	2.24
842.279	0.6
842.448	-0.57
842.617	-0.97
842.787	0.58
842.956	-0.48
843.125	0.14
843.294	0.38
843.464	1.07
843.633	0.02
843.802	-1.48
843.971	-0.39
844.14	0.13
844.309	0.97
844.479	-0.95
844.648	-0.77
844.817	-0.33
844.986	0.28
845.155	-0.29
845.324	-0.29
845.493	0.25
845.662	-0.56
845.831	0.6
846	0.87
846.169	-0.97
846.338	0.84
846.507	0.03
846.676	0.49
846.844	-0.31
847.013	-0.49
847.182	0.17
847.351	-0.03
847.52	-0.11
847.689	0.21
847.858	-0.55
848.026	-0.78
848.195	0.21
848.364	-0.64
848.533	-0.6
848.701	-1.11
848.87	0.46
849.039	1.09
849.207	0.87
849.376	1.17
849.545	1.43
849.713	-0.28
849.882	-0.4
850.051	-0.39
850.219	-0.37
850.388	0.44
850.556	-0.65
850.725	-0.69
850.893	0.47
851.062	-0.83
851.23	0.91
851.399	-0.42
851.567	-0.27
851.736	-0.5
851.904	-1.06
852.073	0.49
852.241	1.11
852.41	0.15
852.578	-0.2
852.746	0.36
852.915	0.63
853.083	-0.25
853.251	-0.93
853.42	-0.4
853.588	-0.39
853.756	0.47
853.924	-1.52
854.093	-0.76
854.261	-0.62
854.429	-1.48
854.597	-1.24
854.765	-1.5
854.934	0.11
855.102	1.32
855.27	-0.47
855.438	0.74
855.606	1.26
855.774	1.85
855.942	-2.14
856.11	-1.1
856.278	0.83
856.446	0.2
856.614	0.02
856.782	-1.11
856.95	1.1
857.118	1.08
857.286	-0.21
857.454	0.43
857.622	0.16
857.79	-0.01
857.958	-1.44
858.126	0.88
858.294	-2.47
858.462	-0.73
858.629	-0.94
858.797	-0.89
858.965	0.31
859.133	-0.08
859.301	-0.28
859.468	1.1
859.636	-0.04
859.804	2.08
859.971	0.42
860.139	0.1
860.307	0.93
860.474	0.59
860.642	-0.55
860.81	-0.45
860.977	-0.86
861.145	0.75
861.313	-0.67
861.48	0.83
861.648	2.03
861.815	-0.13
861.983	-0.63
862.15	-0.94
862.318	-0.6
862.485	1.46
862.653	-1.25
862.82	-0.93
862.988	0.66
863.155	1.08
863.322	-1.08
863.49	-0.67
863.657	-0.76
863.824	1.27
863.992	1.74
864.159	1
864.326	-0.26
864.494	-0.15
864.661	2.05
864.828	-2.51
864.996	1.59
865.163	1.78
865.33	-0.73
865.497	-2.44
865.664	-1.29
865.832	-2.63
865.999	-1.54
866.166	-2.45
866.333	-1.45
866.5	-1.25
866.667	-0.73
866.834	0.1
867.001	1.62
867.168	-0.22
867.335	0.12
867.502	-1.96
867.669	0.57
867.836	2.5
868.003	-0.25
868.17	1.81
868.337	-0.8
868.504	2.08
868.671	-1.63
868.838	-0.02
869.005	0.39
869.172	0.97
869.339	-0.12
869.505	-1.32
869.672	1.64
869.839	1.58
870.006	-0.37
870.173	-1.1
870.339	1.66
870.506	1.93
870.673	-1.95
870.84	3.1
871.006	0.1
871.173	-0.39
871.34	1.01
871.506	-2.3
871.673	0.2
871.839	-1.84
872.006	-0.94
872.173	-0.4
872.339	1.97
872.506	2.39
872.672	0.26
872.839	-2.76
873.005	0.21
873.172	1.39
873.338	1.29
873.505	-0.36
873.671	0.28
873.838	2.36
874.004	-1.51
874.171	-2.32
874.337	1.65
874.503	0.78
874.67	0.52
874.836	-0.7
875.002	2.51
875.169	1.61
875.335	-0.64
875.501	-1.78
875.668	1.35
875.834	-0.4
876	-0.24
876.166	0.72
876.332	-0.21
876.499	4.25
876.665	-1.12
876.831	-0.8
876.997	4.09
877.163	0.74
877.329	-0.45
877.495	-1.64
877.662	1.38
877.828	-0.47
877.994	0.25
878.16	-0.55
878.326	-0.47
878.492	-0.6
878.658	0.12
878.824	1.34
878.99	2.54
879.156	3.53
879.322	2.99
879.487	0.19
879.653	0.31
879.819	0.05
879.985	-2.87
880.151	1.52
880.317	0.68
880.483	1.28
880.648	1.58
880.814	-2.34
880.98	-0.54
881.146	-2.9
881.312	-2.19
881.477	-0.84
881.643	-0.31
881.809	1.8
881.974	3.5
882.14	-0.63
882.306	-0.86
882.471	1.59
882.637	-1.59
882.803	1
882.968	1.77
883.134	2.78
883.299	1
883.465	-0.74
883.63	1.59
883.796	1.48
883.961	0.35
884.127	2.63
884.292	-3.91
884.458	-1.62
884.623	-1.61
