Data from Apollo_Calib_20240827__AbsoluteIrradiance__279__03-48-02-027.txt Node

Date: Wed Aug 28 03:48:02 BST 2024
User: biology
Spectrometer: FLMT08252
Trigger mode: 0
Integration Time (sec): 5.000000E-1
Scans to average: 5
Electric dark correction enabled: true
Nonlinearity correction enabled: false
Boxcar width: 0
XAxis mode: Wavelengths
Number of Pixels in Spectrum: 3648
>>>>>Begin Spectral Data<<<<<
179.588	-0
179.809	-0
180.03	-0
180.251	-0
180.473	-0
180.694	0
180.915	0
181.136	-0
181.357	0
181.578	0
181.799	-0
182.02	-0
182.241	-0
182.462	-0
182.683	0
182.904	-0
183.125	0
183.346	0
183.567	0
183.788	-0
184.009	-0
184.23	0
184.451	0
184.672	0
184.892	-0
185.113	0
185.334	0
185.555	0
185.776	-0
185.996	0
186.217	0
186.438	0
186.659	-0
186.879	0
187.1	-0
187.321	-0
187.541	0
187.762	0
187.983	-0
188.203	-0
188.424	0
188.644	0
188.865	0
189.086	0
189.306	0
189.527	-0
189.747	0
189.968	0
190.188	0
190.409	0
190.629	0
190.849	-0
191.07	0
191.29	0
191.511	0
191.731	0
191.951	-0
192.172	0
192.392	0
192.612	-0
192.833	0
193.053	0
193.273	0
193.493	0
193.714	0
193.934	0
194.154	0
194.374	0
194.594	0
194.815	0
195.035	0
195.255	0
195.475	-0
195.695	0
195.915	0
196.135	-0
196.355	0
196.575	0
196.795	0
197.015	-0
197.235	-0
197.455	0
197.675	0
197.895	-0
198.115	-0
198.335	0
198.555	0
198.775	0
198.995	0
199.214	0
199.434	0
199.654	0
199.874	0
200.094	1.31
200.313	-0.04
200.533	-0.18
200.753	-0.55
200.973	1.47
201.192	0.67
201.412	-1.05
201.632	-0.39
201.851	1.26
202.071	-0.38
202.291	-0.14
202.51	-0
202.73	0.87
202.95	-0.05
203.169	-0.2
203.389	0.37
203.608	0.45
203.828	-0.21
204.047	0.13
204.267	0.85
204.486	0.82
204.706	0.71
204.925	-0.01
205.145	0.01
205.364	0.46
205.583	0.7
205.803	0.31
206.022	-0.3
206.242	0.1
206.461	0.45
206.68	0.04
206.9	0.24
207.119	0.77
207.338	1.09
207.557	0.08
207.777	0.01
207.996	0.02
208.215	0.96
208.434	-0.3
208.654	-0.08
208.873	0.3
209.092	0.62
209.311	0.12
209.53	0.09
209.749	0.12
209.968	0.01
210.187	0.14
210.407	-0.26
210.626	0.11
210.845	0.52
211.064	0.29
211.283	-0.08
211.502	0.34
211.721	0.18
211.94	0.07
212.159	0.39
212.377	0.36
212.596	0.58
212.815	0.32
213.034	0.4
213.253	0.39
213.472	0.37
213.691	0.08
213.91	-0.06
214.128	0.18
214.347	0.24
214.566	-0.32
214.785	-0.17
215.003	0.43
215.222	0.36
215.441	-0
215.66	-0.3
215.878	0.02
216.097	0.38
216.316	-0.06
216.534	-0.04
216.753	0.46
216.972	-0
217.19	0.1
217.409	-0.06
217.627	-0
217.846	0.22
218.064	0.16
218.283	0.02
218.501	0.58
218.72	0.36
218.938	-0.12
219.157	0.03
219.375	0.37
219.594	0.3
219.812	-0.2
220.031	-0.06
220.249	0.46
220.467	0.6
220.686	-0.07
220.904	-0.01
221.122	0.18
221.341	0.49
221.559	0.19
221.777	-0.06
221.995	0.03
222.214	0.26
222.432	-0.04
222.65	0.26
222.868	0.09
223.086	0.05
223.305	0.22
223.523	0.01
223.741	0.5
223.959	0.03
224.177	-0.09
224.395	0.2
224.613	0.27
224.831	0.35
225.049	-0.01
225.267	-0
225.485	0.19
225.703	0.23
225.921	0.08
226.139	0.05
226.357	0.3
226.575	0.28
226.793	0.06
227.011	0.63
227.229	0.28
227.447	0.41
227.665	0.07
227.883	-0.07
228.1	0.13
228.318	0.2
228.536	-0.27
228.754	0.06
228.972	0.05
229.189	0.19
229.407	0.06
229.625	0.07
229.843	0.3
230.06	0.21
230.278	-0.04
230.496	0
230.713	0.15
230.931	0.18
231.149	0.02
231.366	-0.04
231.584	0.18
231.801	0.47
232.019	0.08
232.236	-0.05
232.454	0.09
232.671	0.17
232.889	0.03
233.106	-0.01
233.324	0.09
233.541	0.09
233.759	0.11
233.976	-0.01
234.194	0.16
234.411	0.1
234.628	-0.01
234.846	0.04
235.063	0.1
235.28	0.2
235.498	0.11
235.715	-0.05
235.932	0.3
236.149	0.05
236.367	-0.05
236.584	0.2
236.801	0.08
237.018	0.21
237.236	0.05
237.453	-0.09
237.67	0.19
237.887	0.05
238.104	0.08
238.321	-0.04
238.538	-0.04
238.755	0.24
238.973	-0.06
239.19	0.12
239.407	0.18
239.624	0.13
239.841	-0.03
240.058	-0.08
240.275	0.12
240.492	0.22
240.709	0.01
240.925	-0.04
241.142	0.08
241.359	-0.1
241.576	0.04
241.793	0.05
242.01	0.05
242.227	0.16
242.444	0.06
242.66	0.24
242.877	0.1
243.094	0.01
243.311	0.15
243.527	0.06
243.744	0.07
243.961	0.09
244.178	-0.06
244.394	0.14
244.611	0.25
244.828	0.24
245.044	-0.03
245.261	0.1
245.477	0.14
245.694	0.1
245.911	0.04
246.127	0.08
246.344	0.25
246.56	0.17
246.777	0.07
246.993	0.07
247.21	0.07
247.426	0.04
247.643	-0.06
247.859	0
248.076	0.05
248.292	0.32
248.508	0.06
248.725	0.05
248.941	0.1
249.157	0.16
249.374	0.03
249.59	0.04
249.806	0.06
250.023	0.07
250.239	-0.02
250.455	-0.04
250.671	0.1
250.888	0.09
251.104	0.17
251.32	-0
251.536	0.04
251.752	0.08
251.969	0.1
252.185	0.01
252.401	0.2
252.617	0.16
252.833	-0
253.049	0.08
253.265	0.14
253.481	0.14
253.697	0.03
253.913	-0.01
254.129	0.13
254.345	0.11
254.561	0.03
254.777	0.07
254.993	0.14
255.209	0.1
255.425	-0.02
255.641	-0.02
255.857	0.08
256.073	0.07
256.288	-0.07
256.504	0.02
256.72	0.07
256.936	0.11
257.152	0.09
257.367	0.02
257.583	0.1
257.799	0.12
258.015	0
258.23	-0.04
258.446	0.22
258.662	0.09
258.877	-0.01
259.093	-0.01
259.309	0.1
259.524	0.14
259.74	0.05
259.955	0.01
260.171	0.03
260.387	0.05
260.602	0.13
260.818	0.1
261.033	-0.04
261.249	0.03
261.464	-0.01
261.68	-0.04
261.895	0.1
262.11	0.1
262.326	0.04
262.541	-0.08
262.757	0.08
262.972	0.13
263.187	0.11
263.403	0.03
263.618	0.16
263.833	0.13
264.049	0.01
264.264	-0.01
264.479	0.14
264.694	0.12
264.91	-0.03
265.125	0.04
265.34	0.12
265.555	0.21
265.77	0.05
265.986	0.05
266.201	0.15
266.416	0.21
266.631	0.04
266.846	0.03
267.061	0.07
267.276	0.12
267.491	-0.04
267.706	0.12
267.921	0.12
268.136	0.1
268.351	0.08
268.566	-0.01
268.781	0.15
268.996	0.12
269.211	0.06
269.426	-0.03
269.641	0.13
269.856	0.07
270.071	0.04
270.285	-0.04
270.5	0.09
270.715	0.11
270.93	0.02
271.145	0.15
271.359	0.17
271.574	0.01
271.789	0.08
272.004	0
272.218	0.02
272.433	0.14
272.648	-0.03
272.862	0.13
273.077	0.07
273.292	0
273.506	0.01
273.721	0.02
273.936	0.12
274.15	0.17
274.365	-0.01
274.579	0.06
274.794	0.11
275.008	0.14
275.223	0
275.437	0.04
275.652	0.13
275.866	0.11
276.081	-0
276.295	0.12
276.509	0.1
276.724	0.08
276.938	0.15
277.153	0.04
277.367	0.12
277.581	-0
277.796	0.08
278.01	0.01
278.224	0.13
278.438	0.22
278.653	-0.04
278.867	0.02
279.081	-0.09
279.295	0.03
279.51	0.08
279.724	-0.04
279.938	0.12
280.152	0.07
280.366	-0
280.58	0.05
280.794	0.14
281.008	0.09
281.222	0.11
281.437	0.15
281.651	0.06
281.865	0.16
282.079	0.02
282.293	-0.03
282.507	0.01
282.721	0.06
282.935	0.04
283.148	-0.04
283.362	0.03
283.576	-0.02
283.79	0.04
284.004	0.01
284.218	0.14
284.432	0.06
284.646	0.05
284.859	0.04
285.073	0.06
285.287	0.07
285.501	0.04
285.714	0.04
285.928	0.1
286.142	0.09
286.356	-0
286.569	-0.01
286.783	0.17
286.997	0.13
287.21	0.03
287.424	0.07
287.637	0.09
287.851	0.07
288.065	0.12
288.278	0.02
288.492	0.03
288.705	0.05
288.919	0.1
289.132	-0.04
289.346	0.13
289.559	-0.03
289.773	-0.02
289.986	0.07
290.2	-0.01
290.413	0.11
290.626	0.02
290.84	0.02
291.053	0.04
291.267	0.14
291.48	0.05
291.693	0.09
291.906	0.04
292.12	0.02
292.333	0.02
292.546	0.02
292.76	0.15
292.973	0.11
293.186	0.09
293.399	-0.01
293.612	0.09
293.826	0.03
294.039	0.05
294.252	0
294.465	0.09
294.678	0.05
294.891	0.13
295.104	-0.01
295.317	0.06
295.53	0.05
295.743	0.05
295.956	0.1
296.169	0.13
296.382	0.1
296.595	0.03
296.808	0.02
297.021	0.09
297.234	0.1
297.447	-0.01
297.66	0.06
297.873	0.11
298.086	0.1
298.299	0.02
298.511	-0.01
298.724	0.03
298.937	0
299.15	0.01
299.363	0.03
299.575	0.07
299.788	0.11
300.001	0.05
300.213	-0
300.426	0.03
300.639	0.04
300.852	0
301.064	0.08
301.277	0.13
301.489	0.08
301.702	0.07
301.915	0.04
302.127	0.03
302.34	0.09
302.552	0.05
302.765	0.02
302.977	0.08
303.19	0.05
303.402	0.07
303.615	0.01
303.827	0.02
304.04	0.08
304.252	0.05
304.464	0.02
304.677	0.21
304.889	0.11
305.102	0.01
305.314	0.05
305.526	0.14
305.739	0.11
305.951	0.01
306.163	0.03
306.375	0.14
306.588	0.04
306.8	0.08
307.012	-0
307.224	0.06
307.436	0.13
307.649	-0.04
307.861	0.1
308.073	0.14
308.285	0.08
308.497	0.01
308.709	0.04
308.921	0.08
309.133	0.11
309.346	0.04
309.558	0.02
309.77	0.11
309.982	0.14
310.194	0.09
310.406	0.05
310.617	0.17
310.829	0.09
311.041	0.09
311.253	0.04
311.465	0.03
311.677	0.04
311.889	0.05
312.101	0.03
312.313	0.08
312.524	0.13
312.736	0.01
312.948	0.04
313.16	0.14
313.372	0.1
313.583	0.06
313.795	-0.01
314.007	0.02
314.218	0.13
314.43	0.06
314.642	0.02
314.853	-0.01
315.065	0.16
315.277	0.04
315.488	0.07
315.7	0.08
315.912	0.13
316.123	0.02
316.335	0.04
316.546	0.12
316.758	0.04
316.969	0.03
317.181	0.02
317.392	0.06
317.604	0.12
317.815	0.04
318.026	-0.04
318.238	-0
318.449	0.07
318.661	-0.04
318.872	-0.02
319.083	0.01
319.295	0.09
319.506	0.08
319.717	0.06
319.929	0.05
320.14	0.05
320.351	0.05
320.562	-0.01
320.774	0.07
320.985	0.05
321.196	-0.01
321.407	-0.01
321.618	0.09
321.829	0.1
322.041	0.08
322.252	0.04
322.463	0.06
322.674	0.1
322.885	0.03
323.096	0.02
323.307	0.04
323.518	0.04
323.729	0.02
323.94	0.04
324.151	0.05
324.362	0.08
324.573	0.05
324.784	0.04
324.995	0.11
325.206	0.08
325.417	0.02
325.628	0.05
325.838	0.07
326.049	0.05
326.26	0.12
326.471	0.03
326.682	0.08
326.892	0.07
327.103	-0.03
327.314	0.03
327.525	0.13
327.735	0.1
327.946	0.03
328.157	-0
328.368	0.04
328.578	0.03
328.789	0.1
328.999	0.05
329.21	0.04
329.421	0.08
329.631	0.02
329.842	0.03
330.052	0.08
330.263	0.11
330.473	0.1
330.684	0.03
330.894	0.08
331.105	0.07
331.315	0.08
331.526	0.01
331.736	0.11
331.947	0.07
332.157	0.06
332.367	0.04
332.578	0.11
332.788	0.14
332.999	0.12
333.209	0.05
333.419	-0.03
333.629	0.1
333.84	0.08
334.05	0.04
334.26	0.14
334.47	0.11
334.681	0.09
334.891	0.05
335.101	0.15
335.311	0.19
335.521	0.09
335.732	0.01
335.942	0.11
336.152	0.07
336.362	0.06
336.572	0.08
336.782	0.1
336.992	0.04
337.202	0.08
337.412	-0
337.622	0.11
337.832	0.09
338.042	-0.01
338.252	0.03
338.462	0.04
338.672	0.04
338.882	0
339.092	0.05
339.302	0.14
339.511	0.11
339.721	0.05
339.931	0.04
340.141	0.14
340.351	0.12
340.561	0.08
340.77	0.11
340.98	0.05
341.19	0.11
341.4	0.01
341.609	0.04
341.819	0.06
342.029	0.04
342.238	0.06
342.448	0.05
342.658	0.09
342.867	0.09
343.077	0.12
343.286	0.08
343.496	0.06
343.706	0.11
343.915	0.04
344.125	0.02
344.334	0.1
344.544	0.03
344.753	0.07
344.963	0.02
345.172	0.03
345.381	0.04
345.591	0.01
345.8	0.04
346.01	0.13
346.219	0.15
346.428	-0.08
346.638	0.08
346.847	0.1
347.056	0.12
347.266	0.02
347.475	0.11
347.684	0.11
347.893	0.07
348.103	0.06
348.312	0.05
348.521	0.02
348.73	0.11
348.94	0.08
349.149	0.04
349.358	0.04
349.567	0.05
349.776	-0.04
349.985	0.06
350.194	0.11
350.403	0.11
350.612	0.01
350.821	0.07
351.03	0.01
351.239	0.04
351.448	0.03
351.657	0.05
351.866	0.14
352.075	0.05
352.284	0.14
352.493	0.01
352.702	0.16
352.911	0.05
353.12	0.09
353.329	0.02
353.538	0.09
353.746	0.08
353.955	0.02
354.164	0.07
354.373	0.07
354.582	0.11
354.79	0.06
354.999	0.08
355.208	0.09
355.416	0.11
355.625	-0.01
355.834	0.01
356.042	0.08
356.251	0.06
356.46	-0
356.668	0.08
356.877	0.12
357.085	0.12
357.294	-0.01
357.503	0.08
357.711	0.08
357.92	0.2
358.128	0.1
358.337	0.04
358.545	0.11
358.754	0.07
358.962	0.08
359.17	0.05
359.379	0.09
359.587	0.1
359.796	0.07
360.004	0.12
360.212	0.12
360.421	0.1
360.629	0.05
360.837	0.05
361.046	0.1
361.254	0.17
361.462	0.1
361.67	0.07
361.879	0.07
362.087	0.14
362.295	0.09
362.503	0.05
362.711	0.02
362.92	0.05
363.128	0.05
363.336	-0
363.544	0.02
363.752	0.06
363.96	0
364.168	0.04
364.376	0.05
364.584	0.1
364.792	0.1
365	0.11
365.208	0.05
365.416	0.08
365.624	0.11
365.832	0.03
366.04	0.12
366.248	0.09
366.456	0.11
366.664	0.07
366.872	0.07
367.079	0.07
367.287	0.1
367.495	0.09
367.703	0.06
367.911	0.07
368.118	0.08
368.326	0.03
368.534	0.02
368.742	0.14
368.949	0.02
369.157	0.07
369.365	0.12
369.572	0.04
369.78	0.01
369.988	0.09
370.195	0.11
370.403	0.11
370.61	0.04
370.818	0.08
371.026	0.17
371.233	0.03
371.441	0.05
371.648	0.07
371.856	0.09
372.063	0.11
372.271	0.07
372.478	0.05
372.685	0.03
372.893	0.15
373.1	0.06
373.308	0.06
373.515	0.11
373.722	0.14
373.93	0.05
374.137	0.08
374.344	0.15
374.552	0.09
374.759	0.1
374.966	0.06
375.173	0.06
375.381	0.08
375.588	0.04
375.795	0.03
376.002	0.05
376.209	0.09
376.417	0.04
376.624	0.08
376.831	0.08
377.038	0.11
377.245	-0.01
377.452	0.07
377.659	0.1
377.866	0.07
378.073	0.11
378.28	0.09
378.487	0.11
378.694	0.17
378.901	0.1
379.108	0.06
379.315	0.15
379.522	0.2
379.729	0.09
379.936	0.06
380.143	0.08
380.35	0.12
380.557	0.05
380.763	0.11
380.97	0.12
381.177	0.08
381.384	0.1
381.591	0.09
381.797	0.12
382.004	0.12
382.211	0.12
382.418	0.13
382.624	0.17
382.831	0.16
383.038	0.06
383.244	0.07
383.451	0.1
383.658	0.13
383.864	0.1
384.071	0.06
384.277	0.16
384.484	0.04
384.69	0.17
384.897	0.06
385.103	0.11
385.31	0.06
385.516	0.08
385.723	0.08
385.929	0.09
386.136	0.07
386.342	0.12
386.549	0.08
386.755	0.15
386.961	0.13
387.168	0.09
387.374	0.14
387.58	0.15
387.787	0.15
387.993	0.14
388.199	0.13
388.406	0.1
388.612	0.07
388.818	0.11
389.024	0.1
389.231	0.17
389.437	0.21
389.643	0.16
389.849	0.13
390.055	0.12
390.261	0.18
390.467	0.19
390.674	0.1
390.88	0.14
391.086	0.19
391.292	0.08
391.498	0.21
391.704	0.16
391.91	0.19
392.116	0.15
392.322	0.1
392.528	0.2
392.734	0.17
392.94	0.18
393.146	0.2
393.352	0.21
393.557	0.2
393.763	0.21
393.969	0.24
394.175	0.25
394.381	0.22
394.587	0.19
394.792	0.16
394.998	0.28
395.204	0.31
395.41	0.23
395.615	0.28
395.821	0.25
396.027	0.31
396.233	0.29
396.438	0.29
396.644	0.41
396.85	0.34
397.055	0.32
397.261	0.39
397.466	0.48
397.672	0.37
397.878	0.39
398.083	0.41
398.289	0.29
398.494	0.51
398.7	0.44
398.905	0.31
399.111	0.47
399.316	0.41
399.522	0.49
399.727	0.47
399.932	0.51
400.138	0.51
400.343	0.58
400.549	0.55
400.754	0.6
400.959	0.66
401.165	0.67
401.37	0.73
401.575	0.85
401.78	0.76
401.986	0.75
402.191	0.77
402.396	0.87
402.601	0.9
402.807	0.96
403.012	0.96
403.217	1.11
403.422	1.05
403.627	1.14
403.832	1.13
404.037	1.28
404.243	1.22
404.448	1.34
404.653	1.38
404.858	1.48
405.063	1.49
405.268	1.52
405.473	1.62
405.678	1.69
405.883	1.93
406.088	1.86
406.293	1.89
406.498	1.98
406.703	2.07
406.907	2.15
407.112	2.24
407.317	2.45
407.522	2.59
407.727	2.55
407.932	2.76
408.136	3.02
408.341	2.97
408.546	3.18
408.751	3.19
408.956	3.33
409.16	3.57
409.365	3.69
409.57	3.75
409.774	3.95
409.979	4.02
410.184	4.2
410.388	4.32
410.593	4.6
410.798	4.71
411.002	4.92
411.207	5.04
411.411	5.43
411.616	5.37
411.82	5.76
412.025	6.02
412.229	6.2
412.434	6.51
412.638	6.57
412.843	6.73
413.047	7.05
413.252	7.23
413.456	7.62
413.66	7.88
413.865	7.93
414.069	8.18
414.273	8.49
414.478	8.65
414.682	8.96
414.886	9.32
415.091	9.41
415.295	9.73
415.499	10.28
415.703	10.17
415.908	10.79
416.112	11.01
416.316	11.42
416.52	11.78
416.724	11.98
416.929	12.25
417.133	12.93
417.337	12.92
417.541	13.37
417.745	13.6
417.949	13.93
418.153	14.4
418.357	14.76
418.561	15.41
418.765	15.33
418.969	15.51
419.173	16.51
419.377	16.45
419.581	17.15
419.785	17.46
419.989	17.57
420.193	18.4
420.397	18.5
420.601	18.61
420.804	19.06
421.008	19
421.212	19.37
421.416	19.08
421.62	19.14
421.823	19.22
422.027	19.41
422.231	19.04
422.435	18.75
422.638	18.7
422.842	18.9
423.046	19.23
423.249	19.4
423.453	19.13
423.657	19.16
423.86	19.16
424.064	19.3
424.268	19.12
424.471	19.09
424.675	19.17
424.878	18.97
425.082	18.94
425.285	19.37
425.489	18.52
425.692	18.56
425.896	17.99
426.099	17.99
426.303	17.99
426.506	17.75
426.71	17.78
426.913	17.55
427.116	17.55
427.32	16.81
427.523	16.51
427.726	16.66
427.93	16.41
428.133	16.4
428.336	16.24
428.54	15.79
428.743	15.7
428.946	15.54
429.149	15.03
429.353	14.49
429.556	13.98
429.759	13.6
429.962	13.19
430.165	13.01
430.368	11.91
430.571	11.57
430.775	11.16
430.978	10.71
431.181	10.44
431.384	10.16
431.587	9.8
431.79	9.95
431.993	9.55
432.196	9.52
432.399	9.48
432.602	9.23
432.805	8.92
433.008	9.11
433.211	8.58
433.414	8.75
433.616	8.34
433.819	8.11
434.022	7.92
434.225	7.76
434.428	7.52
434.631	7.61
434.833	7.12
435.036	7.11
435.239	7.01
435.442	6.79
435.645	6.67
435.847	6.46
436.05	6.41
436.253	6.33
436.455	6.05
436.658	5.84
436.861	5.89
437.063	5.59
437.266	5.46
437.468	5.53
437.671	5.47
437.874	5.26
438.076	4.99
438.279	4.99
438.481	4.81
438.684	4.96
438.886	4.65
439.089	4.57
439.291	4.4
439.494	4.44
439.696	4.29
439.899	4.29
440.101	4.3
440.303	4.07
440.506	4.17
440.708	4.04
440.91	3.93
441.113	3.82
441.315	3.85
441.517	3.65
441.72	3.68
441.922	3.32
442.124	3.21
442.326	3.25
442.529	3.25
442.731	3.02
442.933	3.04
443.135	2.84
443.337	2.77
443.539	2.75
443.742	2.62
443.944	2.6
444.146	2.49
444.348	2.46
444.55	2.26
444.752	2.23
444.954	2.13
445.156	2.16
445.358	2.05
445.56	2.14
445.762	2.04
445.964	2.02
446.166	1.89
446.368	1.85
446.57	1.86
446.772	1.73
446.974	1.7
447.175	1.75
447.377	1.6
447.579	1.62
447.781	1.57
447.983	1.56
448.184	1.41
448.386	1.49
448.588	1.38
448.79	1.39
448.991	1.36
449.193	1.41
449.395	1.28
449.597	1.31
449.798	1.3
450	1.25
450.202	1.16
450.403	1.18
450.605	1.19
450.806	1.08
451.008	1.01
451.21	1.07
451.411	1.04
451.613	0.98
451.814	0.97
452.016	1.03
452.217	0.94
452.419	1.03
452.62	0.9
452.821	0.89
453.023	0.97
453.224	0.89
453.426	0.83
453.627	0.83
453.828	0.84
454.03	0.73
454.231	0.83
454.432	0.77
454.634	0.86
454.835	0.73
455.036	0.69
455.238	0.77
455.439	0.81
455.64	0.61
455.841	0.66
456.042	0.76
456.244	0.7
456.445	0.62
456.646	0.55
456.847	0.61
457.048	0.71
457.249	0.68
457.45	0.86
457.651	0.54
457.852	0.64
458.054	0.51
458.255	0.51
458.456	0.58
458.657	0.53
458.858	0.5
459.058	0.52
459.259	0.51
459.46	0.45
459.661	0.46
459.862	0.65
460.063	0.44
460.264	0.54
460.465	0.36
460.666	0.57
460.866	0.41
461.067	0.42
461.268	0.38
461.469	0.38
461.67	0.39
461.87	0.35
462.071	0.38
462.272	0.33
462.473	0.38
462.673	0.43
462.874	0.31
463.075	0.39
463.275	0.34
463.476	0.37
463.676	0.36
463.877	0.43
464.078	0.36
464.278	0.4
464.479	0.3
464.679	0.27
464.88	0.31
465.08	0.35
465.281	0.3
465.481	0.24
465.682	0.29
465.882	0.33
466.083	0.3
466.283	0.33
466.483	0.26
466.684	0.22
466.884	0.19
467.085	0.26
467.285	0.34
467.485	0.26
467.686	0.27
467.886	0.19
468.086	0.23
468.286	0.23
468.487	0.27
468.687	0.16
468.887	0.29
469.087	0.31
469.287	0.21
469.488	0.17
469.688	0.24
469.888	0.33
470.088	0.29
470.288	0.26
470.488	0.3
470.688	0.17
470.888	0.19
471.088	0.16
471.288	0.28
471.488	0.23
471.688	0.23
471.888	0.19
472.088	0.28
472.288	0.25
472.488	0.11
472.688	0.18
472.888	0.2
473.088	0.16
473.288	0.2
473.488	0.15
473.688	0.23
473.887	0.19
474.087	0.18
474.287	0.17
474.487	0.14
474.687	0.19
474.886	0.17
475.086	0.18
475.286	0.16
475.486	0.21
475.685	0.11
475.885	0.16
476.085	0.16
476.284	0.19
476.484	0.13
476.684	0.17
476.883	0.2
477.083	0.18
477.282	0.14
477.482	0.18
477.681	0.19
477.881	0.18
478.08	0.11
478.28	0.08
478.479	0.14
478.679	0.23
478.878	0.1
479.078	0.1
479.277	0.12
479.477	0.15
479.676	0.16
479.875	0.12
480.075	0.07
480.274	0.17
480.473	0.13
480.673	0.08
480.872	0.16
481.071	0.12
481.271	0.14
481.47	0.1
481.669	0.12
481.868	0.1
482.067	0.09
482.267	0.06
482.466	0.09
482.665	0.1
482.864	0.07
483.063	0.04
483.262	0.11
483.461	0.17
483.661	0.13
483.86	0.1
484.059	0.09
484.258	0.08
484.457	0.08
484.656	0.12
484.855	0.13
485.054	0.04
485.253	0.04
485.452	0.05
485.651	0.09
485.849	0.08
486.048	0.07
486.247	0.06
486.446	0.07
486.645	0.02
486.844	0.05
487.043	0.07
487.241	0.11
487.44	0.06
487.639	0.08
487.838	0.08
488.037	0.07
488.235	0.14
488.434	0.08
488.633	0.05
488.831	0.07
489.03	0.1
489.229	0.07
489.427	0.05
489.626	0.11
489.825	0.13
490.023	0.08
490.222	0.05
490.42	0.09
490.619	0.1
490.817	0.09
491.016	0.04
491.214	0.11
491.413	0.05
491.611	0.05
491.81	0.07
492.008	0.11
492.207	0.09
492.405	0.06
492.604	0.04
492.802	0.06
493	0.08
493.199	0.06
493.397	0.06
493.595	0.05
493.794	0.04
493.992	0.09
494.19	0.05
494.388	0.1
494.587	0.06
494.785	0.09
494.983	0.05
495.181	0.07
495.379	0.07
495.578	0.05
495.776	0.08
495.974	0.06
496.172	0.03
496.37	0.06
496.568	0.04
496.766	0.03
496.964	0.09
497.162	0.05
497.36	0.02
497.558	0.08
497.756	0.08
497.954	0.05
498.152	0.04
498.35	0.07
498.548	0.07
498.746	0.07
498.944	0.02
499.142	0.05
499.34	0.03
499.538	0.06
499.736	0.04
499.933	0.1
500.131	0.08
500.329	0.04
500.527	0.11
500.725	0.06
500.922	0.1
501.12	0.06
501.318	0.07
501.516	0.05
501.713	0.06
501.911	0.03
502.109	0.02
502.306	0.07
502.504	0.04
502.701	0.03
502.899	0.03
503.097	0.08
503.294	0.05
503.492	0.04
503.689	0.07
503.887	0.08
504.084	0.1
504.282	0.05
504.479	0.02
504.677	0.08
504.874	0.03
505.072	0.05
505.269	0.03
505.466	0.05
505.664	0.05
505.861	0.01
506.059	0.04
506.256	0.07
506.453	0.02
506.651	0.09
506.848	0.07
507.045	0.06
507.242	0.06
507.44	0.03
507.637	0.03
507.834	0.03
508.031	0.07
508.229	0.01
508.426	0.04
508.623	0.05
508.82	0.04
509.017	0.02
509.214	0.02
509.411	0.03
509.608	0.02
509.805	0.05
510.003	0.03
510.2	0.03
510.397	0.06
510.594	0.01
510.791	0.03
510.988	0.03
511.184	0.07
511.381	0.05
511.578	0.02
511.775	0.08
511.972	0.02
512.169	0.05
512.366	0.04
512.563	0.06
512.76	0.04
512.956	0.07
513.153	0.04
513.35	0.05
513.547	0.03
513.744	0.02
513.94	0.01
514.137	0.05
514.334	0.02
514.53	0.05
514.727	0.04
514.924	0.07
515.12	0.03
515.317	0
515.514	0
515.71	0
515.907	0.03
516.103	0.04
516.3	0.05
516.497	0.07
516.693	0.07
516.89	0.03
517.086	0.01
517.283	0.08
517.479	0.06
517.676	0.03
517.872	0.05
518.068	0.03
518.265	0.03
518.461	0.01
518.658	0.04
518.854	0.05
519.05	0.04
519.247	0.02
519.443	0.07
519.639	0.05
519.836	0.06
520.032	0.04
520.228	0.04
520.424	0.08
520.621	0.04
520.817	0.01
521.013	0.05
521.209	0.06
521.405	0.08
521.601	0.03
521.798	0.04
521.994	0.06
522.19	-0.01
522.386	0
522.582	0.04
522.778	0.03
522.974	0.01
523.17	0.04
523.366	0.03
523.562	0.07
523.758	0.06
523.954	0
524.15	0.02
524.346	0.04
524.542	0.03
524.738	0.01
524.934	0.03
525.129	0.03
525.325	0.04
525.521	0.02
525.717	0.08
525.913	0.04
526.109	0.04
526.304	0.01
526.5	0.05
526.696	0.07
526.892	0.03
527.087	0.02
527.283	0.01
527.479	0.06
527.674	0.02
527.87	0.01
528.066	0.03
528.261	0.05
528.457	0.05
528.653	0
528.848	0.02
529.044	0.04
529.239	0.05
529.435	0.06
529.63	0.03
529.826	0.08
530.021	0.04
530.217	0.07
530.412	0.01
530.608	0.01
530.803	0.03
530.999	0.02
531.194	-0.01
531.389	0.06
531.585	-0.01
531.78	0.03
531.975	0.02
532.171	0.07
532.366	0.02
532.561	0.04
532.757	0
532.952	0.01
533.147	0.07
533.342	0.03
533.538	0.01
533.733	0.06
533.928	0.04
534.123	0.03
534.318	0
534.513	0.03
534.709	0.03
534.904	0.01
535.099	0.03
535.294	0.03
535.489	0.03
535.684	0.01
535.879	-0
536.074	0.05
536.269	0.02
536.464	0.03
536.659	0.03
536.854	0.03
537.049	0.04
537.244	0.02
537.439	0
537.634	0.07
537.828	0.05
538.023	0.03
538.218	0
538.413	0.03
538.608	0.01
538.803	0.04
538.997	-0
539.192	0.06
539.387	0.05
539.582	0.03
539.776	0.03
539.971	0.03
540.166	0.06
540.36	-0.01
540.555	0.03
540.75	0.01
540.944	0.03
541.139	-0.02
541.334	0.04
541.528	0.05
541.723	0.07
541.917	0.01
542.112	-0.01
542.306	0.03
542.501	0.03
542.695	0.02
542.89	0
543.084	0.03
543.279	0.04
543.473	0.04
543.668	0.01
543.862	0.01
544.056	0.05
544.251	0.04
544.445	0.04
544.64	0.02
544.834	0.01
545.028	0.05
545.222	0.04
545.417	0.04
545.611	0.02
545.805	0.03
546	0.01
546.194	0.01
546.388	0.01
546.582	0.04
546.776	0.02
546.97	0.03
547.165	0.04
547.359	0.05
547.553	-0
547.747	0.05
547.941	0.02
548.135	0.02
548.329	0.04
548.523	0.04
548.717	0.01
548.911	0
549.105	0.02
549.299	0.03
549.493	0.04
549.687	0.03
549.881	0.04
550.075	0.02
550.269	-0.01
550.463	0.03
550.657	0.01
550.85	0.02
551.044	-0.01
551.238	0.03
551.432	-0.01
551.626	0
551.82	0.03
552.013	-0.01
552.207	0.01
552.401	0.03
552.594	0.04
552.788	-0
552.982	0.03
553.176	0
553.369	0.02
553.563	0.04
553.756	-0.02
553.95	-0.01
554.144	0.02
554.337	0.06
554.531	0.02
554.724	0.01
554.918	0.01
555.111	0.05
555.305	0.03
555.498	0.08
555.692	0.05
555.885	0.01
556.079	0.02
556.272	-0
556.466	0.05
556.659	0.04
556.852	0.04
557.046	0.02
557.239	0.04
557.432	-0
557.626	-0
557.819	0.02
558.012	0.06
558.206	0.06
558.399	0.03
558.592	0.05
558.785	0
558.979	0.03
559.172	0.03
559.365	0.05
559.558	0.02
559.751	0.02
559.944	0.01
560.138	0.02
560.331	0.03
560.524	-0.01
560.717	0.04
560.91	0
561.103	0.05
561.296	0.01
561.489	0.04
561.682	0.02
561.875	0.06
562.068	0.03
562.261	0.05
562.454	0.06
562.647	0.03
562.84	0.01
563.032	0
563.225	0.04
563.418	0.04
563.611	0
563.804	0.03
563.997	-0.01
564.19	0.01
564.382	0.01
564.575	0.01
564.768	0.02
564.961	0.02
565.153	-0
565.346	0.04
565.539	0.04
565.731	0.01
565.924	0.06
566.117	0.03
566.309	0.03
566.502	-0
566.695	-0
566.887	0.04
567.08	-0.04
567.272	0.01
567.465	0.01
567.657	0.02
567.85	0.03
568.042	0.04
568.235	0.04
568.427	0.04
568.62	0.02
568.812	0.03
569.005	0.04
569.197	-0.01
569.389	0.04
569.582	0.02
569.774	0.02
569.966	-0.04
570.159	-0.02
570.351	0.03
570.543	0.01
570.736	0.01
570.928	-0.03
571.12	0.03
571.312	-0.01
571.505	-0.01
571.697	0.06
571.889	-0
572.081	0.01
572.273	-0.01
572.465	0.05
572.658	0
572.85	0.03
573.042	0.01
573.234	0.02
573.426	0.05
573.618	-0.03
573.81	0.04
574.002	0.06
574.194	0.06
574.386	-0
574.578	-0.05
574.77	-0.02
574.962	0.02
575.154	0.01
575.346	0
575.538	0.02
575.729	0
575.921	0.02
576.113	-0.01
576.305	0.04
576.497	-0
576.689	0.01
576.88	-0
577.072	0.04
577.264	0
577.456	0.01
577.647	-0.06
577.839	-0.01
578.031	0.05
578.223	-0.02
578.414	-0.01
578.606	0.05
578.798	0.01
578.989	-0.01
579.181	0.04
579.372	0.03
579.564	0.01
579.755	0.02
579.947	0.03
580.139	0.04
580.33	-0.03
580.522	0.02
580.713	-0.07
580.905	0.03
581.096	0.03
581.287	0.01
581.479	0.04
581.67	0.05
581.862	0.03
582.053	-0.01
582.244	-0.02
582.436	0.02
582.627	0.03
582.818	-0.02
583.01	-0.03
583.201	0.04
583.392	0.05
583.583	0.01
583.775	-0.01
583.966	0.02
584.157	-0.01
584.348	-0.01
584.54	-0.02
584.731	0.02
584.922	0.01
585.113	-0.03
585.304	0.03
585.495	0.05
585.686	0.04
585.877	0.04
586.068	0.02
586.259	0.03
586.45	0.02
586.641	-0.02
586.832	-0.03
587.023	0.02
587.214	0.02
587.405	0.01
587.596	-0.01
587.787	0.07
587.978	0.04
588.169	-0
588.36	-0.01
588.551	0.05
588.742	-0
588.932	0.04
589.123	0.01
589.314	0.05
589.505	0.04
589.696	0.03
589.886	-0.02
590.077	-0.03
590.268	0.04
590.458	-0
590.649	-0.01
590.84	0.05
591.03	0.01
591.221	-0
591.412	-0.03
591.602	0.03
591.793	0.04
591.984	-0.03
592.174	-0.01
592.365	0.09
592.555	-0
592.746	0.05
592.936	0.02
593.127	0.04
593.317	0.06
593.508	-0.02
593.698	0.01
593.889	0.02
594.079	0.03
594.269	0
594.46	0.01
594.65	-0
594.84	0.01
595.031	-0.01
595.221	-0
595.411	-0.04
595.602	0.05
595.792	0.01
595.982	0.02
596.172	0.05
596.363	0.01
596.553	0.05
596.743	-0
596.933	0.03
597.123	0.06
597.314	-0.03
597.504	-0.01
597.694	0.07
597.884	0.05
598.074	-0.01
598.264	-0.02
598.454	0.04
598.644	0.01
598.834	0.01
599.024	-0.06
599.214	0
599.404	0.03
599.594	0.01
599.784	-0
599.974	0.08
600.164	0.03
600.354	-0.01
600.544	-0.02
600.734	0.04
600.924	0.04
601.114	0
601.303	0.01
601.493	0.02
601.683	-0.01
601.873	0.02
602.063	-0.03
602.252	0.06
602.442	-0.05
602.632	-0.04
602.821	-0.01
603.011	0.07
603.201	-0.03
603.39	-0.02
603.58	-0.01
603.77	0.04
603.959	0.05
604.149	0.02
604.339	-0.02
604.528	0.05
604.718	0.02
604.907	0.01
605.097	-0.03
605.286	-0.03
605.476	0
605.665	0.02
605.855	0.01
606.044	0.07
606.234	0.04
606.423	0.02
606.612	-0.02
606.802	0.03
606.991	-0.01
607.181	0.02
607.37	-0.03
607.559	0.01
607.749	-0.04
607.938	-0.01
608.127	-0.02
608.316	-0.01
608.506	0.02
608.695	0.03
608.884	-0.03
609.073	0.01
609.263	0.06
609.452	0.02
609.641	0.03
609.83	-0.04
610.019	0.02
610.208	-0.01
610.397	0.01
610.586	0.04
610.775	-0.02
610.965	0.03
611.154	-0.01
611.343	0.04
611.532	0.02
611.721	-0.01
611.91	0
612.099	0.04
612.287	0
612.476	-0.02
612.665	0.02
612.854	-0.01
613.043	0.03
613.232	0.01
613.421	-0.05
613.61	0.03
613.798	0.01
613.987	0.01
614.176	-0.01
614.365	0.05
614.554	0.03
614.742	0.03
614.931	-0.01
615.12	0.06
615.309	-0
615.497	0.02
615.686	0.01
615.875	0
616.063	0.04
616.252	-0.01
616.44	-0.02
616.629	0.03
616.818	0.05
617.006	0
617.195	0.02
617.383	0.03
617.572	-0.01
617.76	0
617.949	-0.02
618.137	0.02
618.326	0.06
618.514	-0
618.703	-0.02
618.891	0.06
619.079	-0.03
619.268	0.03
619.456	-0.01
619.644	0.05
619.833	0.01
620.021	-0.01
620.209	-0.04
620.398	0.04
620.586	-0
620.774	0.01
620.962	-0.01
621.151	0.11
621.339	-0.01
621.527	-0.02
621.715	-0.03
621.903	-0.03
622.092	-0.03
622.28	0.02
622.468	0.02
622.656	0.02
622.844	0.04
623.032	0.02
623.22	-0.04
623.408	0.01
623.596	-0
623.784	0.04
623.972	-0.05
624.16	-0
624.348	0.06
624.536	0.01
624.724	-0.04
624.912	0.06
625.1	0.07
625.288	-0.03
625.476	-0.02
625.664	0.03
625.851	-0
626.039	-0.01
626.227	0.02
626.415	0.02
626.603	-0.03
626.79	-0.01
626.978	-0.04
627.166	-0.01
627.354	-0.01
627.541	-0.01
627.729	-0.05
627.917	0.02
628.104	0.05
628.292	0.03
628.48	0
628.667	0.02
628.855	0.01
629.042	0.03
629.23	0.01
629.418	0
629.605	-0.01
629.793	0.03
629.98	-0.01
630.168	0.03
630.355	0
630.543	0.03
630.73	-0.04
630.917	0.06
631.105	0.07
631.292	0.01
631.48	-0
631.667	0.03
631.854	0.03
632.042	-0
632.229	-0.04
632.416	0.02
632.604	-0.01
632.791	-0.02
632.978	0.04
633.165	0.02
633.353	0.09
633.54	0.04
633.727	-0.05
633.914	-0.01
634.101	-0.04
634.289	0.06
634.476	-0.03
634.663	-0.03
634.85	0.03
635.037	0
635.224	-0.04
635.411	0.06
635.598	0.08
635.785	0
635.972	-0.01
636.159	0.07
636.346	-0.03
636.533	-0.01
636.72	-0.01
636.907	-0.01
637.094	0.04
637.281	-0
637.468	0.02
637.655	-0
637.842	0.01
638.029	-0.02
638.215	0.07
638.402	0.01
638.589	-0.01
638.776	0
638.963	-0
639.149	0.06
639.336	0.08
639.523	0.01
639.709	0.02
639.896	-0.02
640.083	0.06
640.27	0.02
640.456	-0.03
640.643	0.02
640.829	-0.05
641.016	0.01
641.203	-0.03
641.389	0.02
641.576	-0.01
641.762	0.04
641.949	-0.03
642.135	0.05
642.322	0.03
642.508	-0.02
642.695	0.01
642.881	0
643.068	-0.02
643.254	-0.01
643.441	0.05
643.627	0.03
643.813	-0.03
644	0.04
644.186	-0.01
644.372	-0.04
644.559	0.04
644.745	0.01
644.931	-0.02
645.118	-0
645.304	0.01
645.49	-0.03
645.676	0.02
645.862	0.01
646.049	0.07
646.235	-0.01
646.421	0.07
646.607	0.1
646.793	-0.04
646.979	-0.05
647.165	-0
647.352	0.01
647.538	0.07
647.724	0.02
647.91	0.02
648.096	0.05
648.282	0.08
648.468	0.02
648.654	0.01
648.84	-0
649.026	0.04
649.212	0.01
649.397	-0.04
649.583	-0.04
649.769	0.04
649.955	-0
650.141	0
650.327	0.07
650.513	-0.02
650.698	0.02
650.884	-0.06
651.07	0.03
651.256	0.03
651.442	-0.01
651.627	0.02
651.813	-0.01
651.999	0.03
652.184	0.03
652.37	-0.01
652.556	-0.03
652.741	0.03
652.927	-0.07
653.113	0.01
653.298	0
653.484	-0.02
653.669	-0.03
653.855	0.03
654.04	0.05
654.226	-0
654.412	0
654.597	-0.04
654.782	0.04
654.968	0.06
655.153	0.02
655.339	0.01
655.524	-0.05
655.71	0.03
655.895	-0.02
656.08	-0.03
656.266	0.04
656.451	0.01
656.636	-0.03
656.822	0.03
657.007	-0.01
657.192	-0.02
657.378	-0.03
657.563	0.02
657.748	0.03
657.933	0.03
658.118	0
658.304	-0.02
658.489	0.05
658.674	0.03
658.859	-0.04
659.044	0.02
659.229	0.01
659.414	-0.01
659.599	0.01
659.785	-0.06
659.97	0
660.155	0.05
660.34	-0.02
660.525	0.04
660.71	-0
660.895	0.02
661.08	0.01
661.264	-0.02
661.449	0.03
661.634	0.04
661.819	0.05
662.004	0.02
662.189	-0.07
662.374	-0.02
662.559	-0.04
662.743	-0.05
662.928	-0.03
663.113	-0.02
663.298	-0.08
663.483	-0.03
663.667	0.04
663.852	-0.04
664.037	0.05
664.221	-0.04
664.406	0.04
664.591	0.06
664.775	-0.01
664.96	0.01
665.145	-0.01
665.329	0.07
665.514	-0.01
665.698	-0.02
665.883	-0.05
666.068	0.09
666.252	0.02
666.437	-0.04
666.621	-0.01
666.806	0.06
666.99	-0.02
667.174	-0.06
667.359	0.14
667.543	-0.02
667.728	-0
667.912	-0.06
668.096	0.04
668.281	-0.01
668.465	0.02
668.649	0
668.834	-0.02
669.018	0.01
669.202	-0.02
669.387	-0
669.571	0.09
669.755	0
669.939	-0.02
670.124	-0.02
670.308	0.06
670.492	0.04
670.676	0
670.86	-0.04
671.044	-0.05
671.228	0.01
671.413	-0.02
671.597	-0.04
671.781	0.02
671.965	0.03
672.149	0.04
672.333	0.02
672.517	0.01
672.701	0.05
672.885	0.01
673.069	-0.08
673.253	0.06
673.437	0.01
673.621	0.01
673.804	-0.03
673.988	-0.01
674.172	0
674.356	-0.06
674.54	0.03
674.724	0.1
674.908	-0.01
675.091	0.03
675.275	0
675.459	0.03
675.643	0.07
675.826	0.04
676.01	-0
676.194	0.02
676.377	0.06
676.561	0.05
676.745	0.04
676.928	0.01
677.112	0.07
677.296	-0.03
677.479	-0.02
677.663	-0.03
677.846	0.01
678.03	-0.03
678.213	-0.02
678.397	0.01
678.58	-0.03
678.764	-0.02
678.947	-0.02
679.131	-0.04
679.314	0.04
679.498	-0.02
679.681	0.01
679.865	0.08
680.048	0.01
680.231	-0.03
680.415	-0
680.598	-0.03
680.781	-0
680.965	0.02
681.148	-0
681.331	0
681.514	0.05
681.698	-0.02
681.881	0.04
682.064	0.01
682.247	-0
682.43	-0.04
682.614	0.03
682.797	0.03
682.98	0.03
683.163	-0.07
683.346	0.01
683.529	-0.01
683.712	-0.03
683.895	0.05
684.078	-0.04
684.261	-0.03
684.444	0.02
684.627	0.04
684.81	0.05
684.993	-0
685.176	0.03
685.359	-0.04
685.542	-0.03
685.725	0.1
685.908	0.03
686.091	-0.02
686.274	0.04
686.457	0.05
686.639	-0.01
686.822	0.02
687.005	-0
687.188	-0.03
687.371	0.12
687.553	0.04
687.736	0.04
687.919	0.1
688.102	0.09
688.284	0
688.467	0.04
688.65	0.01
688.832	0.02
689.015	0.04
689.197	-0.07
689.38	0.08
689.563	0.09
689.745	-0.06
689.928	-0.01
690.11	0.01
690.293	0.03
690.475	-0.06
690.658	0.1
690.84	0.02
691.023	-0.01
691.205	-0.09
691.388	-0
691.57	0.06
691.752	0.07
691.935	-0.08
692.117	-0.01
692.3	0.03
692.482	0.03
692.664	0
692.847	0.02
693.029	0.1
693.211	0.02
693.393	0
693.576	-0.03
693.758	0.06
693.94	0.07
694.122	-0.04
694.304	0.01
694.487	0
694.669	0.06
694.851	-0.05
695.033	-0.01
695.215	-0.01
695.397	-0.05
695.579	0.05
695.761	-0.01
695.943	-0.09
696.125	0.11
696.308	0.02
696.49	-0.03
696.671	0.16
696.853	-0.02
697.035	0.13
697.217	0.06
697.399	0.04
697.581	-0.03
697.763	0.06
697.945	-0.04
698.127	-0.02
698.309	-0.09
698.491	0.02
698.672	-0.01
698.854	0.08
699.036	0.1
699.218	-0.07
699.399	0.03
699.581	0.02
699.763	-0.02
699.945	-0.05
700.126	-0.03
700.308	-0
700.49	-0.05
700.671	-0.08
700.853	-0.07
701.035	-0.05
701.216	0.03
701.398	-0.06
701.579	0.01
701.761	0.05
701.943	-0
702.124	-0.06
702.306	-0.01
702.487	0.11
702.669	-0.01
702.85	0
703.031	-0.04
703.213	0.1
703.394	0.11
703.576	-0.02
703.757	0.1
703.938	-0.01
704.12	0.15
704.301	0.06
704.483	-0.03
704.664	-0.02
704.845	0.14
705.026	0.03
705.208	0.06
705.389	-0.01
705.57	0.05
705.751	0.02
705.933	-0.02
706.114	0.03
706.295	0.02
706.476	-0.04
706.657	0.18
706.838	0.05
707.02	0.1
707.201	-0.01
707.382	-0.02
707.563	0.05
707.744	-0.01
707.925	-0.01
708.106	-0.03
708.287	0.1
708.468	0.11
708.649	-0.01
708.83	0.02
709.011	-0.01
709.192	0.05
709.373	-0.04
709.554	-0.05
709.734	0.01
709.915	0.08
710.096	-0.03
710.277	-0.09
710.458	0.01
710.639	0.07
710.819	-0.14
711	0.01
711.181	0.07
711.362	0.08
711.542	-0.01
711.723	0.01
711.904	0.13
712.085	0.06
712.265	0.02
712.446	-0.07
712.627	0
712.807	0.07
712.988	0.03
713.168	-0.06
713.349	-0.02
713.53	-0.11
713.71	-0.08
713.891	-0.06
714.071	0.06
714.252	-0.02
714.432	-0.04
714.613	-0.04
714.793	0.03
714.974	0.06
715.154	0.06
715.334	0.08
715.515	0.13
715.695	-0.05
715.876	0.01
716.056	-0.05
716.236	0.02
716.417	-0.02
716.597	-0.05
716.777	0.15
716.957	0.06
717.138	-0.01
717.318	0.05
717.498	-0.07
717.678	0.08
717.859	0.03
718.039	-0.14
718.219	0.04
718.399	0.02
718.579	-0.03
718.759	-0.11
718.939	0.05
719.12	-0.08
719.3	-0.05
719.48	-0.14
719.66	-0.13
719.84	0.09
720.02	0.02
720.2	-0.02
720.38	0.03
720.56	0.15
720.74	-0.02
720.92	0.04
721.1	0.05
721.279	0.1
721.459	-0.01
721.639	-0.12
721.819	0.04
721.999	-0.03
722.179	0.07
722.359	-0.06
722.538	0.08
722.718	-0
722.898	-0
723.078	0.01
723.257	-0.03
723.437	-0.01
723.617	0.04
723.797	-0.08
723.976	0.02
724.156	0.01
724.336	0.09
724.515	0.17
724.695	-0.09
724.874	-0.01
725.054	0.06
725.234	-0.04
725.413	0.07
725.593	0.04
725.772	-0.05
725.952	0.05
726.131	-0.01
726.311	-0.05
726.49	-0.04
726.67	-0.08
726.849	-0.03
727.028	0.02
727.208	-0.06
727.387	-0.02
727.567	-0.13
727.746	-0
727.925	-0.06
728.105	-0.11
728.284	-0
728.463	-0
728.643	0.01
728.822	-0.08
729.001	-0.07
729.18	0
729.359	0
729.539	-0.03
729.718	-0.01
729.897	0.04
730.076	-0.08
730.255	-0.06
730.434	0.05
730.614	0.08
730.793	0.01
730.972	-0.04
731.151	-0.02
731.33	0.09
731.509	0.05
731.688	0.05
731.867	-0.03
732.046	-0.19
732.225	0.22
732.404	-0.04
732.583	-0.07
732.762	-0.05
732.941	0.16
733.12	-0.02
733.298	-0.04
733.477	0.2
733.656	0.01
733.835	-0.11
734.014	0.06
734.193	0.01
734.371	0.14
734.55	0.11
734.729	-0.08
734.908	0.04
735.086	0.1
735.265	0.06
735.444	-0.18
735.623	-0.06
735.801	-0.15
735.98	0.04
736.159	-0.05
736.337	0.07
736.516	0.1
736.694	-0.02
736.873	-0.11
737.052	0.06
737.23	0.08
737.409	-0
737.587	0.21
737.766	-0.16
737.944	-0.1
738.123	0.13
738.301	0.04
738.479	-0.02
738.658	0.08
738.836	-0.18
739.015	-0.02
739.193	0.15
739.371	-0.01
739.55	-0.04
739.728	-0.01
739.906	0.09
740.085	0.04
740.263	0.09
740.441	-0.16
740.62	0.21
740.798	0.02
740.976	0.02
741.154	-0.14
741.332	0.18
741.511	-0.07
741.689	0.06
741.867	0.12
742.045	0.02
742.223	-0.09
742.401	-0.08
742.579	-0.05
742.757	0.12
742.935	-0.02
743.114	-0.04
743.292	-0.01
743.47	0.03
743.648	0.07
743.826	-0.27
744.004	0.01
744.181	0.06
744.359	-0.04
744.537	-0.02
744.715	-0.04
744.893	0.06
745.071	0.16
745.249	-0.11
745.427	-0.06
745.605	0.01
745.782	-0.03
745.96	0.1
746.138	0.02
746.316	0.2
746.493	-0.02
746.671	0.02
746.849	0.02
747.027	0.14
747.204	-0.11
747.382	0.08
747.56	-0.17
747.737	0.09
747.915	-0.01
748.093	0.12
748.27	-0.01
748.448	0.01
748.625	-0.13
748.803	-0.04
748.98	0.03
749.158	0.18
749.335	0.04
749.513	-0.04
749.69	-0.1
749.868	-0.06
750.045	0.09
750.223	-0.08
750.4	-0.22
750.578	0.2
750.755	-0.05
750.932	-0.14
751.11	0.1
751.287	-0.11
751.464	0.12
751.642	-0.12
751.819	0.04
751.996	-0.05
752.173	0.06
752.351	-0.09
752.528	0.04
752.705	-0.01
752.882	-0.13
753.06	0.07
753.237	0.07
753.414	0.2
753.591	0.22
753.768	-0.01
753.945	-0.15
754.122	-0.01
754.299	0.09
754.476	-0.09
754.654	-0.01
754.831	0.14
755.008	0.04
755.185	-0.04
755.362	-0.18
755.539	0.09
755.716	-0.03
755.892	-0.04
756.069	0
756.246	-0.02
756.423	-0.19
756.6	0.13
756.777	-0.06
756.954	0.14
757.131	0.05
757.307	-0.1
757.484	-0.07
757.661	0.09
757.838	-0.03
758.015	-0.16
758.191	0.18
758.368	0.1
758.545	0.21
758.721	0.01
758.898	-0.03
759.075	0.09
759.251	0.12
759.428	0.04
759.605	-0.14
759.781	-0.06
759.958	0.16
760.134	-0.06
760.311	-0.08
760.488	0.23
760.664	0.09
760.841	-0.03
761.017	0.07
761.194	0.05
761.37	0.12
761.547	0.04
761.723	0.02
761.899	0.07
762.076	-0.15
762.252	-0.18
762.429	0.04
762.605	0.07
762.781	0.03
762.958	0.12
763.134	-0.16
763.31	-0.11
763.486	0.13
763.663	-0.17
763.839	0.06
764.015	-0.14
764.191	-0.12
764.368	0.08
764.544	-0.06
764.72	-0.05
764.896	0.05
765.072	0.14
765.248	-0.16
765.425	-0.06
765.601	0.02
765.777	0.03
765.953	-0.14
766.129	0.04
766.305	-0.02
766.481	0.06
766.657	0.14
766.833	0.08
767.009	-0.12
767.185	-0.01
767.361	0.03
767.537	-0.08
767.713	0.21
767.889	-0.02
768.065	-0.01
768.24	-0.08
768.416	0.13
768.592	-0.05
768.768	0
768.944	0.02
769.12	-0.06
769.295	-0.01
769.471	0
769.647	-0.02
769.823	0.19
769.998	-0.17
770.174	-0.3
770.35	0.41
770.525	0.33
770.701	0.06
770.877	-0.05
771.052	0.02
771.228	0.22
771.403	-0.08
771.579	0.09
771.755	0.44
771.93	0.03
772.106	-0.13
772.281	-0.08
772.457	-0.01
772.632	-0.04
772.808	-0.12
772.983	0.08
773.159	-0.2
773.334	0.31
773.509	0.13
773.685	-0.01
773.86	0.37
774.036	0.08
774.211	0.01
774.386	-0.05
774.562	0.08
774.737	0.18
774.912	-0.05
775.087	0.08
775.263	-0.05
775.438	-0.01
775.613	-0.05
775.788	0.06
775.964	0.19
776.139	0.45
776.314	0
776.489	0.01
776.664	0.11
776.839	-0.08
777.014	0.1
777.19	0.16
777.365	0.2
777.54	0.24
777.715	-0.2
777.89	-0.06
778.065	-0.1
778.24	-0.14
778.415	0.23
778.59	-0.18
778.765	0.03
778.94	0.09
779.115	-0.16
779.289	-0.08
779.464	0.02
779.639	0.06
779.814	-0.18
779.989	-0.08
780.164	0.12
780.339	0.07
780.513	-0.14
780.688	-0.16
780.863	-0.04
781.038	0.25
781.212	-0.1
781.387	-0.11
781.562	0.41
781.737	0.05
781.911	0.27
782.086	-0.24
782.261	-0.03
782.435	0.39
782.61	0.02
782.784	-0.02
782.959	0.38
783.134	-0.04
783.308	-0.27
783.483	-0.12
783.657	0.51
783.832	0.16
784.006	-0.35
784.181	0.08
784.355	0.08
784.53	-0.29
784.704	-0.26
784.878	0.41
785.053	0.01
785.227	0.23
785.402	0.27
785.576	-0.16
785.75	0.09
785.925	-0.08
786.099	0.17
786.273	0.15
786.448	0.22
786.622	0.22
786.796	0.08
786.97	-0.03
787.145	0.56
787.319	0.01
787.493	-0.25
787.667	-0.26
787.841	-0.04
788.015	0.4
788.19	-0.01
788.364	0.03
788.538	0.02
788.712	-0.01
788.886	-0.12
789.06	0.07
789.234	0.21
789.408	-0.26
789.582	-0.16
789.756	-0.04
789.93	-0.26
790.104	-0.22
790.278	0.06
790.452	-0.13
790.626	0.33
790.8	-0.05
790.973	0.31
791.147	0.32
791.321	0.25
791.495	0.12
791.669	-0.06
791.843	0.18
792.016	-0.03
792.19	0.52
792.364	-0.33
792.538	0.48
792.711	0.08
792.885	-0.22
793.059	-0.28
793.233	-0.53
793.406	0.44
793.58	-0.08
793.754	0.06
793.927	0.04
794.101	0.26
794.274	0.26
794.448	0.29
794.622	-0.08
794.795	0.32
794.969	-0.11
795.142	0.22
795.316	-0.11
795.489	-0.24
795.663	0.37
795.836	-0.03
796.009	-0.1
796.183	0.54
796.356	-0.09
796.53	0.07
796.703	0.17
796.876	0.65
797.05	-0.22
797.223	-0.15
797.396	0.25
797.57	0.04
797.743	0.37
797.916	0.03
798.09	-0.26
798.263	0.54
798.436	0.12
798.609	-0.11
798.782	-0.1
798.956	0.14
799.129	0.11
799.302	-0.26
799.475	-0.1
799.648	-0.04
799.821	-0.29
799.994	0.01
800.167	-0.24
800.34	-0.19
800.514	0.13
800.687	0.13
800.86	-0.36
801.033	-0.08
801.206	-0.09
801.379	-0.17
801.551	0.19
801.724	0.15
801.897	0.46
802.07	-0.29
802.243	-0.71
802.416	0.15
802.589	-0.02
802.762	0.35
802.935	-0.04
803.107	0.32
803.28	0.08
803.453	0.31
803.626	-0.34
803.798	0.15
803.971	-0.25
804.144	0.23
804.317	0.28
804.489	0.17
804.662	-0.31
804.835	-0.11
805.007	0.09
805.18	0.62
805.353	0.19
805.525	-0.3
805.698	-0.07
805.87	0.08
806.043	0.39
806.215	-0.01
806.388	-0.12
806.56	0.37
806.733	0.49
806.905	0.22
807.078	-0.14
807.25	-0.23
807.423	0.13
807.595	-0.13
807.768	0.07
807.94	0.2
808.112	0.16
808.285	0
808.457	0.02
808.629	-0
808.802	0.09
808.974	0.06
809.146	-0.02
809.318	-0.34
809.491	-0.21
809.663	0.1
809.835	-0.23
810.007	0.37
810.18	0.05
810.352	-0.64
810.524	-0.27
810.696	0.46
810.868	0.31
811.04	-0.16
811.212	-0.13
811.384	0.24
811.556	-0.39
811.728	-0.24
811.901	0.67
812.073	0.22
812.245	0.56
812.417	0.05
812.589	-0.37
812.76	0.34
812.932	0.16
813.104	0.29
813.276	-0.15
813.448	0.56
813.62	0.03
813.792	0.26
813.964	-0.13
814.136	0.03
814.307	-0.1
814.479	-0.04
814.651	-0.23
814.823	1.37
814.995	-0.06
815.166	0.19
815.338	-0.5
815.51	-0.84
815.681	1.02
815.853	0.06
816.025	-0.18
816.196	0.63
816.368	0.63
816.54	-0.09
816.711	-0.69
816.883	0.27
817.054	0.64
817.226	-0.65
817.398	0.25
817.569	0.09
817.741	-0.18
817.912	-0.2
818.084	0.25
818.255	0.35
818.426	-0.22
818.598	0.16
818.769	-0.3
818.941	0.88
819.112	0.59
819.283	0.16
819.455	-0.12
819.626	-0.08
819.798	0.24
819.969	0.34
820.14	-0.13
820.311	-0.26
820.483	0.04
820.654	0.25
820.825	-0.04
820.996	-0.31
821.168	-0.03
821.339	-0.24
821.51	-0.14
821.681	-0.16
821.852	0.14
822.023	-0.46
822.195	-1.18
822.366	0.37
822.537	0.12
822.708	0.13
822.879	-0.31
823.05	0.4
823.221	-0.05
823.392	-0.36
823.563	-0.24
823.734	0.52
823.905	0.08
824.076	0.19
824.247	-0.15
824.418	-0.53
824.589	0.06
824.759	0.07
824.93	-0.03
825.101	-0.47
825.272	0.45
825.443	0.58
825.614	0.64
825.784	-0.45
825.955	0.75
826.126	0.85
826.297	-0.1
826.467	0.68
826.638	1.28
826.809	-0.82
826.98	-0.41
827.15	0.38
827.321	-0.2
827.492	0.45
827.662	0.1
827.833	1.22
828.003	0.49
828.174	-0.59
828.345	-1.01
828.515	1.12
828.686	0.12
828.856	-0.21
829.027	0.25
829.197	-0.01
829.368	0.51
829.538	-0.1
829.709	-0.02
829.879	0.18
830.049	0.17
830.22	-0.2
830.39	-0.3
830.56	0.64
830.731	-0.09
830.901	-0.15
831.072	0.32
831.242	0.18
831.412	0.39
831.582	-0.12
831.753	-0.56
831.923	0.46
832.093	0.03
832.263	-0.13
832.434	-0.29
832.604	-0.17
832.774	0.2
832.944	0.09
833.114	0.06
833.284	0.66
833.454	-0.73
833.624	-0.44
833.795	-0.45
833.965	0.7
834.135	0.15
834.305	-0.75
834.475	-0.65
834.645	-0.07
834.815	0.02
834.985	-0.77
835.155	-0.2
835.325	0.55
835.494	0.47
835.664	-0.81
835.834	-0.49
836.004	-0.15
836.174	0.02
836.344	-0.12
836.514	0.14
836.684	-0.37
836.853	0.14
837.023	-0
837.193	-0.06
837.363	0.84
837.532	1.6
837.702	-0.38
837.872	-0.31
838.041	1.17
838.211	1.45
838.381	-0.26
838.55	-0.23
838.72	1.54
838.89	1.18
839.059	0.23
839.229	-0.13
839.398	1.65
839.568	0.16
839.738	0.21
839.907	1.33
840.077	-0.06
840.246	-0.16
840.416	-0.53
840.585	-1.07
840.755	1.64
840.924	0.74
841.093	-0.12
841.263	0.12
841.432	-0
841.602	0.04
841.771	-0.6
841.94	-0.17
842.11	1.47
842.279	1.57
842.448	-1.4
842.617	-1.01
842.787	0.69
842.956	-0.87
843.125	-0.33
843.294	0.26
843.464	0.88
843.633	0.37
843.802	-0.76
843.971	0.21
844.14	0.68
844.309	0.72
844.479	-0.53
844.648	-0.21
844.817	-0.02
844.986	0.76
845.155	-0.86
845.324	-0.77
845.493	0.45
845.662	-0.83
845.831	0.26
846	0.69
846.169	-0.5
846.338	2.01
846.507	0.45
846.676	-0.33
846.844	-0.38
847.013	0.54
847.182	-0.9
847.351	-0.69
847.52	0.18
847.689	0.31
847.858	-0.08
848.026	-0.28
848.195	0.09
848.364	-0.24
848.533	-0.76
848.701	-0.6
848.87	1.17
849.039	0.96
849.207	0.71
849.376	1.24
849.545	0.88
849.713	-0.22
849.882	-1.31
850.051	-0.18
850.219	0.73
850.388	1.3
850.556	-0.53
850.725	-0.87
850.893	-0.12
851.062	0.66
851.23	0.68
851.399	-1.2
851.567	-0.07
851.736	0.04
851.904	-1.05
852.073	0.19
852.241	0.61
852.41	-0.2
852.578	-0.3
852.746	0.18
852.915	0.27
853.083	0.07
853.251	-1.04
853.42	-0.54
853.588	0.79
853.756	1.12
853.924	0.31
854.093	-0.72
854.261	-0.02
854.429	-0.62
854.597	0.49
854.765	-0.8
854.934	1.16
855.102	0.88
855.27	-0.39
855.438	0.79
855.606	0.94
855.774	1.92
855.942	-0.71
856.11	-1.32
856.278	-0.26
856.446	1.15
856.614	-0.18
856.782	-0.94
856.95	1.66
857.118	0.69
857.286	0.48
857.454	-0.94
857.622	1.16
857.79	1.03
857.958	-0.02
858.126	-0.51
858.294	-2.33
858.462	0.03
858.629	-0.5
858.797	-1.04
858.965	-0.26
859.133	-0.18
859.301	-0.17
859.468	-0.06
859.636	-1.5
859.804	1.93
859.971	0.74
860.139	-0.11
860.307	1.55
860.474	1.26
860.642	-0.92
860.81	-0.68
860.977	-0.48
861.145	-0.1
861.313	-0.15
861.48	-0.34
861.648	1.3
861.815	-0.62
861.983	-1.98
862.15	-1.07
862.318	1.32
862.485	1.22
862.653	-0.63
862.82	-0.54
862.988	0.9
863.155	-1.69
863.322	-0.58
863.49	-1.64
863.657	1.18
863.824	1.3
863.992	-0.89
864.159	-0.68
864.326	-0.57
864.494	-0.82
864.661	2.08
864.828	-1.14
864.996	1.01
865.163	1.7
865.33	-1.27
865.497	-3.15
865.664	-1.12
865.832	-2.45
865.999	-1.04
866.166	-1.58
866.333	-0.82
866.5	-0.53
866.667	-1.16
866.834	0.55
867.001	0.31
867.168	-2.68
867.335	-0.27
867.502	-2.24
867.669	0.65
867.836	1.94
868.003	-1.38
868.17	1.07
868.337	-1.75
868.504	2.65
868.671	-1.7
868.838	-2.4
869.005	0.74
869.172	0.64
869.339	-0.19
869.505	-0.93
869.672	0.47
869.839	2.73
870.006	0.8
870.173	-2.04
870.339	-0.65
870.506	1.97
870.673	-1.47
870.84	0.82
871.006	-0.48
871.173	-0.43
871.34	0.75
871.506	-1.38
871.673	1.67
871.839	-1.75
872.006	0.73
872.173	0.1
872.339	1.37
872.506	3.23
872.672	0.01
872.839	-1.27
873.005	1
873.172	2.6
873.338	1.47
873.505	1.15
873.671	0.12
873.838	1.59
874.004	-2.66
874.171	-1.93
874.337	0.36
874.503	0.96
874.67	-0.42
874.836	0.12
875.002	1.21
875.169	1.68
875.335	1.06
875.501	-1.21
875.668	1.34
875.834	1.8
876	-1.48
876.166	1.41
876.332	-0.04
876.499	4.47
876.665	-1.31
876.831	0.25
876.997	4.26
877.163	-0.04
877.329	-0.08
877.495	1.11
877.662	0.51
877.828	1.26
877.994	-1.44
878.16	-3.57
878.326	0.11
878.492	0.02
878.658	-1.24
878.824	-0.45
878.99	1.21
879.156	0.89
879.322	2.09
879.487	0.41
879.653	0.84
879.819	0.37
879.985	-0.47
880.151	0.15
880.317	0.97
880.483	0.35
880.648	2.54
880.814	-1.78
880.98	0.47
881.146	-2.99
881.312	0.88
881.477	-0.94
881.643	-0.98
881.809	0.79
881.974	1.54
882.14	-2.63
882.306	1.07
882.471	2.39
882.637	-1.49
882.803	1.05
882.968	2.18
883.134	5.23
883.299	-1.09
883.465	-0.58
883.63	1.04
883.796	3.2
883.961	0.51
884.127	1.73
884.292	-3.88
884.458	-1.59
884.623	-1.59
