Data from Apollo_Calib_20240827__AbsoluteIrradiance__188__02-17-03-035.txt Node

Date: Wed Aug 28 02:17:03 BST 2024
User: biology
Spectrometer: FLMT08252
Trigger mode: 0
Integration Time (sec): 5.000000E-1
Scans to average: 5
Electric dark correction enabled: true
Nonlinearity correction enabled: false
Boxcar width: 0
XAxis mode: Wavelengths
Number of Pixels in Spectrum: 3648
>>>>>Begin Spectral Data<<<<<
179.588	-0
179.809	-0
180.03	-0
180.251	-0
180.473	-0
180.694	0
180.915	0
181.136	-0
181.357	0
181.578	-0
181.799	0
182.02	-0
182.241	0
182.462	-0
182.683	0
182.904	-0
183.125	0
183.346	0
183.567	-0
183.788	-0
184.009	-0
184.23	0
184.451	0
184.672	-0
184.892	-0
185.113	0
185.334	0
185.555	-0
185.776	-0
185.996	0
186.217	0
186.438	0
186.659	-0
186.879	0
187.1	0
187.321	0
187.541	-0
187.762	0
187.983	0
188.203	0
188.424	0
188.644	-0
188.865	0
189.086	0
189.306	-0
189.527	0
189.747	0
189.968	-0
190.188	0
190.409	0
190.629	0
190.849	-0
191.07	0
191.29	0
191.511	0
191.731	-0
191.951	-0
192.172	-0
192.392	-0
192.612	-0
192.833	-0
193.053	0
193.273	0
193.493	-0
193.714	-0
193.934	0
194.154	0
194.374	0
194.594	0
194.815	0
195.035	0
195.255	-0
195.475	-0
195.695	0
195.915	0
196.135	-0
196.355	0
196.575	0
196.795	0
197.015	-0
197.235	-0
197.455	0
197.675	0
197.895	-0
198.115	-0
198.335	0
198.555	0
198.775	0
198.995	0
199.214	0
199.434	-0
199.654	-0
199.874	0
200.094	1.52
200.313	-0.05
200.533	-0.14
200.753	-0.58
200.973	0.53
201.192	0.69
201.412	-0.6
201.632	0.14
201.851	1.33
202.071	-0.59
202.291	0.1
202.51	-0.57
202.73	0.31
202.95	0.07
203.169	-0.47
203.389	0.03
203.608	0.37
203.828	-0.22
204.047	0.06
204.267	0.69
204.486	0.14
204.706	0.36
204.925	0.22
205.145	-0.32
205.364	0.5
205.583	0.87
205.803	0.09
206.022	-0.17
206.242	0.58
206.461	0.02
206.68	-0.34
206.9	0.03
207.119	0.86
207.338	0.61
207.557	-0.41
207.777	0.19
207.996	0.06
208.215	0.8
208.434	-0.22
208.654	-0.6
208.873	0.36
209.092	0.63
209.311	0.11
209.53	-0.07
209.749	-0.01
209.968	0.01
210.187	-0.25
210.407	-0.44
210.626	0.02
210.845	0.37
211.064	0.12
211.283	-0.12
211.502	0.46
211.721	0.27
211.94	0.13
212.159	0.12
212.377	0.05
212.596	0.35
212.815	0.04
213.034	-0.08
213.253	0.2
213.472	0.36
213.691	0.13
213.91	-0.03
214.128	-0
214.347	0.59
214.566	-0.24
214.785	-0.41
215.003	0.35
215.222	0.21
215.441	0.29
215.66	-0.25
215.878	-0.08
216.097	0.15
216.316	-0.22
216.534	0.16
216.753	0.22
216.972	0.17
217.19	0.02
217.409	-0.3
217.627	-0.05
217.846	0.12
218.064	0.03
218.283	-0.15
218.501	0.52
218.72	0.33
218.938	-0.2
219.157	-0.09
219.375	0.22
219.594	0.31
219.812	-0.25
220.031	0.01
220.249	0.37
220.467	0.31
220.686	-0.1
220.904	-0.26
221.122	0.09
221.341	0.42
221.559	0.15
221.777	0.01
221.995	0.15
222.214	0.31
222.432	-0.12
222.65	0.11
222.868	0.21
223.086	-0
223.305	0.08
223.523	-0.07
223.741	0.27
223.959	-0.08
224.177	-0.23
224.395	-0.11
224.613	0.03
224.831	0.25
225.049	-0.17
225.267	-0.12
225.485	0.22
225.703	0.11
225.921	-0.03
226.139	0.03
226.357	0.21
226.575	0.21
226.793	0.02
227.011	0.63
227.229	0.11
227.447	0.19
227.665	-0.07
227.883	-0.21
228.1	0.08
228.318	0.02
228.536	-0.15
228.754	0.08
228.972	0.15
229.189	0.17
229.407	-0.05
229.625	-0.05
229.843	0.23
230.06	0.19
230.278	-0.06
230.496	-0
230.713	0.13
230.931	0.26
231.149	-0.02
231.366	-0.2
231.584	-0.08
231.801	0.47
232.019	-0.05
232.236	-0.11
232.454	-0.08
232.671	0.14
232.889	0.06
233.106	-0.08
233.324	0.15
233.541	-0.07
233.759	0.09
233.976	-0.06
234.194	0.14
234.411	0.05
234.628	0.01
234.846	0.06
235.063	-0
235.28	0.08
235.498	-0.04
235.715	-0.06
235.932	0.27
236.149	0.13
236.367	-0.07
236.584	0.04
236.801	0
237.018	0.08
237.236	0
237.453	-0.15
237.67	0.12
237.887	-0.01
238.104	-0.02
238.321	-0.16
238.538	-0.04
238.755	0.17
238.973	-0.11
239.19	0.03
239.407	0.06
239.624	0.14
239.841	-0.07
240.058	-0.07
240.275	0.1
240.492	0.02
240.709	-0.02
240.925	-0.04
241.142	0.05
241.359	-0.03
241.576	-0.13
241.793	0.02
242.01	0.04
242.227	0.16
242.444	0.18
242.66	0.16
242.877	0.12
243.094	-0.01
243.311	0.03
243.527	-0.03
243.744	0.08
243.961	0.05
244.178	0
244.394	0.01
244.611	0.14
244.828	0.23
245.044	-0.04
245.261	0.06
245.477	0.03
245.694	0.04
245.911	-0.01
246.127	0.03
246.344	0.23
246.56	0.09
246.777	0.03
246.993	0.04
247.21	0.15
247.426	0.12
247.643	0.01
247.859	-0.09
248.076	-0.01
248.292	0.22
248.508	-0.03
248.725	0.01
248.941	0.09
249.157	0.17
249.374	0.02
249.59	-0.04
249.806	0.05
250.023	0.21
250.239	-0.02
250.455	-0.09
250.671	0.08
250.888	0.11
251.104	0.13
251.32	-0.02
251.536	0.05
251.752	-0.04
251.969	0.04
252.185	0.13
252.401	0.16
252.617	0.03
252.833	0.03
253.049	-0.05
253.265	0.08
253.481	0.13
253.697	0.05
253.913	-0.01
254.129	0.14
254.345	0.02
254.561	-0.01
254.777	-0.07
254.993	0.09
255.209	0.04
255.425	0.01
255.641	-0.02
255.857	0.1
256.073	0.02
256.288	-0.06
256.504	-0.06
256.72	0.01
256.936	0.17
257.152	0.04
257.367	-0.01
257.583	0.03
257.799	0.12
258.015	0.01
258.23	-0.01
258.446	0.14
258.662	0.02
258.877	-0.03
259.093	-0.03
259.309	0.1
259.524	0.11
259.74	-0.04
259.955	-0.04
260.171	0.05
260.387	0.04
260.602	0.08
260.818	0.04
261.033	0.04
261.249	-0.04
261.464	-0.02
261.68	-0.04
261.895	0.09
262.11	0.12
262.326	0
262.541	-0.08
262.757	0.08
262.972	0.1
263.187	0.04
263.403	0.09
263.618	0.06
263.833	0.05
264.049	-0.01
264.264	-0.01
264.479	0.12
264.694	0.1
264.91	-0.05
265.125	-0.03
265.34	0.07
265.555	0.2
265.77	0.05
265.986	0.01
266.201	0.05
266.416	0.14
266.631	-0.01
266.846	0.02
267.061	0.09
267.276	0.05
267.491	-0.09
267.706	0.07
267.921	0.11
268.136	0.03
268.351	0
268.566	-0.03
268.781	0.11
268.996	0.13
269.211	0.1
269.426	-0.05
269.641	-0.04
269.856	0.16
270.071	-0.07
270.285	-0.1
270.5	0.11
270.715	0.15
270.93	-0.05
271.145	0.06
271.359	0.12
271.574	-0.02
271.789	0.04
272.004	-0.06
272.218	-0.02
272.433	0.09
272.648	-0.06
272.862	0.08
273.077	0.05
273.292	0.02
273.506	-0.02
273.721	-0
273.936	0.05
274.15	0.12
274.365	0
274.579	0.05
274.794	0.1
275.008	0.05
275.223	-0.06
275.437	0.05
275.652	0.12
275.866	0.07
276.081	0.07
276.295	0.08
276.509	0.08
276.724	0
276.938	0.07
277.153	0.06
277.367	0.1
277.581	-0.07
277.796	-0.01
278.01	-0.02
278.224	0.08
278.438	0.19
278.653	-0.02
278.867	-0.02
279.081	-0.12
279.295	0.03
279.51	0.08
279.724	-0.06
279.938	0.06
280.152	0.03
280.366	-0.01
280.58	0.01
280.794	0.15
281.008	0.1
281.222	0.06
281.437	0.15
281.651	0.05
281.865	0.11
282.079	0.01
282.293	-0.06
282.507	-0.04
282.721	0.07
282.935	0.04
283.148	-0.02
283.362	0
283.576	-0.08
283.79	0.03
284.004	-0.02
284.218	0.08
284.432	0.03
284.646	0.01
284.859	0.02
285.073	0.03
285.287	0.04
285.501	-0.02
285.714	-0
285.928	0.05
286.142	0.06
286.356	0.06
286.569	0.01
286.783	0.12
286.997	0.06
287.21	0.03
287.424	0.08
287.637	0.03
287.851	-0.03
288.065	0.04
288.278	0.05
288.492	0.01
288.705	0.07
288.919	0.06
289.132	-0.03
289.346	0.08
289.559	0.01
289.773	-0.07
289.986	0.02
290.2	0.02
290.413	0.04
290.626	-0.05
290.84	-0.01
291.053	0.05
291.267	0.13
291.48	0.06
291.693	0.03
291.906	0
292.12	0.05
292.333	-0.03
292.546	0.01
292.76	0.11
292.973	0.09
293.186	0
293.399	0.03
293.612	0.11
293.826	0.02
294.039	0.07
294.252	0.03
294.465	0.03
294.678	0.11
294.891	0.02
295.104	-0.02
295.317	0.04
295.53	0.04
295.743	0.01
295.956	0.01
296.169	0.12
296.382	0.07
296.595	0.03
296.808	0.02
297.021	0.06
297.234	0.07
297.447	0.03
297.66	0.03
297.873	0.08
298.086	0.07
298.299	0.02
298.511	-0.03
298.724	0.08
298.937	-0.02
299.15	-0
299.363	0.05
299.575	0.08
299.788	0.04
300.001	0.03
300.213	-0.01
300.426	-0.01
300.639	0.05
300.852	0.02
301.064	0.06
301.277	0.08
301.489	0.13
301.702	0.07
301.915	0.06
302.127	0.03
302.34	0.07
302.552	0.07
302.765	0.03
302.977	0.05
303.19	0.05
303.402	0.03
303.615	0.05
303.827	-0.02
304.04	0.03
304.252	0.13
304.464	0.04
304.677	0.17
304.889	0.05
305.102	0.03
305.314	0.02
305.526	0.09
305.739	0.07
305.951	0
306.163	0.02
306.375	0.14
306.588	0.01
306.8	0.02
307.012	0
307.224	0.04
307.436	0.07
307.649	-0.03
307.861	0.06
308.073	0.08
308.285	0.06
308.497	-0.01
308.709	0.02
308.921	0.06
309.133	0.07
309.346	0.04
309.558	0.02
309.77	0.05
309.982	0.08
310.194	0.07
310.406	0.02
310.617	0.13
310.829	0.08
311.041	0.05
311.253	-0.04
311.465	0.02
311.677	0.06
311.889	0.04
312.101	-0.01
312.313	0.08
312.524	0.04
312.736	-0.04
312.948	0.03
313.16	0.17
313.372	0.01
313.583	0.04
313.795	0.01
314.007	0.02
314.218	0.1
314.43	0.05
314.642	0.01
314.853	0.01
315.065	0.11
315.277	0.02
315.488	0.07
315.7	0.1
315.912	0.06
316.123	0.04
316.335	0.04
316.546	0.13
316.758	0.03
316.969	0.01
317.181	0.07
317.392	0.02
317.604	0.08
317.815	0.02
318.026	-0.01
318.238	0.01
318.449	0.07
318.661	-0.03
318.872	0
319.083	-0.04
319.295	0.05
319.506	-0.02
319.717	0.09
319.929	0.08
320.14	0.04
320.351	0.02
320.562	0.02
320.774	0.07
320.985	0.03
321.196	0.03
321.407	-0
321.618	0.1
321.829	0.08
322.041	0.07
322.252	0.06
322.463	0.07
322.674	0.1
322.885	-0
323.096	0.01
323.307	0.04
323.518	0.05
323.729	0.01
323.94	0.04
324.151	0.06
324.362	0.07
324.573	0.09
324.784	0.02
324.995	0.09
325.206	0.06
325.417	0.05
325.628	-0.02
325.838	0.01
326.049	0.07
326.26	0.05
326.471	0.03
326.682	0.09
326.892	0.01
327.103	-0.02
327.314	-0
327.525	0.11
327.735	0.04
327.946	-0.01
328.157	0.02
328.368	0.08
328.578	-0
328.789	0.04
328.999	0.04
329.21	0.04
329.421	0.09
329.631	-0
329.842	-0
330.052	0.07
330.263	0.05
330.473	0.12
330.684	0.04
330.894	0.04
331.105	0.04
331.315	0.06
331.526	-0.01
331.736	0.14
331.947	-0.01
332.157	0.07
332.367	0
332.578	0.05
332.788	0.11
332.999	0.05
333.209	0.02
333.419	-0.01
333.629	0.04
333.84	0.07
334.05	0.01
334.26	0.12
334.47	0.04
334.681	0.1
334.891	-0.02
335.101	0.11
335.311	0.17
335.521	0.04
335.732	-0.01
335.942	0.1
336.152	0.08
336.362	0.07
336.572	0.05
336.782	0.08
336.992	0.02
337.202	-0.02
337.412	0.04
337.622	0.04
337.832	0.03
338.042	0.06
338.252	-0
338.462	-0.02
338.672	0.03
338.882	0.05
339.092	0.03
339.302	0.1
339.511	0.11
339.721	0.05
339.931	-0.01
340.141	0.07
340.351	0.11
340.561	0.07
340.77	0.1
340.98	0.09
341.19	0.05
341.4	0.04
341.609	0
341.819	0.07
342.029	-0.01
342.238	0.06
342.448	0.02
342.658	0.07
342.867	0.05
343.077	0.02
343.286	0.06
343.496	0.05
343.706	0.07
343.915	0.01
344.125	0.04
344.334	0.08
344.544	-0.02
344.753	0.06
344.963	0.05
345.172	0.04
345.381	0.02
345.591	0.04
345.8	0.02
346.01	0.12
346.219	0.13
346.428	0.03
346.638	0.07
346.847	0.04
347.056	0.11
347.266	0.05
347.475	0.1
347.684	0.1
347.893	0.11
348.103	0.07
348.312	0.06
348.521	0.01
348.73	0.07
348.94	0.04
349.149	0.03
349.358	0.01
349.567	-0
349.776	-0.03
349.985	0.03
350.194	0.08
350.403	0.15
350.612	-0.01
350.821	0.01
351.03	0.06
351.239	0.01
351.448	0.06
351.657	0.01
351.866	0.13
352.075	0.01
352.284	0.05
352.493	-0.01
352.702	0.12
352.911	0.06
353.12	0.02
353.329	0.02
353.538	0.06
353.746	0.05
353.955	0.04
354.164	0.11
354.373	0.02
354.582	0.14
354.79	0.07
354.999	0.1
355.208	-0.01
355.416	0.11
355.625	0.04
355.834	-0.01
356.042	0.07
356.251	0.03
356.46	-0.01
356.668	0.04
356.877	0.14
357.085	0.13
357.294	-0.02
357.503	0.05
357.711	0.05
357.92	0.15
358.128	0.09
358.337	0.06
358.545	0.06
358.754	0.08
358.962	0.07
359.17	0.05
359.379	0.08
359.587	0.1
359.796	0.05
360.004	0.11
360.212	0.09
360.421	0.09
360.629	0.01
360.837	0.03
361.046	0.08
361.254	0.16
361.462	0.05
361.67	0.05
361.879	0.08
362.087	0.15
362.295	0.08
362.503	0.01
362.711	0.05
362.92	0.02
363.128	0.02
363.336	0.02
363.544	0
363.752	0.04
363.96	0.04
364.168	0.01
364.376	0.07
364.584	0.08
364.792	0.09
365	0.07
365.208	0.1
365.416	0.08
365.624	0.12
365.832	0.04
366.04	0.1
366.248	0.08
366.456	0.05
366.664	0.05
366.872	0.08
367.079	0.02
367.287	0.08
367.495	0.08
367.703	0.04
367.911	0.02
368.118	0.05
368.326	0.05
368.534	0.02
368.742	0.14
368.949	-0.01
369.157	0.05
369.365	0.08
369.572	0.07
369.78	-0.04
369.988	0.08
370.195	0.08
370.403	0.12
370.61	0.04
370.818	0.09
371.026	0.14
371.233	0.02
371.441	0.09
371.648	0.06
371.856	0.08
372.063	0.07
372.271	0.04
372.478	0.09
372.685	0.01
372.893	0.09
373.1	0.07
373.308	0.08
373.515	0.14
373.722	0.14
373.93	0.07
374.137	0.09
374.344	0.15
374.552	0.15
374.759	0.12
374.966	0.1
375.173	0.05
375.381	0.12
375.588	0.08
375.795	-0
376.002	0.07
376.209	0.04
376.417	0.07
376.624	0.1
376.831	0.09
377.038	0.09
377.245	0.01
377.452	0.11
377.659	0.08
377.866	0.07
378.073	0.07
378.28	0.06
378.487	0.16
378.694	0.13
378.901	0.12
379.108	0.11
379.315	0.13
379.522	0.19
379.729	0.13
379.936	0.11
380.143	0.11
380.35	0.13
380.557	0.06
380.763	0.11
380.97	0.12
381.177	0.1
381.384	0.15
381.591	0.12
381.797	0.1
382.004	0.15
382.211	0.12
382.418	0.12
382.624	0.14
382.831	0.17
383.038	0.13
383.244	0.13
383.451	0.1
383.658	0.22
383.864	0.15
384.071	0.12
384.277	0.23
384.484	0.14
384.69	0.21
384.897	0.14
385.103	0.15
385.31	0.17
385.516	0.18
385.723	0.16
385.929	0.2
386.136	0.24
386.342	0.26
386.549	0.25
386.755	0.31
386.961	0.29
387.168	0.26
387.374	0.29
387.58	0.29
387.787	0.31
387.993	0.35
388.199	0.31
388.406	0.29
388.612	0.33
388.818	0.37
389.024	0.38
389.231	0.43
389.437	0.5
389.643	0.46
389.849	0.47
390.055	0.51
390.261	0.55
390.467	0.63
390.674	0.57
390.88	0.6
391.086	0.68
391.292	0.67
391.498	0.74
391.704	0.81
391.91	0.77
392.116	0.76
392.322	0.76
392.528	0.93
392.734	0.93
392.94	0.97
393.146	1.02
393.352	1.1
393.557	1.12
393.763	1.22
393.969	1.27
394.175	1.3
394.381	1.39
394.587	1.48
394.792	1.55
394.998	1.65
395.204	1.78
395.41	1.73
395.615	1.87
395.821	2.04
396.027	2.12
396.233	2.21
396.438	2.41
396.644	2.59
396.85	2.68
397.055	2.79
397.261	2.95
397.466	2.95
397.672	3.11
397.878	3.29
398.083	3.41
398.289	3.52
398.494	3.67
398.7	3.78
398.905	3.84
399.111	4.18
399.316	4.21
399.522	4.36
399.727	4.55
399.932	4.81
400.138	4.89
400.343	5.23
400.549	5.23
400.754	5.62
400.959	5.84
401.165	6.12
401.37	6.33
401.575	6.84
401.78	6.98
401.986	7.21
402.191	7.47
402.396	7.9
402.601	8.01
402.807	8.49
403.012	8.69
403.217	9.33
403.422	9.41
403.627	9.73
403.832	10.23
404.037	10.33
404.243	10.32
404.448	10.73
404.653	11.15
404.858	11.44
405.063	11.22
405.268	11.77
405.473	11.91
405.678	12.1
405.883	12.65
406.088	12.75
406.293	12.76
406.498	13.06
406.703	12.99
406.907	13.22
407.112	13.81
407.317	14.01
407.522	14.3
407.727	14.36
407.932	14.52
408.136	14.76
408.341	14.4
408.546	14.51
408.751	14.51
408.956	14.41
409.16	14.62
409.365	14.54
409.57	13.94
409.774	14.12
409.979	13.91
410.184	13.72
410.388	13.44
410.593	13.59
410.798	13.52
411.002	13.37
411.207	13.08
411.411	12.99
411.616	12.43
411.82	12.43
412.025	11.98
412.229	11.92
412.434	11.53
412.638	11.13
412.843	10.86
413.047	10.59
413.252	10.29
413.456	10.36
413.66	9.97
413.865	9.57
414.069	9.28
414.273	9.17
414.478	8.76
414.682	8.55
414.886	8.3
415.091	7.97
415.295	7.81
415.499	7.85
415.703	7.33
415.908	7.43
416.112	6.92
416.316	6.94
416.52	6.81
416.724	6.45
416.929	6.43
417.133	6.45
417.337	6.08
417.541	6.04
417.745	5.92
417.949	5.74
418.153	5.73
418.357	5.54
418.561	5.54
418.765	5.25
418.969	5.24
419.173	5.18
419.377	4.94
419.581	5.11
419.785	4.91
419.989	4.66
420.193	4.7
420.397	4.56
420.601	4.55
420.804	4.45
421.008	4.18
421.212	4.2
421.416	4.03
421.62	3.82
421.823	3.7
422.027	3.74
422.231	3.48
422.435	3.35
422.638	3.19
422.842	3.14
423.046	3.04
423.249	3.09
423.453	2.86
423.657	2.93
423.86	2.76
424.064	2.71
424.268	2.76
424.471	2.52
424.675	2.54
424.878	2.49
425.082	2.41
425.285	2.37
425.489	2.23
425.692	2.2
425.896	2.08
426.099	2.06
426.303	2
426.506	2.01
426.71	1.99
426.913	1.97
427.116	1.95
427.32	1.78
427.523	1.79
427.726	1.86
427.93	1.68
428.133	1.75
428.336	1.63
428.54	1.66
428.743	1.69
428.946	1.67
429.149	1.56
429.353	1.56
429.556	1.49
429.759	1.44
429.962	1.33
430.165	1.4
430.368	1.31
430.571	1.19
430.775	1.21
430.978	1.15
431.181	1.12
431.384	1.13
431.587	1.09
431.79	1.1
431.993	1.07
432.196	1.07
432.399	1.05
432.602	1.08
432.805	1.05
433.008	1.05
433.211	0.93
433.414	1.03
433.616	1.09
433.819	0.91
434.022	0.88
434.225	1.05
434.428	0.9
434.631	1.07
434.833	0.86
435.036	0.94
435.239	0.94
435.442	0.85
435.645	0.81
435.847	0.92
436.05	0.86
436.253	0.85
436.455	0.79
436.658	0.77
436.861	0.8
437.063	0.74
437.266	0.69
437.468	0.71
437.671	0.8
437.874	0.73
438.076	0.66
438.279	0.58
438.481	0.67
438.684	0.62
438.886	0.67
439.089	0.55
439.291	0.65
439.494	0.66
439.696	0.55
439.899	0.61
440.101	0.7
440.303	0.5
440.506	0.63
440.708	0.66
440.91	0.61
441.113	0.51
441.315	0.61
441.517	0.44
441.72	0.57
441.922	0.48
442.124	0.44
442.326	0.52
442.529	0.53
442.731	0.41
442.933	0.54
443.135	0.46
443.337	0.46
443.539	0.41
443.742	0.46
443.944	0.46
444.146	0.38
444.348	0.37
444.55	0.37
444.752	0.44
444.954	0.35
445.156	0.38
445.358	0.3
445.56	0.41
445.762	0.35
445.964	0.42
446.166	0.32
446.368	0.33
446.57	0.36
446.772	0.31
446.974	0.34
447.175	0.3
447.377	0.31
447.579	0.29
447.781	0.2
447.983	0.39
448.184	0.32
448.386	0.28
448.588	0.23
448.79	0.27
448.991	0.28
449.193	0.3
449.395	0.31
449.597	0.34
449.798	0.32
450	0.29
450.202	0.25
450.403	0.25
450.605	0.32
450.806	0.24
451.008	0.15
451.21	0.26
451.411	0.29
451.613	0.24
451.814	0.27
452.016	0.28
452.217	0.23
452.419	0.25
452.62	0.26
452.821	0.29
453.023	0.25
453.224	0.29
453.426	0.19
453.627	0.25
453.828	0.28
454.03	0.21
454.231	0.24
454.432	0.18
454.634	0.32
454.835	0.24
455.036	0.19
455.238	0.22
455.439	0.33
455.64	0.08
455.841	0.17
456.042	0.35
456.244	0.26
456.445	0.2
456.646	0.14
456.847	0.17
457.048	0.31
457.249	0.28
457.45	0.41
457.651	0.16
457.852	0.27
458.054	0.21
458.255	0.21
458.456	0.26
458.657	0.24
458.858	0.15
459.058	0.24
459.259	0.29
459.46	0.19
459.661	0.15
459.862	0.34
460.063	0.21
460.264	0.28
460.465	0.2
460.666	0.3
460.866	0.22
461.067	0.17
461.268	0.21
461.469	0.15
461.67	0.22
461.87	0.2
462.071	0.19
462.272	0.19
462.473	0.21
462.673	0.21
462.874	0.17
463.075	0.23
463.275	0.19
463.476	0.26
463.676	0.22
463.877	0.23
464.078	0.22
464.278	0.29
464.479	0.2
464.679	0.22
464.88	0.22
465.08	0.28
465.281	0.19
465.481	0.17
465.682	0.17
465.882	0.24
466.083	0.19
466.283	0.16
466.483	0.19
466.684	0.14
466.884	0.12
467.085	0.17
467.285	0.28
467.485	0.13
467.686	0.21
467.886	0.13
468.086	0.15
468.286	0.14
468.487	0.21
468.687	0.13
468.887	0.16
469.087	0.23
469.287	0.18
469.488	0.13
469.688	0.19
469.888	0.24
470.088	0.21
470.288	0.25
470.488	0.23
470.688	0.13
470.888	0.13
471.088	0.1
471.288	0.18
471.488	0.18
471.688	0.2
471.888	0.12
472.088	0.22
472.288	0.21
472.488	0.17
472.688	0.09
472.888	0.16
473.088	0.2
473.288	0.15
473.488	0.1
473.688	0.2
473.887	0.15
474.087	0.11
474.287	0.16
474.487	0.12
474.687	0.17
474.886	0.12
475.086	0.15
475.286	0.16
475.486	0.12
475.685	0.12
475.885	0.1
476.085	0.12
476.284	0.14
476.484	0.12
476.684	0.17
476.883	0.16
477.083	0.13
477.282	0.11
477.482	0.18
477.681	0.18
477.881	0.17
478.08	0.09
478.28	0.09
478.479	0.15
478.679	0.16
478.878	0.1
479.078	0.09
479.277	0.11
479.477	0.14
479.676	0.11
479.875	0.09
480.075	0.06
480.274	0.15
480.473	0.11
480.673	0.1
480.872	0.13
481.071	0.1
481.271	0.1
481.47	0.06
481.669	0.07
481.868	0.07
482.067	0.07
482.267	0.07
482.466	0.06
482.665	0.07
482.864	0.05
483.063	0.08
483.262	0.12
483.461	0.14
483.661	0.13
483.86	0.08
484.059	0.12
484.258	0.07
484.457	0.09
484.656	0.09
484.855	0.13
485.054	0.04
485.253	0.06
485.452	0.04
485.651	0.08
485.849	0.12
486.048	0.07
486.247	0.05
486.446	0.1
486.645	0.04
486.844	0.07
487.043	0.05
487.241	0.09
487.44	0.05
487.639	0.07
487.838	0.13
488.037	0.09
488.235	0.13
488.434	0.09
488.633	0.05
488.831	0.1
489.03	0.14
489.229	0.11
489.427	0.08
489.626	0.09
489.825	0.1
490.023	0.08
490.222	0.05
490.42	0.11
490.619	0.1
490.817	0.07
491.016	0.07
491.214	0.09
491.413	0.07
491.611	0.06
491.81	0.06
492.008	0.09
492.207	0.08
492.405	0.08
492.604	0.03
492.802	0.04
493	0.07
493.199	0.05
493.397	0.07
493.595	0.06
493.794	0.07
493.992	0.13
494.19	0.06
494.388	0.09
494.587	0.06
494.785	0.07
494.983	0.03
495.181	0.07
495.379	0.05
495.578	0.04
495.776	0.1
495.974	0.05
496.172	0.05
496.37	0.05
496.568	0.04
496.766	0.06
496.964	0.08
497.162	0.09
497.36	0.04
497.558	0.09
497.756	0.08
497.954	0.04
498.152	0.04
498.35	0.06
498.548	0.06
498.746	0.05
498.944	0.03
499.142	0.03
499.34	0.03
499.538	0.06
499.736	0.03
499.933	0.1
500.131	0.09
500.329	0.07
500.527	0.1
500.725	0.08
500.922	0.09
501.12	0.06
501.318	0.08
501.516	0.02
501.713	0.06
501.911	0.05
502.109	0.04
502.306	0.08
502.504	0.06
502.701	0.03
502.899	0.05
503.097	0.09
503.294	0.07
503.492	0.03
503.689	0.05
503.887	0.08
504.084	0.11
504.282	0.05
504.479	0.04
504.677	0.07
504.874	0.01
505.072	0.04
505.269	0.04
505.466	0.07
505.664	0.07
505.861	0.02
506.059	0.04
506.256	0.06
506.453	0.04
506.651	0.1
506.848	0.08
507.045	0.07
507.242	0.07
507.44	0.03
507.637	0.05
507.834	0.03
508.031	0.06
508.229	0.03
508.426	0.04
508.623	0.07
508.82	0.04
509.017	0.02
509.214	0.04
509.411	0.05
509.608	0.02
509.805	0.06
510.003	0.04
510.2	0.06
510.397	0.07
510.594	0.03
510.791	0.03
510.988	0.02
511.184	0.07
511.381	0.04
511.578	0.02
511.775	0.06
511.972	0.04
512.169	0.05
512.366	0.05
512.563	0.04
512.76	0.04
512.956	0.04
513.153	0.01
513.35	0.03
513.547	0.02
513.744	0.01
513.94	0.02
514.137	0.07
514.334	0.05
514.53	0.06
514.727	0.03
514.924	0.1
515.12	0.02
515.317	0.02
515.514	0.03
515.71	-0.01
515.907	0.02
516.103	0.05
516.3	0.05
516.497	0.05
516.693	0.08
516.89	0.05
517.086	0.01
517.283	0.07
517.479	0.04
517.676	0.01
517.872	0.02
518.068	0.04
518.265	0.04
518.461	0.02
518.658	0.01
518.854	0.02
519.05	0.04
519.247	0.01
519.443	0.05
519.639	0.06
519.836	0.05
520.032	0.02
520.228	0.03
520.424	0.07
520.621	0.07
520.817	0.04
521.013	0.05
521.209	0.05
521.405	0.08
521.601	0.04
521.798	0.04
521.994	0.06
522.19	0.01
522.386	0.02
522.582	0.03
522.778	0.05
522.974	0.01
523.17	0.03
523.366	0.04
523.562	0.05
523.758	0.03
523.954	-0
524.15	0
524.346	0.04
524.542	0.04
524.738	0.03
524.934	0.02
525.129	0.04
525.325	0.05
525.521	0.03
525.717	0.06
525.913	0.03
526.109	0.05
526.304	0
526.5	0.05
526.696	0.06
526.892	0.05
527.087	0.04
527.283	-0
527.479	0.06
527.674	0.03
527.87	0.03
528.066	0.02
528.261	0.06
528.457	0.04
528.653	0.04
528.848	0.02
529.044	0.02
529.239	0.04
529.435	0.07
529.63	0.04
529.826	0.08
530.021	0.04
530.217	0.03
530.412	0.02
530.608	0.02
530.803	0.01
530.999	0.01
531.194	-0.02
531.389	0.01
531.585	-0
531.78	0.04
531.975	0.02
532.171	0.05
532.366	0.04
532.561	0.02
532.757	0.02
532.952	0.02
533.147	0.04
533.342	0.03
533.538	0.03
533.733	0.05
533.928	0.03
534.123	0.02
534.318	-0.02
534.513	0.02
534.709	0.02
534.904	0.01
535.099	0.02
535.294	0.04
535.489	0.02
535.684	0.02
535.879	-0.02
536.074	0.03
536.269	0.01
536.464	0.03
536.659	0.01
536.854	0.03
537.049	0.03
537.244	0.02
537.439	0.01
537.634	0.06
537.828	0.02
538.023	0.02
538.218	0
538.413	0.01
538.608	-0.02
538.803	0.05
538.997	-0.01
539.192	0.05
539.387	0.01
539.582	0.04
539.776	0.03
539.971	0.03
540.166	0.01
540.36	0
540.555	0.02
540.75	-0
540.944	0.03
541.139	-0
541.334	0.02
541.528	0.06
541.723	0.05
541.917	0.03
542.112	-0.01
542.306	0.03
542.501	0.02
542.695	0.03
542.89	0.02
543.084	0.03
543.279	0.03
543.473	0.01
543.668	0.02
543.862	0.01
544.056	0.04
544.251	0.03
544.445	0.03
544.64	0
544.834	0.01
545.028	0.03
545.222	0.02
545.417	0.05
545.611	0.02
545.805	0.03
546	-0
546.194	0.03
546.388	0.02
546.582	0.03
546.776	0.04
546.97	-0
547.165	0.04
547.359	0.05
547.553	0
547.747	0.04
547.941	0.04
548.135	0
548.329	0.04
548.523	0.03
548.717	0.01
548.911	0.03
549.105	0.03
549.299	0.01
549.493	0.04
549.687	0.04
549.881	0.04
550.075	0.02
550.269	-0.01
550.463	0.04
550.657	-0.02
550.85	0.02
551.044	0.01
551.238	0.04
551.432	0.02
551.626	0
551.82	0.03
552.013	-0.02
552.207	0.03
552.401	0.04
552.594	0.01
552.788	-0
552.982	0.03
553.176	0.01
553.369	0.03
553.563	0.02
553.756	-0.02
553.95	-0.01
554.144	0.04
554.337	0.04
554.531	0.02
554.724	0.02
554.918	0.02
555.111	0.04
555.305	0.02
555.498	0.07
555.692	0
555.885	0.01
556.079	0.04
556.272	0.01
556.466	0.03
556.659	0.03
556.852	0
557.046	0
557.239	0.04
557.432	-0.03
557.626	0.01
557.819	0.02
558.012	0.03
558.206	0.06
558.399	0
558.592	0.03
558.785	0.01
558.979	0.02
559.172	0.03
559.365	0.03
559.558	0.01
559.751	0.01
559.944	0.04
560.138	0
560.331	0.02
560.524	0.01
560.717	0.01
560.91	0.03
561.103	0.02
561.296	0.02
561.489	0.05
561.682	0.02
561.875	0.05
562.068	0.02
562.261	0.04
562.454	0.05
562.647	0.03
562.84	0.04
563.032	0.01
563.225	0.02
563.418	0.01
563.611	-0.01
563.804	0.01
563.997	0
564.19	-0.02
564.382	0
564.575	0.03
564.768	0.01
564.961	0.01
565.153	0.01
565.346	0.04
565.539	0.04
565.731	0.06
565.924	0.04
566.117	0.03
566.309	0.03
566.502	-0
566.695	0.01
566.887	0.01
567.08	-0.01
567.272	0
567.465	-0
567.657	0.02
567.85	0.01
568.042	0.04
568.235	0.05
568.427	0.01
568.62	0.02
568.812	0.03
569.005	0.04
569.197	0
569.389	0.02
569.582	0.04
569.774	0.01
569.966	-0.02
570.159	-0.02
570.351	0.03
570.543	-0.01
570.736	0.02
570.928	-0.01
571.12	0.01
571.312	-0.02
571.505	-0.03
571.697	0.05
571.889	0.01
572.081	-0
572.273	-0.02
572.465	0.04
572.658	-0.01
572.85	0.04
573.042	-0
573.234	0.01
573.426	0.06
573.618	-0.02
573.81	0.01
574.002	0.05
574.194	0.07
574.386	-0.01
574.578	-0.04
574.77	0.01
574.962	-0.01
575.154	-0.01
575.346	0.01
575.538	0.02
575.729	-0.02
575.921	-0.01
576.113	0.01
576.305	0.02
576.497	0.01
576.689	0.01
576.88	-0.01
577.072	0.04
577.264	0.02
577.456	-0.02
577.647	-0.06
577.839	0.01
578.031	0.06
578.223	-0.02
578.414	-0.02
578.606	0
578.798	0.01
578.989	-0.01
579.181	0
579.372	0.01
579.564	0.02
579.755	0.02
579.947	0.04
580.139	0.03
580.33	-0.03
580.522	-0
580.713	-0.08
580.905	0.01
581.096	0.04
581.287	0.02
581.479	-0.01
581.67	0.01
581.862	0.02
582.053	-0.03
582.244	-0.05
582.436	0.01
582.627	0.02
582.818	0.01
583.01	-0.02
583.201	0.02
583.392	0.05
583.583	-0
583.775	-0.01
583.966	-0
584.157	0.01
584.348	-0
584.54	-0.03
584.731	0.01
584.922	-0
585.113	-0.01
585.304	0.06
585.495	0.03
585.686	0.01
585.877	0.04
586.068	0.02
586.259	0.03
586.45	0.05
586.641	0.02
586.832	-0.02
587.023	0.04
587.214	0.01
587.405	0.01
587.596	-0.02
587.787	0.04
587.978	0.02
588.169	0
588.36	-0
588.551	0.01
588.742	-0.01
588.932	0.01
589.123	0
589.314	0.02
589.505	0.03
589.696	0.03
589.886	-0.01
590.077	-0.02
590.268	0.01
590.458	-0.03
590.649	-0.03
590.84	0.07
591.03	-0
591.221	-0.02
591.412	-0.03
591.602	0.04
591.793	0.03
591.984	-0.01
592.174	-0.02
592.365	0.09
592.555	-0
592.746	0.02
592.936	0.02
593.127	0
593.317	0.03
593.508	-0.01
593.698	-0.02
593.889	0.01
594.079	0.01
594.269	-0
594.46	-0.01
594.65	-0.01
594.84	0.04
595.031	-0.02
595.221	0.01
595.411	-0.03
595.602	0.04
595.792	0.02
595.982	-0
596.172	0.06
596.363	0.01
596.553	0.01
596.743	0
596.933	0.01
597.123	0.08
597.314	-0.01
597.504	-0.01
597.694	0.04
597.884	0.04
598.074	-0
598.264	-0.01
598.454	0.01
598.644	0.02
598.834	0
599.024	-0.05
599.214	0
599.404	0.03
599.594	-0.02
599.784	-0.03
599.974	0.07
600.164	0.03
600.354	-0.03
600.544	-0.04
600.734	0.04
600.924	0.03
601.114	-0.01
601.303	-0.01
601.493	-0
601.683	-0.02
601.873	0.02
602.063	-0.02
602.252	0.03
602.442	-0.02
602.632	-0.02
602.821	-0.03
603.011	0.03
603.201	0
603.39	-0.02
603.58	0
603.77	0.05
603.959	0.08
604.149	0.01
604.339	-0.01
604.528	0.07
604.718	0.04
604.907	-0
605.097	0.02
605.286	-0.02
605.476	0.03
605.665	0.06
605.855	0.02
606.044	0.06
606.234	0.01
606.423	0.01
606.612	-0.05
606.802	0.01
606.991	0.06
607.181	0.04
607.37	-0.04
607.559	0.01
607.749	0.01
607.938	0.01
608.127	0.01
608.316	-0.01
608.506	0.01
608.695	-0.01
608.884	-0.02
609.073	0.02
609.263	0.04
609.452	0.03
609.641	-0.02
609.83	-0.03
610.019	-0.01
610.208	-0.02
610.397	0.01
610.586	0.03
610.775	0.01
610.965	-0.01
611.154	-0.03
611.343	0.03
611.532	0.02
611.721	-0.03
611.91	-0.03
612.099	0.05
612.287	-0.01
612.476	-0.01
612.665	0.02
612.854	-0.02
613.043	0.02
613.232	-0.02
613.421	-0.04
613.61	0.01
613.798	-0.03
613.987	0.01
614.176	-0
614.365	0.05
614.554	0.02
614.742	0.01
614.931	-0.01
615.12	0.06
615.309	0
615.497	0.03
615.686	-0.02
615.875	-0.01
616.063	0.04
616.252	-0.03
616.44	-0
616.629	0.02
616.818	0.03
617.006	0
617.195	-0.01
617.383	0.02
617.572	0.04
617.76	-0.03
617.949	0.01
618.137	0.06
618.326	0.05
618.514	-0.02
618.703	-0.03
618.891	0.08
619.079	-0.03
619.268	0.02
619.456	-0.01
619.644	0.06
619.833	-0.02
620.021	-0.01
620.209	-0.05
620.398	0.02
620.586	-0
620.774	0.03
620.962	-0.02
621.151	0.06
621.339	0.01
621.527	-0.02
621.715	-0.04
621.903	-0.03
622.092	-0.04
622.28	0.03
622.468	0.02
622.656	0.03
622.844	0.01
623.032	-0.04
623.22	-0.06
623.408	0.02
623.596	-0
623.784	0.03
623.972	-0.03
624.16	-0.03
624.348	0.07
624.536	0.01
624.724	-0.03
624.912	0.03
625.1	0.06
625.288	-0.03
625.476	-0.01
625.664	0.04
625.851	-0.04
626.039	-0.01
626.227	0.02
626.415	0.01
626.603	-0.07
626.79	-0.01
626.978	0.04
627.166	0.05
627.354	0
627.541	-0.03
627.729	-0.05
627.917	0.04
628.104	0.08
628.292	0.02
628.48	-0.02
628.667	0.03
628.855	0.03
629.042	0.03
629.23	-0.01
629.418	0.03
629.605	-0
629.793	-0.01
629.98	-0.04
630.168	0.01
630.355	0
630.543	0.03
630.73	-0.03
630.917	0.05
631.105	0.08
631.292	-0.01
631.48	-0
631.667	0.08
631.854	0
632.042	-0.01
632.229	-0.07
632.416	0.03
632.604	0.01
632.791	-0.06
632.978	0.01
633.165	0.04
633.353	0.05
633.54	0.01
633.727	-0.07
633.914	-0.01
634.101	-0.06
634.289	0.02
634.476	-0.03
634.663	-0.04
634.85	0.03
635.037	-0.03
635.224	-0.05
635.411	0.05
635.598	0.01
635.785	-0.02
635.972	0.01
636.159	0.05
636.346	-0.04
636.533	0.02
636.72	-0.01
636.907	-0
637.094	0.05
637.281	0.01
637.468	0.03
637.655	-0.01
637.842	-0.03
638.029	-0.03
638.215	0.05
638.402	-0.01
638.589	-0.02
638.776	-0.03
638.963	-0.04
639.149	0.06
639.336	0.05
639.523	0
639.709	-0.01
639.896	-0
640.083	0.06
640.27	0.01
640.456	-0.03
640.643	0.04
640.829	-0.03
641.016	0.01
641.203	-0.03
641.389	0.06
641.576	0.02
641.762	-0.01
641.949	-0.02
642.135	-0.01
642.322	-0
642.508	-0.05
642.695	0.03
642.881	0.02
643.068	0.01
643.254	-0.02
643.441	0.05
643.627	0.01
643.813	-0.02
644	0.04
644.186	-0.05
644.372	0.06
644.559	0.01
644.745	0.01
644.931	-0.02
645.118	0.01
645.304	0.02
645.49	-0.04
645.676	-0.03
645.862	0.01
646.049	0.05
646.235	-0.02
646.421	0.06
646.607	0.11
646.793	0.02
646.979	-0.04
647.165	0.05
647.352	0.08
647.538	0.06
647.724	-0
647.91	0
648.096	0.05
648.282	0.05
648.468	-0.02
648.654	-0
648.84	0.01
649.026	-0.01
649.212	0.01
649.397	-0.04
649.583	-0.03
649.769	0.02
649.955	0.02
650.141	0.01
650.327	0.06
650.513	-0.02
650.698	0.04
650.884	-0.08
651.07	0.03
651.256	0.03
651.442	-0.01
651.627	-0.01
651.813	-0.03
651.999	0.02
652.184	0.04
652.37	0.01
652.556	-0.03
652.741	0.07
652.927	-0.06
653.113	0
653.298	0.01
653.484	-0
653.669	-0.05
653.855	-0.01
654.04	0.04
654.226	-0.01
654.412	-0.03
654.597	-0
654.782	0.02
654.968	0.06
655.153	0
655.339	-0.02
655.524	-0.04
655.71	0.03
655.895	-0.04
656.08	0.01
656.266	0.04
656.451	0.04
656.636	-0.04
656.822	0
657.007	-0.04
657.192	-0.02
657.378	-0.04
657.563	0.01
657.748	0.02
657.933	0.01
658.118	-0.02
658.304	0
658.489	0.05
658.674	0.02
658.859	-0.03
659.044	0.01
659.229	0.03
659.414	0.01
659.599	0.01
659.785	-0.05
659.97	0
660.155	0.01
660.34	-0.01
660.525	0
660.71	-0.04
660.895	0.04
661.08	-0.04
661.264	-0.01
661.449	0.07
661.634	0.05
661.819	-0
662.004	0.01
662.189	-0.04
662.374	-0.02
662.559	-0.02
662.743	-0.06
662.928	-0.03
663.113	-0.03
663.298	-0.05
663.483	-0.04
663.667	0.02
663.852	-0.04
664.037	0.05
664.221	-0.02
664.406	0.06
664.591	0.05
664.775	-0.01
664.96	-0.08
665.145	0.01
665.329	0.02
665.514	-0
665.698	-0.02
665.883	-0.03
666.068	0.07
666.252	-0.01
666.437	-0.02
666.621	0.02
666.806	0.06
666.99	0.01
667.174	-0.04
667.359	0.07
667.543	-0.01
667.728	0.01
667.912	-0.06
668.096	0.07
668.281	-0.03
668.465	-0.04
668.649	-0.02
668.834	-0.04
669.018	-0.01
669.202	0
669.387	-0.02
669.571	0.01
669.755	-0.03
669.939	0
670.124	0
670.308	0.08
670.492	0.03
670.676	0.01
670.86	-0
671.044	-0.06
671.228	0.06
671.413	0
671.597	-0.01
671.781	0.02
671.965	0.02
672.149	0
672.333	-0.02
672.517	0.02
672.701	0.03
672.885	-0.03
673.069	-0.05
673.253	0.06
673.437	-0.05
673.621	-0.01
673.804	-0.04
673.988	-0.03
674.172	0.03
674.356	-0.05
674.54	-0.03
674.724	0.09
674.908	-0.01
675.091	0.03
675.275	-0.02
675.459	0.09
675.643	0.09
675.826	-0.02
676.01	0
676.194	0.01
676.377	0.04
676.561	0.01
676.745	0.01
676.928	-0.03
677.112	0.05
677.296	-0.03
677.479	-0.02
677.663	0.01
677.846	-0
678.03	-0.04
678.213	-0.02
678.397	0.04
678.58	-0.01
678.764	-0
678.947	-0.07
679.131	-0.04
679.314	0.03
679.498	0
679.681	0.01
679.865	0.07
680.048	0
680.231	0.01
680.415	0.01
680.598	-0.02
680.781	0.01
680.965	-0.04
681.148	0.04
681.331	-0.06
681.514	0
681.698	-0.02
681.881	0.02
682.064	0.01
682.247	-0.01
682.43	-0.07
682.614	0.03
682.797	0.06
682.98	0.08
683.163	-0.05
683.346	0.03
683.529	-0.02
683.712	-0.04
683.895	0.06
684.078	-0.01
684.261	-0.03
684.444	0.04
684.627	0.01
684.81	-0.08
684.993	-0.02
685.176	0.01
685.359	-0.02
685.542	-0.04
685.725	0.09
685.908	0.01
686.091	-0.04
686.274	0.01
686.457	-0
686.639	0.04
686.822	0.07
687.005	0.01
687.188	0.04
687.371	0.11
687.553	0.01
687.736	-0.02
687.919	0.03
688.102	0.1
688.284	-0.03
688.467	-0.02
688.65	-0.04
688.832	-0.01
689.015	0
689.197	-0.06
689.38	0.12
689.563	0.09
689.745	-0.01
689.928	-0.04
690.11	0.03
690.293	0.01
690.475	-0.06
690.658	0.05
690.84	0.01
691.023	-0.02
691.205	-0.03
691.388	0.01
691.57	0.08
691.752	0.06
691.935	-0.07
692.117	-0
692.3	0.03
692.482	0.02
692.664	-0.06
692.847	-0.01
693.029	0.06
693.211	0.01
693.393	-0.04
693.576	-0.01
693.758	0.01
693.94	-0.04
694.122	0.01
694.304	0.02
694.487	-0.03
694.669	0.12
694.851	-0.02
695.033	-0.02
695.215	-0.01
695.397	0.01
695.579	0.03
695.761	-0.07
695.943	-0.01
696.125	0.05
696.308	0.05
696.49	-0.09
696.671	0.15
696.853	-0.01
697.035	0.1
697.217	0.01
697.399	-0.01
697.581	-0.03
697.763	0.03
697.945	-0.04
698.127	0.04
698.309	-0.1
698.491	0.01
698.672	0.03
698.854	-0.02
699.036	0.09
699.218	-0.03
699.399	0.05
699.581	0.01
699.763	0.01
699.945	-0.02
700.126	-0
700.308	0.03
700.49	-0.04
700.671	-0.09
700.853	-0.04
701.035	-0.02
701.216	0.02
701.398	-0.02
701.579	-0.01
701.761	0.03
701.943	0.01
702.124	-0.05
702.306	-0.01
702.487	0.08
702.669	0.02
702.85	-0
703.031	-0.09
703.213	0.07
703.394	0.06
703.576	-0.05
703.757	0.06
703.938	0.09
704.12	0.15
704.301	0
704.483	0
704.664	-0.02
704.845	0.08
705.026	0.07
705.208	-0.08
705.389	-0.01
705.57	0.03
705.751	-0.04
705.933	-0.01
706.114	0.07
706.295	-0.04
706.476	-0.09
706.657	0.11
706.838	0.04
707.02	0.05
707.201	-0.01
707.382	-0.05
707.563	0.03
707.744	-0.03
707.925	-0.06
708.106	-0.04
708.287	0.06
708.468	0.08
708.649	0.05
708.83	-0.02
709.011	-0.04
709.192	0.05
709.373	-0.06
709.554	-0.02
709.734	-0.04
709.915	0.09
710.096	-0.02
710.277	-0.08
710.458	0.01
710.639	0.08
710.819	-0.08
711	-0.04
711.181	0.08
711.362	0.06
711.542	0.04
711.723	-0.03
711.904	0.09
712.085	0.02
712.265	0
712.446	-0.08
712.627	-0.02
712.807	-0.03
712.988	-0.02
713.168	-0.09
713.349	-0
713.53	-0.17
713.71	-0.08
713.891	-0.07
714.071	0.07
714.252	-0.03
714.432	0.02
714.613	-0.07
714.793	0.03
714.974	0.09
715.154	0.09
715.334	0.07
715.515	0.1
715.695	-0.05
715.876	-0.01
716.056	-0.05
716.236	-0.03
716.417	0.02
716.597	-0.03
716.777	0.18
716.957	-0.01
717.138	-0.05
717.318	0.07
717.498	-0.06
717.678	0.03
717.859	0.03
718.039	-0.16
718.219	-0.04
718.399	0.06
718.579	-0.03
718.759	-0.08
718.939	0.02
719.12	0.01
719.3	-0.03
719.48	-0.13
719.66	-0.08
719.84	0.1
720.02	-0.04
720.2	-0.08
720.38	-0.01
720.56	0.1
720.74	-0.03
720.92	0.05
721.1	0.06
721.279	0.07
721.459	0
721.639	-0.06
721.819	0.02
721.999	-0.01
722.179	0.06
722.359	-0.1
722.538	0.01
722.718	-0
722.898	-0.02
723.078	-0.03
723.257	-0.03
723.437	-0.04
723.617	-0.01
723.797	-0.05
723.976	0.02
724.156	0.02
724.336	0.15
724.515	0.23
724.695	-0.1
724.874	0.03
725.054	0.07
725.234	-0.04
725.413	-0.01
725.593	0.02
725.772	-0.03
725.952	-0.02
726.131	-0.07
726.311	0.01
726.49	-0.02
726.67	-0.13
726.849	-0.02
727.028	0.05
727.208	0.03
727.387	0.01
727.567	-0.15
727.746	-0.01
727.925	-0.03
728.105	-0.06
728.284	-0.01
728.463	-0.11
728.643	-0.01
728.822	-0.12
729.001	-0.05
729.18	-0.01
729.359	0.06
729.539	0.06
729.718	-0.02
729.897	0.09
730.076	-0.05
730.255	-0.04
730.434	0.03
730.614	0.01
730.793	0.03
730.972	0.02
731.151	-0.05
731.33	0.13
731.509	0.09
731.688	-0.04
731.867	-0.01
732.046	-0.12
732.225	0.14
732.404	-0.09
732.583	-0.15
732.762	0.01
732.941	0.01
733.12	0.01
733.298	0.01
733.477	0.06
733.656	-0.1
733.835	-0.1
734.014	0.03
734.193	-0.02
734.371	0.02
734.55	-0.03
734.729	-0.13
734.908	0.04
735.086	0.07
735.265	0.07
735.444	-0.1
735.623	-0.09
735.801	-0.05
735.98	-0.03
736.159	0.06
736.337	0.09
736.516	0.01
736.694	0.07
736.873	-0.1
737.052	0.11
737.23	0.12
737.409	-0.03
737.587	0.19
737.766	-0.16
737.944	-0.04
738.123	0
738.301	0.05
738.479	-0.06
738.658	-0.02
738.836	-0.15
739.015	0.02
739.193	0.11
739.371	-0.19
739.55	-0
739.728	-0.13
739.906	-0.01
740.085	0.21
740.263	-0.1
740.441	-0.23
740.62	0.25
740.798	0.09
740.976	-0.18
741.154	-0.08
741.332	0.13
741.511	-0.04
741.689	0.02
741.867	0.08
742.045	-0.01
742.223	-0.04
742.401	-0.08
742.579	-0.12
742.757	0.11
742.935	-0.03
743.114	-0.07
743.292	0.03
743.47	-0
743.648	-0.12
743.826	-0.09
744.004	0.02
744.181	0.03
744.359	-0.09
744.537	-0.02
744.715	0.03
744.893	-0.03
745.071	0.03
745.249	0.06
745.427	0.03
745.605	0.11
745.782	0.02
745.96	0.11
746.138	0.06
746.316	0.07
746.493	-0.02
746.671	-0
746.849	-0.02
747.027	0.12
747.204	-0.07
747.382	0.04
747.56	-0.09
747.737	0.03
747.915	0.01
748.093	0.07
748.27	-0.09
748.448	-0.09
748.625	-0.04
748.803	-0.07
748.98	-0.05
749.158	0.13
749.335	0.09
749.513	-0.02
749.69	0.07
749.868	-0.01
750.045	0.07
750.223	-0.12
750.4	-0.12
750.578	0.18
750.755	-0.05
750.932	-0.03
751.11	0.04
751.287	-0.15
751.464	0.09
751.642	-0.1
751.819	0.05
751.996	-0.06
752.173	-0.07
752.351	-0.11
752.528	0.02
752.705	-0.08
752.882	-0.06
753.06	0.03
753.237	0.08
753.414	0.2
753.591	0.23
753.768	-0.06
753.945	-0.03
754.122	-0.09
754.299	0.09
754.476	-0.12
754.654	0
754.831	-0
755.008	0.07
755.185	-0.01
755.362	-0.09
755.539	0.05
755.716	-0.05
755.892	0.06
756.069	-0.09
756.246	-0.08
756.423	-0.02
756.6	0.24
756.777	0.02
756.954	0.12
757.131	-0.01
757.307	-0.14
757.484	-0.18
757.661	0.03
757.838	0.18
758.015	-0.15
758.191	0.08
758.368	0.01
758.545	0.16
758.721	0.03
758.898	-0.09
759.075	0.05
759.251	0.18
759.428	0.03
759.605	-0.21
759.781	-0.06
759.958	0
760.134	0.04
760.311	-0.12
760.488	0.17
760.664	0.1
760.841	0.04
761.017	-0.06
761.194	0.03
761.37	0.06
761.547	-0.05
761.723	0.04
761.899	0.15
762.076	-0.04
762.252	-0.07
762.429	-0.06
762.605	0.07
762.781	-0.12
762.958	0.11
763.134	-0
763.31	0.06
763.486	0.03
763.663	-0.07
763.839	0.04
764.015	-0.18
764.191	-0.11
764.368	-0.15
764.544	-0.04
764.72	0.1
764.896	0.15
765.072	0.01
765.248	-0.04
765.425	0.03
765.601	0.12
765.777	0.07
765.953	-0.12
766.129	-0.09
766.305	-0.13
766.481	0.03
766.657	0.05
766.833	0.15
767.009	-0.25
767.185	-0.08
767.361	0.03
767.537	-0.19
767.713	0.23
767.889	-0.05
768.065	-0
768.24	0.08
768.416	0.16
768.592	-0.05
768.768	0.04
768.944	0.09
769.12	-0.05
769.295	-0.06
769.471	-0.03
769.647	-0.13
769.823	0.11
769.998	0.02
770.174	-0.17
770.35	0.29
770.525	0.25
770.701	-0.03
770.877	0
771.052	-0.09
771.228	0.06
771.403	0.14
771.579	0.02
771.755	0.25
771.93	-0.06
772.106	-0.2
772.281	-0.1
772.457	0.05
772.632	0.06
772.808	-0.18
772.983	-0.05
773.159	-0.27
773.334	0.24
773.509	-0.13
773.685	-0.05
773.86	0.29
774.036	0.27
774.211	0.04
774.386	0
774.562	-0.04
774.737	0.04
774.912	-0.24
775.087	0.09
775.263	0.03
775.438	0.08
775.613	-0.13
775.788	-0.01
775.964	0.17
776.139	0.47
776.314	-0.23
776.489	0.08
776.664	0.01
776.839	-0.05
777.014	0.11
777.19	0.1
777.365	0.25
777.54	0.25
777.715	-0.11
777.89	0.04
778.065	-0.14
778.24	0.01
778.415	0.16
778.59	-0.19
778.765	0.06
778.94	0.06
779.115	-0.04
779.289	-0.13
779.464	0.05
779.639	-0.03
779.814	-0.23
779.989	-0.22
780.164	0.18
780.339	0.18
780.513	-0.19
780.688	-0.14
780.863	-0.03
781.038	0.14
781.212	-0.24
781.387	0.11
781.562	0.28
781.737	0.21
781.911	0.13
782.086	-0.18
782.261	-0.06
782.435	0.14
782.61	-0.1
782.784	0
782.959	0.23
783.134	-0.03
783.308	-0.31
783.483	-0.07
783.657	0.45
783.832	0.13
784.006	-0.33
784.181	0.07
784.355	0.23
784.53	0.11
784.704	-0.25
784.878	0
785.053	0.13
785.227	0.14
785.402	0.34
785.576	-0.2
785.75	0.05
785.925	-0.23
786.099	0.14
786.273	0.23
786.448	0.21
786.622	0.11
786.796	0.04
786.97	0.06
787.145	0.48
787.319	-0.25
787.493	-0.11
787.667	-0.37
787.841	0.04
788.015	0.18
788.19	-0.18
788.364	-0.01
788.538	0.42
788.712	0.24
788.886	-0.1
789.06	0.29
789.234	0.12
789.408	-0.2
789.582	-0.08
789.756	0.06
789.93	-0.23
790.104	-0.02
790.278	-0.04
790.452	-0.12
790.626	0.11
790.8	0.01
790.973	0.38
791.147	0.34
791.321	0.32
791.495	0.28
791.669	0.05
791.843	0.09
792.016	0.32
792.19	0.36
792.364	-0.38
792.538	0.48
792.711	0.33
792.885	0.05
793.059	-0.13
793.233	-0.51
793.406	0.28
793.58	0.1
793.754	0.12
793.927	-0.13
794.101	0.2
794.274	0.17
794.448	0.19
794.622	-0.16
794.795	0.32
794.969	-0.12
795.142	0.33
795.316	-0.07
795.489	-0.13
795.663	0.16
795.836	-0.27
796.009	-0.15
796.183	0.42
796.356	0.1
796.53	0.17
796.703	-0.06
796.876	0.54
797.05	-0.11
797.223	-0.01
797.396	-0.12
797.57	0.09
797.743	0.37
797.916	-0.08
798.09	-0.05
798.263	0.16
798.436	0.01
798.609	-0.02
798.782	-0.2
798.956	0.02
799.129	0.05
799.302	-0.34
799.475	-0.26
799.648	-0.16
799.821	-0.21
799.994	0.09
800.167	-0.44
800.34	0.06
800.514	0.13
800.687	0.02
800.86	-0.07
801.033	0.24
801.206	0.01
801.379	-0.18
801.551	-0.11
801.724	-0.05
801.897	0.64
802.07	-0.14
802.243	-0.5
802.416	-0.07
802.589	-0.09
802.762	0.1
802.935	-0.02
803.107	0.27
803.28	0.46
803.453	0.18
803.626	-0.2
803.798	0.07
803.971	-0.11
804.144	-0.04
804.317	0.09
804.489	0.34
804.662	-0.14
804.835	0.15
805.007	-0.09
805.18	0.35
805.353	0.13
805.525	-0.35
805.698	-0.09
805.87	0.25
806.043	0.32
806.215	-0.19
806.388	-0.43
806.56	0.18
806.733	0.4
806.905	0.16
807.078	-0.1
807.25	-0.33
807.423	0.1
807.595	0.16
807.768	0.03
807.94	0.4
808.112	0.2
808.285	0.08
808.457	-0.12
808.629	-0.06
808.802	0.25
808.974	-0.1
809.146	-0.1
809.318	-0.19
809.491	0.29
809.663	0.23
809.835	-0.18
810.007	0.42
810.18	-0.22
810.352	-0.48
810.524	-0.14
810.696	0.07
810.868	0.24
811.04	-0.31
811.212	-0.13
811.384	0.18
811.556	-0.11
811.728	-0.13
811.901	0.58
812.073	-0.32
812.245	0.52
812.417	0.36
812.589	-0.51
812.76	0.18
812.932	0.4
813.104	0.41
813.276	-0.23
813.448	0.51
813.62	0.44
813.792	0.14
813.964	-0.02
814.136	0.26
814.307	0.08
814.479	-0.2
814.651	-0.53
814.823	0.91
814.995	-0.01
815.166	0.05
815.338	-0.11
815.51	-0.45
815.681	0.57
815.853	0.19
816.025	0.35
816.196	0.49
816.368	0.23
816.54	-0.5
816.711	-0.4
816.883	0.11
817.054	1.29
817.226	-0.11
817.398	0.15
817.569	-0.31
817.741	0.09
817.912	0.19
818.084	0.1
818.255	0.62
818.426	-0.27
818.598	-0.04
818.769	-0.4
818.941	0.1
819.112	0.58
819.283	-0.09
819.455	-0.09
819.626	-0.22
819.798	0.18
819.969	0.31
820.14	0.24
820.311	-0.12
820.483	0.48
820.654	0.22
820.825	-0.22
820.996	0.1
821.168	-0.45
821.339	-0.19
821.51	-0.45
821.681	-0.32
821.852	-0.18
822.023	-0.3
822.195	-0.98
822.366	0.61
822.537	0.32
822.708	0.14
822.879	-0.13
823.05	0.98
823.221	-0.56
823.392	0.22
823.563	-0.13
823.734	0.26
823.905	-0.16
824.076	0.2
824.247	-0.37
824.418	0.08
824.589	0.25
824.759	-0.04
824.93	-0.02
825.101	-0.67
825.272	0.94
825.443	0.57
825.614	0.44
825.784	-1.09
825.955	1.13
826.126	0.73
826.297	0.46
826.467	0.43
826.638	0.89
826.809	-0.44
826.98	-0.37
827.15	-0.17
827.321	-0.06
827.492	0.74
827.662	-0.03
827.833	1.06
828.003	0.34
828.174	-0.62
828.345	-0.56
828.515	0.77
828.686	0.26
828.856	0.05
829.027	-0.1
829.197	0.23
829.368	0.44
829.538	-0.12
829.709	-0.31
829.879	0.46
830.049	-0.25
830.22	-0.53
830.39	0.05
830.56	0.64
830.731	-0.1
830.901	-0.47
831.072	-0.31
831.242	0.25
831.412	0.46
831.582	0.26
831.753	-1.31
831.923	0.73
832.093	0.34
832.263	0.35
832.434	-0.49
832.604	-0.24
832.774	-0.24
832.944	-0.42
833.114	-0.4
833.284	-0.03
833.454	-0.61
833.624	-0.15
833.795	-0.59
833.965	0.57
834.135	0.73
834.305	-0.93
834.475	-0.78
834.645	-0.26
834.815	-0.11
834.985	-0.24
835.155	-0.3
835.325	0.53
835.494	0.03
835.664	-0.04
835.834	-0.84
836.004	-0.16
836.174	0.05
836.344	0.21
836.514	-1.02
836.684	-0.37
836.853	-0.31
837.023	0.5
837.193	-0.24
837.363	0.55
837.532	0.68
837.702	0.06
837.872	-0.49
838.041	0.28
838.211	0.86
838.381	-0.69
838.55	-0.15
838.72	2.23
838.89	1.45
839.059	-0.15
839.229	-0.93
839.398	0.93
839.568	0.56
839.738	-0.05
839.907	0.64
840.077	0.64
840.246	-0.2
840.416	-0.39
840.585	-0.59
840.755	1.51
840.924	0.72
841.093	-0.45
841.263	-0.79
841.432	0.24
841.602	-0.77
841.771	-0.56
841.94	0.06
842.11	1.81
842.279	1.87
842.448	-0.72
842.617	-0.53
842.787	0.98
842.956	-1.09
843.125	0.18
843.294	-0.16
843.464	1.23
843.633	0.53
843.802	-1.11
843.971	-0.02
844.14	0.84
844.309	0.98
844.479	-0.98
844.648	-0.49
844.817	-0.38
844.986	-0.6
845.155	-0.42
845.324	-0.07
845.493	-0.24
845.662	-0.62
845.831	1.03
846	0.35
846.169	-0.23
846.338	0.92
846.507	0.63
846.676	-0.07
846.844	-0.1
847.013	1.22
847.182	0.41
847.351	-0.19
847.52	-0.22
847.689	0.62
847.858	-0.61
848.026	-0.41
848.195	0.15
848.364	-0.62
848.533	-1.08
848.701	-1.02
848.87	0.22
849.039	1.34
849.207	0.11
849.376	0.99
849.545	0.98
849.713	0.37
849.882	0.13
850.051	0.37
850.219	0.96
850.388	0.51
850.556	-0.5
850.725	-0.29
850.893	0.11
851.062	-0.59
851.23	1.4
851.399	-0.76
851.567	-0.59
851.736	-0.23
851.904	-0.93
852.073	0.05
852.241	1.46
852.41	-1.19
852.578	-0.16
852.746	-1.39
852.915	0.32
853.083	0.39
853.251	-1.21
853.42	-0.66
853.588	0.36
853.756	0.98
853.924	-0.24
854.093	-0.49
854.261	-1.95
854.429	-1.21
854.597	-0.32
854.765	-1.07
854.934	0.26
855.102	2.63
855.27	0.49
855.438	1.1
855.606	1.37
855.774	0.9
855.942	-2.5
856.11	-1.63
856.278	-0.21
856.446	0.45
856.614	0.6
856.782	-0.31
856.95	0.64
857.118	1.18
857.286	-0.71
857.454	-0.87
857.622	0.69
857.79	-0.13
857.958	-0.45
858.126	-0.28
858.294	-1.93
858.462	0.83
858.629	-0.41
858.797	-1.01
858.965	-0.41
859.133	0.42
859.301	0.66
859.468	0.85
859.636	-1.65
859.804	1.91
859.971	0.15
860.139	-1.12
860.307	0.54
860.474	0.99
860.642	-0.6
860.81	0.22
860.977	-0.21
861.145	1.84
861.313	-0.5
861.48	0.76
861.648	1.42
861.815	0.35
861.983	-0.93
862.15	-0.33
862.318	0.01
862.485	1.51
862.653	0.3
862.82	-0.71
862.988	2.43
863.155	0.67
863.322	-1.45
863.49	-2.11
863.657	-0.86
863.824	1.84
863.992	0.3
864.159	0.15
864.326	0.96
864.494	-0.25
864.661	2.1
864.828	-1.6
864.996	1.57
865.163	1.95
865.33	-1.86
865.497	-2.54
865.664	-1.72
865.832	-2.27
865.999	-0.74
866.166	-1.91
866.333	-1.33
866.5	-0.97
866.667	1.13
866.834	-2.05
867.001	0.78
867.168	-1.92
867.335	1.26
867.502	-2.75
867.669	1.51
867.836	2.85
868.003	0.52
868.17	2.02
868.337	-0.91
868.504	3.94
868.671	-2
868.838	-1.62
869.005	-0.62
869.172	0.62
869.339	0.91
869.505	0.32
869.672	0.33
869.839	-0.17
870.006	1.2
870.173	-1.26
870.339	0.25
870.506	2.65
870.673	-1.47
870.84	1.33
871.006	0.6
871.173	-0.29
871.34	0.11
871.506	-0.24
871.673	-0.34
871.839	-2.35
872.006	0.87
872.173	-0.02
872.339	0.56
872.506	1.64
872.672	-0.86
872.839	-2.33
873.005	1.1
873.172	3.77
873.338	1.32
873.505	0.09
873.671	1.55
873.838	0.29
874.004	-2.26
874.171	-0.65
874.337	1.49
874.503	1.07
874.67	0.07
874.836	-0.29
875.002	3.1
875.169	1.51
875.335	0.12
875.501	-0.58
875.668	0.07
875.834	0.6
876	0.43
876.166	0.68
876.332	1.78
876.499	2.82
876.665	-1.39
876.831	-1.13
876.997	3.13
877.163	1.97
877.329	-1.46
877.495	1.03
877.662	1.83
877.828	1.39
877.994	-2.28
878.16	-3.45
878.326	-1.51
878.492	1.33
878.658	-0.57
878.824	1.1
878.99	0.82
879.156	-0.48
879.322	1.81
879.487	-0.76
879.653	1.63
879.819	1.49
879.985	-0.46
880.151	1.27
880.317	1.59
880.483	-1.1
880.648	0.99
880.814	-3.21
880.98	2.7
881.146	-0.77
881.312	-0.92
881.477	-1.69
881.643	-0.26
881.809	2.69
881.974	0.68
882.14	-1.43
882.306	-0.41
882.471	4.2
882.637	0.41
882.803	1.78
882.968	3.48
883.134	2.97
883.299	0.43
883.465	1.78
883.63	1.72
883.796	0.02
883.961	-1.15
884.127	1.23
884.292	-2.1
884.458	-1.49
884.623	-1.49
