Data from Apollo_Calib_20240827__AbsoluteIrradiance__493__07-22-00-437.txt Node

Date: Wed Aug 28 07:22:00 BST 2024
User: biology
Spectrometer: FLMT08252
Trigger mode: 0
Integration Time (sec): 5.000000E-1
Scans to average: 5
Electric dark correction enabled: true
Nonlinearity correction enabled: false
Boxcar width: 0
XAxis mode: Wavelengths
Number of Pixels in Spectrum: 3648
>>>>>Begin Spectral Data<<<<<
179.588	-0
179.809	-0
180.03	-0
180.251	-0
180.473	-0
180.694	0
180.915	0
181.136	-0
181.357	0
181.578	-0
181.799	-0
182.02	-0
182.241	0
182.462	-0
182.683	0
182.904	-0
183.125	-0
183.346	-0
183.567	0
183.788	-0
184.009	-0
184.23	0
184.451	0
184.672	-0
184.892	-0
185.113	0
185.334	0
185.555	-0
185.776	-0
185.996	0
186.217	0
186.438	-0
186.659	-0
186.879	-0
187.1	-0
187.321	-0
187.541	-0
187.762	-0
187.983	-0
188.203	-0
188.424	-0
188.644	-0
188.865	0
189.086	0
189.306	-0
189.527	-0
189.747	0
189.968	-0
190.188	-0
190.409	-0
190.629	0
190.849	-0
191.07	-0
191.29	0
191.511	0
191.731	-0
191.951	-0
192.172	-0
192.392	0
192.612	0
192.833	0
193.053	0
193.273	0
193.493	-0
193.714	-0
193.934	0
194.154	0
194.374	0
194.594	0
194.815	0
195.035	0
195.255	-0
195.475	-0
195.695	0
195.915	0
196.135	0
196.355	0
196.575	0
196.795	-0
197.015	-0
197.235	-0
197.455	-0
197.675	0
197.895	-0
198.115	-0
198.335	0
198.555	-0
198.775	0
198.995	0
199.214	0
199.434	-0
199.654	-0
199.874	-0
200.094	-1
200.313	0.13
200.533	-0.67
200.753	-0.55
200.973	1.09
201.192	0.75
201.412	-0.54
201.632	-0.1
201.851	0.89
202.071	-0.25
202.291	-0.54
202.51	-0.93
202.73	0.22
202.95	-0.62
203.169	-0.51
203.389	0.28
203.608	-0.14
203.828	-0.69
204.047	0.09
204.267	0.41
204.486	-0.22
204.706	-0.02
204.925	-0.2
205.145	-0.29
205.364	-0
205.583	0.55
205.803	-0.21
206.022	-0.54
206.242	-0.18
206.461	-0.14
206.68	-0.26
206.9	0.24
207.119	0.3
207.338	0.4
207.557	-0.12
207.777	-0.14
207.996	0.02
208.215	0.61
208.434	-0.27
208.654	-0.49
208.873	-0.2
209.092	0.41
209.311	-0.14
209.53	-0.31
209.749	-0.02
209.968	-0.28
210.187	-0.37
210.407	-0.56
210.626	-0.15
210.845	0.17
211.064	0.04
211.283	-0.22
211.502	0.14
211.721	0.09
211.94	-0.05
212.159	0.26
212.377	0.27
212.596	0.2
212.815	-0.08
213.034	-0.04
213.253	0.11
213.472	0.22
213.691	-0.19
213.91	-0.2
214.128	-0.1
214.347	0.31
214.566	-0.34
214.785	-0.16
215.003	0.09
215.222	-0.02
215.441	0.05
215.66	-0.23
215.878	-0.17
216.097	0.28
216.316	-0.39
216.534	-0.02
216.753	0.1
216.972	0.04
217.19	-0.01
217.409	-0.24
217.627	-0.17
217.846	-0.13
218.064	-0.11
218.283	-0.27
218.501	0.44
218.72	0.16
218.938	-0.21
219.157	-0.09
219.375	0.2
219.594	0.14
219.812	-0.28
220.031	-0.08
220.249	0.3
220.467	0.09
220.686	-0.18
220.904	-0.07
221.122	-0.09
221.341	0.26
221.559	0.03
221.777	-0.23
221.995	0.06
222.214	0.05
222.432	-0.12
222.65	0.15
222.868	-0.05
223.086	0.2
223.305	0.17
223.523	-0.12
223.741	0.22
223.959	-0.1
224.177	-0.29
224.395	-0.14
224.613	0.02
224.831	0.12
225.049	-0.06
225.267	-0.08
225.485	-0.01
225.703	-0.11
225.921	-0.03
226.139	-0.22
226.357	0.04
226.575	0.08
226.793	-0.07
227.011	0.6
227.229	0.09
227.447	-0.02
227.665	-0.03
227.883	-0.32
228.1	0
228.318	-0.1
228.536	-0.24
228.754	-0.13
228.972	0.15
229.189	0.09
229.407	-0.07
229.625	-0.07
229.843	0.19
230.06	-0
230.278	-0.22
230.496	-0.11
230.713	-0.04
230.931	0.15
231.149	-0.04
231.366	-0.22
231.584	-0.07
231.801	0.29
232.019	-0.1
232.236	-0.17
232.454	-0.2
232.671	-0.03
232.889	0.09
233.106	-0.09
233.324	0.01
233.541	-0.11
233.759	-0.09
233.976	-0.09
234.194	-0.09
234.411	-0
234.628	-0.1
234.846	-0.05
235.063	0.01
235.28	-0.12
235.498	-0.05
235.715	-0.26
235.932	0.04
236.149	-0.03
236.367	-0.08
236.584	-0.04
236.801	-0.07
237.018	0.03
237.236	0.01
237.453	-0.16
237.67	0.04
237.887	-0.04
238.104	-0.02
238.321	-0.05
238.538	-0.08
238.755	-0.02
238.973	-0.16
239.19	-0.08
239.407	0.05
239.624	0
239.841	-0.08
240.058	-0.16
240.275	0.1
240.492	-0.13
240.709	0.02
240.925	-0.03
241.142	-0
241.359	-0.12
241.576	-0.12
241.793	-0.08
242.01	0.05
242.227	0.05
242.444	0.13
242.66	0.11
242.877	0.01
243.094	-0.05
243.311	0.05
243.527	-0.05
243.744	0.02
243.961	0.1
244.178	-0.1
244.394	0.03
244.611	0.1
244.828	0.16
245.044	-0.11
245.261	-0.02
245.477	-0.01
245.694	0.04
245.911	-0.05
246.127	-0.01
246.344	0.21
246.56	0.02
246.777	-0.05
246.993	-0.02
247.21	-0.01
247.426	0.05
247.643	-0.01
247.859	-0.07
248.076	-0.08
248.292	0.07
248.508	-0.06
248.725	-0.01
248.941	0.04
249.157	0.11
249.374	-0.03
249.59	-0.08
249.806	0.03
250.023	0.11
250.239	-0.03
250.455	-0.02
250.671	-0.01
250.888	0.05
251.104	0.04
251.32	-0.01
251.536	-0.07
251.752	-0.02
251.969	0
252.185	0.07
252.401	0.16
252.617	0.02
252.833	-0.11
253.049	0.01
253.265	0.02
253.481	-0.01
253.697	-0.06
253.913	-0.05
254.129	-0.05
254.345	0.04
254.561	-0.05
254.777	-0.07
254.993	0.07
255.209	-0.04
255.425	-0.08
255.641	-0.04
255.857	0.1
256.073	0
256.288	-0.09
256.504	-0.02
256.72	0.04
256.936	0.15
257.152	-0.05
257.367	-0.01
257.583	-0.04
257.799	0.06
258.015	-0.03
258.23	0.02
258.446	0.04
258.662	0.04
258.877	-0
259.093	-0.06
259.309	0.01
259.524	-0.01
259.74	-0.02
259.955	-0.1
260.171	0.04
260.387	-0.02
260.602	0.06
260.818	0.1
261.033	-0.01
261.249	0.01
261.464	0.02
261.68	-0.11
261.895	-0.06
262.11	0.04
262.326	-0.04
262.541	-0.09
262.757	0.03
262.972	0.02
263.187	0.01
263.403	-0.07
263.618	0.07
263.833	0.09
264.049	-0.07
264.264	-0.02
264.479	0.05
264.694	0.06
264.91	-0.1
265.125	-0.03
265.34	0.03
265.555	0.12
265.77	0
265.986	-0.05
266.201	0.01
266.416	0.08
266.631	-0.07
266.846	-0.02
267.061	0.06
267.276	0.06
267.491	-0.14
267.706	0.06
267.921	0.04
268.136	0.03
268.351	0
268.566	-0.14
268.781	0.05
268.996	0.04
269.211	-0.04
269.426	-0.07
269.641	-0.04
269.856	0.04
270.071	-0.01
270.285	-0.12
270.5	0.07
270.715	-0.01
270.93	0.04
271.145	0.05
271.359	0.04
271.574	-0.07
271.789	0.03
272.004	-0.05
272.218	-0.03
272.433	0.01
272.648	-0.01
272.862	0.06
273.077	-0.02
273.292	0.03
273.506	-0.06
273.721	-0.09
273.936	0.06
274.15	0.07
274.365	-0.04
274.579	0.03
274.794	0.02
275.008	0.05
275.223	-0.09
275.437	0.01
275.652	0.03
275.866	0.02
276.081	0
276.295	0.1
276.509	0.01
276.724	0.02
276.938	0.03
277.153	0.01
277.367	0.05
277.581	-0.07
277.796	-0.02
278.01	-0.04
278.224	0.04
278.438	0.15
278.653	-0.08
278.867	-0
279.081	-0.17
279.295	-0.03
279.51	0.02
279.724	-0.09
279.938	0.03
280.152	-0.01
280.366	-0.01
280.58	-0.02
280.794	0.05
281.008	0.02
281.222	0.02
281.437	0.1
281.651	-0.01
281.865	0.07
282.079	-0.04
282.293	-0.09
282.507	-0.06
282.721	0.04
282.935	-0.01
283.148	-0.08
283.362	-0.03
283.576	-0.04
283.79	0.04
284.004	-0.06
284.218	0.02
284.432	-0.03
284.646	-0.02
284.859	-0.04
285.073	-0.01
285.287	-0.01
285.501	0.01
285.714	-0.03
285.928	0.05
286.142	-0
286.356	-0.08
286.569	-0.02
286.783	0.1
286.997	-0
287.21	0.01
287.424	-0.05
287.637	-0.07
287.851	0
288.065	0.04
288.278	0.02
288.492	0.02
288.705	-0.02
288.919	-0.01
289.132	-0.02
289.346	0.03
289.559	-0.11
289.773	-0.05
289.986	-0.05
290.2	0.02
290.413	-0.01
290.626	-0.02
290.84	-0.01
291.053	-0.01
291.267	0.08
291.48	0.03
291.693	0
291.906	-0.02
292.12	-0.03
292.333	-0.08
292.546	-0.04
292.76	0.06
292.973	0.03
293.186	0.04
293.399	-0.01
293.612	0.07
293.826	-0.01
294.039	0.03
294.252	-0.01
294.465	0.05
294.678	0.06
294.891	-0
295.104	-0.04
295.317	-0
295.53	0.03
295.743	0.05
295.956	0.01
296.169	0.08
296.382	0.06
296.595	-0.02
296.808	-0.06
297.021	0.03
297.234	0.04
297.447	0.03
297.66	0.04
297.873	0.08
298.086	0.04
298.299	-0.03
298.511	-0.06
298.724	-0.03
298.937	0.02
299.15	-0.05
299.363	0.01
299.575	0.04
299.788	-0.02
300.001	-0.03
300.213	-0.09
300.426	0.03
300.639	-0.05
300.852	0
301.064	0.02
301.277	0.07
301.489	-0
301.702	0.03
301.915	-0.02
302.127	-0.01
302.34	-0.01
302.552	-0.02
302.765	-0.03
302.977	0.04
303.19	-0.01
303.402	-0.03
303.615	0
303.827	-0.01
304.04	-0.03
304.252	0.02
304.464	0.01
304.677	0.11
304.889	0.02
305.102	-0.06
305.314	0.01
305.526	0.07
305.739	0.04
305.951	-0.05
306.163	-0.03
306.375	0.07
306.588	-0.01
306.8	-0.04
307.012	-0.04
307.224	0.03
307.436	0.06
307.649	-0.09
307.861	0.01
308.073	0.06
308.285	0.01
308.497	-0.02
308.709	-0.06
308.921	0
309.133	0.05
309.346	0.03
309.558	-0.02
309.77	0.08
309.982	0.05
310.194	0.03
310.406	-0
310.617	0.06
310.829	0.02
311.041	0.02
311.253	-0.05
311.465	-0
311.677	0.01
311.889	-0
312.101	0.01
312.313	0.05
312.524	0
312.736	-0.07
312.948	0.01
313.16	0.08
313.372	0.03
313.583	0.04
313.795	-0
314.007	-0.02
314.218	0.03
314.43	-0
314.642	-0.04
314.853	-0.02
315.065	0.05
315.277	-0.05
315.488	0.03
315.7	0.06
315.912	0.03
316.123	0.01
316.335	-0.03
316.546	0.07
316.758	0
316.969	-0.04
317.181	0.01
317.392	0
317.604	0.04
317.815	-0.07
318.026	0.01
318.238	-0.01
318.449	0.04
318.661	-0.05
318.872	-0.05
319.083	-0.07
319.295	0.01
319.506	-0.01
319.717	0.03
319.929	0.03
320.14	-0.01
320.351	-0.02
320.562	-0.03
320.774	0.02
320.985	0
321.196	-0.04
321.407	-0.04
321.618	0.02
321.829	-0.01
322.041	0.05
322.252	0.04
322.463	0.08
322.674	0.01
322.885	-0.05
323.096	0
323.307	0.01
323.518	0.02
323.729	-0
323.94	0.05
324.151	-0.03
324.362	0.01
324.573	-0
324.784	-0.02
324.995	0.05
325.206	0.01
325.417	-0.01
325.628	-0.01
325.838	-0.02
326.049	-0.01
326.26	0.02
326.471	-0.05
326.682	0.02
326.892	0.01
327.103	-0.05
327.314	-0.04
327.525	0.02
327.735	-0.01
327.946	-0.01
328.157	-0.04
328.368	-0.03
328.578	-0.03
328.789	0.01
328.999	0.01
329.21	-0
329.421	0.02
329.631	0
329.842	-0.06
330.052	0.04
330.263	0.02
330.473	0.02
330.684	-0.02
330.894	-0.03
331.105	0.03
331.315	-0
331.526	-0.06
331.736	0.07
331.947	0.01
332.157	0.03
332.367	-0.09
332.578	0.05
332.788	0.06
332.999	0.04
333.209	0.02
333.419	-0.04
333.629	-0.04
333.84	0.04
334.05	-0.01
334.26	0.07
334.47	0.01
334.681	0.06
334.891	0
335.101	0.02
335.311	0.1
335.521	-0.05
335.732	0
335.942	0.04
336.152	0.02
336.362	0.01
336.572	0.03
336.782	0.04
336.992	-0.01
337.202	-0
337.412	-0.04
337.622	-0.01
337.832	0
338.042	0.02
338.252	0
338.462	-0.05
338.672	0.02
338.882	0.01
339.092	0.02
339.302	0.06
339.511	0.01
339.721	-0.02
339.931	-0.05
340.141	0.04
340.351	0.03
340.561	0
340.77	0.03
340.98	-0.01
341.19	0.05
341.4	0.01
341.609	-0.04
341.819	-0.01
342.029	-0.03
342.238	-0.01
342.448	-0
342.658	0.03
342.867	-0.02
343.077	0.01
343.286	0
343.496	-0
343.706	0.06
343.915	-0.04
344.125	-0.01
344.334	0.04
344.544	-0.02
344.753	0.03
344.963	-0
345.172	-0.04
345.381	-0.02
345.591	-0.02
345.8	0
346.01	0.05
346.219	0.06
346.428	-0.14
346.638	0
346.847	-0.01
347.056	0.06
347.266	0.02
347.475	-0
347.684	0.04
347.893	0.07
348.103	0.03
348.312	-0.01
348.521	-0.03
348.73	-0.01
348.94	-0.01
349.149	0.02
349.358	-0.03
349.567	-0.02
349.776	-0.02
349.985	0
350.194	-0
350.403	0.07
350.612	-0.05
350.821	-0
351.03	0.03
351.239	-0.08
351.448	0
351.657	-0.03
351.866	0.08
352.075	-0.02
352.284	-0
352.493	-0.08
352.702	0.03
352.911	0.02
353.12	0.01
353.329	0.03
353.538	0.04
353.746	0.01
353.955	0.01
354.164	-0.01
354.373	-0.04
354.582	0.01
354.79	0.02
354.999	0.02
355.208	-0.02
355.416	0.05
355.625	-0.04
355.834	-0.03
356.042	-0.02
356.251	-0.01
356.46	-0.04
356.668	0.04
356.877	0.05
357.085	0.06
357.294	-0.11
357.503	0.04
357.711	0.01
357.92	0.11
358.128	-0.02
358.337	-0.01
358.545	-0.01
358.754	-0.02
358.962	0
359.17	0.01
359.379	0.01
359.587	-0
359.796	0
360.004	0.03
360.212	0.03
360.421	0.08
360.629	0
360.837	-0.01
361.046	0.02
361.254	0.11
361.462	-0.04
361.67	0.03
361.879	-0.01
362.087	0.11
362.295	-0
362.503	-0.02
362.711	-0.02
362.92	-0
363.128	-0.02
363.336	-0.04
363.544	-0.05
363.752	-0.01
363.96	-0.05
364.168	-0.02
364.376	0.01
364.584	-0
364.792	0.02
365	-0.01
365.208	0.05
365.416	0.01
365.624	0.03
365.832	-0.03
366.04	0.02
366.248	0
366.456	-0.01
366.664	-0
366.872	-0.01
367.079	0.02
367.287	-0.01
367.495	0.01
367.703	0.01
367.911	-0.01
368.118	0.01
368.326	-0.01
368.534	-0.03
368.742	0.05
368.949	-0.03
369.157	-0.02
369.365	0.02
369.572	-0.03
369.78	-0
369.988	0.01
370.195	0.03
370.403	0
370.61	-0.05
370.818	-0.01
371.026	0.01
371.233	0.01
371.441	0.02
371.648	-0.02
371.856	-0
372.063	0.01
372.271	0.01
372.478	-0
372.685	0
372.893	0.02
373.1	-0.02
373.308	-0.02
373.515	0.07
373.722	0.04
373.93	-0
374.137	0.06
374.344	0.05
374.552	0.05
374.759	0.01
374.966	-0
375.173	-0
375.381	0.05
375.588	-0.02
375.795	-0.04
376.002	-0.01
376.209	-0.02
376.417	0.01
376.624	-0.04
376.831	0.04
377.038	-0.01
377.245	-0.09
377.452	-0.03
377.659	-0.02
377.866	-0.02
378.073	-0.02
378.28	-0.01
378.487	0.06
378.694	0.02
378.901	0.03
379.108	0.01
379.315	0.03
379.522	0.06
379.729	0.01
379.936	-0
380.143	-0
380.35	0.01
380.557	-0.03
380.763	-0.02
380.97	-0
381.177	-0
381.384	0.05
381.591	0.01
381.797	0.01
382.004	0.01
382.211	0.03
382.418	-0.06
382.624	0
382.831	0
383.038	0.01
383.244	-0
383.451	-0.05
383.658	0.02
383.864	0.01
384.071	-0
384.277	0.05
384.484	-0.02
384.69	0.01
384.897	-0.02
385.103	-0.04
385.31	-0.03
385.516	-0.01
385.723	-0.03
385.929	-0.02
386.136	-0.03
386.342	0.03
386.549	-0
386.755	0.03
386.961	0.01
387.168	-0.03
387.374	-0.02
387.58	0.05
387.787	0.03
387.993	0.04
388.199	-0.04
388.406	-0.05
388.612	-0.01
388.818	-0.02
389.024	0.01
389.231	-0.03
389.437	0.1
389.643	0.02
389.849	0.01
390.055	-0.01
390.261	0.04
390.467	0.03
390.674	-0.03
390.88	-0.02
391.086	0.01
391.292	-0.05
391.498	0.03
391.704	-0.01
391.91	-0.03
392.116	-0.04
392.322	-0.09
392.528	0.02
392.734	-0.02
392.94	-0.04
393.146	-0.01
393.352	0.01
393.557	-0.04
393.763	-0.01
393.969	0.06
394.175	0.01
394.381	-0.01
394.587	-0.07
394.792	-0.04
394.998	0.07
395.204	0.06
395.41	-0.03
395.615	0.06
395.821	-0.02
396.027	0.03
396.233	-0.04
396.438	0.03
396.644	0.04
396.85	-0.03
397.055	-0
397.261	-0.02
397.466	0.11
397.672	0.01
397.878	-0.01
398.083	0.02
398.289	-0.02
398.494	0.03
398.7	-0.02
398.905	-0.06
399.111	0.07
399.316	-0.02
399.522	-0
399.727	-0.02
399.932	-0.03
400.138	-0.02
400.343	0.03
400.549	0.06
400.754	0.01
400.959	0.06
401.165	0.01
401.37	-0.01
401.575	0.03
401.78	-0
401.986	-0.06
402.191	0.02
402.396	0.06
402.601	-0.01
402.807	0.04
403.012	-0.01
403.217	0.05
403.422	0.05
403.627	-0
403.832	-0.01
404.037	-0.01
404.243	0.03
404.448	-0.06
404.653	-0
404.858	-0.01
405.063	0.03
405.268	-0.05
405.473	-0.07
405.678	-0.06
405.883	0.11
406.088	0.04
406.293	-0.07
406.498	-0.08
406.703	0.04
406.907	0.01
407.112	0
407.317	0.04
407.522	0.04
407.727	-0.07
407.932	0.05
408.136	0.09
408.341	-0.01
408.546	-0.04
408.751	-0
408.956	-0
409.16	0
409.365	-0
409.57	0.04
409.774	-0.04
409.979	0.03
410.184	-0
410.388	-0.04
410.593	0.03
410.798	0.02
411.002	-0.07
411.207	0.01
411.411	0.03
411.616	-0.06
411.82	0.02
412.025	0.07
412.229	-0.02
412.434	0.05
412.638	-0.01
412.843	-0.03
413.047	-0
413.252	-0.05
413.456	-0.05
413.66	0.03
413.865	-0.05
414.069	0.09
414.273	-0.04
414.478	-0.02
414.682	-0
414.886	-0.01
415.091	-0.06
415.295	-0.06
415.499	-0
415.703	-0.01
415.908	0.03
416.112	-0.05
416.316	0.02
416.52	-0.05
416.724	-0.07
416.929	-0.02
417.133	0.08
417.337	-0.04
417.541	-0.04
417.745	-0.04
417.949	0.03
418.153	-0.01
418.357	-0.07
418.561	0.03
418.765	-0.08
418.969	0.07
419.173	0.01
419.377	-0.05
419.581	0.08
419.785	-0.04
419.989	-0.05
420.193	-0.07
420.397	-0
420.601	0.03
420.804	0.06
421.008	-0.02
421.212	0.01
421.416	0.02
421.62	-0.08
421.823	-0.01
422.027	0.08
422.231	0.01
422.435	-0.04
422.638	0
422.842	-0.04
423.046	-0.03
423.249	0.03
423.453	0
423.657	0.02
423.86	0.01
424.064	-0.01
424.268	0.04
424.471	-0
424.675	0.07
424.878	0.06
425.082	-0.01
425.285	0.01
425.489	0.02
425.692	-0
425.896	-0.05
426.099	0.04
426.303	-0.03
426.506	-0.09
426.71	0.01
426.913	0.03
427.116	0.03
427.32	0
427.523	0.01
427.726	0.06
427.93	-0.07
428.133	0.02
428.336	-0.09
428.54	-0.06
428.743	0.04
428.946	0.03
429.149	-0.01
429.353	0.02
429.556	0.01
429.759	-0.04
429.962	-0.06
430.165	-0
430.368	0.01
430.571	-0.05
430.775	0.02
430.978	-0
431.181	0
431.384	-0.04
431.587	-0.01
431.79	-0.03
431.993	-0.06
432.196	-0
432.399	-0.05
432.602	0.04
432.805	-0.01
433.008	-0.03
433.211	-0.05
433.414	0.02
433.616	0.01
433.819	-0.04
434.022	-0.07
434.225	0.12
434.428	0.01
434.631	0.06
434.833	0.05
435.036	-0.03
435.239	0.05
435.442	0.01
435.645	-0.01
435.847	-0.04
436.05	0.03
436.253	0.01
436.455	-0.09
436.658	-0
436.861	0.08
437.063	0
437.266	-0.02
437.468	-0.01
437.671	0.08
437.874	0.01
438.076	-0.05
438.279	-0.09
438.481	-0
438.684	-0.03
438.886	0
439.089	-0.1
439.291	-0.06
439.494	-0.01
439.696	-0.06
439.899	0.04
440.101	0.02
440.303	-0.05
440.506	0.01
440.708	-0.04
440.91	0.04
441.113	-0.05
441.315	0.02
441.517	-0.02
441.72	-0.01
441.922	-0.02
442.124	-0.08
442.326	0.01
442.529	0.05
442.731	-0.03
442.933	0.06
443.135	-0.06
443.337	-0.06
443.539	-0.01
443.742	-0.05
443.944	0.01
444.146	-0.04
444.348	-0.02
444.55	-0.05
444.752	-0.01
444.954	-0.05
445.156	0
445.358	-0.04
445.56	0.06
445.762	-0.05
445.964	-0.05
446.166	0.02
446.368	-0.01
446.57	0.03
446.772	0.01
446.974	-0.01
447.175	0.03
447.377	-0.05
447.579	-0.04
447.781	-0.05
447.983	0.08
448.184	-0.02
448.386	0.02
448.588	-0.1
448.79	-0
448.991	-0.04
449.193	-0.03
449.395	-0.01
449.597	0
449.798	-0.01
450	0
450.202	-0.01
450.403	-0.05
450.605	0.02
450.806	-0.02
451.008	-0.05
451.21	-0.02
451.411	-0.03
451.613	0.02
451.814	-0.02
452.016	0.03
452.217	0
452.419	0.04
452.62	-0.02
452.821	0.05
453.023	0.05
453.224	-0.01
453.426	0
453.627	0.04
453.828	0.01
454.03	-0.02
454.231	-0
454.432	-0.03
454.634	0.11
454.835	-0.02
455.036	-0.02
455.238	0.03
455.439	0.06
455.64	-0.08
455.841	-0.06
456.042	0.11
456.244	0
456.445	-0.02
456.646	-0.03
456.847	-0.03
457.048	0.05
457.249	0.01
457.45	0.2
457.651	-0.04
457.852	0.01
458.054	-0.02
458.255	-0.02
458.456	0.06
458.657	0.03
458.858	-0.05
459.058	0.02
459.259	0.02
459.46	-0.02
459.661	-0.06
459.862	0.04
460.063	-0.03
460.264	0.05
460.465	-0.04
460.666	0.1
460.866	0.01
461.067	-0.03
461.268	-0.05
461.469	-0.03
461.67	0.01
461.87	0
462.071	-0.01
462.272	-0.04
462.473	0.01
462.673	0.04
462.874	-0
463.075	-0
463.275	-0.07
463.476	-0.01
463.676	-0
463.877	0.05
464.078	-0.06
464.278	0.08
464.479	-0
464.679	0.02
464.88	0.03
465.08	0.09
465.281	-0.05
465.481	-0.04
465.682	-0.02
465.882	0.03
466.083	-0.01
466.283	-0.05
466.483	0.05
466.684	-0.07
466.884	-0.01
467.085	-0.03
467.285	-0
467.485	-0.03
467.686	-0.01
467.886	-0.02
468.086	-0.05
468.286	-0.02
468.487	0
468.687	-0.05
468.887	-0
469.087	0.03
469.287	-0.01
469.488	-0.06
469.688	0.01
469.888	0.05
470.088	0.06
470.288	0.05
470.488	0.06
470.688	-0.04
470.888	0.04
471.088	-0.02
471.288	0.01
471.488	0.02
471.688	-0.01
471.888	-0.04
472.088	0.03
472.288	0.04
472.488	-0
472.688	-0.03
472.888	-0.03
473.088	0
473.288	0.04
473.488	0
473.688	0.07
473.887	-0.01
474.087	-0.05
474.287	0.05
474.487	-0.04
474.687	0.03
474.886	-0.02
475.086	-0.01
475.286	-0.01
475.486	-0.03
475.685	-0.01
475.885	-0.02
476.085	-0.03
476.284	0.03
476.484	0
476.684	0.01
476.883	0.05
477.083	0.01
477.282	-0.01
477.482	0.05
477.681	0.03
477.881	0.02
478.08	-0.06
478.28	-0.02
478.479	0
478.679	0.06
478.878	-0.01
479.078	-0.03
479.277	-0.03
479.477	-0.04
479.676	0.02
479.875	0
480.075	-0.06
480.274	-0.01
480.473	0.04
480.673	-0.04
480.872	0.04
481.071	0.01
481.271	0.02
481.47	0.01
481.669	-0
481.868	-0.01
482.067	-0.03
482.267	0
482.466	-0.02
482.665	0
482.864	-0.03
483.063	-0.04
483.262	0
483.461	0.03
483.661	0.03
483.86	0.01
484.059	0.01
484.258	0
484.457	-0
484.656	-0.01
484.855	0.04
485.054	-0.07
485.253	-0.04
485.452	-0.05
485.651	-0.01
485.849	-0.03
486.048	-0.02
486.247	-0.03
486.446	0.01
486.645	-0.05
486.844	-0.01
487.043	-0
487.241	-0
487.44	-0.04
487.639	-0.02
487.838	0.02
488.037	0.02
488.235	0.03
488.434	0.01
488.633	-0.02
488.831	0.03
489.03	0.02
489.229	0.01
489.427	-0.01
489.626	0.03
489.825	0.04
490.023	0.01
490.222	-0.02
490.42	0.02
490.619	0.01
490.817	0.01
491.016	-0.02
491.214	0.01
491.413	0.01
491.611	-0.02
491.81	0.01
492.008	0.02
492.207	0.02
492.405	0
492.604	-0.04
492.802	0.01
493	-0
493.199	-0.01
493.397	0.01
493.595	0.01
493.794	0
493.992	0.03
494.19	0.01
494.388	0.01
494.587	-0.01
494.785	0.01
494.983	-0.03
495.181	0.01
495.379	0.01
495.578	-0.02
495.776	0.01
495.974	-0.01
496.172	-0.02
496.37	-0.01
496.568	-0.01
496.766	-0.01
496.964	0.01
497.162	-0.01
497.36	-0.01
497.558	0.01
497.756	0.05
497.954	0.01
498.152	-0.04
498.35	0.01
498.548	-0.01
498.746	0.01
498.944	-0.03
499.142	-0.03
499.34	-0.02
499.538	0.01
499.736	-0.03
499.933	0.04
500.131	0.03
500.329	0.01
500.527	0.04
500.725	0.02
500.922	0
501.12	-0
501.318	0.02
501.516	-0.02
501.713	0.01
501.911	-0.02
502.109	-0.03
502.306	-0
502.504	-0
502.701	-0.02
502.899	-0.01
503.097	0.05
503.294	0.01
503.492	-0.01
503.689	0.01
503.887	0.02
504.084	0.04
504.282	0.01
504.479	-0.04
504.677	-0.01
504.874	-0.02
505.072	-0.01
505.269	-0.01
505.466	0.01
505.664	-0.02
505.861	-0.03
506.059	-0.02
506.256	0.02
506.453	-0.02
506.651	0.02
506.848	0.02
507.045	-0.01
507.242	-0
507.44	-0.02
507.637	0
507.834	0
508.031	0.02
508.229	-0.02
508.426	0
508.623	0.02
508.82	-0.01
509.017	-0.01
509.214	0.01
509.411	0.01
509.608	-0.04
509.805	-0.01
510.003	-0
510.2	-0.02
510.397	0.03
510.594	-0.01
510.791	-0.01
510.988	-0
511.184	0.01
511.381	-0
511.578	-0.03
511.775	0.03
511.972	-0.02
512.169	-0.01
512.366	-0.01
512.563	0.03
512.76	-0.02
512.956	0.02
513.153	-0.03
513.35	0.02
513.547	-0.02
513.744	-0.04
513.94	-0.03
514.137	0
514.334	-0
514.53	0
514.727	0.02
514.924	0.05
515.12	-0.01
515.317	-0.04
515.514	-0.02
515.71	-0.03
515.907	0.02
516.103	-0.01
516.3	0.02
516.497	0.03
516.693	0.01
516.89	-0
517.086	-0.03
517.283	0.03
517.479	0.02
517.676	0
517.872	-0.02
518.068	-0.02
518.265	-0.02
518.461	-0.02
518.658	-0.03
518.854	0.02
519.05	-0.03
519.247	-0.03
519.443	0.02
519.639	0.02
519.836	-0.01
520.032	0.01
520.228	-0.01
520.424	0.03
520.621	0.01
520.817	0.01
521.013	0
521.209	0.01
521.405	0.03
521.601	-0.01
521.798	-0.02
521.994	0.02
522.19	-0.03
522.386	-0.02
522.582	-0
522.778	-0.01
522.974	-0.01
523.17	0.02
523.366	0.02
523.562	0.02
523.758	0
523.954	-0.01
524.15	0.01
524.346	0.01
524.542	0.01
524.738	-0.03
524.934	-0
525.129	0.01
525.325	0.01
525.521	0
525.717	-0.01
525.913	0.01
526.109	-0.03
526.304	-0
526.5	0.02
526.696	0.02
526.892	-0
527.087	-0.01
527.283	-0.02
527.479	0.02
527.674	-0.01
527.87	-0.01
528.066	-0.02
528.261	-0
528.457	-0
528.653	0.01
528.848	-0
529.044	0.02
529.239	0.01
529.435	0.03
529.63	0.01
529.826	0.02
530.021	0
530.217	0.01
530.412	-0.01
530.608	-0.01
530.803	0
530.999	-0.02
531.194	-0.05
531.389	0.01
531.585	-0.06
531.78	-0.01
531.975	0
532.171	0.02
532.366	-0
532.561	0
532.757	0
532.952	0.01
533.147	0.01
533.342	0
533.538	0.01
533.733	0.04
533.928	0.01
534.123	-0
534.318	-0.02
534.513	0
534.709	-0.01
534.904	-0.01
535.099	-0.01
535.294	-0
535.489	-0
535.684	0.01
535.879	-0.02
536.074	-0
536.269	-0.02
536.464	0.01
536.659	-0.01
536.854	-0.01
537.049	0.01
537.244	-0
537.439	-0.02
537.634	0.03
537.828	0.01
538.023	-0.02
538.218	-0.02
538.413	-0.01
538.608	-0.02
538.803	0.02
538.997	-0.01
539.192	0.03
539.387	0.01
539.582	-0
539.776	0.01
539.971	-0
540.166	-0.01
540.36	-0.02
540.555	0.01
540.75	-0.04
540.944	-0.01
541.139	-0.02
541.334	-0
541.528	0
541.723	0.01
541.917	-0.02
542.112	-0.03
542.306	-0
542.501	-0.02
542.695	0.02
542.89	0.01
543.084	-0.01
543.279	-0
543.473	-0.01
543.668	-0.02
543.862	0.01
544.056	0.01
544.251	-0
544.445	0.02
544.64	0.01
544.834	-0
545.028	0
545.222	0
545.417	0.01
545.611	0.01
545.805	0
546	0
546.194	0.01
546.388	-0.01
546.582	0.02
546.776	0.02
546.97	-0.02
547.165	0.01
547.359	0.03
547.553	-0.01
547.747	0.01
547.941	-0
548.135	-0
548.329	0.02
548.523	0.01
548.717	0
548.911	-0.01
549.105	0.01
549.299	0.01
549.493	0.02
549.687	0.03
549.881	0.03
550.075	-0.01
550.269	-0.04
550.463	0.04
550.657	-0.02
550.85	0.02
551.044	-0.01
551.238	0.02
551.432	-0.03
551.626	-0.03
551.82	-0
552.013	-0.02
552.207	0.02
552.401	0.02
552.594	-0.01
552.788	0.02
552.982	0.02
553.176	-0.01
553.369	0.01
553.563	0.01
553.756	-0.04
553.95	-0.02
554.144	-0.02
554.337	0.03
554.531	0
554.724	0.02
554.918	-0
555.111	0.01
555.305	0
555.498	0.05
555.692	0.03
555.885	-0.01
556.079	-0
556.272	-0.04
556.466	0.02
556.659	0.01
556.852	-0.02
557.046	-0.02
557.239	0.04
557.432	-0.02
557.626	0.01
557.819	0
558.012	0.01
558.206	0.02
558.399	0.01
558.592	0.01
558.785	-0
558.979	0.01
559.172	0.01
559.365	0.02
559.558	0
559.751	0.01
559.944	-0
560.138	-0.01
560.331	-0.01
560.524	-0.01
560.717	0.01
560.91	0.01
561.103	0.01
561.296	0.01
561.489	0.04
561.682	0
561.875	0.02
562.068	0.03
562.261	0.04
562.454	0.02
562.647	0.01
562.84	0.02
563.032	-0.01
563.225	0.01
563.418	-0
563.611	-0.01
563.804	-0
563.997	-0.01
564.19	-0.02
564.382	-0.04
564.575	-0.01
564.768	-0
564.961	-0.01
565.153	0
565.346	0.02
565.539	0.02
565.731	0.03
565.924	0.02
566.117	0
566.309	0.02
566.502	0
566.695	0
566.887	0.03
567.08	-0.01
567.272	-0
567.465	-0.02
567.657	0.03
567.85	0.02
568.042	0.01
568.235	0.03
568.427	0.01
568.62	0.01
568.812	0.03
569.005	0.01
569.197	-0.03
569.389	0.04
569.582	0.03
569.774	0.03
569.966	-0
570.159	0.01
570.351	0.07
570.543	-0.01
570.736	-0
570.928	-0.02
571.12	0.03
571.312	-0.01
571.505	-0.02
571.697	0.04
571.889	-0.03
572.081	0
572.273	-0.01
572.465	0.06
572.658	0.02
572.85	0.02
573.042	0.02
573.234	0.01
573.426	0.05
573.618	-0.01
573.81	0.04
574.002	0.06
574.194	0.05
574.386	-0.02
574.578	-0.03
574.77	0.01
574.962	0.02
575.154	-0.02
575.346	0.02
575.538	0.04
575.729	0.01
575.921	0.01
576.113	0.03
576.305	0.04
576.497	0.01
576.689	0.05
576.88	-0.01
577.072	0.05
577.264	0.03
577.456	0.04
577.647	-0.05
577.839	0.04
578.031	0.04
578.223	0.02
578.414	0
578.606	0.06
578.798	0.04
578.989	0.03
579.181	0.05
579.372	0.06
579.564	0.01
579.755	0.05
579.947	0.04
580.139	0.05
580.33	-0.01
580.522	0.04
580.713	-0
580.905	0.03
581.096	0.07
581.287	0.05
581.479	0.07
581.67	0.1
581.862	0.04
582.053	0.07
582.244	0.02
582.436	0.05
582.627	0.07
582.818	0.05
583.01	0.02
583.201	0.1
583.392	0.08
583.583	0.06
583.775	0.06
583.966	0.07
584.157	0.08
584.348	0.07
584.54	0.05
584.731	0.11
584.922	0.08
585.113	0.07
585.304	0.1
585.495	0.14
585.686	0.11
585.877	0.11
586.068	0.08
586.259	0.11
586.45	0.11
586.641	0.09
586.832	0.07
587.023	0.1
587.214	0.1
587.405	0.11
587.596	0.11
587.787	0.19
587.978	0.13
588.169	0.08
588.36	0.13
588.551	0.14
588.742	0.12
588.932	0.16
589.123	0.13
589.314	0.18
589.505	0.18
589.696	0.17
589.886	0.15
590.077	0.15
590.268	0.18
590.458	0.14
590.649	0.14
590.84	0.21
591.03	0.14
591.221	0.14
591.412	0.14
591.602	0.21
591.793	0.19
591.984	0.16
592.174	0.22
592.365	0.28
592.555	0.2
592.746	0.22
592.936	0.24
593.127	0.23
593.317	0.27
593.508	0.23
593.698	0.22
593.889	0.23
594.079	0.26
594.269	0.24
594.46	0.27
594.65	0.26
594.84	0.27
595.031	0.28
595.221	0.28
595.411	0.24
595.602	0.31
595.792	0.29
595.982	0.29
596.172	0.36
596.363	0.35
596.553	0.32
596.743	0.33
596.933	0.35
597.123	0.36
597.314	0.33
597.504	0.37
597.694	0.38
597.884	0.38
598.074	0.39
598.264	0.39
598.454	0.42
598.644	0.42
598.834	0.42
599.024	0.35
599.214	0.44
599.404	0.47
599.594	0.45
599.784	0.45
599.974	0.49
600.164	0.5
600.354	0.47
600.544	0.47
600.734	0.51
600.924	0.54
601.114	0.53
601.303	0.56
601.493	0.56
601.683	0.54
601.873	0.59
602.063	0.54
602.252	0.61
602.442	0.57
602.632	0.61
602.821	0.61
603.011	0.66
603.201	0.63
603.39	0.65
603.58	0.64
603.77	0.72
603.959	0.75
604.149	0.7
604.339	0.71
604.528	0.81
604.718	0.78
604.907	0.75
605.097	0.78
605.286	0.8
605.476	0.84
605.665	0.87
605.855	0.81
606.044	0.92
606.234	0.89
606.423	0.92
606.612	0.89
606.802	0.91
606.991	0.94
607.181	1
607.37	0.96
607.559	0.98
607.749	1.01
607.938	1.07
608.127	1.06
608.316	1.05
608.506	1.12
608.695	1.16
608.884	1.13
609.073	1.17
609.263	1.23
609.452	1.28
609.641	1.28
609.83	1.22
610.019	1.24
610.208	1.31
610.397	1.35
610.586	1.42
610.775	1.38
610.965	1.41
611.154	1.48
611.343	1.51
611.532	1.48
611.721	1.58
611.91	1.56
612.099	1.65
612.287	1.64
612.476	1.65
612.665	1.75
612.854	1.7
613.043	1.81
613.232	1.79
613.421	1.81
613.61	1.86
613.798	1.91
613.987	2.03
614.176	2.02
614.365	2.08
614.554	2.13
614.742	2.21
614.931	2.15
615.12	2.29
615.309	2.26
615.497	2.29
615.686	2.31
615.875	2.44
616.063	2.42
616.252	2.5
616.44	2.53
616.629	2.61
616.818	2.68
617.006	2.69
617.195	2.71
617.383	2.77
617.572	2.79
617.76	2.83
617.949	2.94
618.137	3
618.326	3.09
618.514	2.99
618.703	3.05
618.891	3.19
619.079	3.15
619.268	3.33
619.456	3.23
619.644	3.37
619.833	3.36
620.021	3.48
620.209	3.44
620.398	3.53
620.586	3.5
620.774	3.65
620.962	3.67
621.151	3.83
621.339	3.77
621.527	3.74
621.715	3.86
621.903	3.86
622.092	3.78
622.28	4
622.468	3.81
622.656	3.98
622.844	4
623.032	4.07
623.22	3.99
623.408	4.19
623.596	4.16
623.784	4.18
623.972	4.08
624.16	4.16
624.348	4.24
624.536	4.28
624.724	4.14
624.912	4.24
625.1	4.25
625.288	4.17
625.476	4.14
625.664	4.23
625.851	4.03
626.039	4.1
626.227	4.08
626.415	4.07
626.603	3.92
626.79	4
626.978	3.94
627.166	3.93
627.354	3.75
627.541	3.75
627.729	3.51
627.917	3.72
628.104	3.53
628.292	3.47
628.48	3.46
628.667	3.31
628.855	3.31
629.042	3.3
629.23	3.12
629.418	3.02
629.605	2.99
629.793	2.83
629.98	2.78
630.168	2.67
630.355	2.63
630.543	2.55
630.73	2.43
630.917	2.36
631.105	2.38
631.292	2.24
631.48	2.16
631.667	2.2
631.854	2.02
632.042	1.93
632.229	1.83
632.416	1.81
632.604	1.73
632.791	1.65
632.978	1.66
633.165	1.6
633.353	1.52
633.54	1.49
633.727	1.38
633.914	1.35
634.101	1.22
634.289	1.32
634.476	1.19
634.663	1.19
634.85	1.11
635.037	1.06
635.224	1
635.411	1.06
635.598	1
635.785	0.93
635.972	0.87
636.159	0.87
636.346	0.78
636.533	0.8
636.72	0.73
636.907	0.76
637.094	0.7
637.281	0.66
637.468	0.69
637.655	0.59
637.842	0.62
638.029	0.59
638.215	0.59
638.402	0.54
638.589	0.49
638.776	0.48
638.963	0.49
639.149	0.46
639.336	0.54
639.523	0.44
639.709	0.43
639.896	0.42
640.083	0.46
640.27	0.41
640.456	0.36
640.643	0.43
640.829	0.32
641.016	0.34
641.203	0.3
641.389	0.38
641.576	0.31
641.762	0.29
641.949	0.28
642.135	0.32
642.322	0.27
642.508	0.22
642.695	0.27
642.881	0.2
643.068	0.23
643.254	0.23
643.441	0.25
643.627	0.23
643.813	0.14
644	0.21
644.186	0.17
644.372	0.14
644.559	0.21
644.745	0.19
644.931	0.17
645.118	0.17
645.304	0.17
645.49	0.13
645.676	0.16
645.862	0.16
646.049	0.22
646.235	0.13
646.421	0.22
646.607	0.19
646.793	0.11
646.979	0.1
647.165	0.13
647.352	0.13
647.538	0.14
647.724	0.1
647.91	0.1
648.096	0.16
648.282	0.11
648.468	0.1
648.654	0.12
648.84	0.1
649.026	0.1
649.212	0.1
649.397	0.08
649.583	0.04
649.769	0.08
649.955	0.07
650.141	0.09
650.327	0.1
650.513	0.02
650.698	0.09
650.884	-0.01
651.07	0.08
651.256	0.09
651.442	0.08
651.627	0.07
651.813	0.06
651.999	0.04
652.184	0.07
652.37	0.07
652.556	0.05
652.741	0.09
652.927	-0.03
653.113	0.05
653.298	0.05
653.484	0.04
653.669	0.02
653.855	0.04
654.04	0.05
654.226	0.02
654.412	0.03
654.597	0.01
654.782	0.06
654.968	0.05
655.153	0.05
655.339	0.01
655.524	0
655.71	0.07
655.895	0.01
656.08	0.01
656.266	0.09
656.451	0.04
656.636	0.01
656.822	0.03
657.007	0.01
657.192	0.02
657.378	-0.02
657.563	0.03
657.748	0.04
657.933	0.05
658.118	-0.01
658.304	-0.02
658.489	0.05
658.674	0.05
658.859	-0.03
659.044	0.05
659.229	0.04
659.414	0.02
659.599	0
659.785	-0.02
659.97	-0.01
660.155	0.01
660.34	0.02
660.525	-0.01
660.71	-0.01
660.895	0.06
661.08	-0.01
661.264	0
661.449	0.07
661.634	0.06
661.819	0.06
662.004	0.05
662.189	-0.07
662.374	-0.01
662.559	-0.01
662.743	-0.04
662.928	-0.01
663.113	0.03
663.298	-0.02
663.483	0.01
663.667	0.02
663.852	-0.03
664.037	0.05
664.221	-0.03
664.406	0.04
664.591	0.02
664.775	0.01
664.96	0.02
665.145	0.05
665.329	0.03
665.514	0.02
665.698	0.02
665.883	-0.03
666.068	0.09
666.252	0.02
666.437	-0.03
666.621	0.01
666.806	0.03
666.99	-0.01
667.174	-0.01
667.359	0.04
667.543	0.03
667.728	-0.01
667.912	-0.06
668.096	0.03
668.281	-0.02
668.465	-0.02
668.649	0.01
668.834	-0.05
669.018	0.02
669.202	-0.02
669.387	-0.01
669.571	0.06
669.755	-0.01
669.939	-0.03
670.124	0.03
670.308	0.05
670.492	0.03
670.676	0.01
670.86	0.02
671.044	-0.03
671.228	0.06
671.413	-0.05
671.597	-0.02
671.781	-0.03
671.965	0.03
672.149	0
672.333	0
672.517	0.01
672.701	0.01
672.885	0.02
673.069	-0.06
673.253	0.06
673.437	-0.03
673.621	0.02
673.804	-0
673.988	-0
674.172	0.05
674.356	-0.08
674.54	-0.02
674.724	0.08
674.908	-0.02
675.091	0.02
675.275	0.02
675.459	0.06
675.643	-0.02
675.826	0.02
676.01	-0.02
676.194	-0.03
676.377	0
676.561	0.06
676.745	0.05
676.928	-0
677.112	0.06
677.296	-0.04
677.479	-0.02
677.663	0.01
677.846	0.04
678.03	-0
678.213	-0
678.397	-0
678.58	0.01
678.764	-0.02
678.947	-0.01
679.131	-0
679.314	0.03
679.498	-0.01
679.681	-0
679.865	0.05
680.048	-0.01
680.231	0.01
680.415	-0.04
680.598	0.05
680.781	-0.01
680.965	-0.05
681.148	0.04
681.331	-0.01
681.514	-0.02
681.698	0.02
681.881	0.03
682.064	-0.01
682.247	0.03
682.43	-0.05
682.614	0.04
682.797	0
682.98	0.03
683.163	-0.01
683.346	0.03
683.529	-0.03
683.712	-0.01
683.895	0.02
684.078	-0.01
684.261	0.04
684.444	0.04
684.627	0.04
684.81	0.01
684.993	-0.06
685.176	0.05
685.359	-0.02
685.542	-0.07
685.725	0.05
685.908	0
686.091	-0
686.274	0.05
686.457	0.01
686.639	-0.02
686.822	-0.01
687.005	-0.04
687.188	0.07
687.371	0.07
687.553	0.03
687.736	-0
687.919	0.06
688.102	0.09
688.284	-0.07
688.467	0
688.65	0
688.832	-0.03
689.015	-0.02
689.197	-0.06
689.38	0.09
689.563	0.06
689.745	-0.02
689.928	-0.05
690.11	-0.03
690.293	0.02
690.475	-0.07
690.658	0
690.84	-0.01
691.023	0
691.205	-0.01
691.388	-0
691.57	0.08
691.752	0.01
691.935	-0.06
692.117	-0.03
692.3	0.06
692.482	0.02
692.664	-0.04
692.847	0
693.029	0.03
693.211	0.03
693.393	0.01
693.576	0.01
693.758	0.01
693.94	-0.1
694.122	-0.02
694.304	-0.03
694.487	-0.04
694.669	0.05
694.851	-0.05
695.033	0.06
695.215	-0.08
695.397	-0.09
695.579	0.05
695.761	-0.02
695.943	-0.06
696.125	0.04
696.308	0.01
696.49	-0.11
696.671	0.08
696.853	-0.01
697.035	0.1
697.217	0.03
697.399	-0.01
697.581	-0.02
697.763	-0.05
697.945	-0.03
698.127	0.03
698.309	0.09
698.491	0.03
698.672	0.02
698.854	-0.01
699.036	0.05
699.218	-0.01
699.399	0.07
699.581	0.06
699.763	0.02
699.945	-0.01
700.126	-0.04
700.308	0.02
700.49	-0
700.671	-0.02
700.853	-0.04
701.035	-0
701.216	-0.03
701.398	-0.03
701.579	-0.06
701.761	0.06
701.943	-0.02
702.124	-0.06
702.306	-0.03
702.487	0.14
702.669	0.02
702.85	-0.01
703.031	-0.02
703.213	0.09
703.394	0.03
703.576	-0.04
703.757	0.05
703.938	0.11
704.12	0.11
704.301	-0.07
704.483	-0.01
704.664	-0.03
704.845	0.12
705.026	-0.01
705.208	-0.05
705.389	-0
705.57	-0.02
705.751	-0.05
705.933	-0.03
706.114	0.04
706.295	-0.03
706.476	-0.12
706.657	0.08
706.838	0.03
707.02	0.06
707.201	-0.07
707.382	0.02
707.563	0.04
707.744	-0.08
707.925	-0.05
708.106	-0.06
708.287	0.06
708.468	0.09
708.649	0.02
708.83	0.05
709.011	-0.04
709.192	0.07
709.373	-0.1
709.554	-0
709.734	0.04
709.915	-0.01
710.096	-0.05
710.277	-0.08
710.458	0.01
710.639	-0.02
710.819	-0.06
711	-0.07
711.181	0.06
711.362	0.03
711.542	0.01
711.723	-0.02
711.904	0.04
712.085	0.04
712.265	-0.04
712.446	-0.04
712.627	-0.06
712.807	-0.03
712.988	0.03
713.168	-0.11
713.349	-0.02
713.53	-0.05
713.71	-0.03
713.891	-0.1
714.071	-0.02
714.252	-0.05
714.432	-0.05
714.613	-0.1
714.793	-0.01
714.974	0.08
715.154	0.07
715.334	-0.08
715.515	0.04
715.695	-0.08
715.876	0.02
716.056	-0.03
716.236	-0.05
716.417	-0.03
716.597	-0.06
716.777	0.13
716.957	0.01
717.138	0.01
717.318	0.03
717.498	-0.06
717.678	-0.03
717.859	0.07
718.039	-0.08
718.219	-0.08
718.399	0.09
718.579	-0.09
718.759	-0.03
718.939	0.02
719.12	0.06
719.3	0.02
719.48	-0.15
719.66	-0.09
719.84	0.01
720.02	0.04
720.2	-0.06
720.38	0.07
720.56	0.03
720.74	-0.01
720.92	-0.01
721.1	0.04
721.279	0.02
721.459	0.01
721.639	-0.11
721.819	-0.03
721.999	-0.04
722.179	0.07
722.359	-0.11
722.538	0.01
722.718	0
722.898	-0.05
723.078	-0.03
723.257	-0.07
723.437	0.02
723.617	0.03
723.797	0.01
723.976	0.02
724.156	0.03
724.336	0.04
724.515	0.1
724.695	-0.1
724.874	-0.08
725.054	-0.02
725.234	-0.08
725.413	0.05
725.593	0.05
725.772	-0.04
725.952	-0.07
726.131	0.03
726.311	-0.03
726.49	0.03
726.67	-0.01
726.849	-0.07
727.028	0.06
727.208	-0.05
727.387	0.1
727.567	-0.14
727.746	-0.04
727.925	-0.04
728.105	-0.08
728.284	-0
728.463	-0.09
728.643	-0
728.822	-0.09
729.001	-0.04
729.18	0.04
729.359	0.05
729.539	0
729.718	0.01
729.897	0.06
730.076	-0.06
730.255	-0.07
730.434	-0
730.614	0
730.793	0.01
730.972	-0.12
731.151	-0.07
731.33	0.13
731.509	-0.07
731.688	0.03
731.867	0
732.046	-0.13
732.225	0.19
732.404	-0.08
732.583	-0.13
732.762	0
732.941	0.09
733.12	0.09
733.298	0.01
733.477	-0
733.656	0.02
733.835	-0.08
734.014	0.17
734.193	-0.08
734.371	0.04
734.55	0.05
734.729	-0.11
734.908	0.1
735.086	0.01
735.265	0.06
735.444	-0.2
735.623	-0.1
735.801	-0.09
735.98	-0.11
736.159	-0.09
736.337	0.07
736.516	-0
736.694	-0.04
736.873	-0.09
737.052	0.09
737.23	0.03
737.409	-0.09
737.587	0.19
737.766	-0.14
737.944	-0.09
738.123	0.05
738.301	-0.05
738.479	-0.06
738.658	0.08
738.836	-0.23
739.015	0.08
739.193	0.06
739.371	-0.09
739.55	-0.08
739.728	-0.09
739.906	0.03
740.085	0.16
740.263	-0.04
740.441	-0.15
740.62	0.14
740.798	-0.02
740.976	-0.07
741.154	-0.1
741.332	0.12
741.511	-0.07
741.689	0.03
741.867	-0.02
742.045	-0.04
742.223	-0.01
742.401	-0.13
742.579	-0.15
742.757	0.12
742.935	-0.1
743.114	-0.04
743.292	-0
743.47	-0.08
743.648	-0.05
743.826	-0.03
744.004	0.1
744.181	0.04
744.359	-0.1
744.537	0.06
744.715	0.01
744.893	-0.11
745.071	0.01
745.249	-0.01
745.427	0.04
745.605	-0.02
745.782	-0
745.96	0.08
746.138	0.02
746.316	0.02
746.493	-0.1
746.671	0.11
746.849	-0.15
747.027	0.06
747.204	-0.11
747.382	0.06
747.56	-0.19
747.737	-0.03
747.915	-0.11
748.093	0.09
748.27	-0.08
748.448	-0.02
748.625	-0.14
748.803	0.06
748.98	-0.14
749.158	0.04
749.335	0.09
749.513	-0.07
749.69	-0.04
749.868	-0.09
750.045	0.03
750.223	-0.03
750.4	-0.14
750.578	0.13
750.755	0.02
750.932	-0.16
751.11	0.1
751.287	-0.16
751.464	0.09
751.642	-0.1
751.819	0
751.996	-0.03
752.173	-0.07
752.351	-0.07
752.528	0
752.705	0
752.882	-0.03
753.06	-0.02
753.237	0.01
753.414	0.17
753.591	0.11
753.768	-0.09
753.945	-0.13
754.122	0.01
754.299	0.01
754.476	-0.04
754.654	0.03
754.831	0.03
755.008	0.04
755.185	-0.13
755.362	-0.17
755.539	-0.07
755.716	-0.03
755.892	-0.05
756.069	-0.03
756.246	-0.01
756.423	-0.03
756.6	0.12
756.777	0.05
756.954	0.12
757.131	-0.08
757.307	-0.13
757.484	-0.09
757.661	0.01
757.838	0.05
758.015	-0.14
758.191	0.14
758.368	-0.03
758.545	0.15
758.721	-0.09
758.898	-0.08
759.075	0.11
759.251	-0
759.428	0.07
759.605	-0.21
759.781	-0.1
759.958	0.04
760.134	-0.06
760.311	-0.05
760.488	0.22
760.664	0.19
760.841	0.01
761.017	-0.07
761.194	0.05
761.37	0.08
761.547	0.04
761.723	0
761.899	0.04
762.076	-0.12
762.252	-0.16
762.429	-0.05
762.605	0.11
762.781	0.01
762.958	0.07
763.134	-0.06
763.31	-0.18
763.486	-0.01
763.663	-0.14
763.839	-0.02
764.015	-0.17
764.191	-0.21
764.368	0.04
764.544	-0.11
764.72	-0.01
764.896	0.1
765.072	0.07
765.248	-0.11
765.425	-0.01
765.601	0.05
765.777	-0.02
765.953	-0.22
766.129	-0.08
766.305	-0.04
766.481	0.1
766.657	0.07
766.833	0.11
767.009	-0.17
767.185	-0.08
767.361	-0.05
767.537	-0.17
767.713	0.05
767.889	-0.04
768.065	0.02
768.24	-0.24
768.416	0.12
768.592	-0.07
768.768	-0.15
768.944	0.05
769.12	-0.13
769.295	-0.11
769.471	-0.01
769.647	-0.05
769.823	0.12
769.998	-0.03
770.174	-0.09
770.35	0.31
770.525	0.2
770.701	-0.05
770.877	-0.05
771.052	-0.06
771.228	0.07
771.403	0.05
771.579	0.17
771.755	0.23
771.93	-0.1
772.106	0.04
772.281	-0.15
772.457	-0.03
772.632	0.03
772.808	-0.06
772.983	-0.07
773.159	-0.16
773.334	0.13
773.509	-0.04
773.685	0.01
773.86	0.26
774.036	0.27
774.211	0.1
774.386	-0.06
774.562	-0.07
774.737	0.01
774.912	-0.14
775.087	0.07
775.263	-0.05
775.438	0
775.613	-0.1
775.788	-0.05
775.964	0.15
776.139	0.23
776.314	-0.23
776.489	0.09
776.664	-0.03
776.839	-0.11
777.014	0.02
777.19	0.19
777.365	0.23
777.54	0.28
777.715	-0.09
777.89	-0.04
778.065	-0.22
778.24	-0.01
778.415	0.22
778.59	-0.1
778.765	-0.14
778.94	0.11
779.115	-0.04
779.289	0
779.464	-0.01
779.639	0.15
779.814	-0.24
779.989	-0.05
780.164	0.13
780.339	-0
780.513	-0.15
780.688	-0.13
780.863	-0.09
781.038	0.06
781.212	-0.19
781.387	0.06
781.562	0.2
781.737	-0.04
781.911	0.24
782.086	-0.09
782.261	-0.16
782.435	0.2
782.61	-0.24
782.784	-0.12
782.959	0.36
783.134	-0.19
783.308	-0.2
783.483	-0.17
783.657	0.15
783.832	0.09
784.006	-0.42
784.181	-0.07
784.355	-0.11
784.53	-0.22
784.704	-0.28
784.878	0.31
785.053	0.05
785.227	0.13
785.402	0.13
785.576	-0.1
785.75	0.01
785.925	-0.04
786.099	-0.05
786.273	0.1
786.448	0.04
786.622	-0.05
786.796	-0.06
786.97	0.06
787.145	0.42
787.319	-0.41
787.493	-0.13
787.667	-0.32
787.841	-0.01
788.015	0.07
788.19	-0.09
788.364	0.08
788.538	0.11
788.712	0.15
788.886	-0.06
789.06	0.21
789.234	0.04
789.408	-0.23
789.582	-0.4
789.756	-0.14
789.93	-0.33
790.104	0.08
790.278	-0.17
790.452	-0.3
790.626	0.15
790.8	-0.24
790.973	0.11
791.147	0.22
791.321	0.21
791.495	0.24
791.669	0.04
791.843	-0
792.016	0.16
792.19	0.29
792.364	-0.24
792.538	0.35
792.711	0.16
792.885	0.03
793.059	-0.31
793.233	-0.56
793.406	0.03
793.58	0.07
793.754	-0.11
793.927	-0.12
794.101	0.32
794.274	-0.21
794.448	0.2
794.622	-0.16
794.795	0.09
794.969	-0.33
795.142	0.23
795.316	-0.06
795.489	-0.14
795.663	0.2
795.836	-0.43
796.009	-0.23
796.183	0.32
796.356	-0.1
796.53	-0.11
796.703	-0.11
796.876	0.4
797.05	0.14
797.223	0.06
797.396	0.28
797.57	-0.09
797.743	0.08
797.916	-0.01
798.09	0.02
798.263	0.13
798.436	0.08
798.609	-0.14
798.782	0.08
798.956	0.16
799.129	0.01
799.302	-0.21
799.475	-0.15
799.648	0.01
799.821	-0.12
799.994	0.04
800.167	-0.48
800.34	0.22
800.514	0.14
800.687	0.01
800.86	-0.19
801.033	-0.04
801.206	0.11
801.379	-0.33
801.551	0.19
801.724	0.07
801.897	0.29
802.07	-0.08
802.243	-0.75
802.416	-0.06
802.589	-0.08
802.762	-0.22
802.935	0.02
803.107	0.24
803.28	0.18
803.453	0.19
803.626	-0.32
803.798	-0.16
803.971	-0.26
804.144	0.03
804.317	0.02
804.489	0.23
804.662	0.05
804.835	-0.08
805.007	-0.3
805.18	0.53
805.353	0.22
805.525	-0.32
805.698	-0.05
805.87	0.3
806.043	0.15
806.215	-0.21
806.388	-0.07
806.56	0.12
806.733	0.35
806.905	0.25
807.078	-0.33
807.25	-0.41
807.423	0.18
807.595	-0.08
807.768	-0.15
807.94	0.23
808.112	-0.2
808.285	0.36
808.457	-0.29
808.629	-0.01
808.802	0.51
808.974	0.16
809.146	-0.38
809.318	-0.42
809.491	-0.18
809.663	0.14
809.835	-0.28
810.007	0.39
810.18	0.1
810.352	-0.45
810.524	-0.32
810.696	-0.14
810.868	0.1
811.04	-0.11
811.212	-0.17
811.384	0.28
811.556	-0.05
811.728	0.03
811.901	0.56
812.073	0
812.245	0.12
812.417	-0.19
812.589	-0.76
812.76	0.22
812.932	0
813.104	0.45
813.276	-0.02
813.448	0.36
813.62	-0.11
813.792	0.52
813.964	0.04
814.136	-0.05
814.307	-0.41
814.479	-0.35
814.651	-0.09
814.823	0.59
814.995	-0.05
815.166	0.22
815.338	-0.69
815.51	-0.55
815.681	0.72
815.853	0.51
816.025	0.19
816.196	0.74
816.368	0.62
816.54	-0.62
816.711	-0.42
816.883	0.35
817.054	0.67
817.226	-0.59
817.398	0.12
817.569	-0.22
817.741	0.07
817.912	-0.05
818.084	-0.23
818.255	0.13
818.426	-0.22
818.598	-0.09
818.769	-0.69
818.941	0.06
819.112	0.81
819.283	0.39
819.455	-0.05
819.626	0.5
819.798	0.34
819.969	0.24
820.14	-0.2
820.311	-0.25
820.483	-0.09
820.654	0.46
820.825	-0.15
820.996	-0.54
821.168	-0.27
821.339	-0.34
821.51	-0.4
821.681	-0.22
821.852	-0.17
822.023	-0.44
822.195	-0.55
822.366	0.23
822.537	0.32
822.708	-0.21
822.879	-0.04
823.05	0.91
823.221	-0.03
823.392	0.34
823.563	0.11
823.734	0.34
823.905	-0.26
824.076	-0.1
824.247	0.16
824.418	-0.22
824.589	0.56
824.759	-0.24
824.93	-0.52
825.101	-0.1
825.272	0.2
825.443	0.16
825.614	0.59
825.784	-1.14
825.955	0.72
826.126	0.81
826.297	0.15
826.467	0.98
826.638	0.68
826.809	-0.92
826.98	-0.15
827.15	0.04
827.321	-0.23
827.492	0.32
827.662	0.49
827.833	0.51
828.003	0.79
828.174	-0.52
828.345	-0.95
828.515	0.46
828.686	0.67
828.856	-0.43
829.027	-0.26
829.197	-0.1
829.368	0.46
829.538	-0.06
829.709	-0.26
829.879	0.42
830.049	0.51
830.22	-0.45
830.39	0.51
830.56	0.62
830.731	-0.46
830.901	-0.2
831.072	-0.18
831.242	0.25
831.412	-0.57
831.582	-0.22
831.753	-0.64
831.923	0.75
832.093	-0.23
832.263	0.29
832.434	-0.34
832.604	0.09
832.774	0.11
832.944	-0.62
833.114	-0.28
833.284	0.31
833.454	-0.79
833.624	-0.12
833.795	0.3
833.965	0.83
834.135	0.97
834.305	-0.83
834.475	-0.68
834.645	-0.37
834.815	-0.51
834.985	-0.57
835.155	-0.24
835.325	0.13
835.494	0.3
835.664	-0.08
835.834	-0.55
836.004	0.64
836.174	0.31
836.344	-0.2
836.514	-0.71
836.684	-0.31
836.853	-0.06
837.023	0.27
837.193	-0.76
837.363	0.72
837.532	0.5
837.702	-0.29
837.872	-0.78
838.041	0.67
838.211	0.7
838.381	-0.66
838.55	0.37
838.72	1.57
838.89	0.92
839.059	0.06
839.229	-0.69
839.398	0.72
839.568	-0.26
839.738	-0.08
839.907	1.21
840.077	0.43
840.246	-0
840.416	-1.02
840.585	-0.28
840.755	1.02
840.924	0.38
841.093	-0.4
841.263	0.07
841.432	0.01
841.602	-0.18
841.771	-0.09
841.94	0.11
842.11	1.3
842.279	1.62
842.448	-0.79
842.617	-0.57
842.787	0.98
842.956	-0.47
843.125	-0.34
843.294	0.19
843.464	0.48
843.633	0.01
843.802	-1.14
843.971	-0.37
844.14	-0
844.309	0.7
844.479	-0.12
844.648	-0.54
844.817	-0.25
844.986	-0.44
845.155	-0.22
845.324	-0.21
845.493	0.45
845.662	-0.39
845.831	0.55
846	-0.01
846.169	-0.34
846.338	1.56
846.507	-0.09
846.676	-0.19
846.844	-1.15
847.013	-0.04
847.182	0.34
847.351	-0.86
847.52	-0.62
847.689	-0.23
847.858	-0.39
848.026	0.15
848.195	0.82
848.364	-0.78
848.533	-1.58
848.701	-0.64
848.87	0.23
849.039	1.01
849.207	1.03
849.376	0.59
849.545	0.72
849.713	-0.27
849.882	-0.82
850.051	0.71
850.219	-0.34
850.388	0.72
850.556	0.18
850.725	-0.71
850.893	0.25
851.062	-0.51
851.23	0.95
851.399	-0.82
851.567	-0.7
851.736	-1.22
851.904	-1.06
852.073	0.63
852.241	0.38
852.41	-0.6
852.578	-0.06
852.746	-0.58
852.915	1.13
853.083	0.39
853.251	-0.92
853.42	-0.21
853.588	-0.75
853.756	0.75
853.924	0.61
854.093	-0.78
854.261	-0.35
854.429	-2.29
854.597	-0.37
854.765	-0.64
854.934	0.73
855.102	1.16
855.27	-0.93
855.438	-0.19
855.606	1.28
855.774	1.05
855.942	-1.98
856.11	-1.48
856.278	0.57
856.446	0.43
856.614	-0.69
856.782	-0.01
856.95	0.72
857.118	-0.2
857.286	-0.14
857.454	-1.42
857.622	0.63
857.79	-0.08
857.958	-0.51
858.126	-0.74
858.294	-2.06
858.462	-0.4
858.629	0.06
858.797	-0.07
858.965	0.34
859.133	-0.25
859.301	-0.56
859.468	0.82
859.636	-0.7
859.804	-0.24
859.971	0.6
860.139	-1.28
860.307	0.29
860.474	-0.44
860.642	-0.73
860.81	0.12
860.977	-1.29
861.145	1.55
861.313	-0.98
861.48	-0.53
861.648	0.52
861.815	0.17
861.983	-2.06
862.15	-1.57
862.318	1.27
862.485	1.18
862.653	-0.98
862.82	-0.91
862.988	1.62
863.155	-0.5
863.322	-0.33
863.49	0.05
863.657	-1.66
863.824	2.39
863.992	0.51
864.159	0.59
864.326	0.56
864.494	0.32
864.661	2.91
864.828	-1.29
864.996	0.87
865.163	1.73
865.33	-0.63
865.497	-2.66
865.664	-0.96
865.832	-2.14
865.999	-0.76
866.166	-2.1
866.333	0.07
866.5	-0.44
866.667	-0.18
866.834	-0.8
867.001	1.01
867.168	-1.68
867.335	0.71
867.502	-1.02
867.669	0.44
867.836	2.13
868.003	-1.54
868.17	0.55
868.337	1.69
868.504	2.39
868.671	-2.03
868.838	-0.23
869.005	-0.1
869.172	0.39
869.339	0.73
869.505	0.64
869.672	-0.94
869.839	0.37
870.006	0.6
870.173	-0.82
870.339	1.24
870.506	0.99
870.673	0.09
870.84	0.94
871.006	0.79
871.173	0.38
871.34	0.64
871.506	-0.44
871.673	-0.72
871.839	-1.83
872.006	-1.21
872.173	-0.76
872.339	-1.29
872.506	3.29
872.672	-0.93
872.839	-0.07
873.005	0.11
873.172	1.4
873.338	0.38
873.505	0.37
873.671	-0.84
873.838	0.81
874.004	-1.87
874.171	-1.61
874.337	0.84
874.503	0.24
874.67	1.17
874.836	0.26
875.002	2.02
875.169	1.6
875.335	0.19
875.501	-2.76
875.668	0.38
875.834	0.58
876	-0.13
876.166	1.43
876.332	1.81
876.499	2.61
876.665	-0.75
876.831	0.34
876.997	3.18
877.163	0.95
877.329	-0.61
877.495	-1.83
877.662	-0.61
877.828	-0.75
877.994	0.03
878.16	-2.09
878.326	-0.61
878.492	-0.02
878.658	-0.56
878.824	1.06
878.99	-0.17
879.156	-2.59
879.322	1.77
879.487	-0.62
879.653	1.55
879.819	0.61
879.985	-1.95
880.151	1.13
880.317	0.48
880.483	-0.51
880.648	0.89
880.814	-0.64
880.98	1.37
881.146	-1.67
881.312	-1.05
881.477	0.69
881.643	0.32
881.809	2.12
881.974	1.22
882.14	-1.84
882.306	0.83
882.471	2.73
882.637	-0.36
882.803	0.48
882.968	1.89
883.134	1.55
883.299	-0.47
883.465	0.69
883.63	-0.39
883.796	-0.17
883.961	2.26
884.127	-1.44
884.292	-4.61
884.458	-1.83
884.623	-1.83
