Data from Apollo_Calib_20240827__AbsoluteIrradiance__547__08-16-01-914.txt Node

Date: Wed Aug 28 08:16:01 BST 2024
User: biology
Spectrometer: FLMT08252
Trigger mode: 0
Integration Time (sec): 5.000000E-1
Scans to average: 5
Electric dark correction enabled: true
Nonlinearity correction enabled: false
Boxcar width: 0
XAxis mode: Wavelengths
Number of Pixels in Spectrum: 3648
>>>>>Begin Spectral Data<<<<<
179.588	-0
179.809	-0
180.03	-0
180.251	-0
180.473	-0
180.694	0
180.915	0
181.136	-0
181.357	0
181.578	0
181.799	-0
182.02	-0
182.241	0
182.462	-0
182.683	0
182.904	-0
183.125	-0
183.346	0
183.567	0
183.788	-0
184.009	-0
184.23	-0
184.451	-0
184.672	-0
184.892	-0
185.113	-0
185.334	0
185.555	-0
185.776	-0
185.996	-0
186.217	0
186.438	0
186.659	-0
186.879	-0
187.1	-0
187.321	-0
187.541	-0
187.762	0
187.983	0
188.203	-0
188.424	-0
188.644	-0
188.865	-0
189.086	-0
189.306	-0
189.527	-0
189.747	0
189.968	-0
190.188	0
190.409	-0
190.629	0
190.849	-0
191.07	-0
191.29	0
191.511	0
191.731	-0
191.951	-0
192.172	-0
192.392	-0
192.612	-0
192.833	-0
193.053	-0
193.273	0
193.493	-0
193.714	-0
193.934	0
194.154	0
194.374	-0
194.594	-0
194.815	0
195.035	0
195.255	-0
195.475	-0
195.695	-0
195.915	0
196.135	-0
196.355	0
196.575	0
196.795	-0
197.015	-0
197.235	-0
197.455	-0
197.675	-0
197.895	-0
198.115	-0
198.335	0
198.555	-0
198.775	0
198.995	-0
199.214	0
199.434	-0
199.654	-0
199.874	-0
200.094	0.16
200.313	-0.64
200.533	-0.48
200.753	-0.59
200.973	0.64
201.192	0.65
201.412	-1
201.632	-0.38
201.851	0.83
202.071	-0.68
202.291	-0.73
202.51	-0.96
202.73	0.04
202.95	-0.01
203.169	-0.62
203.389	-0.23
203.608	-0.13
203.828	-0.54
204.047	-0.49
204.267	0.23
204.486	0.01
204.706	0.08
204.925	-0.4
205.145	-0.47
205.364	0.28
205.583	0.29
205.803	-0.48
206.022	-0.3
206.242	-0.72
206.461	-0.26
206.68	-0.49
206.9	0.19
207.119	0
207.338	0.66
207.557	-0.58
207.777	-0.26
207.996	-0.34
208.215	0.13
208.434	-0.14
208.654	-0.6
208.873	-0.32
209.092	0.09
209.311	-0.29
209.53	-0.15
209.749	-0.31
209.968	-0.19
210.187	-0.1
210.407	-0.77
210.626	-0.38
210.845	0.24
211.064	0.16
211.283	-0.35
211.502	0.12
211.721	-0
211.94	0.03
212.159	0.13
212.377	0.14
212.596	0.03
212.815	-0.02
213.034	0.09
213.253	0.01
213.472	-0.14
213.691	-0.28
213.91	-0.22
214.128	-0.11
214.347	0.24
214.566	-0.36
214.785	-0.31
215.003	-0.08
215.222	-0.1
215.441	-0.14
215.66	-0.5
215.878	0.08
216.097	0.24
216.316	-0.17
216.534	-0.15
216.753	0.06
216.972	-0.07
217.19	-0.18
217.409	-0.27
217.627	-0.39
217.846	-0.14
218.064	-0.12
218.283	-0.09
218.501	0.32
218.72	0.15
218.938	-0.18
219.157	-0.15
219.375	0.1
219.594	0.17
219.812	-0.37
220.031	-0.36
220.249	0.14
220.467	0.1
220.686	-0.07
220.904	-0.29
221.122	-0.27
221.341	0.28
221.559	0.02
221.777	-0.34
221.995	-0.07
222.214	0.05
222.432	-0.16
222.65	0.02
222.868	0.03
223.086	-0.11
223.305	-0.07
223.523	-0.04
223.741	0.21
223.959	-0.26
224.177	-0.35
224.395	-0.18
224.613	-0.06
224.831	0.22
225.049	-0.22
225.267	-0.09
225.485	-0.2
225.703	-0.06
225.921	-0.1
226.139	-0.04
226.357	-0.01
226.575	-0.05
226.793	-0.2
227.011	0.44
227.229	0.02
227.447	-0.08
227.665	-0.11
227.883	-0.24
228.1	0.01
228.318	-0.05
228.536	-0.24
228.754	-0.16
228.972	-0.08
229.189	0.05
229.407	-0.09
229.625	-0.14
229.843	0
230.06	0.14
230.278	-0.14
230.496	-0.06
230.713	0.09
230.931	0.11
231.149	-0.14
231.366	-0.35
231.584	-0.09
231.801	0.29
232.019	-0.14
232.236	-0.15
232.454	-0.14
232.671	0.02
232.889	-0.05
233.106	-0.18
233.324	-0.17
233.541	-0.03
233.759	-0
233.976	-0.08
234.194	-0.03
234.411	-0.14
234.628	-0.16
234.846	-0.04
235.063	-0.05
235.28	-0.09
235.498	-0.07
235.715	-0.14
235.932	-0.01
236.149	-0.12
236.367	-0.2
236.584	-0.04
236.801	-0.08
237.018	-0.12
237.236	0.05
237.453	-0.17
237.67	0.06
237.887	-0.12
238.104	-0.1
238.321	-0.17
238.538	-0.14
238.755	0.11
238.973	-0.17
239.19	-0.01
239.407	0
239.624	-0.02
239.841	-0.21
240.058	-0.12
240.275	-0.08
240.492	-0.13
240.709	0.05
240.925	-0.08
241.142	-0.02
241.359	-0.17
241.576	-0.13
241.793	-0.11
242.01	-0.02
242.227	0.03
242.444	0
242.66	-0.01
242.877	-0.1
243.094	-0.1
243.311	-0
243.527	-0.08
243.744	-0.08
243.961	0.11
244.178	-0.1
244.394	-0.05
244.611	0.1
244.828	0.03
245.044	-0.14
245.261	-0.09
245.477	0.03
245.694	0.06
245.911	-0.12
246.127	-0.03
246.344	0.16
246.56	0
246.777	-0.08
246.993	0.02
247.21	-0.04
247.426	0.02
247.643	-0.11
247.859	-0.09
248.076	-0.04
248.292	0.07
248.508	-0.03
248.725	-0.02
248.941	-0.02
249.157	0.08
249.374	-0
249.59	-0.03
249.806	-0.01
250.023	-0.03
250.239	-0.08
250.455	-0.1
250.671	0
250.888	-0.03
251.104	-0.03
251.32	-0.06
251.536	0.02
251.752	-0.05
251.969	-0.03
252.185	-0.03
252.401	0.1
252.617	0.04
252.833	-0.06
253.049	-0.1
253.265	-0
253.481	-0.01
253.697	-0.08
253.913	-0.05
254.129	-0.04
254.345	0.06
254.561	-0.08
254.777	-0.02
254.993	-0
255.209	-0.04
255.425	-0.04
255.641	-0.03
255.857	0.01
256.073	-0.02
256.288	-0.14
256.504	-0.11
256.72	-0.02
256.936	0.06
257.152	-0.09
257.367	-0.01
257.583	0.01
257.799	-0.05
258.015	-0.07
258.23	-0.05
258.446	0.08
258.662	-0.07
258.877	-0.07
259.093	-0.07
259.309	0
259.524	0.02
259.74	-0.04
259.955	-0.16
260.171	-0.09
260.387	-0.07
260.602	0.05
260.818	0.01
261.033	-0.07
261.249	-0.07
261.464	-0.12
261.68	-0.12
261.895	-0.07
262.11	-0
262.326	0.01
262.541	-0.15
262.757	-0.01
262.972	-0.05
263.187	-0.05
263.403	-0.07
263.618	0.04
263.833	0.01
264.049	-0.08
264.264	-0.03
264.479	0.03
264.694	0.04
264.91	-0.08
265.125	-0.02
265.34	0.02
265.555	0.1
265.77	0.03
265.986	-0.06
266.201	-0
266.416	0.03
266.631	-0.1
266.846	-0.01
267.061	-0.06
267.276	-0
267.491	-0.16
267.706	-0.01
267.921	-0.04
268.136	-0.04
268.351	-0.01
268.566	-0.14
268.781	0.1
268.996	-0.03
269.211	0.02
269.426	-0.11
269.641	-0.07
269.856	0.07
270.071	-0.09
270.285	-0.07
270.5	0.08
270.715	0.03
270.93	-0
271.145	0.01
271.359	0.05
271.574	-0.09
271.789	-0.01
272.004	-0.15
272.218	-0.02
272.433	0
272.648	-0.05
272.862	0.07
273.077	-0.02
273.292	0.01
273.506	-0.04
273.721	0.04
273.936	0.05
274.15	-0.04
274.365	-0.05
274.579	0.08
274.794	-0.02
275.008	0.07
275.223	-0.07
275.437	-0
275.652	-0.01
275.866	0.03
276.081	-0.05
276.295	0.04
276.509	-0.01
276.724	-0.05
276.938	-0.07
277.153	0.02
277.367	0.03
277.581	-0.09
277.796	-0.04
278.01	-0.1
278.224	0.04
278.438	0.06
278.653	-0.06
278.867	-0.06
279.081	0.02
279.295	-0.03
279.51	-0.02
279.724	-0.12
279.938	0.04
280.152	0
280.366	-0.08
280.58	-0.04
280.794	0.1
281.008	0.01
281.222	0.09
281.437	0.08
281.651	-0.03
281.865	0.02
282.079	-0.03
282.293	-0.18
282.507	-0.06
282.721	-0.04
282.935	-0.01
283.148	-0.06
283.362	-0.02
283.576	-0.04
283.79	-0.02
284.004	-0.03
284.218	0.03
284.432	-0.05
284.646	0.03
284.859	-0.01
285.073	-0.02
285.287	0.01
285.501	-0.04
285.714	-0.01
285.928	-0.04
286.142	0
286.356	-0.05
286.569	-0.06
286.783	0.05
286.997	0.08
287.21	-0.01
287.424	-0.05
287.637	-0.04
287.851	-0.01
288.065	0.01
288.278	-0.03
288.492	0.01
288.705	-0.01
288.919	0
289.132	-0.09
289.346	0.05
289.559	-0.12
289.773	-0.09
289.986	-0.02
290.2	-0.05
290.413	0.05
290.626	-0.07
290.84	-0.03
291.053	-0.05
291.267	0.04
291.48	-0
291.693	0
291.906	-0.09
292.12	-0.03
292.333	-0.09
292.546	-0.06
292.76	0.05
292.973	-0.03
293.186	0.03
293.399	-0
293.612	0.02
293.826	-0.02
294.039	-0.05
294.252	-0.05
294.465	0.04
294.678	-0
294.891	-0
295.104	-0.08
295.317	-0
295.53	0.01
295.743	-0.04
295.956	0
296.169	0.02
296.382	0.06
296.595	-0.04
296.808	-0.04
297.021	0.03
297.234	-0
297.447	-0.02
297.66	-0.02
297.873	0.02
298.086	-0
298.299	-0.04
298.511	-0.05
298.724	-0.02
298.937	-0.1
299.15	-0.01
299.363	-0.02
299.575	0.03
299.788	-0.01
300.001	-0.04
300.213	-0.06
300.426	-0.04
300.639	-0.03
300.852	-0.04
301.064	0.05
301.277	0.08
301.489	-0
301.702	0.06
301.915	0
302.127	-0.03
302.34	-0.01
302.552	-0.03
302.765	0.03
302.977	0.01
303.19	-0.03
303.402	-0.04
303.615	-0.02
303.827	-0.05
304.04	-0.05
304.252	0.04
304.464	-0.05
304.677	0.1
304.889	0.02
305.102	-0.04
305.314	-0.02
305.526	0.04
305.739	0.02
305.951	-0.03
306.163	-0
306.375	0.05
306.588	-0.07
306.8	-0.05
307.012	-0.07
307.224	-0.02
307.436	0.04
307.649	-0.1
307.861	-0
308.073	0.03
308.285	-0.02
308.497	-0.04
308.709	0.02
308.921	0.01
309.133	0.02
309.346	-0.05
309.558	-0.03
309.77	0.04
309.982	0.02
310.194	0.03
310.406	-0.04
310.617	0.08
310.829	-0.03
311.041	0.03
311.253	-0.03
311.465	-0.01
311.677	-0.02
311.889	0.01
312.101	-0.02
312.313	0
312.524	0.03
312.736	-0.07
312.948	-0.05
313.16	0.02
313.372	0
313.583	0.01
313.795	-0.01
314.007	-0.04
314.218	-0.01
314.43	-0.05
314.642	-0.01
314.853	-0.05
315.065	0.05
315.277	-0.01
315.488	0.05
315.7	0.07
315.912	-0.01
316.123	-0.02
316.335	-0.05
316.546	0.08
316.758	-0.03
316.969	-0.04
317.181	-0.03
317.392	0
317.604	0.04
317.815	-0.04
318.026	0
318.238	-0.01
318.449	0
318.661	-0.06
318.872	-0.04
319.083	-0.06
319.295	0.03
319.506	-0.02
319.717	-0.02
319.929	0.01
320.14	-0.04
320.351	-0.03
320.562	-0.02
320.774	-0.02
320.985	-0
321.196	-0.05
321.407	-0.07
321.618	0.01
321.829	0
322.041	0.01
322.252	0.01
322.463	0.06
322.674	0.01
322.885	-0.07
323.096	-0.03
323.307	-0.03
323.518	-0.01
323.729	-0.05
323.94	-0.05
324.151	-0.04
324.362	-0
324.573	-0.01
324.784	-0.05
324.995	0.03
325.206	0.02
325.417	-0.03
325.628	0
325.838	-0
326.049	0.04
326.26	0.03
326.471	-0.04
326.682	0.05
326.892	0.03
327.103	-0.08
327.314	-0.07
327.525	0.06
327.735	-0.03
327.946	-0.02
328.157	-0.03
328.368	-0.01
328.578	-0.06
328.789	0
328.999	-0.03
329.21	-0.08
329.421	0.02
329.631	-0.07
329.842	-0.03
330.052	0.01
330.263	0.03
330.473	0.03
330.684	-0
330.894	-0
331.105	-0.06
331.315	-0.03
331.526	-0.03
331.736	0.05
331.947	0
332.157	0.04
332.367	-0.05
332.578	0.02
332.788	-0.01
332.999	0
333.209	0
333.419	-0.03
333.629	-0.02
333.84	0
334.05	-0.03
334.26	0.05
334.47	0.03
334.681	0.05
334.891	-0.02
335.101	0.03
335.311	0.02
335.521	-0.02
335.732	-0.04
335.942	0.05
336.152	-0.02
336.362	0.03
336.572	-0.04
336.782	0.01
336.992	-0.03
337.202	-0.02
337.412	-0.06
337.622	-0.02
337.832	-0.01
338.042	-0
338.252	-0.04
338.462	-0.05
338.672	0.01
338.882	-0.01
339.092	0.01
339.302	0.08
339.511	0.01
339.721	-0.03
339.931	-0.06
340.141	0
340.351	0.06
340.561	0.01
340.77	-0.01
340.98	0.02
341.19	-0.04
341.4	-0.01
341.609	-0
341.819	-0.03
342.029	-0.04
342.238	0.03
342.448	0
342.658	0.07
342.867	0.02
343.077	0.04
343.286	-0.01
343.496	0.02
343.706	0.07
343.915	-0.06
344.125	0.03
344.334	0.01
344.544	-0.07
344.753	-0.03
344.963	-0.03
345.172	-0.03
345.381	-0.03
345.591	-0.04
345.8	0.01
346.01	0.05
346.219	0.02
346.428	-0.16
346.638	-0.03
346.847	-0.04
347.056	0.04
347.266	-0.02
347.475	-0.03
347.684	-0.01
347.893	0.02
348.103	0.01
348.312	-0.05
348.521	-0.02
348.73	-0.02
348.94	-0
349.149	-0.02
349.358	-0.05
349.567	-0.03
349.776	-0.1
349.985	-0.03
350.194	0.03
350.403	0.06
350.612	-0.08
350.821	-0.03
351.03	0.01
351.239	-0.1
351.448	-0.01
351.657	-0.04
351.866	0.05
352.075	-0.01
352.284	0
352.493	-0.06
352.702	0.06
352.911	0.02
353.12	-0.02
353.329	-0.02
353.538	0.03
353.746	0
353.955	-0.04
354.164	0.03
354.373	-0.03
354.582	0.04
354.79	-0.03
354.999	0.03
355.208	-0.02
355.416	0.05
355.625	-0.07
355.834	-0.02
356.042	0.02
356.251	-0.04
356.46	-0.1
356.668	0.02
356.877	0.06
357.085	0.02
357.294	-0.11
357.503	-0.02
357.711	-0
357.92	0.02
358.128	0.01
358.337	-0
358.545	0.01
358.754	-0.02
358.962	0
359.17	-0.02
359.379	0.02
359.587	0.03
359.796	-0.01
360.004	0.03
360.212	-0.02
360.421	0
360.629	-0.02
360.837	-0
361.046	-0.01
361.254	0.09
361.462	-0.01
361.67	-0.03
361.879	-0.01
362.087	0.02
362.295	-0
362.503	-0.02
362.711	-0.05
362.92	-0.05
363.128	-0.05
363.336	-0.03
363.544	-0.05
363.752	-0.03
363.96	-0.04
364.168	-0.01
364.376	-0.01
364.584	0.01
364.792	0.01
365	-0
365.208	-0
365.416	0
365.624	0.05
365.832	-0
366.04	0.04
366.248	-0.01
366.456	-0.03
366.664	0.04
366.872	-0.01
367.079	0.03
367.287	-0.01
367.495	0.02
367.703	-0.02
367.911	0
368.118	-0.03
368.326	0.01
368.534	-0.03
368.742	0.04
368.949	-0.04
369.157	-0.05
369.365	0.02
369.572	0.02
369.78	-0.08
369.988	0.02
370.195	0.03
370.403	0
370.61	-0.05
370.818	-0
371.026	0.02
371.233	-0.03
371.441	-0.03
371.648	-0.05
371.856	-0.02
372.063	0.02
372.271	-0.05
372.478	-0.03
372.685	-0.03
372.893	0.01
373.1	-0.05
373.308	-0.03
373.515	0.04
373.722	0.04
373.93	0.01
374.137	-0.01
374.344	0.04
374.552	-0.01
374.759	0.02
374.966	-0.04
375.173	-0
375.381	0.03
375.588	-0.02
375.795	-0.06
376.002	-0.02
376.209	-0.04
376.417	-0.05
376.624	0.04
376.831	0
377.038	-0.05
377.245	-0.08
377.452	-0.05
377.659	-0.04
377.866	-0.04
378.073	-0.02
378.28	-0.06
378.487	0.02
378.694	0
378.901	-0.05
379.108	-0.03
379.315	-0.01
379.522	0.02
379.729	-0.03
379.936	-0
380.143	-0.01
380.35	0.01
380.557	0.02
380.763	-0.02
380.97	0.01
381.177	0.02
381.384	0.01
381.591	-0.03
381.797	-0.04
382.004	0.02
382.211	-0.01
382.418	-0.07
382.624	0.03
382.831	0
383.038	-0.01
383.244	-0.04
383.451	-0.02
383.658	-0.01
383.864	-0.02
384.071	-0.04
384.277	0.08
384.484	-0.07
384.69	-0.02
384.897	0.01
385.103	-0.04
385.31	-0.02
385.516	-0.02
385.723	-0.04
385.929	-0.04
386.136	-0.01
386.342	-0.04
386.549	-0.05
386.755	0.05
386.961	0.04
387.168	0
387.374	0.02
387.58	0
387.787	-0.04
387.993	-0.01
388.199	-0.02
388.406	-0.07
388.612	-0.01
388.818	-0.09
389.024	-0.01
389.231	0
389.437	0.04
389.643	-0.01
389.849	-0.01
390.055	-0.01
390.261	0.04
390.467	0.05
390.674	-0.02
390.88	-0.03
391.086	0
391.292	-0.01
391.498	-0.01
391.704	0.01
391.91	-0.03
392.116	-0.01
392.322	-0.08
392.528	0.02
392.734	0.01
392.94	-0.03
393.146	-0.08
393.352	-0.03
393.557	-0.04
393.763	-0
393.969	0
394.175	-0.04
394.381	-0
394.587	-0.02
394.792	-0.03
394.998	0.01
395.204	0.02
395.41	-0.02
395.615	0.02
395.821	0.02
396.027	-0.01
396.233	-0.04
396.438	-0.02
396.644	0.02
396.85	0
397.055	-0.04
397.261	0.01
397.466	-0.05
397.672	-0.02
397.878	0.01
398.083	0
398.289	-0.09
398.494	0.02
398.7	0
398.905	-0.1
399.111	0.02
399.316	-0.04
399.522	0.02
399.727	0
399.932	-0.04
400.138	-0.03
400.343	0.02
400.549	-0.03
400.754	0.01
400.959	0.03
401.165	-0.07
401.37	0.02
401.575	0.05
401.78	-0.04
401.986	-0.05
402.191	-0.03
402.396	-0.02
402.601	-0.04
402.807	0.01
403.012	-0.01
403.217	-0.01
403.422	-0.05
403.627	-0.03
403.832	-0.02
404.037	0.04
404.243	0.02
404.448	-0.04
404.653	-0.03
404.858	-0.06
405.063	-0.01
405.268	-0.03
405.473	-0.04
405.678	-0.05
405.883	0.05
406.088	0
406.293	-0.03
406.498	-0.08
406.703	0.01
406.907	-0.01
407.112	-0.07
407.317	-0.05
407.522	-0
407.727	-0.08
407.932	-0.02
408.136	0.02
408.341	0.05
408.546	0.03
408.751	0
408.956	-0.01
409.16	-0.02
409.365	-0.04
409.57	-0.03
409.774	-0.01
409.979	0.01
410.184	-0.01
410.388	-0.04
410.593	0.02
410.798	-0.02
411.002	-0
411.207	0.01
411.411	-0.02
411.616	-0.07
411.82	-0.03
412.025	-0.02
412.229	-0.03
412.434	0.04
412.638	-0.01
412.843	-0.02
413.047	-0.05
413.252	-0.06
413.456	-0.03
413.66	-0
413.865	-0.09
414.069	0.08
414.273	-0.06
414.478	-0.09
414.682	-0
414.886	-0.05
415.091	-0.09
415.295	-0.04
415.499	-0.01
415.703	-0.03
415.908	-0
416.112	-0.09
416.316	0.01
416.52	-0.03
416.724	-0.07
416.929	-0.06
417.133	0.02
417.337	-0.05
417.541	-0.04
417.745	-0.03
417.949	0.02
418.153	0
418.357	-0.03
418.561	0.02
418.765	-0.02
418.969	0.09
419.173	0.02
419.377	-0.05
419.581	0.09
419.785	-0.05
419.989	-0.05
420.193	-0.05
420.397	0.04
420.601	0.02
420.804	0.01
421.008	-0.03
421.212	-0.02
421.416	0.02
421.62	-0.07
421.823	-0.03
422.027	0.07
422.231	-0.02
422.435	0
422.638	-0.03
422.842	-0.03
423.046	-0.03
423.249	0.03
423.453	0.04
423.657	-0.02
423.86	-0.03
424.064	-0
424.268	0.03
424.471	-0.02
424.675	0.08
424.878	0.08
425.082	0.01
425.285	0.06
425.489	-0.02
425.692	-0.02
425.896	-0.05
426.099	-0.02
426.303	-0.06
426.506	-0.08
426.71	-0.01
426.913	0.02
427.116	0.04
427.32	0.02
427.523	-0.02
427.726	0.08
427.93	-0.03
428.133	-0.01
428.336	-0.02
428.54	-0.06
428.743	-0
428.946	0.03
429.149	-0.04
429.353	0.02
429.556	-0.03
429.759	-0.06
429.962	-0.09
430.165	-0.01
430.368	-0.05
430.571	-0
430.775	-0.02
430.978	-0.04
431.181	-0.01
431.384	-0.03
431.587	-0.07
431.79	-0.04
431.993	-0.07
432.196	-0.01
432.399	-0.06
432.602	0.04
432.805	-0.05
433.008	-0.01
433.211	-0.14
433.414	-0.02
433.616	-0.01
433.819	-0.03
434.022	-0.13
434.225	-0
434.428	-0.04
434.631	0.06
434.833	-0.01
435.036	-0.08
435.239	0.03
435.442	-0.01
435.645	-0.03
435.847	0
436.05	0
436.253	-0.06
436.455	-0.05
436.658	-0.03
436.861	0.07
437.063	-0.04
437.266	-0.06
437.468	0
437.671	0.07
437.874	0
438.076	-0.1
438.279	-0.09
438.481	-0.01
438.684	-0.08
438.886	-0
439.089	-0.1
439.291	-0.05
439.494	0.01
439.696	-0.04
439.899	-0.07
440.101	-0.06
440.303	-0.09
440.506	-0
440.708	-0.03
440.91	0
441.113	-0.07
441.315	-0.02
441.517	-0.08
441.72	0.03
441.922	-0.08
442.124	-0.09
442.326	0
442.529	0.09
442.731	-0.03
442.933	0.05
443.135	-0.05
443.337	-0.08
443.539	-0.02
443.742	-0.07
443.944	-0.03
444.146	-0.04
444.348	-0.03
444.55	-0.06
444.752	-0.05
444.954	-0.06
445.156	-0.03
445.358	-0.06
445.56	0.02
445.762	0.01
445.964	-0.02
446.166	-0.05
446.368	-0.04
446.57	0.03
446.772	-0.05
446.974	0
447.175	0.01
447.377	-0.07
447.579	-0.08
447.781	-0.12
447.983	0.05
448.184	-0.04
448.386	0.02
448.588	-0.08
448.79	-0.03
448.991	-0.06
449.193	-0.04
449.395	-0.04
449.597	0.01
449.798	-0.02
450	0
450.202	-0.01
450.403	-0.06
450.605	0.02
450.806	0.02
451.008	-0.1
451.21	-0.01
451.411	-0.02
451.613	-0.04
451.814	-0.02
452.016	0.03
452.217	-0.02
452.419	0
452.62	-0.05
452.821	0
453.023	-0.01
453.224	0.01
453.426	-0.02
453.627	-0.01
453.828	0.03
454.03	0.01
454.231	0.01
454.432	-0.04
454.634	0.01
454.835	-0.04
455.036	-0.07
455.238	0.06
455.439	0.09
455.64	-0.06
455.841	-0.06
456.042	0.08
456.244	0.01
456.445	-0.07
456.646	-0.07
456.847	-0.06
457.048	0.02
457.249	0.02
457.45	0.15
457.651	-0.11
457.852	0.02
458.054	-0.02
458.255	0.02
458.456	0.02
458.657	0
458.858	-0.07
459.058	-0.04
459.259	0.01
459.46	-0.04
459.661	-0.04
459.862	0.05
460.063	-0.05
460.264	0.02
460.465	-0.1
460.666	0.07
460.866	-0.04
461.067	-0.05
461.268	-0.03
461.469	-0.03
461.67	-0.01
461.87	-0.04
462.071	-0.01
462.272	-0.04
462.473	-0.01
462.673	0.04
462.874	-0.1
463.075	0.01
463.275	-0.1
463.476	-0.02
463.676	-0.01
463.877	-0.02
464.078	-0.03
464.278	-0.01
464.479	-0.02
464.679	-0.05
464.88	-0.01
465.08	0.03
465.281	-0.04
465.481	-0.02
465.682	-0.01
465.882	-0.03
466.083	-0.01
466.283	-0.01
466.483	0.03
466.684	-0.06
466.884	-0.06
467.085	-0.05
467.285	-0.01
467.485	-0.05
467.686	-0.04
467.886	-0.05
468.086	0
468.286	0
468.487	0
468.687	-0.05
468.887	-0.03
469.087	0.01
469.287	-0.05
469.488	-0.1
469.688	0
469.888	0.05
470.088	0.02
470.288	-0.01
470.488	-0
470.688	-0.06
470.888	-0.02
471.088	-0.05
471.288	0.1
471.488	0.01
471.688	-0.04
471.888	-0.05
472.088	0.01
472.288	0.03
472.488	-0.02
472.688	-0.04
472.888	-0.03
473.088	0
473.288	0
473.488	-0.01
473.688	0.03
473.887	-0
474.087	-0.04
474.287	0.05
474.487	-0.03
474.687	-0
474.886	-0.03
475.086	-0.02
475.286	-0.02
475.486	-0
475.685	-0.02
475.885	-0.01
476.085	-0.03
476.284	0.03
476.484	-0.04
476.684	0.01
476.883	0.04
477.083	-0.01
477.282	-0.03
477.482	0.04
477.681	0.04
477.881	-0.02
478.08	-0.05
478.28	-0.05
478.479	-0
478.679	0.07
478.878	-0.03
479.078	-0.02
479.277	-0.02
479.477	-0.03
479.676	0.02
479.875	-0.02
480.075	-0.08
480.274	-0.01
480.473	-0.03
480.673	-0.03
480.872	0.03
481.071	0.01
481.271	-0.01
481.47	-0.04
481.669	-0.01
481.868	-0.04
482.067	-0.06
482.267	-0.04
482.466	-0.04
482.665	-0.04
482.864	-0.05
483.063	-0.03
483.262	0.03
483.461	0.04
483.661	0.02
483.86	-0.02
484.059	-0.01
484.258	0.02
484.457	-0
484.656	-0.01
484.855	-0.03
485.054	-0.03
485.253	-0.03
485.452	-0.05
485.651	-0.01
485.849	-0.01
486.048	-0.04
486.247	-0.03
486.446	-0.02
486.645	-0.04
486.844	-0.04
487.043	-0.02
487.241	-0
487.44	-0.04
487.639	-0.02
487.838	0.02
488.037	-0.02
488.235	0.05
488.434	-0.01
488.633	-0.03
488.831	0.01
489.03	0.02
489.229	-0.02
489.427	-0
489.626	-0
489.825	0.05
490.023	-0.01
490.222	-0.01
490.42	0.01
490.619	0.02
490.817	-0.03
491.016	-0.02
491.214	0.02
491.413	-0.02
491.611	-0.03
491.81	-0.02
492.008	0.01
492.207	0.02
492.405	-0.02
492.604	-0.04
492.802	-0.02
493	0
493.199	-0.05
493.397	-0.01
493.595	-0.01
493.794	-0.03
493.992	0.04
494.19	-0.01
494.388	0.01
494.587	-0.01
494.785	-0.02
494.983	-0.03
495.181	-0.01
495.379	-0.02
495.578	-0.02
495.776	0.01
495.974	0.01
496.172	-0.02
496.37	-0.02
496.568	-0.02
496.766	-0.04
496.964	0.03
497.162	-0.01
497.36	-0.03
497.558	-0.01
497.756	-0.01
497.954	-0.01
498.152	-0.01
498.35	0
498.548	-0
498.746	0.01
498.944	-0.05
499.142	-0.04
499.34	-0.04
499.538	-0.01
499.736	-0.02
499.933	0.01
500.131	0.04
500.329	0
500.527	0.01
500.725	0.01
500.922	0.01
501.12	-0.02
501.318	0.01
501.516	-0.04
501.713	0
501.911	-0
502.109	-0.02
502.306	-0.02
502.504	-0
502.701	-0.01
502.899	-0.01
503.097	0.01
503.294	-0.04
503.492	-0.01
503.689	-0.02
503.887	0.01
504.084	0.04
504.282	-0.01
504.479	-0.04
504.677	-0
504.874	-0.04
505.072	-0.01
505.269	-0.01
505.466	0.01
505.664	-0
505.861	-0.05
506.059	-0.03
506.256	0.01
506.453	-0.01
506.651	0.02
506.848	0.01
507.045	0.01
507.242	-0.02
507.44	-0.01
507.637	-0.01
507.834	-0.03
508.031	0.01
508.229	-0.02
508.426	-0.02
508.623	-0
508.82	-0.01
509.017	-0.02
509.214	-0.01
509.411	-0.01
509.608	-0.03
509.805	-0.01
510.003	-0.02
510.2	-0.03
510.397	0.02
510.594	-0.02
510.791	-0.01
510.988	-0.02
511.184	0.01
511.381	-0.01
511.578	-0.04
511.775	0.02
511.972	-0.03
512.169	-0.01
512.366	-0.01
512.563	0
512.76	-0.03
512.956	-0.01
513.153	-0.04
513.35	-0.01
513.547	-0.01
513.744	-0.03
513.94	-0.01
514.137	-0.01
514.334	0
514.53	-0.01
514.727	0.01
514.924	0.02
515.12	-0.02
515.317	-0.04
515.514	-0.03
515.71	-0.02
515.907	0.01
516.103	-0.01
516.3	-0
516.497	0
516.693	0.01
516.89	-0.01
517.086	-0.01
517.283	0.02
517.479	0
517.676	-0
517.872	0
518.068	-0.01
518.265	-0.02
518.461	-0.02
518.658	-0.03
518.854	0.01
519.05	-0.03
519.247	-0.02
519.443	0
519.639	0
519.836	0.01
520.032	-0.02
520.228	-0.01
520.424	0.03
520.621	0.02
520.817	-0.03
521.013	0.01
521.209	-0
521.405	0.02
521.601	-0.01
521.798	-0.01
521.994	0.03
522.19	-0.04
522.386	-0.05
522.582	0.01
522.778	-0.01
522.974	-0.02
523.17	-0.02
523.366	-0.02
523.562	0.02
523.758	-0.01
523.954	-0.03
524.15	-0.02
524.346	-0.02
524.542	-0.03
524.738	-0.03
524.934	-0.01
525.129	-0.08
525.325	0.01
525.521	-0
525.717	0
525.913	-0.02
526.109	-0.02
526.304	-0.01
526.5	-0
526.696	0.01
526.892	0
527.087	-0.01
527.283	-0.02
527.479	0.01
527.674	-0.02
527.87	-0.01
528.066	-0.02
528.261	0.01
528.457	0
528.653	-0.03
528.848	-0.03
529.044	-0.01
529.239	-0
529.435	0.03
529.63	-0.01
529.826	0.01
530.021	-0.01
530.217	0.01
530.412	-0.02
530.608	-0.02
530.803	-0.01
530.999	-0.02
531.194	-0.05
531.389	-0.02
531.585	-0.06
531.78	-0.02
531.975	0
532.171	0.01
532.366	-0.03
532.561	0.01
532.757	-0.05
532.952	-0.02
533.147	0
533.342	-0.01
533.538	-0.04
533.733	0
533.928	-0.02
534.123	-0.02
534.318	-0.04
534.513	0.01
534.709	-0.01
534.904	-0.01
535.099	-0.02
535.294	-0
535.489	-0.01
535.684	-0.01
535.879	-0.04
536.074	0.02
536.269	-0.03
536.464	-0.02
536.659	-0.01
536.854	-0.03
537.049	0.01
537.244	-0.01
537.439	-0.01
537.634	0.02
537.828	-0.02
538.023	-0.02
538.218	-0.05
538.413	0.01
538.608	-0.04
538.803	0.02
538.997	-0.03
539.192	0.02
539.387	-0
539.582	0
539.776	-0.02
539.971	-0.02
540.166	-0.02
540.36	-0.02
540.555	-0
540.75	0
540.944	0
541.139	-0.05
541.334	-0.01
541.528	-0
541.723	0.01
541.917	-0.01
542.112	-0.04
542.306	-0.01
542.501	-0.01
542.695	-0.01
542.89	-0.04
543.084	0
543.279	-0.01
543.473	-0
543.668	-0.01
543.862	-0.02
544.056	0.02
544.251	-0.02
544.445	-0
544.64	-0.03
544.834	-0.02
545.028	0.01
545.222	-0.02
545.417	0.01
545.611	-0.02
545.805	-0
546	-0.04
546.194	-0.01
546.388	-0.02
546.582	0.02
546.776	-0.02
546.97	-0.01
547.165	0.02
547.359	0.01
547.553	-0.02
547.747	-0.02
547.941	0.01
548.135	-0.01
548.329	0.01
548.523	0.01
548.717	-0.01
548.911	-0.02
549.105	-0.02
549.299	0
549.493	-0
549.687	-0.01
549.881	0.02
550.075	-0.02
550.269	-0.03
550.463	0.01
550.657	-0.02
550.85	-0.02
551.044	-0.02
551.238	0
551.432	-0.04
551.626	-0.01
551.82	-0.02
552.013	-0.03
552.207	-0
552.401	-0
552.594	-0.01
552.788	-0.01
552.982	-0.02
553.176	-0.01
553.369	-0
553.563	0
553.756	-0.05
553.95	-0.04
554.144	-0.03
554.337	0.03
554.531	-0.01
554.724	0.01
554.918	-0.03
555.111	-0.01
555.305	-0.03
555.498	0.04
555.692	0.02
555.885	-0
556.079	-0
556.272	-0.02
556.466	0
556.659	0.02
556.852	-0.01
557.046	-0.02
557.239	0.01
557.432	-0.03
557.626	-0.03
557.819	-0.01
558.012	0.01
558.206	-0.01
558.399	-0.03
558.592	-0
558.785	-0.01
558.979	0.01
559.172	-0.01
559.365	-0
559.558	0.01
559.751	-0.02
559.944	-0.01
560.138	-0.02
560.331	-0.01
560.524	-0.02
560.717	-0.02
560.91	-0.01
561.103	0
561.296	-0
561.489	0.01
561.682	-0.01
561.875	0.02
562.068	0.01
562.261	-0.01
562.454	0.02
562.647	0
562.84	0.02
563.032	-0.01
563.225	-0
563.418	-0.02
563.611	-0.03
563.804	-0.01
563.997	-0.04
564.19	-0.04
564.382	-0.04
564.575	-0
564.768	-0
564.961	-0.01
565.153	-0.03
565.346	-0.01
565.539	0.03
565.731	0.01
565.924	0
566.117	0.02
566.309	-0
566.502	-0.03
566.695	-0
566.887	0.02
567.08	-0.04
567.272	-0.02
567.465	-0.04
567.657	-0
567.85	-0.02
568.042	0.03
568.235	0.02
568.427	0.01
568.62	-0
568.812	-0
569.005	-0.01
569.197	-0.03
569.389	0.01
569.582	0.01
569.774	-0.02
569.966	-0.03
570.159	-0.04
570.351	0
570.543	-0.01
570.736	-0.01
570.928	-0.04
571.12	-0.01
571.312	-0.03
571.505	-0.05
571.697	0.02
571.889	-0.04
572.081	-0.01
572.273	-0.03
572.465	0.01
572.658	-0.05
572.85	-0
573.042	-0.01
573.234	-0.01
573.426	0.01
573.618	-0.05
573.81	0.01
574.002	0.01
574.194	0.04
574.386	-0.06
574.578	-0.08
574.77	-0.02
574.962	-0.02
575.154	-0.05
575.346	-0.03
575.538	-0.01
575.729	-0.02
575.921	-0.01
576.113	-0.02
576.305	0.02
576.497	-0.03
576.689	-0.02
576.88	-0.03
577.072	0.04
577.264	-0
577.456	-0.01
577.647	-0.05
577.839	-0.04
578.031	0.05
578.223	-0.03
578.414	-0.04
578.606	-0.01
578.798	-0
578.989	-0
579.181	-0.01
579.372	0
579.564	-0.03
579.755	-0
579.947	-0
580.139	-0
580.33	-0.06
580.522	-0.03
580.713	-0.08
580.905	-0.01
581.096	-0.01
581.287	0
581.479	-0.03
581.67	0.03
581.862	-0.01
582.053	-0.04
582.244	-0.07
582.436	-0.03
582.627	-0.01
582.818	-0.03
583.01	-0.04
583.201	0.02
583.392	0
583.583	-0.02
583.775	-0
583.966	-0.03
584.157	-0.01
584.348	-0.01
584.54	-0.04
584.731	0
584.922	-0.02
585.113	-0.05
585.304	0
585.495	0
585.686	0
585.877	0
586.068	0.02
586.259	-0.03
586.45	-0.02
586.641	-0.02
586.832	-0.05
587.023	-0.02
587.214	-0.04
587.405	0
587.596	-0.04
587.787	0.03
587.978	-0.02
588.169	-0.03
588.36	-0.03
588.551	-0
588.742	-0.03
588.932	0.01
589.123	-0.03
589.314	-0
589.505	0.01
589.696	0.01
589.886	-0.02
590.077	-0.04
590.268	-0.02
590.458	-0.04
590.649	-0.04
590.84	-0.01
591.03	-0
591.221	-0.06
591.412	-0.04
591.602	-0.01
591.793	0.02
591.984	-0.02
592.174	-0.01
592.365	0.01
592.555	-0.05
592.746	0
592.936	-0
593.127	0.01
593.317	0.02
593.508	-0.04
593.698	-0.04
593.889	-0.01
594.079	-0.01
594.269	-0.02
594.46	-0.01
594.65	-0.03
594.84	-0
595.031	-0.04
595.221	-0.03
595.411	-0.06
595.602	0.01
595.792	-0
595.982	-0.02
596.172	0.05
596.363	0.01
596.553	0.02
596.743	0.02
596.933	0
597.123	0.02
597.314	-0.01
597.504	-0.03
597.694	0.02
597.884	-0.02
598.074	0
598.264	-0.04
598.454	-0.01
598.644	-0.01
598.834	-0.03
599.024	-0.07
599.214	-0.01
599.404	-0
599.594	-0.01
599.784	-0.04
599.974	0.01
600.164	0.03
600.354	-0.02
600.544	-0.05
600.734	0.01
600.924	0.02
601.114	-0.03
601.303	-0.03
601.493	-0.01
601.683	-0.01
601.873	-0
602.063	-0.05
602.252	0.03
602.442	-0.05
602.632	-0.04
602.821	-0.04
603.011	0.01
603.201	-0.02
603.39	-0.02
603.58	-0.04
603.77	-0.01
603.959	0.01
604.149	-0.03
604.339	-0.02
604.528	0.02
604.718	-0.01
604.907	-0
605.097	-0.02
605.286	-0.04
605.476	0.01
605.665	0.02
605.855	-0.02
606.044	0.03
606.234	0.01
606.423	-0
606.612	-0.03
606.802	-0.01
606.991	0.03
607.181	0
607.37	-0.05
607.559	-0.01
607.749	-0.03
607.938	0
608.127	-0.01
608.316	-0.02
608.506	-0.01
608.695	-0.02
608.884	-0.04
609.073	0.01
609.263	-0.01
609.452	0.01
609.641	-0.03
609.83	-0.04
610.019	-0.03
610.208	-0.04
610.397	-0.02
610.586	0.04
610.775	-0.02
610.965	-0.02
611.154	-0.05
611.343	-0.02
611.532	0
611.721	-0.02
611.91	-0.02
612.099	0.04
612.287	-0.01
612.476	-0.07
612.665	0.01
612.854	-0.01
613.043	0.03
613.232	-0.01
613.421	-0.05
613.61	-0.02
613.798	-0.02
613.987	0.03
614.176	0
614.365	-0.02
614.554	0.01
614.742	0.03
614.931	0.02
615.12	0.02
615.309	-0.02
615.497	0.03
615.686	-0.01
615.875	-0
616.063	0.01
616.252	-0.01
616.44	-0
616.629	0.01
616.818	0.02
617.006	0.01
617.195	-0.02
617.383	0.01
617.572	0.01
617.76	-0
617.949	0.01
618.137	0.05
618.326	0.02
618.514	-0.03
618.703	-0.01
618.891	0.05
619.079	-0.04
619.268	0.04
619.456	-0.01
619.644	0.06
619.833	0.02
620.021	-0
620.209	-0.02
620.398	0.06
620.586	-0
620.774	0.02
620.962	0.04
621.151	0.07
621.339	0.01
621.527	-0.04
621.715	-0.03
621.903	-0
622.092	0.01
622.28	0.02
622.468	0
622.656	-0
622.844	0.03
623.032	-0.01
623.22	-0.02
623.408	0.04
623.596	0.03
623.784	0.05
623.972	-0.01
624.16	0.03
624.348	0.07
624.536	-0.03
624.724	0.02
624.912	0.07
625.1	0.07
625.288	0.02
625.476	-0
625.664	0.05
625.851	0.02
626.039	0.02
626.227	0.08
626.415	0.07
626.603	-0.01
626.79	0.02
626.978	0.05
627.166	0.08
627.354	0.07
627.541	0.03
627.729	0.01
627.917	0.08
628.104	0.05
628.292	0.04
628.48	0.04
628.667	0.04
628.855	0.09
629.042	0.07
629.23	0.04
629.418	0.05
629.605	0.04
629.793	0.03
629.98	0.06
630.168	0.05
630.355	0.08
630.543	0.1
630.73	0.01
630.917	0.09
631.105	0.11
631.292	0.05
631.48	0.04
631.667	0.12
631.854	0.08
632.042	0.07
632.229	0.01
632.416	0.09
632.604	0.06
632.791	0.05
632.978	0.11
633.165	0.08
633.353	0.15
633.54	0.13
633.727	0.02
633.914	0.07
634.101	0.03
634.289	0.14
634.476	0.08
634.663	0.05
634.85	0.12
635.037	0.07
635.224	0.08
635.411	0.14
635.598	0.14
635.785	0.1
635.972	0.09
636.159	0.12
636.346	0.08
636.533	0.14
636.72	0.1
636.907	0.1
637.094	0.12
637.281	0.09
637.468	0.14
637.655	0.11
637.842	0.12
638.029	0.12
638.215	0.15
638.402	0.14
638.589	0.12
638.776	0.11
638.963	0.12
639.149	0.18
639.336	0.2
639.523	0.15
639.709	0.15
639.896	0.14
640.083	0.2
640.27	0.16
640.456	0.17
640.643	0.19
640.829	0.15
641.016	0.21
641.203	0.15
641.389	0.2
641.576	0.2
641.762	0.2
641.949	0.15
642.135	0.23
642.322	0.22
642.508	0.17
642.695	0.24
642.881	0.22
643.068	0.18
643.254	0.24
643.441	0.26
643.627	0.22
643.813	0.19
644	0.25
644.186	0.24
644.372	0.27
644.559	0.26
644.745	0.3
644.931	0.25
645.118	0.29
645.304	0.24
645.49	0.25
645.676	0.27
645.862	0.31
646.049	0.34
646.235	0.32
646.421	0.39
646.607	0.41
646.793	0.32
646.979	0.3
647.165	0.34
647.352	0.36
647.538	0.39
647.724	0.34
647.91	0.37
648.096	0.41
648.282	0.41
648.468	0.38
648.654	0.39
648.84	0.39
649.026	0.38
649.212	0.45
649.397	0.4
649.583	0.4
649.769	0.47
649.955	0.47
650.141	0.5
650.327	0.49
650.513	0.46
650.698	0.5
650.884	0.39
651.07	0.52
651.256	0.5
651.442	0.52
651.627	0.53
651.813	0.57
651.999	0.51
652.184	0.58
652.37	0.58
652.556	0.53
652.741	0.61
652.927	0.49
653.113	0.6
653.298	0.61
653.484	0.61
653.669	0.58
653.855	0.64
654.04	0.67
654.226	0.69
654.412	0.65
654.597	0.62
654.782	0.66
654.968	0.73
655.153	0.75
655.339	0.67
655.524	0.66
655.71	0.68
655.895	0.72
656.08	0.7
656.266	0.77
656.451	0.76
656.636	0.71
656.822	0.73
657.007	0.72
657.192	0.76
657.378	0.71
657.563	0.79
657.748	0.8
657.933	0.82
658.118	0.73
658.304	0.75
658.489	0.78
658.674	0.71
658.859	0.72
659.044	0.76
659.229	0.77
659.414	0.71
659.599	0.74
659.785	0.68
659.97	0.68
660.155	0.7
660.34	0.68
660.525	0.64
660.71	0.62
660.895	0.65
661.08	0.6
661.264	0.57
661.449	0.6
661.634	0.56
661.819	0.57
662.004	0.52
662.189	0.45
662.374	0.47
662.559	0.46
662.743	0.36
662.928	0.41
663.113	0.4
663.298	0.37
663.483	0.41
663.667	0.4
663.852	0.28
664.037	0.38
664.221	0.31
664.406	0.34
664.591	0.3
664.775	0.33
664.96	0.3
665.145	0.25
665.329	0.25
665.514	0.21
665.698	0.17
665.883	0.16
666.068	0.27
666.252	0.19
666.437	0.16
666.621	0.21
666.806	0.2
666.99	0.16
667.174	0.14
667.359	0.22
667.543	0.11
667.728	0.13
667.912	0.08
668.096	0.17
668.281	0.11
668.465	0.12
668.649	0.1
668.834	0.06
669.018	0.09
669.202	0.09
669.387	0.11
669.571	0.16
669.755	0.07
669.939	0.11
670.124	0.05
670.308	0.15
670.492	0.1
670.676	0.1
670.86	0.06
671.044	0.03
671.228	0.1
671.413	0.06
671.597	0.04
671.781	0.03
671.965	0.09
672.149	0.05
672.333	0.05
672.517	0.02
672.701	0.07
672.885	0.01
673.069	-0.01
673.253	0.09
673.437	0.03
673.621	0
673.804	0.06
673.988	0.02
674.172	0.04
674.356	0
674.54	0.01
674.724	0.06
674.908	-0.01
675.091	0.07
675.275	0.05
675.459	0.05
675.643	0.09
675.826	0.05
676.01	-0.02
676.194	-0.03
676.377	0.05
676.561	0.04
676.745	0.05
676.928	-0
677.112	0.07
677.296	-0.01
677.479	-0.04
677.663	-0.01
677.846	0.06
678.03	-0.02
678.213	-0.04
678.397	0.03
678.58	0
678.764	0
678.947	0.02
679.131	-0.12
679.314	0.03
679.498	0.03
679.681	-0.03
679.865	0.08
680.048	-0.02
680.231	0
680.415	0.03
680.598	-0.04
680.781	-0.04
680.965	0
681.148	0.02
681.331	0.01
681.514	0.01
681.698	-0.03
681.881	-0.02
682.064	-0.03
682.247	-0
682.43	-0.04
682.614	0.03
682.797	0.03
682.98	0.04
683.163	-0.03
683.346	0.06
683.529	-0.04
683.712	-0.04
683.895	-0.02
684.078	-0.06
684.261	-0.05
684.444	0.01
684.627	-0
684.81	-0.05
684.993	0.01
685.176	0.06
685.359	-0.04
685.542	-0.03
685.725	-0
685.908	-0.03
686.091	-0.05
686.274	0.03
686.457	-0.03
686.639	-0.03
686.822	0.02
687.005	0.02
687.188	-0.03
687.371	0.08
687.553	-0.06
687.736	0
687.919	0.04
688.102	0.04
688.284	-0.03
688.467	-0.02
688.65	-0.02
688.832	-0.06
689.015	-0.04
689.197	-0.06
689.38	0.03
689.563	0.05
689.745	-0.08
689.928	-0.05
690.11	-0.08
690.293	0.05
690.475	-0.07
690.658	-0.03
690.84	-0.02
691.023	-0.03
691.205	-0.06
691.388	0.03
691.57	-0.05
691.752	0.05
691.935	-0.11
692.117	-0
692.3	-0.02
692.482	-0.03
692.664	-0.01
692.847	-0.03
693.029	0.03
693.211	0.01
693.393	-0.01
693.576	-0.04
693.758	-0.02
693.94	-0.01
694.122	0.02
694.304	-0.04
694.487	-0.03
694.669	0.04
694.851	-0.02
695.033	-0.01
695.215	-0.05
695.397	-0.04
695.579	0.05
695.761	-0.04
695.943	-0.08
696.125	0.04
696.308	-0.02
696.49	-0.08
696.671	0.08
696.853	-0
697.035	0.09
697.217	-0.04
697.399	0
697.581	-0.08
697.763	-0.02
697.945	-0.03
698.127	-0.03
698.309	0
698.491	-0.02
698.672	0.02
698.854	0
699.036	0.01
699.218	-0.03
699.399	-0.02
699.581	0.08
699.763	-0.02
699.945	-0.03
700.126	-0.01
700.308	0.03
700.49	-0.05
700.671	-0.11
700.853	-0.05
701.035	-0.12
701.216	-0.01
701.398	-0.07
701.579	0.01
701.761	0.04
701.943	-0.06
702.124	-0.06
702.306	-0.05
702.487	0.05
702.669	-0.01
702.85	-0.08
703.031	-0.1
703.213	0.11
703.394	0.05
703.576	-0.01
703.757	0.07
703.938	0.03
704.12	0.13
704.301	-0.03
704.483	-0.04
704.664	-0.02
704.845	0.1
705.026	0.01
705.208	-0.06
705.389	-0.03
705.57	-0.03
705.751	-0.05
705.933	-0.01
706.114	-0
706.295	-0.02
706.476	-0.09
706.657	0.06
706.838	-0.01
707.02	-0.04
707.201	-0.08
707.382	-0.11
707.563	0.07
707.744	-0.07
707.925	-0.04
708.106	-0.07
708.287	0.02
708.468	0.03
708.649	0.02
708.83	0.04
709.011	-0.07
709.192	-0.01
709.373	-0.1
709.554	-0.05
709.734	0
709.915	0.11
710.096	-0.07
710.277	-0.1
710.458	-0.02
710.639	-0.02
710.819	-0.07
711	0.01
711.181	0.04
711.362	0.05
711.542	-0.07
711.723	-0
711.904	0.03
712.085	-0.03
712.265	-0
712.446	-0.09
712.627	-0.05
712.807	-0.03
712.988	-0.07
713.168	-0.02
713.349	0.02
713.53	-0.16
713.71	-0.08
713.891	-0.11
714.071	0.01
714.252	-0.07
714.432	-0.08
714.613	-0.11
714.793	-0.07
714.974	0.11
715.154	0.03
715.334	-0.03
715.515	0.02
715.695	-0.11
715.876	-0.02
716.056	-0.05
716.236	0.02
716.417	-0.07
716.597	-0.06
716.777	0.14
716.957	0.01
717.138	-0.03
717.318	-0
717.498	-0.03
717.678	-0.01
717.859	-0.06
718.039	-0.11
718.219	-0.04
718.399	0.02
718.579	-0.06
718.759	-0.12
718.939	-0.01
719.12	-0.13
719.3	-0.08
719.48	-0.18
719.66	-0.14
719.84	0.03
720.02	-0.05
720.2	-0.05
720.38	-0.05
720.56	0.08
720.74	-0.03
720.92	-0.03
721.1	0
721.279	0.07
721.459	0.03
721.639	-0.12
721.819	-0.05
721.999	-0.03
722.179	-0.02
722.359	-0.09
722.538	0
722.718	-0.01
722.898	-0.11
723.078	-0.03
723.257	-0.07
723.437	-0.01
723.617	-0.05
723.797	-0.07
723.976	0.05
724.156	-0.04
724.336	0.05
724.515	0.1
724.695	-0.16
724.874	-0.07
725.054	0.04
725.234	-0.06
725.413	0.04
725.593	-0.05
725.772	-0
725.952	-0.08
726.131	-0.11
726.311	-0.04
726.49	0.01
726.67	0
726.849	-0.11
727.028	-0.01
727.208	-0.1
727.387	-0.03
727.567	-0.11
727.746	-0.07
727.925	-0.05
728.105	-0.07
728.284	-0.09
728.463	-0.02
728.643	-0
728.822	-0.19
729.001	-0.08
729.18	-0.08
729.359	0.03
729.539	-0.11
729.718	0.07
729.897	0
730.076	-0.05
730.255	-0.14
730.434	-0.01
730.614	0.03
730.793	-0.03
730.972	-0.01
731.151	-0.09
731.33	0.02
731.509	-0.01
731.688	-0.01
731.867	-0.06
732.046	-0.14
732.225	0.24
732.404	-0.08
732.583	-0.02
732.762	-0.02
732.941	0.14
733.12	0.02
733.298	-0.1
733.477	0.01
733.656	-0.03
733.835	-0.1
734.014	0.07
734.193	-0.1
734.371	0.04
734.55	-0.09
734.729	-0.16
734.908	-0.01
735.086	0.06
735.265	0.02
735.444	-0.14
735.623	-0.15
735.801	-0.1
735.98	0.04
736.159	-0.12
736.337	0.04
736.516	-0.02
736.694	-0.06
736.873	-0.06
737.052	0.08
737.23	0.04
737.409	-0.07
737.587	0.13
737.766	-0.18
737.944	-0.11
738.123	-0.02
738.301	-0.03
738.479	-0.07
738.658	-0.08
738.836	-0.22
739.015	0.02
739.193	-0
739.371	-0.13
739.55	-0.03
739.728	-0.16
739.906	0.11
740.085	0.14
740.263	-0.14
740.441	-0.23
740.62	0.18
740.798	-0
740.976	-0.12
741.154	-0.11
741.332	-0.02
741.511	-0.03
741.689	0
741.867	0
742.045	-0
742.223	-0.05
742.401	-0.11
742.579	-0.12
742.757	0.01
742.935	-0.06
743.114	-0.07
743.292	-0.02
743.47	-0.02
743.648	0.01
743.826	-0.11
744.004	0.03
744.181	-0.05
744.359	-0.06
744.537	-0.14
744.715	-0.08
744.893	-0.02
745.071	-0.03
745.249	-0.11
745.427	-0.04
745.605	0.06
745.782	-0.06
745.96	-0.02
746.138	-0
746.316	0.07
746.493	-0.1
746.671	-0.04
746.849	0.04
747.027	0.1
747.204	-0.17
747.382	-0.03
747.56	-0.04
747.737	-0.07
747.915	-0.14
748.093	0.01
748.27	-0.09
748.448	-0.06
748.625	-0.16
748.803	-0.04
748.98	-0.08
749.158	-0.03
749.335	-0.01
749.513	-0.08
749.69	-0.03
749.868	-0.07
750.045	-0.03
750.223	-0.11
750.4	-0.24
750.578	0.1
750.755	-0.03
750.932	-0.12
751.11	0.04
751.287	-0.16
751.464	0.07
751.642	-0.19
751.819	0.09
751.996	-0.04
752.173	-0.2
752.351	-0.12
752.528	0.01
752.705	-0.1
752.882	-0.06
753.06	0.02
753.237	-0.01
753.414	0.12
753.591	0.04
753.768	-0.14
753.945	-0.05
754.122	-0.08
754.299	0.17
754.476	-0.05
754.654	-0.03
754.831	0.02
755.008	-0.01
755.185	-0.18
755.362	-0.11
755.539	0
755.716	-0.13
755.892	-0.07
756.069	0.01
756.246	-0.09
756.423	-0.01
756.6	0.04
756.777	-0.05
756.954	0.05
757.131	-0.08
757.307	-0.1
757.484	-0.23
757.661	-0.12
757.838	-0.02
758.015	-0.09
758.191	0.01
758.368	-0.03
758.545	0.06
758.721	0.03
758.898	0.01
759.075	-0.08
759.251	-0.01
759.428	0.07
759.605	-0.22
759.781	-0.12
759.958	-0.11
760.134	0.08
760.311	-0.16
760.488	0.09
760.664	0.25
760.841	-0.03
761.017	-0.12
761.194	0.07
761.37	0.1
761.547	-0.1
761.723	-0.05
761.899	0.11
762.076	-0.1
762.252	-0.04
762.429	-0.03
762.605	0.13
762.781	-0.13
762.958	0
763.134	-0.19
763.31	-0.16
763.486	0.16
763.663	-0.22
763.839	0.13
764.015	-0.22
764.191	-0.12
764.368	-0.05
764.544	-0.09
764.72	0.05
764.896	0.09
765.072	-0.02
765.248	-0.08
765.425	0
765.601	0.01
765.777	0.03
765.953	-0.23
766.129	-0.09
766.305	-0.03
766.481	-0.01
766.657	0.1
766.833	0.18
767.009	-0.14
767.185	-0.1
767.361	0.01
767.537	-0.18
767.713	0.1
767.889	-0.19
768.065	-0.02
768.24	-0.02
768.416	0.09
768.592	-0.1
768.768	-0.15
768.944	-0.08
769.12	-0.31
769.295	-0.17
769.471	-0.02
769.647	-0.08
769.823	0.16
769.998	0
770.174	-0.17
770.35	0.3
770.525	0.1
770.701	-0.08
770.877	-0.01
771.052	-0.21
771.228	-0.02
771.403	-0.02
771.579	-0
771.755	0.16
771.93	-0.07
772.106	-0.15
772.281	-0.21
772.457	-0.06
772.632	-0.02
772.808	-0.09
772.983	-0.08
773.159	-0.26
773.334	0.11
773.509	-0.04
773.685	-0.06
773.86	0.2
774.036	0.29
774.211	0.09
774.386	-0.17
774.562	0.02
774.737	-0.12
774.912	-0.27
775.087	-0
775.263	-0.06
775.438	-0.06
775.613	-0.05
775.788	-0.17
775.964	-0.02
776.139	0.21
776.314	-0.25
776.489	0.05
776.664	0.06
776.839	-0.14
777.014	0.12
777.19	0.09
777.365	0.03
777.54	0.25
777.715	-0.1
777.89	-0.02
778.065	-0.09
778.24	-0.05
778.415	0.04
778.59	-0.28
778.765	-0.14
778.94	0
779.115	-0.16
779.289	-0.13
779.464	-0.15
779.639	-0.06
779.814	-0.18
779.989	-0.18
780.164	0.11
780.339	0.15
780.513	-0.2
780.688	-0
780.863	-0.03
781.038	0
781.212	-0.17
781.387	0.02
781.562	0.35
781.737	-0.09
781.911	0.15
782.086	-0.24
782.261	-0
782.435	0.18
782.61	-0.14
782.784	-0.09
782.959	0.27
783.134	-0.08
783.308	-0.16
783.483	-0.03
783.657	0.22
783.832	0.3
784.006	-0.17
784.181	-0.23
784.355	0.12
784.53	-0.33
784.704	-0.04
784.878	0.09
785.053	-0.1
785.227	0.11
785.402	0.21
785.576	-0.31
785.75	-0.02
785.925	-0.11
786.099	-0.15
786.273	0.01
786.448	0.13
786.622	0.38
786.796	0.09
786.97	-0.12
787.145	0.55
787.319	-0.35
787.493	-0.12
787.667	-0.23
787.841	-0.2
788.015	0.12
788.19	-0.16
788.364	0.12
788.538	0.08
788.712	0.15
788.886	-0.21
789.06	-0.02
789.234	0.05
789.408	-0.07
789.582	-0.17
789.756	0.16
789.93	-0.12
790.104	-0.16
790.278	-0.01
790.452	-0.31
790.626	0.06
790.8	-0.15
790.973	0.15
791.147	0.12
791.321	0.12
791.495	0.11
791.669	0.19
791.843	0.12
792.016	-0.09
792.19	0.37
792.364	-0.35
792.538	0.46
792.711	0.23
792.885	-0.2
793.059	-0.13
793.233	-0.6
793.406	0.06
793.58	-0.09
793.754	-0.08
793.927	-0.03
794.101	0.23
794.274	0.03
794.448	0.12
794.622	-0.23
794.795	0.31
794.969	-0.14
795.142	0.17
795.316	-0.14
795.489	-0.25
795.663	0.48
795.836	0.13
796.009	-0.11
796.183	0.16
796.356	0.05
796.53	-0.05
796.703	-0.03
796.876	0.58
797.05	-0.06
797.223	-0.14
797.396	-0.03
797.57	0.05
797.743	0.23
797.916	-0.04
798.09	-0.21
798.263	0.11
798.436	0.02
798.609	0.11
798.782	-0.01
798.956	0.26
799.129	-0.17
799.302	-0.18
799.475	-0.22
799.648	-0.15
799.821	-0.3
799.994	0.1
800.167	-0.42
800.34	-0.06
800.514	0.1
800.687	-0.13
800.86	-0.17
801.033	-0.03
801.206	0.01
801.379	-0.64
801.551	0.19
801.724	0.13
801.897	0.23
802.07	-0.15
802.243	-0.25
802.416	-0.23
802.589	-0.24
802.762	-0.03
802.935	-0.32
803.107	0.1
803.28	0.05
803.453	0.13
803.626	-0.38
803.798	-0.31
803.971	-0.34
804.144	0.06
804.317	0.25
804.489	0.05
804.662	0.13
804.835	-0.2
805.007	-0.2
805.18	0.4
805.353	-0
805.525	-0.34
805.698	-0.45
805.87	0.17
806.043	-0.06
806.215	-0.55
806.388	-0.16
806.56	0.27
806.733	0.12
806.905	-0.26
807.078	-0.31
807.25	-0.36
807.423	0.18
807.595	-0.13
807.768	-0.16
807.94	0.21
808.112	0.15
808.285	-0.18
808.457	-0.28
808.629	-0
808.802	0.08
808.974	-0.13
809.146	-0.21
809.318	-0.67
809.491	0.05
809.663	0.28
809.835	-0.24
810.007	0.23
810.18	-0.02
810.352	-0.34
810.524	-0.3
810.696	-0.06
810.868	-0.04
811.04	-0.46
811.212	-0.38
811.384	0.16
811.556	-0.25
811.728	0.34
811.901	0.44
812.073	-0.04
812.245	0.21
812.417	-0.28
812.589	-0.6
812.76	-0.13
812.932	0.06
813.104	0.03
813.276	-0.2
813.448	-0.03
813.62	-0.15
813.792	0.01
813.964	-0.24
814.136	-0.25
814.307	-0.25
814.479	-0.08
814.651	-0.25
814.823	0.77
814.995	-0.24
815.166	0.02
815.338	-0.34
815.51	-0.47
815.681	0.76
815.853	-0.06
816.025	-0.14
816.196	0.19
816.368	0.51
816.54	-0.53
816.711	-0.63
816.883	0.2
817.054	0.78
817.226	-0.73
817.398	-0.33
817.569	-0.29
817.741	0.03
817.912	0.21
818.084	-0.06
818.255	0.11
818.426	-0.23
818.598	-0.13
818.769	-0.07
818.941	0.33
819.112	0.43
819.283	0.31
819.455	-1.03
819.626	-0.19
819.798	0.21
819.969	0.05
820.14	-0.37
820.311	-0.17
820.483	-0.37
820.654	0.39
820.825	-0.11
820.996	-0.27
821.168	-0.5
821.339	-0.53
821.51	-0.34
821.681	-0.09
821.852	-0.35
822.023	-0.47
822.195	-0.62
822.366	0.21
822.537	-0.11
822.708	-0.15
822.879	-0.48
823.05	0.52
823.221	-0.66
823.392	0.08
823.563	-0.16
823.734	-0.3
823.905	-0.38
824.076	-0.56
824.247	-0.41
824.418	-0.82
824.589	0.31
824.759	0.18
824.93	-0.18
825.101	-0.6
825.272	-0.2
825.443	0.34
825.614	0.19
825.784	-0.97
825.955	0.82
826.126	0.62
826.297	-0.59
826.467	0.66
826.638	0
826.809	-1.31
826.98	-0.2
827.15	-0.08
827.321	0.01
827.492	0.69
827.662	-0.36
827.833	0.91
828.003	-0.28
828.174	-0.26
828.345	-0.6
828.515	0.24
828.686	0.24
828.856	-0.14
829.027	-0.36
829.197	0.14
829.368	0.59
829.538	-0.14
829.709	-0.66
829.879	0.21
830.049	0.13
830.22	-0.29
830.39	-0.59
830.56	0.09
830.731	-0.29
830.901	-0.69
831.072	-0.55
831.242	-0.32
831.412	-0.21
831.582	-0.34
831.753	-1.06
831.923	-0.1
832.093	-0.6
832.263	-0.21
832.434	-0.77
832.604	-0.7
832.774	0.21
832.944	-0.21
833.114	-0.25
833.284	-0.06
833.454	-1.32
833.624	-0.22
833.795	-0.33
833.965	0.46
834.135	0.29
834.305	-0.96
834.475	0.26
834.645	-0.16
834.815	-0.49
834.985	-0.63
835.155	-0.28
835.325	-0.03
835.494	0.15
835.664	-0.61
835.834	-1.3
836.004	-0.11
836.174	0.52
836.344	0.13
836.514	-0.99
836.684	-0.55
836.853	0.12
837.023	-0.31
837.193	-0.58
837.363	0.34
837.532	0.24
837.702	-0.37
837.872	-0.78
838.041	0.4
838.211	1.13
838.381	-0.3
838.55	0.11
838.72	1.35
838.89	0.66
839.059	-0.46
839.229	-0.34
839.398	1.04
839.568	-0.25
839.738	-0.15
839.907	0.36
840.077	-0.11
840.246	-0.93
840.416	-0.75
840.585	-1.34
840.755	0.4
840.924	0.29
841.093	-0.81
841.263	0.25
841.432	0.06
841.602	-1.17
841.771	-1.17
841.94	-0.7
842.11	2.22
842.279	0.65
842.448	-0.2
842.617	-0.23
842.787	1.3
842.956	-0.9
843.125	-0.13
843.294	0.75
843.464	-0.12
843.633	0.17
843.802	-1
843.971	-0.54
844.14	0.23
844.309	0.11
844.479	-0.59
844.648	-0.56
844.817	-0.53
844.986	-0.31
845.155	-0.38
845.324	-0.46
845.493	-0.7
845.662	-0.95
845.831	0.07
846	0.11
846.169	-0.1
846.338	1.18
846.507	0.01
846.676	0.41
846.844	-1.15
847.013	0.81
847.182	0.24
847.351	-0.78
847.52	-0.11
847.689	-0.41
847.858	-0.73
848.026	-0.05
848.195	-0.31
848.364	-0.58
848.533	-0.56
848.701	-0.01
848.87	0.22
849.039	-0.27
849.207	0.58
849.376	-0.05
849.545	1.24
849.713	-0.23
849.882	-0.38
850.051	-0.43
850.219	-0.47
850.388	0.37
850.556	-0.43
850.725	-1.85
850.893	0.1
851.062	-0.45
851.23	0.06
851.399	-0.73
851.567	-1.28
851.736	0.4
851.904	-2.35
852.073	-0.41
852.241	0.62
852.41	0.5
852.578	-1.18
852.746	-0.12
852.915	0.41
853.083	-0.26
853.251	-1.12
853.42	-1.01
853.588	0.34
853.756	0.85
853.924	-0.16
854.093	-0.61
854.261	-0.82
854.429	-1.55
854.597	-0.12
854.765	-0.56
854.934	0.19
855.102	0.75
855.27	0.06
855.438	-1.09
855.606	0.23
855.774	0.1
855.942	-1.4
856.11	-2.11
856.278	-0.32
856.446	-0.03
856.614	-0.14
856.782	-0.54
856.95	0.81
857.118	0.48
857.286	-0.01
857.454	-1.04
857.622	0.41
857.79	0.66
857.958	-1.64
858.126	-1.46
858.294	-2.9
858.462	-0.54
858.629	-1.06
858.797	-0.72
858.965	1.26
859.133	-0.29
859.301	-0.7
859.468	0.75
859.636	-0.28
859.804	1.32
859.971	-0.8
860.139	-2.13
860.307	0.53
860.474	1.19
860.642	-0.56
860.81	-1.63
860.977	-1.21
861.145	0.96
861.313	-0.25
861.48	0.62
861.648	1.58
861.815	-0.26
861.983	-1.51
862.15	-0.27
862.318	0.14
862.485	1
862.653	-1.1
862.82	-1.32
862.988	1.57
863.155	-0.88
863.322	-2.27
863.49	-2.75
863.657	-1.28
863.824	1.53
863.992	0.15
864.159	-0.3
864.326	0.72
864.494	-1.13
864.661	1.35
864.828	-1.44
864.996	0.99
865.163	1.14
865.33	-1.42
865.497	-1.09
865.664	-2.59
865.832	-1.51
865.999	-0.04
866.166	-1.43
866.333	-2.03
866.5	-1.77
866.667	-0.09
866.834	-0.37
867.001	0.66
867.168	-0.54
867.335	0.49
867.502	-1.23
867.669	0.25
867.836	0.9
868.003	-1.45
868.17	-0.21
868.337	1.12
868.504	0.23
868.671	-1.76
868.838	-0.67
869.005	-1.28
869.172	1.37
869.339	0
869.505	-0.36
869.672	-1.49
869.839	2.71
870.006	-0.36
870.173	-1.83
870.339	0.85
870.506	0.19
870.673	-2.13
870.84	1.03
871.006	0.78
871.173	-0.19
871.34	-0.03
871.506	-2.01
871.673	-1.1
871.839	-2.42
872.006	0.18
872.173	-1.22
872.339	-1.27
872.506	1.92
872.672	-1.15
872.839	-1.68
873.005	-0.05
873.172	0.05
873.338	0.72
873.505	-0.75
873.671	1.97
873.838	0.32
874.004	-1.55
874.171	-0.96
874.337	-0.75
874.503	-0.38
874.67	-0.79
874.836	-1.59
875.002	3.15
875.169	-0.05
875.335	1.38
875.501	-1.39
875.668	-1.53
875.834	-1.44
876	-0.82
876.166	-0.39
876.332	1.51
876.499	1.43
876.665	-0.69
876.831	-1.22
876.997	1.15
877.163	2.88
877.329	-2.07
877.495	-0.86
877.662	1.12
877.828	-1.1
877.994	0.88
878.16	-2.18
878.326	-1.27
878.492	0.09
878.658	-0.8
878.824	-0.56
878.99	-0.41
879.156	-1.75
879.322	2.56
879.487	-1.78
879.653	0.04
879.819	0.15
879.985	-2.49
880.151	0.56
880.317	0.54
880.483	-0.97
880.648	0.62
880.814	-3.47
880.98	0.66
881.146	-2.23
881.312	-1.03
881.477	-2.07
881.643	-0.86
881.809	1.36
881.974	2.11
882.14	-2.33
882.306	-0.94
882.471	1.24
882.637	0
882.803	0.49
882.968	1.42
883.134	3.59
883.299	-0.43
883.465	-0.63
883.63	-0.04
883.796	1.1
883.961	0.53
884.127	0.73
884.292	-3.6
884.458	-1.7
884.623	-1.7
