Data from Apollo_Calib_20240827__AbsoluteIrradiance__408__05-57-03-033.txt Node

Date: Wed Aug 28 05:57:03 BST 2024
User: biology
Spectrometer: FLMT08252
Trigger mode: 0
Integration Time (sec): 5.000000E-1
Scans to average: 5
Electric dark correction enabled: true
Nonlinearity correction enabled: false
Boxcar width: 0
XAxis mode: Wavelengths
Number of Pixels in Spectrum: 3648
>>>>>Begin Spectral Data<<<<<
179.588	-0
179.809	-0
180.03	-0
180.251	-0
180.473	-0
180.694	0
180.915	0
181.136	-0
181.357	0
181.578	0
181.799	-0
182.02	-0
182.241	-0
182.462	-0
182.683	0
182.904	-0
183.125	-0
183.346	0
183.567	0
183.788	0
184.009	-0
184.23	0
184.451	0
184.672	-0
184.892	-0
185.113	0
185.334	0
185.555	-0
185.776	-0
185.996	0
186.217	0
186.438	0
186.659	-0
186.879	0
187.1	0
187.321	-0
187.541	-0
187.762	-0
187.983	-0
188.203	0
188.424	-0
188.644	0
188.865	0
189.086	-0
189.306	0
189.527	0
189.747	0
189.968	-0
190.188	0
190.409	0
190.629	0
190.849	-0
191.07	-0
191.29	0
191.511	0
191.731	-0
191.951	-0
192.172	0
192.392	-0
192.612	0
192.833	0
193.053	0
193.273	0
193.493	0
193.714	-0
193.934	0
194.154	0
194.374	0
194.594	0
194.815	0
195.035	0
195.255	0
195.475	-0
195.695	0
195.915	0
196.135	0
196.355	0
196.575	0
196.795	0
197.015	-0
197.235	-0
197.455	-0
197.675	0
197.895	0
198.115	-0
198.335	0
198.555	0
198.775	0
198.995	0
199.214	0
199.434	0
199.654	0
199.874	0
200.094	1.26
200.313	0.23
200.533	-0.31
200.753	-0.35
200.973	0.73
201.192	1.11
201.412	-0.89
201.632	-0.11
201.851	1.28
202.071	-0.08
202.291	-0.19
202.51	-0.2
202.73	0.46
202.95	-0.19
203.169	-0.16
203.389	0.34
203.608	0.3
203.828	-0.5
204.047	-0.01
204.267	0.53
204.486	0.22
204.706	0.2
204.925	0.26
205.145	-0.29
205.364	0.54
205.583	0.72
205.803	-0.12
206.022	-0.27
206.242	0.49
206.461	0.23
206.68	-0.42
206.9	0.09
207.119	0.73
207.338	0.69
207.557	0.05
207.777	-0.22
207.996	-0.18
208.215	0.68
208.434	-0.27
208.654	-0.29
208.873	0.37
209.092	0.54
209.311	0.08
209.53	0.16
209.749	-0.06
209.968	-0.14
210.187	0.07
210.407	-0.13
210.626	-0.07
210.845	0.34
211.064	0.28
211.283	-0.1
211.502	0.2
211.721	0.14
211.94	0.16
212.159	0.4
212.377	0.58
212.596	0.37
212.815	0.32
213.034	0.1
213.253	0.56
213.472	0.28
213.691	0.02
213.91	-0.12
214.128	0.04
214.347	0.54
214.566	-0.36
214.785	-0.07
215.003	0.3
215.222	0.28
215.441	0.19
215.66	-0.17
215.878	-0.02
216.097	0.43
216.316	-0.28
216.534	0.08
216.753	0.2
216.972	-0.02
217.19	0.03
217.409	-0.22
217.627	-0.08
217.846	-0.01
218.064	0.1
218.283	-0.05
218.501	0.63
218.72	0.2
218.938	0
219.157	0.13
219.375	0.33
219.594	0.17
219.812	-0.17
220.031	0.06
220.249	0.29
220.467	0.21
220.686	0.01
220.904	-0.11
221.122	-0.05
221.341	0.5
221.559	0.09
221.777	-0.02
221.995	0.03
222.214	0.17
222.432	-0.07
222.65	0.14
222.868	0.27
223.086	0.05
223.305	0.2
223.523	0.07
223.741	0.46
223.959	0.07
224.177	-0.15
224.395	-0.07
224.613	0.13
224.831	0.24
225.049	-0.04
225.267	0.03
225.485	0.07
225.703	-0.02
225.921	-0
226.139	-0
226.357	0.21
226.575	0.15
226.793	0.12
227.011	0.61
227.229	0.18
227.447	0.16
227.665	0.07
227.883	-0.09
228.1	0.1
228.318	0.15
228.536	-0.23
228.754	0.05
228.972	0.02
229.189	0.21
229.407	0.06
229.625	0.02
229.843	0.16
230.06	0.16
230.278	-0.03
230.496	0.07
230.713	0.12
230.931	0.31
231.149	-0.01
231.366	-0.02
231.584	-0.01
231.801	0.42
232.019	0.04
232.236	-0.11
232.454	-0.02
232.671	0.17
232.889	0.08
233.106	-0.01
233.324	0.06
233.541	0.02
233.759	0.06
233.976	0.05
234.194	0.14
234.411	-0.01
234.628	0.05
234.846	0.04
235.063	0.1
235.28	0.09
235.498	-0.02
235.715	0.01
235.932	0.13
236.149	-0.01
236.367	-0.02
236.584	0.12
236.801	0.04
237.018	0.21
237.236	0.08
237.453	-0.05
237.67	0.18
237.887	0.08
238.104	0.01
238.321	-0.09
238.538	-0.03
238.755	0.14
238.973	-0.1
239.19	0.02
239.407	0.12
239.624	0.15
239.841	-0.09
240.058	-0.08
240.275	0.04
240.492	0.14
240.709	0.05
240.925	-0.04
241.142	0.02
241.359	-0
241.576	-0.07
241.793	0.01
242.01	0.02
242.227	0.2
242.444	0.16
242.66	0.21
242.877	0.09
243.094	0.04
243.311	0.06
243.527	0.05
243.744	0.07
243.961	0.11
244.178	0.03
244.394	0.03
244.611	0.14
244.828	0.28
245.044	0.02
245.261	0.04
245.477	0.07
245.694	0.14
245.911	0.06
246.127	0.04
246.344	0.22
246.56	0.17
246.777	-0.03
246.993	0.01
247.21	0.06
247.426	0.14
247.643	0.02
247.859	-0.07
248.076	0.05
248.292	0.23
248.508	0.07
248.725	0.11
248.941	0.05
249.157	0.12
249.374	0.05
249.59	0.01
249.806	0.14
250.023	0.2
250.239	-0.01
250.455	-0.03
250.671	0.09
250.888	0.17
251.104	0.06
251.32	-0.01
251.536	0.04
251.752	0
251.969	0.04
252.185	0.11
252.401	0.24
252.617	0.04
252.833	-0.03
253.049	0.05
253.265	0.04
253.481	0.08
253.697	-0.01
253.913	-0.01
254.129	0.06
254.345	0.1
254.561	-0.03
254.777	-0.03
254.993	0.13
255.209	0.09
255.425	-0.01
255.641	0.06
255.857	0.1
256.073	0.09
256.288	-0.07
256.504	0.02
256.72	0.03
256.936	0.2
257.152	0
257.367	0.02
257.583	0.01
257.799	0.12
258.015	0.01
258.23	-0.02
258.446	0.23
258.662	0.08
258.877	-0.02
259.093	0.01
259.309	0.09
259.524	0.06
259.74	0.02
259.955	-0.05
260.171	0.07
260.387	0.05
260.602	0.08
260.818	0.04
261.033	-0.02
261.249	0.08
261.464	0.03
261.68	-0.11
261.895	0.06
262.11	0.12
262.326	0.02
262.541	-0.05
262.757	0.14
262.972	0.06
263.187	0.05
263.403	0.09
263.618	0.13
263.833	0.07
264.049	-0.03
264.264	0.06
264.479	0.14
264.694	0.15
264.91	-0.01
265.125	0.07
265.34	0.09
265.555	0.21
265.77	0.09
265.986	0.08
266.201	0.09
266.416	0.12
266.631	-0
266.846	0
267.061	0.05
267.276	0.11
267.491	-0.08
267.706	0.04
267.921	0.11
268.136	0.09
268.351	0.04
268.566	-0.02
268.781	0.12
268.996	0.12
269.211	0.09
269.426	-0.05
269.641	-0.01
269.856	0.15
270.071	-0.02
270.285	-0.08
270.5	0.09
270.715	0.04
270.93	0.01
271.145	0.1
271.359	0.11
271.574	-0.06
271.789	0.04
272.004	-0.01
272.218	0.01
272.433	0.14
272.648	0.01
272.862	0.13
273.077	0.01
273.292	-0.03
273.506	-0.04
273.721	-0.01
273.936	0.13
274.15	0.06
274.365	0.05
274.579	0.1
274.794	0.09
275.008	0.06
275.223	-0.02
275.437	0.03
275.652	0.13
275.866	-0.02
276.081	0.04
276.295	0.1
276.509	0.02
276.724	0.05
276.938	0.04
277.153	0.03
277.367	0.07
277.581	0.04
277.796	0.05
278.01	-0.06
278.224	0.07
278.438	0.16
278.653	-0.04
278.867	0.05
279.081	0.11
279.295	0.04
279.51	0.08
279.724	-0.07
279.938	0.09
280.152	0.09
280.366	0.01
280.58	0.04
280.794	0.09
281.008	0.12
281.222	0.1
281.437	0.13
281.651	0.1
281.865	0.14
282.079	0.01
282.293	-0.03
282.507	0
282.721	0.03
282.935	0.06
283.148	-0.01
283.362	-0.02
283.576	-0.01
283.79	0.06
284.004	0.01
284.218	0.1
284.432	0
284.646	0.02
284.859	0.02
285.073	0.03
285.287	0.05
285.501	0.05
285.714	0.03
285.928	0.08
286.142	0.03
286.356	-0.01
286.569	0.05
286.783	0.13
286.997	0.09
287.21	0.05
287.424	0.06
287.637	-0.01
287.851	0.04
288.065	0.05
288.278	0.05
288.492	0.05
288.705	0
288.919	0.1
289.132	-0.03
289.346	0.11
289.559	-0.03
289.773	-0.02
289.986	0.06
290.2	0.04
290.413	0.08
290.626	-0
290.84	-0.02
291.053	0.06
291.267	0.12
291.48	0.06
291.693	0.04
291.906	0.05
292.12	-0
292.333	-0.03
292.546	0
292.76	0.11
292.973	0.07
293.186	0.1
293.399	0.04
293.612	0.12
293.826	0.05
294.039	0.03
294.252	0.05
294.465	0.04
294.678	0.08
294.891	0.07
295.104	0.01
295.317	0.01
295.53	0.06
295.743	0.01
295.956	0.01
296.169	0.12
296.382	0.06
296.595	0.02
296.808	-0.01
297.021	0.09
297.234	0.06
297.447	0.05
297.66	0.09
297.873	0.1
298.086	0.07
298.299	-0.01
298.511	-0.02
298.724	0.05
298.937	0.04
299.15	0.04
299.363	0.05
299.575	0.06
299.788	0.07
300.001	0
300.213	0.02
300.426	0.01
300.639	0
300.852	0.01
301.064	0.04
301.277	0.12
301.489	0.1
301.702	0.08
301.915	0.03
302.127	0.1
302.34	0.03
302.552	0.04
302.765	0.04
302.977	0.05
303.19	0
303.402	0.02
303.615	0.06
303.827	0.03
304.04	0.03
304.252	0.07
304.464	0.03
304.677	0.12
304.889	0.08
305.102	0.02
305.314	-0.03
305.526	0.07
305.739	0.08
305.951	-0.01
306.163	0.03
306.375	0.12
306.588	0.03
306.8	0.02
307.012	-0.01
307.224	0.06
307.436	0.1
307.649	-0.02
307.861	0.08
308.073	0.05
308.285	0.01
308.497	-0.02
308.709	0.04
308.921	0.06
309.133	0.12
309.346	0.01
309.558	0.03
309.77	0.11
309.982	0.08
310.194	0.07
310.406	0
310.617	0.14
310.829	0.03
311.041	0.09
311.253	-0.01
311.465	0.03
311.677	0.04
311.889	0.07
312.101	0.03
312.313	0.1
312.524	0.12
312.736	-0.01
312.948	0.05
313.16	0.07
313.372	0.05
313.583	0.04
313.795	0
314.007	0.01
314.218	0.05
314.43	0
314.642	-0.03
314.853	-0.02
315.065	0.09
315.277	0.03
315.488	0.02
315.7	0.1
315.912	0.06
316.123	0.01
316.335	0.03
316.546	0.12
316.758	0.05
316.969	0.01
317.181	0.06
317.392	0.05
317.604	0.05
317.815	0.01
318.026	0.05
318.238	-0
318.449	0.1
318.661	-0.03
318.872	-0.03
319.083	-0
319.295	0.06
319.506	-0.02
319.717	0.1
319.929	0.06
320.14	0.06
320.351	0.05
320.562	0.01
320.774	0.04
320.985	0.01
321.196	0.01
321.407	-0.02
321.618	0.08
321.829	0.06
322.041	0.06
322.252	0.06
322.463	0.06
322.674	0.07
322.885	-0.03
323.096	-0.01
323.307	0.03
323.518	0.07
323.729	0.01
323.94	0.04
324.151	0.02
324.362	0.04
324.573	0.03
324.784	0
324.995	0.1
325.206	0.06
325.417	-0.01
325.628	0.03
325.838	0.01
326.049	0.05
326.26	0.1
326.471	0.01
326.682	0.04
326.892	0.04
327.103	-0.02
327.314	-0
327.525	0.11
327.735	0.03
327.946	0.04
328.157	0.04
328.368	0.07
328.578	0.03
328.789	0.04
328.999	0.04
329.21	0.03
329.421	0.03
329.631	0.06
329.842	-0
330.052	0.06
330.263	0.12
330.473	0.11
330.684	0.02
330.894	0.03
331.105	0.04
331.315	0.03
331.526	-0.04
331.736	0.14
331.947	0.07
332.157	0.08
332.367	-0.03
332.578	0.02
332.788	0.1
332.999	0.06
333.209	0.05
333.419	-0.03
333.629	0.07
333.84	0.03
334.05	0.09
334.26	0.16
334.47	0.05
334.681	0.06
334.891	0.05
335.101	0.09
335.311	0.11
335.521	0.05
335.732	0.01
335.942	0.08
336.152	0.06
336.362	0.08
336.572	0.08
336.782	0.08
336.992	0.01
337.202	-0
337.412	-0.01
337.622	0.06
337.832	0.03
338.042	0.04
338.252	-0.01
338.462	0.04
338.672	0.05
338.882	0.03
339.092	0.04
339.302	0.12
339.511	0.02
339.721	0
339.931	-0.02
340.141	0.12
340.351	0.08
340.561	0.06
340.77	0.07
340.98	0.02
341.19	0.07
341.4	0.06
341.609	-0.03
341.819	0.02
342.029	-0.01
342.238	0.07
342.448	0.04
342.658	0.07
342.867	0.06
343.077	0.06
343.286	0.04
343.496	0.07
343.706	0.1
343.915	-0.03
344.125	0.02
344.334	0.04
344.544	-0.02
344.753	0.01
344.963	-0.01
345.172	-0
345.381	-0.01
345.591	0
345.8	0.03
346.01	0.11
346.219	0.09
346.428	-0.09
346.638	0.01
346.847	0.04
347.056	0.12
347.266	0.02
347.475	0
347.684	0.07
347.893	0.04
348.103	0.03
348.312	0.02
348.521	0.04
348.73	0.01
348.94	0.03
349.149	0.02
349.358	0
349.567	-0.03
349.776	0.01
349.985	0.03
350.194	0.09
350.403	0.06
350.612	0.01
350.821	0.04
351.03	0.04
351.239	-0.03
351.448	0.01
351.657	0
351.866	0.08
352.075	0.03
352.284	0.04
352.493	-0.06
352.702	0.07
352.911	0.04
353.12	0.02
353.329	0.02
353.538	0.05
353.746	0.02
353.955	0.02
354.164	0.04
354.373	0.06
354.582	0.06
354.79	0.05
354.999	0.09
355.208	0.06
355.416	0.09
355.625	0.02
355.834	0.01
356.042	0.02
356.251	-0
356.46	-0.02
356.668	0.05
356.877	0.13
357.085	0.06
357.294	-0.02
357.503	0.06
357.711	0.02
357.92	0.17
358.128	0.07
358.337	0.02
358.545	0.04
358.754	0.03
358.962	0.08
359.17	0.02
359.379	0.05
359.587	0.06
359.796	0.06
360.004	0.09
360.212	0.07
360.421	0.08
360.629	0.04
360.837	0
361.046	0.06
361.254	0.17
361.462	0
361.67	0.02
361.879	0.05
362.087	0.12
362.295	0.02
362.503	0.02
362.711	-0.01
362.92	0.02
363.128	-0.02
363.336	-0.04
363.544	-0.03
363.752	0.01
363.96	-0.01
364.168	0.01
364.376	0.05
364.584	0.02
364.792	0.06
365	0.04
365.208	0.05
365.416	0.05
365.624	0.04
365.832	0
366.04	0.07
366.248	0.05
366.456	0.04
366.664	0.05
366.872	0.05
367.079	0.02
367.287	0.04
367.495	0.06
367.703	0.03
367.911	0.02
368.118	0.01
368.326	0.07
368.534	-0.01
368.742	0.1
368.949	-0.01
369.157	0.01
369.365	0.06
369.572	0.05
369.78	-0.02
369.988	0.04
370.195	0.07
370.403	0.05
370.61	0.04
370.818	0.02
371.026	0.12
371.233	0
371.441	0.05
371.648	-0.01
371.856	0.05
372.063	0.06
372.271	0.02
372.478	0.02
372.685	0.02
372.893	0.08
373.1	0.02
373.308	0.03
373.515	0.13
373.722	0.04
373.93	0.05
374.137	0.07
374.344	0.09
374.552	0.06
374.759	0.09
374.966	0.06
375.173	0.04
375.381	0.07
375.588	0.02
375.795	-0.01
376.002	0.02
376.209	-0.01
376.417	0.05
376.624	0.03
376.831	0.09
377.038	0
377.245	-0.03
377.452	-0
377.659	0.04
377.866	-0.01
378.073	0
378.28	0.01
378.487	0.06
378.694	0.07
378.901	0
379.108	0.04
379.315	0.08
379.522	0.08
379.729	0.06
379.936	0.01
380.143	0.03
380.35	0.08
380.557	0.04
380.763	0.03
380.97	0.03
381.177	0.03
381.384	0.04
381.591	-0
381.797	0.05
382.004	0.07
382.211	0.07
382.418	0.04
382.624	0.11
382.831	0.09
383.038	0
383.244	-0
383.451	0.05
383.658	0.04
383.864	0.01
384.071	-0.01
384.277	0.14
384.484	0.02
384.69	0.07
384.897	0.02
385.103	0.03
385.31	-0.03
385.516	0.02
385.723	0
385.929	0.04
386.136	0.01
386.342	0.06
386.549	0.03
386.755	0.08
386.961	0.05
387.168	-0.01
387.374	0.1
387.58	0.09
387.787	0.03
387.993	0.07
388.199	0.03
388.406	0.01
388.612	0.04
388.818	0.04
389.024	0.04
389.231	0.06
389.437	0.09
389.643	0.09
389.849	0.03
390.055	0.05
390.261	0.05
390.467	0.06
390.674	0
390.88	0.03
391.086	0.06
391.292	0
391.498	0.05
391.704	0.07
391.91	0.04
392.116	-0.01
392.322	-0.04
392.528	0.05
392.734	0.05
392.94	0.05
393.146	-0.01
393.352	0.05
393.557	0.02
393.763	0.03
393.969	0.05
394.175	0.02
394.381	0.03
394.587	0.03
394.792	0.05
394.998	0.15
395.204	0.1
395.41	0.03
395.615	0.07
395.821	0.08
396.027	0.06
396.233	0.02
396.438	0.05
396.644	0.06
396.85	0.03
397.055	0.01
397.261	0.07
397.466	0.03
397.672	0.07
397.878	0.05
398.083	0.05
398.289	0.03
398.494	0.12
398.7	0.05
398.905	-0
399.111	0.14
399.316	0.04
399.522	0.05
399.727	0.08
399.932	0.04
400.138	-0.02
400.343	0.07
400.549	0.05
400.754	0.06
400.959	0.07
401.165	0.02
401.37	0.1
401.575	0.13
401.78	0.1
401.986	0.03
402.191	0.04
402.396	0.05
402.601	0.1
402.807	0.07
403.012	0.04
403.217	0.07
403.422	0.07
403.627	0.02
403.832	0.08
404.037	0.05
404.243	0.06
404.448	0.01
404.653	0.05
404.858	0.06
405.063	0.07
405.268	0.01
405.473	0.03
405.678	-0.01
405.883	0.14
406.088	0.1
406.293	0
406.498	0.05
406.703	0.1
406.907	0.09
407.112	0.06
407.317	0.11
407.522	0.11
407.727	-0.04
407.932	0.05
408.136	0.11
408.341	0.07
408.546	0.03
408.751	0.04
408.956	0
409.16	0.06
409.365	0.02
409.57	0.03
409.774	0.06
409.979	0.06
410.184	0.12
410.388	0.02
410.593	0.08
410.798	0.08
411.002	0.04
411.207	0.05
411.411	0.11
411.616	0.03
411.82	0.05
412.025	0.08
412.229	0.02
412.434	0.12
412.638	0.04
412.843	0.02
413.047	0.08
413.252	0.03
413.456	0.03
413.66	0.07
413.865	0.01
414.069	0.15
414.273	0.02
414.478	0.04
414.682	0.03
414.886	0.03
415.091	-0.04
415.295	-0.05
415.499	0.07
415.703	0.04
415.908	0.06
416.112	0
416.316	0.09
416.52	0.06
416.724	0.02
416.929	0.03
417.133	0.15
417.337	-0.01
417.541	-0.01
417.745	0.03
417.949	0.04
418.153	0.07
418.357	0.01
418.561	0.12
418.765	0.05
418.969	0.18
419.173	0.1
419.377	0.03
419.581	0.11
419.785	0.04
419.989	0.01
420.193	0.04
420.397	0.03
420.601	0.08
420.804	0.17
421.008	0.01
421.212	0.09
421.416	0.15
421.62	0.07
421.823	0.06
422.027	0.16
422.231	0.1
422.435	0.08
422.638	0.09
422.842	0.1
423.046	0.03
423.249	0.1
423.453	0.09
423.657	0.05
423.86	0.04
424.064	0.06
424.268	0.14
424.471	0.08
424.675	0.13
424.878	0.16
425.082	0
425.285	0.1
425.489	0.07
425.692	0.08
425.896	0.03
426.099	0.1
426.303	-0
426.506	0.03
426.71	0.11
426.913	0.18
427.116	0.12
427.32	0.08
427.523	0.03
427.726	0.17
427.93	0.04
428.133	0.08
428.336	0.01
428.54	0.02
428.743	0.11
428.946	0.12
429.149	0.02
429.353	0.11
429.556	0.03
429.759	0.1
429.962	0.05
430.165	0.11
430.368	0.06
430.571	0.06
430.775	0.08
430.978	0.04
431.181	0.08
431.384	0.09
431.587	0.01
431.79	0.06
431.993	0.07
432.196	0.06
432.399	0.06
432.602	0.12
432.805	0.02
433.008	0.02
433.211	0.03
433.414	0.14
433.616	0.06
433.819	0.08
434.022	-0.01
434.225	0.13
434.428	0.08
434.631	0.18
434.833	0.09
435.036	0.02
435.239	0.12
435.442	0.08
435.645	0.07
435.847	0.11
436.05	0.14
436.253	0.09
436.455	0.03
436.658	0.07
436.861	0.19
437.063	0.08
437.266	0.05
437.468	0.05
437.671	0.19
437.874	0.06
438.076	0.02
438.279	0.01
438.481	0.05
438.684	0.03
438.886	0.07
439.089	-0.01
439.291	0.09
439.494	0.11
439.696	0.06
439.899	0.06
440.101	0.04
440.303	-0.01
440.506	0.12
440.708	0.11
440.91	0.12
441.113	0.02
441.315	0.13
441.517	0.02
441.72	0.14
441.922	0.04
442.124	0.04
442.326	0.09
442.529	0.13
442.731	0.06
442.933	0.18
443.135	0.09
443.337	0.06
443.539	0.09
443.742	0.01
443.944	0.08
444.146	0.03
444.348	0.08
444.55	0.06
444.752	0.06
444.954	0.02
445.156	0.06
445.358	0.13
445.56	0.12
445.762	0.07
445.964	0.1
446.166	0.06
446.368	0.05
446.57	0.16
446.772	0.1
446.974	0.09
447.175	0.11
447.377	0.03
447.579	0.02
447.781	-0.02
447.983	0.18
448.184	0.08
448.386	0.12
448.588	0.01
448.79	0.05
448.991	0.08
449.193	0.08
449.395	0.11
449.597	0.13
449.798	0.05
450	0.11
450.202	0.06
450.403	0.07
450.605	0.15
450.806	0.09
451.008	0.01
451.21	0.1
451.411	0.12
451.613	0.06
451.814	0.1
452.016	0.11
452.217	0.09
452.419	0.13
452.62	0.11
452.821	0.13
453.023	0.17
453.224	0.14
453.426	0.06
453.627	0.05
453.828	0.14
454.03	0.1
454.231	0.09
454.432	0.07
454.634	0.21
454.835	0.08
455.036	-0.01
455.238	0.11
455.439	0.18
455.64	0.04
455.841	0.04
456.042	0.15
456.244	0.13
456.445	-0
456.646	0.09
456.847	0.04
457.048	0.13
457.249	0.15
457.45	0.31
457.651	0.08
457.852	0.19
458.054	0.12
458.255	0.08
458.456	0.13
458.657	0.11
458.858	0.06
459.058	0.12
459.259	0.12
459.46	0.11
459.661	0.08
459.862	0.23
460.063	0.06
460.264	0.17
460.465	0.04
460.666	0.22
460.866	0.1
461.067	0.12
461.268	0.1
461.469	0.07
461.67	0.05
461.87	0.07
462.071	0.07
462.272	0.09
462.473	0.1
462.673	0.15
462.874	0.08
463.075	0.13
463.275	0.07
463.476	0.15
463.676	0.13
463.877	0.13
464.078	0.13
464.278	0.16
464.479	0.04
464.679	0.08
464.88	0.13
465.08	0.21
465.281	0.06
465.481	0.11
465.682	0.11
465.882	0.15
466.083	0.13
466.283	0.1
466.483	0.12
466.684	0.04
466.884	0.13
467.085	0.1
467.285	0.15
467.485	0.08
467.686	0.09
467.886	0.09
468.086	0.14
468.286	0.11
468.487	0.15
468.687	0.13
468.887	0.14
469.087	0.18
469.287	0.13
469.488	0.07
469.688	0.18
469.888	0.14
470.088	0.23
470.288	0.18
470.488	0.19
470.688	0.09
470.888	0.11
471.088	0.12
471.288	0.23
471.488	0.15
471.688	0.17
471.888	0.14
472.088	0.21
472.288	0.16
472.488	0.11
472.688	0.12
472.888	0.15
473.088	0.14
473.288	0.18
473.488	0.18
473.688	0.23
473.887	0.15
474.087	0.12
474.287	0.13
474.487	0.16
474.687	0.19
474.886	0.16
475.086	0.17
475.286	0.19
475.486	0.17
475.685	0.19
475.885	0.17
476.085	0.18
476.284	0.2
476.484	0.19
476.684	0.21
476.883	0.26
477.083	0.23
477.282	0.17
477.482	0.25
477.681	0.25
477.881	0.24
478.08	0.19
478.28	0.19
478.479	0.29
478.679	0.3
478.878	0.2
479.078	0.2
479.277	0.21
479.477	0.23
479.676	0.26
479.875	0.23
480.075	0.17
480.274	0.28
480.473	0.28
480.673	0.22
480.872	0.29
481.071	0.24
481.271	0.27
481.47	0.23
481.669	0.26
481.868	0.25
482.067	0.26
482.267	0.25
482.466	0.28
482.665	0.24
482.864	0.28
483.063	0.27
483.262	0.35
483.461	0.38
483.661	0.35
483.86	0.34
484.059	0.34
484.258	0.33
484.457	0.34
484.656	0.36
484.855	0.4
485.054	0.32
485.253	0.36
485.452	0.37
485.651	0.4
485.849	0.44
486.048	0.36
486.247	0.4
486.446	0.45
486.645	0.42
486.844	0.43
487.043	0.42
487.241	0.47
487.44	0.43
487.639	0.49
487.838	0.52
488.037	0.52
488.235	0.58
488.434	0.58
488.633	0.54
488.831	0.57
489.03	0.6
489.229	0.59
489.427	0.61
489.626	0.62
489.825	0.66
490.023	0.62
490.222	0.63
490.42	0.65
490.619	0.68
490.817	0.69
491.016	0.68
491.214	0.77
491.413	0.73
491.611	0.74
491.81	0.74
492.008	0.8
492.207	0.81
492.405	0.81
492.604	0.75
492.802	0.83
493	0.85
493.199	0.91
493.397	0.9
493.595	0.91
493.794	0.9
493.992	0.99
494.19	0.97
494.388	1.01
494.587	0.99
494.785	1.04
494.983	0.98
495.181	1.1
495.379	1.11
495.578	1.15
495.776	1.18
495.974	1.15
496.172	1.17
496.37	1.25
496.568	1.26
496.766	1.24
496.964	1.32
497.162	1.38
497.36	1.37
497.558	1.44
497.756	1.46
497.954	1.46
498.152	1.51
498.35	1.56
498.548	1.58
498.746	1.56
498.944	1.63
499.142	1.65
499.34	1.69
499.538	1.75
499.736	1.71
499.933	1.83
500.131	1.81
500.329	1.95
500.527	1.96
500.725	2.02
500.922	2.04
501.12	2.1
501.318	2.11
501.516	2.15
501.713	2.23
501.911	2.24
502.109	2.25
502.306	2.35
502.504	2.34
502.701	2.41
502.899	2.43
503.097	2.61
503.294	2.57
503.492	2.68
503.689	2.75
503.887	2.76
504.084	2.83
504.282	2.86
504.479	2.86
504.677	2.98
504.874	3.02
505.072	3.03
505.269	3.19
505.466	3.25
505.664	3.33
505.861	3.28
506.059	3.41
506.256	3.5
506.453	3.55
506.651	3.69
506.848	3.8
507.045	3.78
507.242	3.83
507.44	3.95
507.637	4.02
507.834	4.03
508.031	4.2
508.229	4.14
508.426	4.22
508.623	4.33
508.82	4.46
509.017	4.49
509.214	4.56
509.411	4.69
509.608	4.73
509.805	4.84
510.003	4.89
510.2	4.98
510.397	5.15
510.594	5.09
510.791	5.23
510.988	5.32
511.184	5.36
511.381	5.29
511.578	5.55
511.775	5.64
511.972	5.61
512.169	5.82
512.366	5.8
512.563	6.02
512.76	6.09
512.956	6.13
513.153	6.1
513.35	6.17
513.547	6.25
513.744	6.43
513.94	6.48
514.137	6.59
514.334	6.65
514.53	6.75
514.727	6.96
514.924	6.95
515.12	6.99
515.317	7.04
515.514	6.97
515.71	6.98
515.907	7.38
516.103	7.39
516.3	7.3
516.497	7.45
516.693	7.54
516.89	7.55
517.086	7.61
517.283	7.75
517.479	7.5
517.676	7.88
517.872	7.92
518.068	7.92
518.265	7.97
518.461	7.89
518.658	8.14
518.854	8.09
519.05	8.24
519.247	8.32
519.443	8.2
519.639	8.44
519.836	8.3
520.032	8.22
520.228	8.45
520.424	8.37
520.621	8.45
520.817	8.46
521.013	8.39
521.209	8.66
521.405	8.58
521.601	8.58
521.798	8.51
521.994	8.49
522.19	8.46
522.386	8.48
522.582	8.57
522.778	8.76
522.974	8.5
523.17	8.55
523.366	8.47
523.562	8.52
523.758	8.51
523.954	8.35
524.15	8.52
524.346	8.48
524.542	8.51
524.738	8.41
524.934	8.48
525.129	8.43
525.325	8.3
525.521	8.21
525.717	8.38
525.913	8.14
526.109	8.13
526.304	8.28
526.5	8.19
526.696	8.12
526.892	8.02
527.087	8.14
527.283	8.03
527.479	7.94
527.674	7.7
527.87	7.82
528.066	7.74
528.261	7.77
528.457	7.52
528.653	7.68
528.848	7.59
529.044	7.53
529.239	7.4
529.435	7.33
529.63	7.28
529.826	7.25
530.021	7.1
530.217	7.17
530.412	7.05
530.608	6.94
530.803	6.89
530.999	6.76
531.194	6.74
531.389	6.79
531.585	6.68
531.78	6.7
531.975	6.56
532.171	6.57
532.366	6.43
532.561	6.4
532.757	6.31
532.952	6.37
533.147	6.06
533.342	6.09
533.538	5.99
533.733	6.1
533.928	5.76
534.123	5.83
534.318	5.87
534.513	5.67
534.709	5.75
534.904	5.63
535.099	5.63
535.294	5.52
535.489	5.47
535.684	5.41
535.879	5.27
536.074	5.32
536.269	5.17
536.464	5.17
536.659	5.12
536.854	5.03
537.049	5.09
537.244	4.96
537.439	4.86
537.634	4.82
537.828	4.81
538.023	4.73
538.218	4.64
538.413	4.59
538.608	4.55
538.803	4.53
538.997	4.45
539.192	4.47
539.387	4.36
539.582	4.31
539.776	4.22
539.971	4.28
540.166	4.21
540.36	4.14
540.555	4.19
540.75	4.08
540.944	4.02
541.139	3.96
541.334	3.94
541.528	3.88
541.723	3.85
541.917	3.81
542.112	3.73
542.306	3.68
542.501	3.66
542.695	3.69
542.89	3.57
543.084	3.58
543.279	3.5
543.473	3.51
543.668	3.42
543.862	3.39
544.056	3.35
544.251	3.36
544.445	3.33
544.64	3.28
544.834	3.11
545.028	3.06
545.222	3.17
545.417	3.2
545.611	3.07
545.805	3.08
546	2.91
546.194	2.96
546.388	2.96
546.582	2.83
546.776	2.88
546.97	2.85
547.165	2.84
547.359	2.78
547.553	2.69
547.747	2.72
547.941	2.71
548.135	2.65
548.329	2.65
548.523	2.62
548.717	2.55
548.911	2.52
549.105	2.47
549.299	2.48
549.493	2.45
549.687	2.43
549.881	2.39
550.075	2.37
550.269	2.28
550.463	2.31
550.657	2.23
550.85	2.23
551.044	2.16
551.238	2.15
551.432	2.12
551.626	2.11
551.82	2.12
552.013	2.02
552.207	2.08
552.401	2.01
552.594	1.95
552.788	1.96
552.982	1.94
553.176	1.86
553.369	1.89
553.563	1.85
553.756	1.79
553.95	1.82
554.144	1.8
554.337	1.8
554.531	1.7
554.724	1.72
554.918	1.68
555.111	1.67
555.305	1.64
555.498	1.67
555.692	1.63
555.885	1.58
556.079	1.54
556.272	1.49
556.466	1.49
556.659	1.49
556.852	1.45
557.046	1.42
557.239	1.42
557.432	1.39
557.626	1.36
557.819	1.41
558.012	1.39
558.206	1.35
558.399	1.28
558.592	1.3
558.785	1.27
558.979	1.27
559.172	1.25
559.365	1.23
559.558	1.21
559.751	1.16
559.944	1.22
560.138	1.17
560.331	1.15
560.524	1.15
560.717	1.11
560.91	1.05
561.103	1.09
561.296	1.04
561.489	1.09
561.682	1.08
561.875	1.05
562.068	1.03
562.261	0.99
562.454	1.04
562.647	0.97
562.84	0.99
563.032	0.94
563.225	0.93
563.418	0.89
563.611	0.91
563.804	0.93
563.997	0.84
564.19	0.83
564.382	0.88
564.575	0.83
564.768	0.84
564.961	0.82
565.153	0.82
565.346	0.81
565.539	0.83
565.731	0.81
565.924	0.81
566.117	0.82
566.309	0.8
566.502	0.74
566.695	0.75
566.887	0.74
567.08	0.69
567.272	0.71
567.465	0.71
567.657	0.7
567.85	0.68
568.042	0.68
568.235	0.68
568.427	0.65
568.62	0.65
568.812	0.66
569.005	0.63
569.197	0.56
569.389	0.63
569.582	0.62
569.774	0.62
569.966	0.57
570.159	0.53
570.351	0.59
570.543	0.55
570.736	0.56
570.928	0.51
571.12	0.57
571.312	0.53
571.505	0.47
571.697	0.57
571.889	0.5
572.081	0.51
572.273	0.49
572.465	0.54
572.658	0.49
572.85	0.5
573.042	0.47
573.234	0.47
573.426	0.5
573.618	0.43
573.81	0.48
574.002	0.48
574.194	0.48
574.386	0.39
574.578	0.36
574.77	0.41
574.962	0.43
575.154	0.38
575.346	0.38
575.538	0.41
575.729	0.37
575.921	0.4
576.113	0.39
576.305	0.39
576.497	0.38
576.689	0.38
576.88	0.35
577.072	0.41
577.264	0.36
577.456	0.35
577.647	0.3
577.839	0.35
578.031	0.37
578.223	0.31
578.414	0.28
578.606	0.34
578.798	0.35
578.989	0.29
579.181	0.32
579.372	0.32
579.564	0.3
579.755	0.32
579.947	0.32
580.139	0.3
580.33	0.26
580.522	0.29
580.713	0.23
580.905	0.27
581.096	0.33
581.287	0.29
581.479	0.26
581.67	0.31
581.862	0.29
582.053	0.25
582.244	0.22
582.436	0.27
582.627	0.25
582.818	0.2
583.01	0.2
583.201	0.28
583.392	0.28
583.583	0.24
583.775	0.23
583.966	0.21
584.157	0.21
584.348	0.23
584.54	0.18
584.731	0.23
584.922	0.24
585.113	0.18
585.304	0.23
585.495	0.23
585.686	0.22
585.877	0.23
586.068	0.2
586.259	0.22
586.45	0.21
586.641	0.16
586.832	0.16
587.023	0.2
587.214	0.17
587.405	0.2
587.596	0.15
587.787	0.26
587.978	0.18
588.169	0.15
588.36	0.2
588.551	0.17
588.742	0.13
588.932	0.18
589.123	0.16
589.314	0.19
589.505	0.18
589.696	0.19
589.886	0.15
590.077	0.12
590.268	0.16
590.458	0.11
590.649	0.11
590.84	0.17
591.03	0.13
591.221	0.12
591.412	0.1
591.602	0.16
591.793	0.18
591.984	0.11
592.174	0.12
592.365	0.24
592.555	0.12
592.746	0.17
592.936	0.15
593.127	0.16
593.317	0.15
593.508	0.11
593.698	0.15
593.889	0.16
594.079	0.11
594.269	0.12
594.46	0.13
594.65	0.14
594.84	0.11
595.031	0.13
595.221	0.09
595.411	0.07
595.602	0.16
595.792	0.12
595.982	0.12
596.172	0.17
596.363	0.15
596.553	0.12
596.743	0.1
596.933	0.13
597.123	0.14
597.314	0.09
597.504	0.08
597.694	0.16
597.884	0.09
598.074	0.09
598.264	0.09
598.454	0.11
598.644	0.13
598.834	0.12
599.024	0.05
599.214	0.08
599.404	0.15
599.594	0.08
599.784	0.07
599.974	0.11
600.164	0.13
600.354	0.02
600.544	0.04
600.734	0.1
600.924	0.1
601.114	0.05
601.303	0.1
601.493	0.12
601.683	0.08
601.873	0.09
602.063	0.04
602.252	0.11
602.442	0.03
602.632	0.07
602.821	0.05
603.011	0.1
603.201	0.06
603.39	0.09
603.58	0.08
603.77	0.11
603.959	0.12
604.149	0.09
604.339	0.08
604.528	0.1
604.718	0.1
604.907	0.03
605.097	0.07
605.286	0.04
605.476	0.11
605.665	0.1
605.855	0.08
606.044	0.13
606.234	0.09
606.423	0.05
606.612	0.07
606.802	0.08
606.991	0.09
607.181	0.08
607.37	0.03
607.559	0.06
607.749	0.03
607.938	0.08
608.127	0.07
608.316	0.06
608.506	0.09
608.695	0.07
608.884	0.04
609.073	0.06
609.263	0.06
609.452	0.1
609.641	0.09
609.83	0.05
610.019	0.04
610.208	0.04
610.397	0.05
610.586	0.09
610.775	0.07
610.965	0.04
611.154	0.04
611.343	0.06
611.532	0.08
611.721	0.03
611.91	0.07
612.099	0.09
612.287	0.05
612.476	0.05
612.665	0.06
612.854	0.03
613.043	0.08
613.232	0.07
613.421	0.01
613.61	0.07
613.798	0.03
613.987	0.08
614.176	0.05
614.365	0.12
614.554	0.06
614.742	0.1
614.931	0.02
615.12	0.09
615.309	0.04
615.497	0.07
615.686	0.03
615.875	0.06
616.063	0.04
616.252	0.05
616.44	0.01
616.629	0.07
616.818	0.08
617.006	0.03
617.195	0.08
617.383	0.05
617.572	0.05
617.76	0.03
617.949	0.07
618.137	0.05
618.326	0.1
618.514	0.04
618.703	0.04
618.891	0.13
619.079	0
619.268	0.06
619.456	0.02
619.644	0.1
619.833	0.06
620.021	0.05
620.209	0.03
620.398	0.06
620.586	0.05
620.774	0.05
620.962	0.06
621.151	0.11
621.339	0.04
621.527	0.02
621.715	0.02
621.903	0.03
622.092	-0.02
622.28	0.05
622.468	0.07
622.656	0.06
622.844	0.05
623.032	0.04
623.22	0
623.408	0.08
623.596	0.07
623.784	0.09
623.972	0.02
624.16	0.02
624.348	0.09
624.536	0.05
624.724	0.01
624.912	0.07
625.1	0.1
625.288	0.03
625.476	0.02
625.664	0.06
625.851	-0
626.039	0.03
626.227	0.09
626.415	0.02
626.603	-0.01
626.79	0.04
626.978	0.01
627.166	0.08
627.354	0.03
627.541	0.02
627.729	0
627.917	0.09
628.104	0.07
628.292	0.06
628.48	0.02
628.667	0.05
628.855	0.04
629.042	0.04
629.23	0.05
629.418	0.06
629.605	0.04
629.793	0.04
629.98	-0.01
630.168	0.05
630.355	0.02
630.543	0.04
630.73	-0.01
630.917	0.1
631.105	0.08
631.292	0.04
631.48	0.06
631.667	0.12
631.854	0.04
632.042	0.03
632.229	-0.01
632.416	0.03
632.604	0.04
632.791	0.01
632.978	0.04
633.165	0.06
633.353	0.09
633.54	0.04
633.727	0
633.914	0.01
634.101	-0.03
634.289	0.02
634.476	0.03
634.663	0
634.85	0.06
635.037	-0
635.224	-0.05
635.411	0.06
635.598	0.05
635.785	0.04
635.972	0.01
636.159	0.07
636.346	0.03
636.533	0.03
636.72	0.02
636.907	0.03
637.094	0.08
637.281	0.02
637.468	0.04
637.655	0
637.842	0.03
638.029	0.02
638.215	0.01
638.402	0.03
638.589	0.02
638.776	-0.01
638.963	0
639.149	0.06
639.336	0.07
639.523	-0
639.709	0.02
639.896	0
640.083	0.09
640.27	0.05
640.456	-0.01
640.643	0.06
640.829	0
641.016	0.03
641.203	-0.01
641.389	0.07
641.576	0.05
641.762	0.03
641.949	-0.01
642.135	0.09
642.322	0.05
642.508	-0.01
642.695	0.05
642.881	-0
643.068	0.02
643.254	0.04
643.441	0.05
643.627	0.02
643.813	0.01
644	0.06
644.186	0.01
644.372	-0.02
644.559	0.08
644.745	0.03
644.931	0.03
645.118	0.03
645.304	0.05
645.49	0
645.676	0.03
645.862	0.04
646.049	0.07
646.235	0.05
646.421	0.11
646.607	0.12
646.793	-0.01
646.979	0.04
647.165	0.01
647.352	0.05
647.538	0.07
647.724	0.01
647.91	0.04
648.096	0.08
648.282	0.06
648.468	0.02
648.654	0.02
648.84	0.02
649.026	0.01
649.212	0.05
649.397	0.02
649.583	-0.03
649.769	0.07
649.955	0.04
650.141	0.01
650.327	0.08
650.513	0.03
650.698	0.07
650.884	-0.02
651.07	0.05
651.256	0.03
651.442	-0
651.627	-0
651.813	0.05
651.999	0.04
652.184	0.02
652.37	0.02
652.556	0.01
652.741	0.06
652.927	-0.03
653.113	0.01
653.298	0.03
653.484	0
653.669	-0.01
653.855	0.04
654.04	0.05
654.226	0.05
654.412	0.05
654.597	-0.02
654.782	0.05
654.968	0.12
655.153	0.07
655.339	-0.01
655.524	0.01
655.71	0.06
655.895	-0.01
656.08	0.01
656.266	0.06
656.451	0.06
656.636	-0.03
656.822	0.04
657.007	-0
657.192	-0.01
657.378	-0
657.563	0.03
657.748	0.08
657.933	0.03
658.118	0.02
658.304	-0.02
658.489	0.05
658.674	0.04
658.859	0.01
659.044	0.08
659.229	0.04
659.414	0.01
659.599	0.02
659.785	-0.02
659.97	0.01
660.155	0.03
660.34	0.06
660.525	0.01
660.71	0.03
660.895	0.04
661.08	-0
661.264	0.01
661.449	0.08
661.634	0.12
661.819	0.08
662.004	0.06
662.189	-0.07
662.374	0.02
662.559	0
662.743	-0.04
662.928	0.04
663.113	-0.01
663.298	-0.02
663.483	0.02
663.667	0.04
663.852	-0.03
664.037	0.07
664.221	0.01
664.406	0.05
664.591	0.07
664.775	0.02
664.96	-0
665.145	0.03
665.329	0.03
665.514	0.01
665.698	0.01
665.883	-0.03
666.068	0.09
666.252	0.03
666.437	0
666.621	0.05
666.806	0.07
666.99	0.06
667.174	-0.01
667.359	0.13
667.543	0
667.728	0.04
667.912	-0.02
668.096	0.03
668.281	0.01
668.465	0.02
668.649	0.03
668.834	0.03
669.018	-0.01
669.202	0.04
669.387	0.01
669.571	0.07
669.755	-0.03
669.939	0.02
670.124	0.03
670.308	0.1
670.492	0.07
670.676	0.03
670.86	0.04
671.044	-0.01
671.228	0.07
671.413	0.03
671.597	0.05
671.781	0.03
671.965	0.08
672.149	0.05
672.333	0.03
672.517	0.03
672.701	0.09
672.885	0.03
673.069	-0.01
673.253	0.09
673.437	0.03
673.621	0
673.804	0.03
673.988	0.06
674.172	0.01
674.356	-0.01
674.54	0.01
674.724	0.15
674.908	0.02
675.091	0.1
675.275	0.01
675.459	0.1
675.643	0.11
675.826	0.06
676.01	0.07
676.194	0.04
676.377	0.09
676.561	0.1
676.745	0.06
676.928	0.07
677.112	0.1
677.296	0.01
677.479	-0
677.663	0.02
677.846	0.07
678.03	0.03
678.213	-0.01
678.397	0.06
678.58	0.01
678.764	-0.01
678.947	0.02
679.131	0.01
679.314	0.06
679.498	0.05
679.681	0.06
679.865	0.08
680.048	-0.01
680.231	0.05
680.415	0.08
680.598	0
680.781	0.05
680.965	0.04
681.148	0.06
681.331	0.02
681.514	0
681.698	0.07
681.881	0.03
682.064	0.06
682.247	0.07
682.43	-0.02
682.614	0.06
682.797	0.07
682.98	0.07
683.163	0.01
683.346	0.08
683.529	0.04
683.712	0.04
683.895	0.08
684.078	0.01
684.261	0.05
684.444	0.05
684.627	0.05
684.81	0.02
684.993	0.04
685.176	0.05
685.359	-0.01
685.542	-0
685.725	0.1
685.908	0.04
686.091	0.04
686.274	0.09
686.457	0.04
686.639	0.03
686.822	0.02
687.005	0.03
687.188	0.09
687.371	0.11
687.553	0.04
687.736	0.08
687.919	0.13
688.102	0.1
688.284	0.02
688.467	0.05
688.65	0.02
688.832	0.06
689.015	0.05
689.197	-0.01
689.38	0.13
689.563	0.14
689.745	-0
689.928	-0.02
690.11	0.03
690.293	0.06
690.475	-0.05
690.658	0.04
690.84	0.03
691.023	0
691.205	0.01
691.388	0.05
691.57	0.07
691.752	0.09
691.935	-0.03
692.117	0.06
692.3	0.07
692.482	0.1
692.664	0.02
692.847	0.08
693.029	0.12
693.211	0.04
693.393	0.02
693.576	0
693.758	0.05
693.94	0.06
694.122	0.02
694.304	0.01
694.487	0.02
694.669	0.13
694.851	0.01
695.033	0.05
695.215	-0.02
695.397	-0.01
695.579	0.04
695.761	-0.03
695.943	-0.05
696.125	0.08
696.308	0.05
696.49	-0.04
696.671	0.17
696.853	0.02
697.035	0.18
697.217	0.07
697.399	0.13
697.581	0.05
697.763	-0
697.945	0.01
698.127	0.04
698.309	0.07
698.491	0.01
698.672	0.06
698.854	0.06
699.036	0.11
699.218	-0.01
699.399	0.09
699.581	0.11
699.763	0.04
699.945	-0
700.126	0.01
700.308	0.06
700.49	-0
700.671	-0.01
700.853	0.01
701.035	0.03
701.216	0.05
701.398	-0.02
701.579	0
701.761	0.11
701.943	-0
702.124	0.01
702.306	0.05
702.487	0.19
702.669	0.03
702.85	0.04
703.031	-0.04
703.213	0.15
703.394	0.03
703.576	0.03
703.757	0.11
703.938	0.12
704.12	0.2
704.301	0.08
704.483	0.02
704.664	0.02
704.845	0.17
705.026	0.1
705.208	0.04
705.389	0.04
705.57	0.02
705.751	0.04
705.933	0.04
706.114	0.14
706.295	-0.01
706.476	-0.04
706.657	0.14
706.838	0.04
707.02	0.08
707.201	-0.01
707.382	-0.04
707.563	0.13
707.744	0.05
707.925	-0.02
708.106	-0.01
708.287	0.1
708.468	0.13
708.649	0.03
708.83	0.11
709.011	0
709.192	0.16
709.373	-0.06
709.554	0.03
709.734	0.05
709.915	0.06
710.096	0.06
710.277	-0.05
710.458	-0.01
710.639	0.09
710.819	-0.06
711	0.09
711.181	0.11
711.362	0.16
711.542	0.06
711.723	-0
711.904	0.07
712.085	0.12
712.265	0.02
712.446	-0.02
712.627	0.02
712.807	0.04
712.988	0.04
713.168	-0.07
713.349	0.15
713.53	-0.08
713.71	-0.03
713.891	-0.03
714.071	0.02
714.252	-0.02
714.432	-0.02
714.613	-0.05
714.793	0.04
714.974	0.1
715.154	0.1
715.334	0.03
715.515	0.15
715.695	-0.04
715.876	0.01
716.056	0.02
716.236	0.06
716.417	0.04
716.597	-0.06
716.777	0.19
716.957	0.04
717.138	0.01
717.318	0.02
717.498	-0.04
717.678	-0.03
717.859	0.08
718.039	-0.06
718.219	0.06
718.399	0.09
718.579	-0.05
718.759	-0.05
718.939	0.09
719.12	0.06
719.3	0.08
719.48	-0.08
719.66	-0.13
719.84	0.11
720.02	0.06
720.2	0.01
720.38	0.03
720.56	0.15
720.74	0.05
720.92	0.05
721.1	0.06
721.279	0.07
721.459	0.04
721.639	-0.01
721.819	0.06
721.999	0.04
722.179	0.16
722.359	-0.01
722.538	0.07
722.718	0.01
722.898	-0
723.078	-0.01
723.257	0.05
723.437	0.07
723.617	0.03
723.797	0.01
723.976	0.08
724.156	0.08
724.336	0.2
724.515	0.26
724.695	-0.18
724.874	0.06
725.054	0.07
725.234	-0.07
725.413	0.09
725.593	-0
725.772	0.02
725.952	0.07
726.131	0.07
726.311	0.03
726.49	0.03
726.67	-0.08
726.849	0.04
727.028	0.07
727.208	0.02
727.387	0.11
727.567	-0.11
727.746	-0.02
727.925	-0.02
728.105	-0.01
728.284	-0.02
728.463	-0.01
728.643	0.12
728.822	-0.07
729.001	-0.01
729.18	0.03
729.359	0.07
729.539	0.02
729.718	0.05
729.897	0.1
730.076	0.07
730.255	-0.08
730.434	0.07
730.614	0.09
730.793	0.16
730.972	0.02
731.151	0.04
731.33	0.15
731.509	0.06
731.688	-0.06
731.867	-0.02
732.046	-0.1
732.225	0.19
732.404	-0.02
732.583	-0.05
732.762	0.03
732.941	0.06
733.12	0.02
733.298	-0
733.477	0.07
733.656	0
733.835	-0.04
734.014	0.09
734.193	-0.01
734.371	0.15
734.55	0.1
734.729	-0.06
734.908	0.09
735.086	0.13
735.265	0.02
735.444	-0.07
735.623	-0.07
735.801	0.01
735.98	-0.03
736.159	-0.03
736.337	0.06
736.516	0.1
736.694	0.05
736.873	-0.05
737.052	0.11
737.23	0.1
737.409	-0.05
737.587	0.22
737.766	-0.17
737.944	-0.11
738.123	0.14
738.301	-0.08
738.479	0.04
738.658	0.02
738.836	-0.13
739.015	0.06
739.193	0.12
739.371	-0.22
739.55	0.08
739.728	-0
739.906	0.09
740.085	0.19
740.263	0.1
740.441	-0.17
740.62	0.13
740.798	0.16
740.976	-0
741.154	-0.15
741.332	0.15
741.511	0.03
741.689	0.08
741.867	0.12
742.045	0.09
742.223	-0.11
742.401	-0
742.579	-0.05
742.757	0.07
742.935	-0.15
743.114	0.06
743.292	0.02
743.47	0.02
743.648	0.12
743.826	-0.16
744.004	0.05
744.181	0.01
744.359	-0.08
744.537	0.09
744.715	0.09
744.893	-0.04
745.071	0.05
745.249	0.06
745.427	-0.01
745.605	0.16
745.782	0.05
745.96	0.11
746.138	0.09
746.316	0.08
746.493	-0.01
746.671	0.06
746.849	0.01
747.027	0.2
747.204	-0.1
747.382	0.08
747.56	-0.11
747.737	-0.05
747.915	0.02
748.093	0.11
748.27	-0.01
748.448	0.05
748.625	-0
748.803	-0.13
748.98	-0.08
749.158	0.14
749.335	0.03
749.513	0.02
749.69	-0.08
749.868	-0.04
750.045	0.07
750.223	0.06
750.4	-0.12
750.578	0.24
750.755	0.07
750.932	-0.18
751.11	0.18
751.287	-0.04
751.464	0.18
751.642	-0.14
751.819	0.07
751.996	0.1
752.173	0.03
752.351	-0.15
752.528	0.07
752.705	0.06
752.882	-0.07
753.06	0.02
753.237	0.09
753.414	0.33
753.591	0.16
753.768	0.02
753.945	0.04
754.122	-0.1
754.299	0.11
754.476	-0.09
754.654	0.07
754.831	0.01
755.008	-0
755.185	-0
755.362	-0.09
755.539	0.12
755.716	-0.13
755.892	0.04
756.069	-0.02
756.246	0.04
756.423	-0.02
756.6	0.12
756.777	0.02
756.954	0.08
757.131	-0.07
757.307	-0.02
757.484	-0.08
757.661	-0.04
757.838	0.18
758.015	-0.05
758.191	0.19
758.368	0.08
758.545	0.27
758.721	0.15
758.898	-0.06
759.075	0.04
759.251	0.08
759.428	0.11
759.605	-0.11
759.781	-0.02
759.958	0.06
760.134	0.19
760.311	-0.15
760.488	0.17
760.664	0.12
760.841	0.09
761.017	-0.08
761.194	0.1
761.37	0.06
761.547	0.17
761.723	0.01
761.899	0.05
762.076	-0.08
762.252	-0.17
762.429	-0.01
762.605	-0.02
762.781	-0.02
762.958	0.06
763.134	-0.07
763.31	-0.06
763.486	0.23
763.663	-0.14
763.839	0.21
764.015	-0.08
764.191	-0.1
764.368	-0.02
764.544	-0.01
764.72	0.1
764.896	0.12
765.072	0.06
765.248	-0.09
765.425	0.01
765.601	-0.04
765.777	0.09
765.953	-0.18
766.129	0.03
766.305	-0.1
766.481	0.21
766.657	0.02
766.833	0.28
767.009	-0.15
767.185	-0.12
767.361	0.07
767.537	-0.05
767.713	0.22
767.889	0.06
768.065	0.03
768.24	-0.13
768.416	0.14
768.592	0.07
768.768	-0.06
768.944	0.23
769.12	-0.1
769.295	0.08
769.471	-0.1
769.647	-0.12
769.823	0.11
769.998	0.07
770.174	0.07
770.35	0.34
770.525	0.27
770.701	0.1
770.877	0.02
771.052	-0.1
771.228	0.16
771.403	0.12
771.579	0.1
771.755	0.24
771.93	0.01
772.106	-0.13
772.281	-0.21
772.457	-0.11
772.632	0.03
772.808	-0.1
772.983	0.13
773.159	-0.03
773.334	0.18
773.509	0.07
773.685	-0.12
773.86	0.31
774.036	0.25
774.211	-0.03
774.386	-0.07
774.562	0.11
774.737	0.24
774.912	-0.01
775.087	0.07
775.263	0.08
775.438	0.04
775.613	-0.06
775.788	-0.05
775.964	0.29
776.139	0.31
776.314	-0.22
776.489	-0.06
776.664	0.08
776.839	-0.21
777.014	0.11
777.19	0.04
777.365	0.19
777.54	0.14
777.715	-0.06
777.89	-0.02
778.065	-0.18
778.24	0.01
778.415	0.21
778.59	-0.22
778.765	-0.06
778.94	-0.06
779.115	-0.11
779.289	-0.03
779.464	-0.01
779.639	0.03
779.814	-0.14
779.989	-0.18
780.164	0.22
780.339	0.06
780.513	-0.12
780.688	-0.04
780.863	0.05
781.038	0.13
781.212	-0.18
781.387	0.09
781.562	0.23
781.737	-0.09
781.911	0.17
782.086	-0.13
782.261	0.06
782.435	0.32
782.61	0.12
782.784	-0.04
782.959	0.32
783.134	-0.11
783.308	-0.06
783.483	0.06
783.657	0.28
783.832	0.09
784.006	-0.3
784.181	-0.07
784.355	0.28
784.53	-0.21
784.704	-0.19
784.878	0.47
785.053	0.15
785.227	0.22
785.402	0.42
785.576	-0.29
785.75	-0.08
785.925	-0.28
786.099	0.08
786.273	0.1
786.448	0.16
786.622	0.06
786.796	0.15
786.97	-0.05
787.145	0.57
787.319	-0.39
787.493	-0.09
787.667	-0.32
787.841	0.13
788.015	0.22
788.19	0.01
788.364	0.08
788.538	0.31
788.712	0.25
788.886	0.04
789.06	0.29
789.234	0.2
789.408	-0.13
789.582	-0.05
789.756	-0.02
789.93	-0.05
790.104	-0.11
790.278	0.04
790.452	-0.29
790.626	0.16
790.8	-0.11
790.973	0.15
791.147	0.35
791.321	-0.06
791.495	0.18
791.669	0.15
791.843	0.16
792.016	0.06
792.19	0.51
792.364	-0.05
792.538	0.47
792.711	0
792.885	-0.17
793.059	-0.17
793.233	-0.46
793.406	0.18
793.58	-0.05
793.754	0.13
793.927	-0.2
794.101	0.3
794.274	-0.04
794.448	0.26
794.622	-0.28
794.795	0.32
794.969	-0.23
795.142	0.42
795.316	0
795.489	0.03
795.663	0.4
795.836	-0.1
796.009	-0.21
796.183	0.29
796.356	0.3
796.53	0.07
796.703	-0.05
796.876	0.77
797.05	-0.1
797.223	-0.24
797.396	0.27
797.57	0.05
797.743	0.29
797.916	-0.04
798.09	0.11
798.263	0.17
798.436	0.03
798.609	-0.06
798.782	0.29
798.956	0.1
799.129	0.03
799.302	-0.11
799.475	-0.26
799.648	-0.29
799.821	-0.04
799.994	0.16
800.167	-0.48
800.34	-0.16
800.514	0.02
800.687	-0.03
800.86	-0.19
801.033	0.23
801.206	0.03
801.379	-0.38
801.551	0.25
801.724	0.34
801.897	0.35
802.07	-0.08
802.243	-0.58
802.416	-0.24
802.589	-0.31
802.762	-0.2
802.935	-0.02
803.107	0.16
803.28	0.24
803.453	0.33
803.626	0.04
803.798	0.12
803.971	-0.24
804.144	0.06
804.317	0.18
804.489	0.3
804.662	0.13
804.835	-0.05
805.007	0.11
805.18	0.6
805.353	0.11
805.525	-0.44
805.698	-0.44
805.87	0.09
806.043	0.3
806.215	-0.39
806.388	-0.06
806.56	-0.08
806.733	0.15
806.905	0.08
807.078	-0.06
807.25	0.07
807.423	0.51
807.595	-0.3
807.768	-0.15
807.94	0.25
808.112	-0.04
808.285	-0.15
808.457	-0.01
808.629	0.32
808.802	0.26
808.974	-0.16
809.146	-0.28
809.318	-0.08
809.491	-0.08
809.663	0.1
809.835	-0.11
810.007	0.19
810.18	0.13
810.352	-0.21
810.524	-0.03
810.696	0.39
810.868	0.22
811.04	-0.17
811.212	-0.01
811.384	0.52
811.556	0.11
811.728	0.06
811.901	0.32
812.073	-0.24
812.245	0.09
812.417	0.29
812.589	-0.69
812.76	0.03
812.932	-0.01
813.104	0.23
813.276	0.04
813.448	0.25
813.62	-0.04
813.792	0.24
813.964	-0.29
814.136	-0.08
814.307	-0.29
814.479	-0.36
814.651	-0.06
814.823	0.53
814.995	0.3
815.166	0.2
815.338	-0.18
815.51	-0.44
815.681	0.61
815.853	0.1
816.025	-0.1
816.196	0.45
816.368	0.6
816.54	-0.56
816.711	-0.6
816.883	0.61
817.054	0.63
817.226	-0.65
817.398	0.09
817.569	-0.45
817.741	-0.03
817.912	-0.09
818.084	0.13
818.255	-0.14
818.426	-0.39
818.598	-0.26
818.769	-0.06
818.941	-0.06
819.112	0.67
819.283	0.07
819.455	-0.14
819.626	-0.02
819.798	-0.02
819.969	0.38
820.14	-0.31
820.311	-0.33
820.483	0.12
820.654	0.06
820.825	0.2
820.996	0.25
821.168	-0.44
821.339	-0.43
821.51	-0.31
821.681	0.09
821.852	0.13
822.023	-0.42
822.195	-0.17
822.366	0.34
822.537	0.31
822.708	0.56
822.879	-0.52
823.05	0.24
823.221	0.2
823.392	0.21
823.563	-0.24
823.734	0.16
823.905	-0.11
824.076	-0.45
824.247	-0.33
824.418	-0.16
824.589	0.88
824.759	0.09
824.93	-0.42
825.101	-0.18
825.272	0.63
825.443	0.92
825.614	0.2
825.784	-0.99
825.955	1.14
826.126	0.26
826.297	0.29
826.467	0.62
826.638	0.34
826.809	-0.39
826.98	-0.1
827.15	0.29
827.321	-0.69
827.492	0.8
827.662	-0.16
827.833	0.94
828.003	0.47
828.174	-0.29
828.345	-0.6
828.515	0.74
828.686	0.18
828.856	0.01
829.027	0.19
829.197	0.36
829.368	0.5
829.538	-0.15
829.709	-0.55
829.879	0.62
830.049	0.13
830.22	-0.28
830.39	0.05
830.56	0.44
830.731	-0.08
830.901	-0.29
831.072	0.3
831.242	-0.06
831.412	0.1
831.582	-0.45
831.753	-0.45
831.923	0.75
832.093	0.06
832.263	-0.15
832.434	-0.43
832.604	-0.14
832.774	-0.21
832.944	-0.23
833.114	-0.16
833.284	0.83
833.454	-1.01
833.624	-0.72
833.795	0.38
833.965	0.95
834.135	0.62
834.305	-0.8
834.475	-0.32
834.645	0.1
834.815	-0.25
834.985	-0.43
835.155	-0.31
835.325	0.28
835.494	0.05
835.664	-0.04
835.834	-0.63
836.004	0.36
836.174	0.67
836.344	0.44
836.514	-0.78
836.684	-0.5
836.853	0.18
837.023	-0.35
837.193	-0.35
837.363	0.65
837.532	1.09
837.702	-0.55
837.872	-0.75
838.041	-0.09
838.211	1.07
838.381	-0.71
838.55	-0.43
838.72	1.97
838.89	1.14
839.059	-0.02
839.229	-0.34
839.398	1.22
839.568	-0.22
839.738	0.46
839.907	1.1
840.077	0.38
840.246	-0.65
840.416	-1.12
840.585	-0.5
840.755	0.68
840.924	1.37
841.093	-0.57
841.263	-0.49
841.432	0.56
841.602	-0.44
841.771	-1.18
841.94	0.21
842.11	2.08
842.279	1.19
842.448	-0.37
842.617	-0.66
842.787	0.64
842.956	-0.39
843.125	-0.39
843.294	-0
843.464	1.62
843.633	0.43
843.802	-0.35
843.971	-0.68
844.14	1.49
844.309	0.76
844.479	-0.73
844.648	-0.22
844.817	0.59
844.986	0.2
845.155	-0.17
845.324	0.37
845.493	0.41
845.662	-0.74
845.831	-0.05
846	0.47
846.169	0.76
846.338	1.2
846.507	0.25
846.676	0.12
846.844	0.3
847.013	0.06
847.182	-0.29
847.351	-0.07
847.52	-0.24
847.689	0.52
847.858	-0.37
848.026	-0.36
848.195	0.13
848.364	-0.98
848.533	-0.15
848.701	-0.9
848.87	0.18
849.039	1.47
849.207	0.01
849.376	1.26
849.545	0.97
849.713	-0.58
849.882	-0.63
850.051	0.24
850.219	0.14
850.388	0.77
850.556	-0.54
850.725	-1.31
850.893	0.24
851.062	-0.42
851.23	0.63
851.399	-0.65
851.567	-0.05
851.736	-1.7
851.904	-1.45
852.073	0.13
852.241	0.03
852.41	-1.11
852.578	0.17
852.746	-1.19
852.915	0.06
853.083	0.23
853.251	-1.21
853.42	-0.36
853.588	-0.03
853.756	1.37
853.924	-0.75
854.093	-0.24
854.261	0.24
854.429	-1.12
854.597	-0.31
854.765	-0.62
854.934	0.33
855.102	2.2
855.27	0
855.438	1.1
855.606	0.33
855.774	1.4
855.942	-1.26
856.11	-1.63
856.278	-0.19
856.446	1.44
856.614	-0.07
856.782	-0.2
856.95	1.83
857.118	-0.2
857.286	0.11
857.454	-0.48
857.622	0.59
857.79	0.1
857.958	0.05
858.126	-0.21
858.294	-2
858.462	0.3
858.629	-0.11
858.797	-0.82
858.965	0.87
859.133	0.2
859.301	0.58
859.468	0.92
859.636	-0.43
859.804	1.9
859.971	1.36
860.139	-0.09
860.307	2.17
860.474	1.29
860.642	0.37
860.81	0.02
860.977	-1.47
861.145	1.3
861.313	-0.69
861.48	0.39
861.648	0.82
861.815	-0.13
861.983	-1.97
862.15	-0.84
862.318	0.51
862.485	0.51
862.653	-0.83
862.82	0.02
862.988	0.72
863.155	1.22
863.322	-0.79
863.49	-1.1
863.657	-0.36
863.824	2.23
863.992	0.47
864.159	0.3
864.326	1.33
864.494	-1.73
864.661	2.91
864.828	-0.49
864.996	0.94
865.163	3.67
865.33	-1.12
865.497	-2.75
865.664	-0.38
865.832	-2.64
865.999	-0.78
866.166	-2.61
866.333	-1.07
866.5	-0.8
866.667	-0.43
866.834	0.2
867.001	0.99
867.168	-1.72
867.335	0.48
867.502	-2.38
867.669	1.43
867.836	3.44
868.003	-0.59
868.17	0.78
868.337	-1.71
868.504	1.78
868.671	-1.98
868.838	-1.37
869.005	0.02
869.172	1.25
869.339	1.24
869.505	-0.84
869.672	0.88
869.839	2.02
870.006	-0.39
870.173	-1.44
870.339	1.87
870.506	2.14
870.673	-1.45
870.84	0.75
871.006	0.69
871.173	0.28
871.34	-0.38
871.506	-0.44
871.673	-0.3
871.839	-2.38
872.006	0.19
872.173	-1.41
872.339	0.12
872.506	1.38
872.672	0.29
872.839	-1.74
873.005	-0.64
873.172	3.96
873.338	0.96
873.505	-0.08
873.671	-1.59
873.838	-0.11
874.004	-3.36
874.171	-1.43
874.337	1.55
874.503	-0.04
874.67	0.39
874.836	-1.15
875.002	1.93
875.169	0.3
875.335	0.29
875.501	-0.66
875.668	0.8
875.834	0.2
876	-0.19
876.166	0.79
876.332	0.74
876.499	3.83
876.665	-1.73
876.831	0.41
876.997	4.25
877.163	1.73
877.329	-0.91
877.495	0.34
877.662	-0.08
877.828	0.25
877.994	-0.34
878.16	-3.78
878.326	0.3
878.492	0.17
878.658	0.34
878.824	0.73
878.99	1.14
879.156	-1.87
879.322	1.13
879.487	0.81
879.653	-1.13
879.819	0.06
879.985	-1.29
880.151	0.55
880.317	-0.48
880.483	-0.09
880.648	0.08
880.814	-3.24
880.98	0.83
881.146	-1.83
881.312	-2.82
881.477	-1.89
881.643	1.34
881.809	2.08
881.974	0.82
882.14	-0.82
882.306	-0.12
882.471	3.57
882.637	0.05
882.803	0.96
882.968	3.88
883.134	2.06
883.299	0.57
883.465	0.1
883.63	1.37
883.796	-0.7
883.961	0.59
884.127	-1.05
884.292	-4.87
884.458	-1.69
884.623	-1.69
