Data from Apollo_Calib_20240827__AbsoluteIrradiance__484__07-13-02-860.txt Node

Date: Wed Aug 28 07:13:02 BST 2024
User: biology
Spectrometer: FLMT08252
Trigger mode: 0
Integration Time (sec): 5.000000E-1
Scans to average: 5
Electric dark correction enabled: true
Nonlinearity correction enabled: false
Boxcar width: 0
XAxis mode: Wavelengths
Number of Pixels in Spectrum: 3648
>>>>>Begin Spectral Data<<<<<
179.588	-0
179.809	-0
180.03	-0
180.251	-0
180.473	-0
180.694	0
180.915	0
181.136	-0
181.357	0
181.578	-0
181.799	-0
182.02	-0
182.241	-0
182.462	0
182.683	0
182.904	-0
183.125	0
183.346	0
183.567	0
183.788	-0
184.009	-0
184.23	-0
184.451	0
184.672	-0
184.892	-0
185.113	0
185.334	0
185.555	-0
185.776	-0
185.996	-0
186.217	0
186.438	-0
186.659	-0
186.879	-0
187.1	0
187.321	-0
187.541	-0
187.762	-0
187.983	0
188.203	-0
188.424	0
188.644	-0
188.865	-0
189.086	-0
189.306	-0
189.527	-0
189.747	0
189.968	-0
190.188	0
190.409	-0
190.629	0
190.849	-0
191.07	-0
191.29	0
191.511	0
191.731	-0
191.951	0
192.172	-0
192.392	-0
192.612	-0
192.833	0
193.053	0
193.273	0
193.493	0
193.714	0
193.934	0
194.154	0
194.374	0
194.594	0
194.815	0
195.035	0
195.255	0
195.475	-0
195.695	0
195.915	0
196.135	-0
196.355	0
196.575	0
196.795	0
197.015	-0
197.235	-0
197.455	-0
197.675	0
197.895	-0
198.115	-0
198.335	0
198.555	-0
198.775	0
198.995	0
199.214	0
199.434	0
199.654	-0
199.874	-0
200.094	-1.52
200.313	0.08
200.533	-0.19
200.753	-0.91
200.973	0.55
201.192	0.42
201.412	-1.06
201.632	-0.58
201.851	0.55
202.071	-0.33
202.291	-0.24
202.51	-0.9
202.73	0.17
202.95	-0.4
203.169	-0.42
203.389	0.29
203.608	0.04
203.828	-0.06
204.047	-0.13
204.267	-0.08
204.486	-0.19
204.706	0.18
204.925	0.21
205.145	-0.31
205.364	0.51
205.583	0.39
205.803	-0.39
206.022	-0.35
206.242	-0.11
206.461	0.02
206.68	-0.25
206.9	0.22
207.119	0.3
207.338	0.51
207.557	-0.03
207.777	-0.07
207.996	-0.3
208.215	0.46
208.434	-0.26
208.654	-0.14
208.873	-0.26
209.092	0.23
209.311	0.06
209.53	0.1
209.749	-0.34
209.968	-0.36
210.187	-0.09
210.407	-0.34
210.626	-0.24
210.845	0.04
211.064	0.02
211.283	-0.39
211.502	0.13
211.721	0.2
211.94	-0.05
212.159	0.11
212.377	0.19
212.596	0.23
212.815	-0.18
213.034	0.11
213.253	0.14
213.472	0.27
213.691	-0.1
213.91	-0.33
214.128	-0.05
214.347	0.29
214.566	-0.45
214.785	-0.07
215.003	0.08
215.222	0.08
215.441	0.02
215.66	-0.24
215.878	-0.02
216.097	0.4
216.316	-0.13
216.534	-0.13
216.753	0.06
216.972	-0.06
217.19	0.1
217.409	-0.22
217.627	-0.09
217.846	-0.06
218.064	-0.03
218.283	-0.27
218.501	0.51
218.72	0.11
218.938	-0.32
219.157	-0.13
219.375	0.24
219.594	0.14
219.812	-0.18
220.031	-0.08
220.249	0.17
220.467	0.25
220.686	-0.09
220.904	-0.22
221.122	-0.02
221.341	0.4
221.559	0.09
221.777	-0.1
221.995	0.05
222.214	0.18
222.432	-0.06
222.65	0.07
222.868	0.07
223.086	0.01
223.305	0.05
223.523	-0.01
223.741	0.13
223.959	-0.1
224.177	-0.16
224.395	-0.17
224.613	0.01
224.831	0.05
225.049	-0.1
225.267	-0.01
225.485	0.01
225.703	-0.11
225.921	-0.05
226.139	-0.02
226.357	0.13
226.575	0.03
226.793	0.02
227.011	0.53
227.229	0.07
227.447	0.1
227.665	-0.15
227.883	-0.22
228.1	0.07
228.318	0.11
228.536	-0.38
228.754	-0.15
228.972	0.12
229.189	0.04
229.407	-0.02
229.625	-0.02
229.843	0.21
230.06	0.09
230.278	-0.04
230.496	0
230.713	0.07
230.931	0.12
231.149	0.05
231.366	-0.21
231.584	-0.03
231.801	0.22
232.019	-0.09
232.236	-0.15
232.454	-0.11
232.671	0.1
232.889	0.05
233.106	-0.18
233.324	0.04
233.541	-0.1
233.759	-0.09
233.976	-0.11
234.194	0.02
234.411	0
234.628	-0.15
234.846	0.05
235.063	-0.06
235.28	-0.02
235.498	-0.07
235.715	-0
235.932	0.03
236.149	-0.03
236.367	-0.06
236.584	0.06
236.801	-0.15
237.018	0.09
237.236	0.05
237.453	-0.14
237.67	0.16
237.887	-0.07
238.104	-0.04
238.321	-0.16
238.538	-0.1
238.755	0.09
238.973	-0.14
239.19	0.05
239.407	0.05
239.624	0.01
239.841	-0.17
240.058	-0
240.275	0.1
240.492	-0.04
240.709	-0
240.925	-0.04
241.142	0.04
241.359	-0.09
241.576	-0.01
241.793	-0.05
242.01	0.05
242.227	0.09
242.444	0.08
242.66	0.07
242.877	-0.02
243.094	-0.11
243.311	0.02
243.527	0.01
243.744	0.06
243.961	0.08
244.178	-0.12
244.394	-0.06
244.611	0.15
244.828	0.23
245.044	-0.06
245.261	0.02
245.477	-0.02
245.694	0.04
245.911	-0.07
246.127	0.01
246.344	0.15
246.56	0.02
246.777	-0.06
246.993	0.07
247.21	0.03
247.426	-0.07
247.643	-0.02
247.859	-0.04
248.076	-0.07
248.292	0.15
248.508	-0.02
248.725	-0.02
248.941	-0.02
249.157	0.23
249.374	-0.03
249.59	-0.09
249.806	0.02
250.023	0.04
250.239	-0.11
250.455	-0.05
250.671	0.06
250.888	0.04
251.104	-0.03
251.32	-0.08
251.536	-0.01
251.752	0.07
251.969	0.05
252.185	-0.02
252.401	0.15
252.617	-0
252.833	-0.03
253.049	0.02
253.265	0.02
253.481	0.08
253.697	-0.07
253.913	-0.1
254.129	-0.01
254.345	0.08
254.561	-0.08
254.777	-0.1
254.993	0.06
255.209	0.07
255.425	-0.03
255.641	-0.05
255.857	0.06
256.073	0.07
256.288	-0.09
256.504	-0.05
256.72	-0.04
256.936	0.11
257.152	-0.02
257.367	-0.13
257.583	0
257.799	0.05
258.015	-0.12
258.23	-0.07
258.446	0.02
258.662	-0.06
258.877	0
259.093	-0.1
259.309	-0.04
259.524	0.05
259.74	-0.07
259.955	-0.09
260.171	0.02
260.387	-0.08
260.602	0.16
260.818	0.01
261.033	-0.07
261.249	-0.09
261.464	-0.06
261.68	-0.12
261.895	0.06
262.11	0.01
262.326	-0.04
262.541	-0.16
262.757	0.07
262.972	-0.02
263.187	0.06
263.403	0.03
263.618	0.03
263.833	0.05
264.049	-0.04
264.264	-0.07
264.479	0.04
264.694	0.07
264.91	-0.12
265.125	-0.03
265.34	0.06
265.555	0.14
265.77	0.04
265.986	-0.02
266.201	0.12
266.416	0.15
266.631	0.05
266.846	0.01
267.061	-0.04
267.276	0.08
267.491	-0.09
267.706	0.07
267.921	0.08
268.136	0.06
268.351	-0.01
268.566	-0.04
268.781	0.14
268.996	0.08
269.211	-0.06
269.426	-0.05
269.641	0.01
269.856	0.1
270.071	-0.03
270.285	-0.07
270.5	0.11
270.715	0.02
270.93	0.01
271.145	-0.03
271.359	0.06
271.574	-0.09
271.789	0.01
272.004	-0.06
272.218	-0.03
272.433	0.06
272.648	-0.06
272.862	0.01
273.077	0.03
273.292	0.03
273.506	-0.04
273.721	-0.02
273.936	0.03
274.15	0.08
274.365	-0.04
274.579	0.04
274.794	0.04
275.008	0.03
275.223	-0.11
275.437	-0.02
275.652	0.04
275.866	0.07
276.081	0.02
276.295	0.01
276.509	-0.01
276.724	-0.01
276.938	0.03
277.153	-0
277.367	0.05
277.581	-0.05
277.796	0
278.01	-0.04
278.224	0.06
278.438	0.07
278.653	-0.04
278.867	-0.05
279.081	0.03
279.295	-0.05
279.51	0.04
279.724	-0.06
279.938	0.04
280.152	0.05
280.366	-0.04
280.58	0.03
280.794	0.08
281.008	-0.03
281.222	0.08
281.437	0.13
281.651	0.04
281.865	0.12
282.079	0.02
282.293	-0.12
282.507	-0.04
282.721	-0.04
282.935	0.03
283.148	-0.1
283.362	-0.06
283.576	-0.08
283.79	-0.02
284.004	-0.06
284.218	0.03
284.432	-0.04
284.646	-0.02
284.859	-0.03
285.073	-0.02
285.287	0.01
285.501	0.01
285.714	0
285.928	0.02
286.142	0
286.356	-0.06
286.569	-0.03
286.783	0.1
286.997	-0
287.21	0.04
287.424	0.04
287.637	-0.03
287.851	-0.03
288.065	0.05
288.278	0
288.492	0.06
288.705	0.01
288.919	0.02
289.132	-0.07
289.346	0.12
289.559	-0.06
289.773	-0.03
289.986	-0.04
290.2	0.02
290.413	0.06
290.626	-0.05
290.84	0
291.053	0.01
291.267	0.08
291.48	-0.02
291.693	0.01
291.906	0
292.12	-0.04
292.333	-0.04
292.546	0
292.76	0.06
292.973	-0
293.186	0.03
293.399	-0.04
293.612	0.06
293.826	-0
294.039	0.01
294.252	-0.01
294.465	0.02
294.678	0.01
294.891	-0
295.104	-0.08
295.317	-0.01
295.53	0.04
295.743	-0.02
295.956	-0.03
296.169	0.08
296.382	0.1
296.595	-0.01
296.808	-0.03
297.021	0.04
297.234	0.03
297.447	-0.01
297.66	0.04
297.873	0.1
298.086	0.06
298.299	-0.03
298.511	-0.09
298.724	-0.03
298.937	-0.04
299.15	-0.03
299.363	0.03
299.575	0.05
299.788	0.02
300.001	-0.04
300.213	-0.04
300.426	-0.02
300.639	-0.03
300.852	-0.01
301.064	-0.01
301.277	0.11
301.489	0.06
301.702	0.08
301.915	0.04
302.127	0.01
302.34	0.05
302.552	0.01
302.765	-0.01
302.977	0.06
303.19	-0.06
303.402	-0
303.615	0.01
303.827	-0.05
304.04	-0.02
304.252	0.07
304.464	0
304.677	0.09
304.889	0.02
305.102	-0.02
305.314	-0.03
305.526	0.06
305.739	0.04
305.951	-0.02
306.163	-0.01
306.375	0.09
306.588	-0.03
306.8	-0.01
307.012	-0.01
307.224	0.02
307.436	0.07
307.649	-0.11
307.861	0.01
308.073	0.01
308.285	-0.02
308.497	0
308.709	-0.04
308.921	0.05
309.133	0.03
309.346	0.01
309.558	0.01
309.77	0.05
309.982	0.07
310.194	0.05
310.406	-0.01
310.617	0.08
310.829	0.01
311.041	0.04
311.253	-0.06
311.465	0.02
311.677	0
311.889	-0.01
312.101	-0.06
312.313	0.05
312.524	-0.01
312.736	-0.03
312.948	-0.01
313.16	0.06
313.372	0.05
313.583	0.05
313.795	0
314.007	-0.01
314.218	0.07
314.43	0.03
314.642	-0.03
314.853	-0.04
315.065	0.02
315.277	-0.03
315.488	0.03
315.7	0.05
315.912	0.03
316.123	0.01
316.335	0.01
316.546	0.12
316.758	-0
316.969	-0.02
317.181	0.01
317.392	0.03
317.604	0.07
317.815	-0.04
318.026	-0.06
318.238	0.02
318.449	0.06
318.661	-0.06
318.872	-0.03
319.083	-0.05
319.295	0.04
319.506	-0.02
319.717	0.06
319.929	0
320.14	-0.01
320.351	0.03
320.562	-0.03
320.774	0.01
320.985	0.01
321.196	-0.08
321.407	-0.07
321.618	0.05
321.829	0.01
322.041	0.02
322.252	-0.03
322.463	0.02
322.674	0.03
322.885	-0.03
323.096	-0.03
323.307	-0.04
323.518	0.01
323.729	-0.01
323.94	0.02
324.151	-0.01
324.362	-0.03
324.573	-0.01
324.784	0.01
324.995	0.02
325.206	0.03
325.417	-0.01
325.628	-0.02
325.838	-0.01
326.049	0.03
326.26	0.07
326.471	-0.02
326.682	0.03
326.892	0.02
327.103	-0.04
327.314	-0.04
327.525	0.05
327.735	0.01
327.946	0.02
328.157	-0.02
328.368	0.04
328.578	-0.02
328.789	0.02
328.999	0.01
329.21	0.02
329.421	0.02
329.631	-0.03
329.842	-0.03
330.052	0.03
330.263	0.07
330.473	-0.01
330.684	-0
330.894	-0.01
331.105	-0.01
331.315	-0
331.526	-0.05
331.736	0.05
331.947	0.06
332.157	0.01
332.367	-0.06
332.578	0.05
332.788	0.04
332.999	0.06
333.209	0.02
333.419	-0.07
333.629	0.01
333.84	0.03
334.05	0.02
334.26	0.05
334.47	0.04
334.681	0.05
334.891	0
335.101	0.04
335.311	0.07
335.521	0.02
335.732	-0.07
335.942	0.06
336.152	0.03
336.362	0.02
336.572	0.02
336.782	0.07
336.992	-0.02
337.202	-0.01
337.412	-0.01
337.622	-0.02
337.832	-0.01
338.042	0.03
338.252	0.01
338.462	-0.04
338.672	0.01
338.882	0.01
339.092	0.03
339.302	0.08
339.511	0.05
339.721	-0.04
339.931	0
340.141	0.03
340.351	0.02
340.561	0.02
340.77	0.01
340.98	0.01
341.19	0.05
341.4	-0.01
341.609	-0.03
341.819	-0.01
342.029	-0.04
342.238	0.01
342.448	0
342.658	0.04
342.867	0.05
343.077	-0
343.286	0
343.496	0.05
343.706	0.05
343.915	-0.08
344.125	-0.01
344.334	0.01
344.544	-0.07
344.753	-0.01
344.963	-0.01
345.172	-0.02
345.381	-0.02
345.591	-0.03
345.8	0.03
346.01	0.04
346.219	0.04
346.428	-0.13
346.638	0.02
346.847	-0.01
347.056	0.05
347.266	-0.05
347.475	0.02
347.684	0.05
347.893	0
348.103	0
348.312	-0.03
348.521	-0.01
348.73	0.03
348.94	0.03
349.149	0
349.358	-0.02
349.567	-0.08
349.776	-0.07
349.985	-0.04
350.194	0.01
350.403	0.05
350.612	-0.04
350.821	0.01
351.03	0.01
351.239	-0.06
351.448	-0.01
351.657	-0.02
351.866	0.09
352.075	0.03
352.284	0.07
352.493	-0.05
352.702	0.05
352.911	-0
353.12	0.03
353.329	0.01
353.538	0.02
353.746	-0
353.955	-0.03
354.164	0.04
354.373	-0.01
354.582	0.05
354.79	0.03
354.999	0
355.208	0.03
355.416	0.05
355.625	-0.05
355.834	-0.02
356.042	0.02
356.251	0
356.46	-0.06
356.668	0.06
356.877	0.04
357.085	0.04
357.294	-0.07
357.503	0.03
357.711	0.01
357.92	0.08
358.128	0.02
358.337	-0.02
358.545	0.06
358.754	-0.05
358.962	0.05
359.17	-0.02
359.379	0.03
359.587	0.01
359.796	-0.01
360.004	0.05
360.212	0.03
360.421	0.09
360.629	-0.03
360.837	-0.03
361.046	0.01
361.254	0.08
361.462	-0.02
361.67	0
361.879	0.04
362.087	0.06
362.295	0.01
362.503	0.01
362.711	-0.07
362.92	-0.03
363.128	-0.03
363.336	-0.04
363.544	-0.07
363.752	-0.02
363.96	-0.05
364.168	-0.04
364.376	0.02
364.584	-0
364.792	0.02
365	-0.01
365.208	-0
365.416	0.01
365.624	0.09
365.832	-0.03
366.04	0.07
366.248	0.04
366.456	-0.01
366.664	0.02
366.872	0.02
367.079	-0.01
367.287	0.03
367.495	0.02
367.703	-0.01
367.911	-0
368.118	0
368.326	-0.01
368.534	-0.04
368.742	0.06
368.949	-0.05
369.157	-0.01
369.365	0.07
369.572	-0.01
369.78	-0.05
369.988	0.04
370.195	0.02
370.403	-0.03
370.61	0.01
370.818	0.02
371.026	-0.01
371.233	0.02
371.441	-0
371.648	-0.03
371.856	0.04
372.063	0
372.271	-0.03
372.478	-0.02
372.685	-0.02
372.893	0.05
373.1	-0.01
373.308	-0.02
373.515	0.09
373.722	0.03
373.93	-0.01
374.137	0.05
374.344	0.08
374.552	0.03
374.759	0.06
374.966	0.01
375.173	-0.03
375.381	0.06
375.588	0.01
375.795	-0.05
376.002	-0.01
376.209	-0.04
376.417	-0.01
376.624	-0.01
376.831	0.02
377.038	-0.01
377.245	-0.07
377.452	-0.02
377.659	-0.01
377.866	-0.02
378.073	-0.03
378.28	0.01
378.487	0.05
378.694	0.01
378.901	0
379.108	-0.02
379.315	0.01
379.522	0.1
379.729	-0
379.936	-0.02
380.143	-0.02
380.35	0.02
380.557	0.02
380.763	0.01
380.97	-0
381.177	0.03
381.384	0.03
381.591	0
381.797	-0.01
382.004	-0
382.211	0.03
382.418	0.03
382.624	0.04
382.831	0.04
383.038	-0.02
383.244	0.02
383.451	0.01
383.658	0.02
383.864	-0.02
384.071	-0.03
384.277	0.07
384.484	-0.03
384.69	0.02
384.897	-0.01
385.103	-0.05
385.31	-0.06
385.516	-0.03
385.723	-0.04
385.929	-0
386.136	-0.03
386.342	0.04
386.549	0.01
386.755	0.06
386.961	-0.01
387.168	0
387.374	-0.01
387.58	-0.01
387.787	0.01
387.993	-0
388.199	-0.02
388.406	-0.05
388.612	-0.03
388.818	-0.04
389.024	-0.05
389.231	-0.01
389.437	0.1
389.643	0.02
389.849	-0.01
390.055	0.04
390.261	0.04
390.467	0.01
390.674	-0.05
390.88	-0.02
391.086	0.03
391.292	-0.01
391.498	0.01
391.704	-0.01
391.91	0.01
392.116	-0.01
392.322	-0.09
392.528	-0.01
392.734	-0.02
392.94	0.02
393.146	-0
393.352	0.01
393.557	-0.04
393.763	0.03
393.969	0
394.175	-0.02
394.381	0.01
394.587	-0.02
394.792	-0.03
394.998	0.03
395.204	0.03
395.41	-0.07
395.615	0.08
395.821	0.02
396.027	-0
396.233	-0.04
396.438	0.03
396.644	0.07
396.85	0.04
397.055	-0.01
397.261	0.01
397.466	-0.02
397.672	0.01
397.878	0.06
398.083	0.02
398.289	-0.01
398.494	0.02
398.7	-0.01
398.905	-0.06
399.111	0.05
399.316	-0.05
399.522	0.01
399.727	-0.04
399.932	-0.03
400.138	-0.02
400.343	0.06
400.549	-0.02
400.754	0.03
400.959	0.01
401.165	0.01
401.37	0.02
401.575	0.11
401.78	0.05
401.986	-0.05
402.191	-0.05
402.396	0.01
402.601	0.03
402.807	0.01
403.012	0.01
403.217	0.03
403.422	-0.03
403.627	0
403.832	-0.04
404.037	0.03
404.243	0.04
404.448	-0.02
404.653	-0.02
404.858	0
405.063	0.03
405.268	-0.03
405.473	-0.02
405.678	-0.05
405.883	0.09
406.088	0.07
406.293	-0.06
406.498	-0.03
406.703	0.02
406.907	0.01
407.112	-0.05
407.317	-0.03
407.522	0.05
407.727	-0.04
407.932	-0.01
408.136	0.08
408.341	-0.01
408.546	0.02
408.751	0.01
408.956	-0.03
409.16	0.02
409.365	0.01
409.57	-0.03
409.774	-0.06
409.979	0.03
410.184	0.02
410.388	-0.05
410.593	0.03
410.798	0.03
411.002	-0.01
411.207	-0.01
411.411	0.02
411.616	-0.09
411.82	-0.03
412.025	0.04
412.229	-0.03
412.434	0.05
412.638	0.03
412.843	-0.01
413.047	0.03
413.252	-0.03
413.456	-0.01
413.66	0.08
413.865	-0.06
414.069	0.07
414.273	-0.04
414.478	-0.02
414.682	0.01
414.886	-0.02
415.091	-0.01
415.295	-0.08
415.499	-0.01
415.703	-0.02
415.908	0.07
416.112	-0.11
416.316	0.02
416.52	-0.01
416.724	-0.08
416.929	-0.07
417.133	0.11
417.337	-0.02
417.541	-0.05
417.745	0.01
417.949	0
418.153	0.04
418.357	-0.04
418.561	0.07
418.765	0.01
418.969	0.08
419.173	0.07
419.377	-0.04
419.581	0.07
419.785	-0.03
419.989	-0.04
420.193	-0.01
420.397	0.04
420.601	0.04
420.804	-0.02
421.008	0
421.212	-0.01
421.416	0.01
421.62	0.01
421.823	-0.04
422.027	0.08
422.231	-0
422.435	-0.02
422.638	-0
422.842	-0.03
423.046	-0.05
423.249	0.04
423.453	0.03
423.657	0.02
423.86	-0.02
424.064	0.01
424.268	0.05
424.471	-0.01
424.675	0.06
424.878	0.01
425.082	-0.03
425.285	0.03
425.489	0
425.692	-0.01
425.896	-0.05
426.099	0.02
426.303	-0.08
426.506	-0.04
426.71	-0.01
426.913	0.05
427.116	0.01
427.32	0.02
427.523	0.03
427.726	0.1
427.93	-0.03
428.133	0
428.336	-0.06
428.54	-0.03
428.743	0.01
428.946	0.03
429.149	0.03
429.353	0.02
429.556	-0.01
429.759	0.01
429.962	-0.04
430.165	0.01
430.368	0.01
430.571	-0
430.775	0.03
430.978	-0.03
431.181	0.02
431.384	0.05
431.587	0.03
431.79	0.04
431.993	0.01
432.196	0.02
432.399	-0.03
432.602	0.05
432.805	-0.04
433.008	-0.03
433.211	-0.12
433.414	0.03
433.616	-0.01
433.819	0.03
434.022	-0.1
434.225	0.08
434.428	0.04
434.631	0.11
434.833	0
435.036	-0.06
435.239	0.04
435.442	0.02
435.645	-0.03
435.847	0.02
436.05	0
436.253	0.01
436.455	-0.05
436.658	0.01
436.861	0.07
437.063	-0.02
437.266	-0.02
437.468	0.04
437.671	0.09
437.874	0.01
438.076	-0.09
438.279	-0.11
438.481	0.04
438.684	-0.02
438.886	0.02
439.089	-0.1
439.291	0.03
439.494	0.01
439.696	-0.07
439.899	-0.04
440.101	0.01
440.303	-0.07
440.506	0.05
440.708	-0.01
440.91	0
441.113	-0.08
441.315	0.04
441.517	-0.06
441.72	0.05
441.922	0
442.124	-0.05
442.326	0.03
442.529	0.08
442.731	-0.01
442.933	0.07
443.135	-0.03
443.337	-0.05
443.539	0.01
443.742	-0.05
443.944	-0.02
444.146	-0.06
444.348	-0.01
444.55	0
444.752	-0.01
444.954	-0.01
445.156	0.03
445.358	-0.03
445.56	0.08
445.762	-0.05
445.964	-0.02
446.166	-0.04
446.368	-0.06
446.57	0.03
446.772	0.01
446.974	-0.04
447.175	0.02
447.377	-0.03
447.579	-0.02
447.781	-0.05
447.983	0.05
448.184	-0.02
448.386	0.04
448.588	-0.09
448.79	0.03
448.991	-0.03
449.193	-0.01
449.395	0.01
449.597	0.02
449.798	0.03
450	-0.02
450.202	-0.04
450.403	-0.02
450.605	0.07
450.806	-0.01
451.008	-0.06
451.21	0.02
451.411	-0
451.613	-0.01
451.814	0.05
452.016	0.02
452.217	0.01
452.419	0.04
452.62	-0.01
452.821	0.06
453.023	0.08
453.224	0.03
453.426	-0.01
453.627	0.03
453.828	0.06
454.03	0.01
454.231	-0.02
454.432	-0.05
454.634	0.06
454.835	-0.03
455.036	-0.05
455.238	0.02
455.439	0.04
455.64	-0.03
455.841	0
456.042	0.09
456.244	0.07
456.445	-0.03
456.646	-0.03
456.847	0.01
457.048	0.05
457.249	0.1
457.45	0.14
457.651	-0.05
457.852	0.07
458.054	0.02
458.255	0.03
458.456	0.03
458.657	0.02
458.858	-0.05
459.058	0.02
459.259	0.04
459.46	-0.01
459.661	-0.07
459.862	0.09
460.063	0.06
460.264	0.04
460.465	-0.1
460.666	0.09
460.866	-0.01
461.067	0.03
461.268	0
461.469	-0.03
461.67	-0.02
461.87	-0.05
462.071	0.01
462.272	-0.06
462.473	0.03
462.673	0.06
462.874	-0.06
463.075	0
463.275	-0
463.476	0.02
463.676	0.01
463.877	0.04
464.078	0.02
464.278	0.06
464.479	0.01
464.679	-0.04
464.88	-0.02
465.08	0.05
465.281	-0.01
465.481	-0.03
465.682	0.01
465.882	0.03
466.083	0.05
466.283	-0
466.483	-0.02
466.684	-0.03
466.884	-0.07
467.085	0.02
467.285	0.04
467.485	-0.02
467.686	-0.01
467.886	-0.03
468.086	-0.01
468.286	0.02
468.487	0.05
468.687	-0.06
468.887	0.01
469.087	0.05
469.287	-0.02
469.488	-0.06
469.688	0.04
469.888	0.05
470.088	0.03
470.288	0.01
470.488	0.06
470.688	-0.02
470.888	-0.02
471.088	-0.01
471.288	0.04
471.488	0.01
471.688	0
471.888	-0.05
472.088	0.07
472.288	0
472.488	-0.03
472.688	-0.02
472.888	-0.01
473.088	0.04
473.288	-0.02
473.488	0
473.688	0.06
473.887	0.03
474.087	-0.03
474.287	0.01
474.487	-0.05
474.687	0.07
474.886	0.01
475.086	-0.01
475.286	0.02
475.486	-0.02
475.685	0.02
475.885	-0.03
476.085	0.04
476.284	0.02
476.484	-0.01
476.684	0.03
476.883	0.07
477.083	0.05
477.282	-0.04
477.482	0.06
477.681	0.06
477.881	0.01
478.08	-0.01
478.28	-0.03
478.479	0.06
478.679	0.04
478.878	-0.03
479.078	-0.03
479.277	-0.02
479.477	0
479.676	0.02
479.875	-0
480.075	-0.07
480.274	0.01
480.473	0.04
480.673	-0.04
480.872	0.01
481.071	0.03
481.271	-0.01
481.47	-0.01
481.669	-0.03
481.868	-0.03
482.067	-0.06
482.267	0
482.466	-0.02
482.665	-0.02
482.864	-0.04
483.063	-0.02
483.262	0.04
483.461	0.02
483.661	0.01
483.86	0.01
484.059	0.01
484.258	0.02
484.457	0
484.656	-0.02
484.855	0.06
485.054	-0.05
485.253	-0.01
485.452	-0.02
485.651	0
485.849	0.01
486.048	-0.03
486.247	-0.04
486.446	0.02
486.645	-0.06
486.844	-0.01
487.043	0.01
487.241	0.02
487.44	-0.01
487.639	-0
487.838	0.01
488.037	0.01
488.235	0.06
488.434	0.02
488.633	-0.01
488.831	0.01
489.03	0.04
489.229	0.01
489.427	-0
489.626	0.05
489.825	0.04
490.023	-0.01
490.222	-0.03
490.42	0.01
490.619	0.03
490.817	0
491.016	-0.01
491.214	0.04
491.413	-0.01
491.611	-0.02
491.81	-0.02
492.008	0.02
492.207	0.03
492.405	0.02
492.604	-0.03
492.802	-0.01
493	0.02
493.199	-0.03
493.397	-0.03
493.595	-0.01
493.794	0.01
493.992	0.03
494.19	0
494.388	0.01
494.587	-0.01
494.785	-0
494.983	-0.02
495.181	-0.02
495.379	-0.01
495.578	-0.02
495.776	0.01
495.974	-0.02
496.172	-0.01
496.37	-0.01
496.568	-0.05
496.766	-0.01
496.964	0.03
497.162	0.01
497.36	-0.03
497.558	0.02
497.756	0.01
497.954	-0.01
498.152	-0.02
498.35	-0.01
498.548	-0.01
498.746	-0.01
498.944	-0.03
499.142	-0.02
499.34	-0.05
499.538	0
499.736	-0
499.933	0.04
500.131	0.02
500.329	0
500.527	0.03
500.725	0.02
500.922	0.01
501.12	-0
501.318	0.01
501.516	-0.02
501.713	0.02
501.911	-0.02
502.109	-0.01
502.306	0.02
502.504	-0.02
502.701	-0.03
502.899	0.01
503.097	0.01
503.294	0.01
503.492	0
503.689	0.01
503.887	0.03
504.084	0.05
504.282	0.02
504.479	-0.03
504.677	0.02
504.874	-0.03
505.072	0.01
505.269	-0
505.466	0.02
505.664	0.03
505.861	-0.03
506.059	-0.06
506.256	0.03
506.453	0
506.651	0.02
506.848	0.04
507.045	0.01
507.242	0.02
507.44	0.02
507.637	-0.01
507.834	0
508.031	0.02
508.229	-0.03
508.426	0
508.623	0.02
508.82	0.01
509.017	-0.03
509.214	-0.01
509.411	0.01
509.608	-0.05
509.805	-0.01
510.003	0
510.2	-0.01
510.397	0.01
510.594	-0.03
510.791	-0.02
510.988	0.01
511.184	0.03
511.381	0
511.578	-0.02
511.775	0.01
511.972	-0.02
512.169	0.01
512.366	-0.01
512.563	0.01
512.76	-0.01
512.956	0.03
513.153	-0.02
513.35	0
513.547	-0.03
513.744	-0
513.94	-0.03
514.137	0.01
514.334	-0.01
514.53	0
514.727	0.02
514.924	0.06
515.12	-0.02
515.317	-0.03
515.514	-0.04
515.71	-0.03
515.907	-0.01
516.103	-0
516.3	-0
516.497	0.03
516.693	0.03
516.89	0.01
517.086	-0.03
517.283	0.04
517.479	0.01
517.676	0.01
517.872	-0.02
518.068	-0.02
518.265	0.01
518.461	-0
518.658	-0.01
518.854	0.01
519.05	-0.01
519.247	-0.02
519.443	0.02
519.639	0
519.836	0
520.032	0.01
520.228	-0
520.424	0.03
520.621	0.01
520.817	0
521.013	0.02
521.209	0
521.405	0.04
521.601	0.01
521.798	0
521.994	0.03
522.19	-0.01
522.386	-0.04
522.582	0
522.778	-0.02
522.974	-0.03
523.17	0.01
523.366	0
523.562	0.02
523.758	-0.02
523.954	-0.01
524.15	-0
524.346	0.02
524.542	-0
524.738	-0.02
524.934	-0
525.129	-0.01
525.325	-0
525.521	-0.02
525.717	0.03
525.913	0.01
526.109	0.03
526.304	-0.01
526.5	0.01
526.696	0.01
526.892	-0
527.087	0.01
527.283	-0.01
527.479	0
527.674	-0.01
527.87	-0.01
528.066	-0.01
528.261	0.02
528.457	0.01
528.653	-0
528.848	-0.01
529.044	0
529.239	-0
529.435	0.04
529.63	-0
529.826	0.04
530.021	0.03
530.217	0
530.412	0
530.608	-0
530.803	0.01
530.999	-0.02
531.194	-0.03
531.389	0.01
531.585	-0.05
531.78	-0.01
531.975	-0.01
532.171	0.02
532.366	0.01
532.561	-0.01
532.757	-0.02
532.952	0.01
533.147	0.02
533.342	-0.01
533.538	-0.02
533.733	0.03
533.928	0.01
534.123	-0.01
534.318	-0.03
534.513	-0
534.709	0.02
534.904	-0.01
535.099	-0.02
535.294	-0
535.489	-0
535.684	-0.01
535.879	-0.02
536.074	0.02
536.269	-0.01
536.464	0.02
536.659	-0.02
536.854	0.01
537.049	-0
537.244	0.02
537.439	-0.01
537.634	0
537.828	0.01
538.023	-0
538.218	-0.02
538.413	-0.01
538.608	-0.02
538.803	0.01
538.997	-0.04
539.192	0.03
539.387	-0
539.582	0
539.776	0.03
539.971	-0.02
540.166	-0.02
540.36	-0.03
540.555	-0.01
540.75	0.01
540.944	-0.01
541.139	-0.02
541.334	-0.01
541.528	0.01
541.723	0.02
541.917	-0.01
542.112	-0.04
542.306	0
542.501	-0.01
542.695	0.01
542.89	-0.02
543.084	-0.01
543.279	-0.01
543.473	0
543.668	-0
543.862	-0.01
544.056	0.02
544.251	0.01
544.445	0.01
544.64	-0
544.834	-0.03
545.028	0.02
545.222	0.02
545.417	0.03
545.611	0
545.805	-0.01
546	-0.01
546.194	0.02
546.388	-0.02
546.582	0.03
546.776	-0.02
546.97	-0.01
547.165	0.01
547.359	0.02
547.553	-0.01
547.747	0.01
547.941	0.01
548.135	0
548.329	0.03
548.523	0.02
548.717	-0.02
548.911	-0.01
549.105	0
549.299	-0.01
549.493	0.04
549.687	0.02
549.881	0.01
550.075	0.02
550.269	-0.02
550.463	0.03
550.657	0.01
550.85	-0
551.044	-0.02
551.238	0.02
551.432	-0.02
551.626	-0.02
551.82	0.01
552.013	0.01
552.207	0
552.401	0.02
552.594	0.02
552.788	0.01
552.982	0.01
553.176	-0.01
553.369	0.01
553.563	0.03
553.756	-0.05
553.95	-0.02
554.144	0
554.337	0.04
554.531	0.01
554.724	-0.01
554.918	0
555.111	0.02
555.305	0.01
555.498	0.04
555.692	0.04
555.885	-0.02
556.079	-0.01
556.272	0
556.466	0.03
556.659	-0.01
556.852	-0.01
557.046	-0.02
557.239	0.01
557.432	-0.02
557.626	-0.02
557.819	0.03
558.012	0.02
558.206	0.01
558.399	-0
558.592	0.01
558.785	-0
558.979	0.03
559.172	0.03
559.365	0.01
559.558	0.01
559.751	0.01
559.944	0.01
560.138	-0.03
560.331	-0
560.524	0
560.717	-0.01
560.91	0.01
561.103	0.03
561.296	0.01
561.489	0.01
561.682	-0.01
561.875	0.04
562.068	0.03
562.261	0
562.454	0.02
562.647	0.01
562.84	0.01
563.032	-0.01
563.225	0.02
563.418	-0.02
563.611	-0.02
563.804	-0.01
563.997	0.01
564.19	-0.03
564.382	0.02
564.575	0.01
564.768	0.03
564.961	-0.01
565.153	-0.01
565.346	0.03
565.539	0.03
565.731	0.03
565.924	0.02
566.117	0.03
566.309	0.02
566.502	-0.02
566.695	0
566.887	0.02
567.08	-0.01
567.272	0
567.465	0.01
567.657	0.01
567.85	0.03
568.042	0.03
568.235	0.04
568.427	0.03
568.62	0.02
568.812	0.03
569.005	0
569.197	-0
569.389	0.02
569.582	0.02
569.774	0.02
569.966	-0.02
570.159	-0.03
570.351	0.06
570.543	-0
570.736	0.01
570.928	-0
571.12	0.01
571.312	-0.01
571.505	-0.01
571.697	0.04
571.889	-0.03
572.081	0
572.273	-0.03
572.465	0.03
572.658	0
572.85	0.02
573.042	0.01
573.234	0
573.426	0.04
573.618	0.01
573.81	0.02
574.002	0.06
574.194	0.04
574.386	-0.02
574.578	-0.04
574.77	0.01
574.962	0.02
575.154	0.01
575.346	0.02
575.538	0.02
575.729	0
575.921	-0.01
576.113	-0
576.305	0.05
576.497	0
576.689	0.01
576.88	-0.02
577.072	0.05
577.264	0.02
577.456	0
577.647	-0.02
577.839	0.02
578.031	0.06
578.223	0.01
578.414	0.01
578.606	0.04
578.798	0.04
578.989	0.01
579.181	0.01
579.372	0.04
579.564	0.03
579.755	0.04
579.947	0.03
580.139	0.05
580.33	-0.02
580.522	0
580.713	-0.01
580.905	0.02
581.096	0.06
581.287	0.05
581.479	0.03
581.67	0.07
581.862	0.05
582.053	0.02
582.244	0.01
582.436	0.03
582.627	0.08
582.818	0.03
583.01	0.01
583.201	0.07
583.392	0.07
583.583	0.1
583.775	0.04
583.966	0.04
584.157	0.06
584.348	0.05
584.54	0.03
584.731	0.06
584.922	0.06
585.113	0.04
585.304	0.05
585.495	0.09
585.686	0.08
585.877	0.08
586.068	0.06
586.259	0.06
586.45	0.06
586.641	0.04
586.832	0.03
587.023	0.09
587.214	0.09
587.405	0.08
587.596	0.07
587.787	0.13
587.978	0.13
588.169	0.09
588.36	0.08
588.551	0.11
588.742	0.1
588.932	0.14
589.123	0.09
589.314	0.14
589.505	0.1
589.696	0.13
589.886	0.08
590.077	0.09
590.268	0.14
590.458	0.07
590.649	0.1
590.84	0.19
591.03	0.1
591.221	0.1
591.412	0.08
591.602	0.14
591.793	0.17
591.984	0.12
592.174	0.15
592.365	0.22
592.555	0.13
592.746	0.17
592.936	0.18
593.127	0.18
593.317	0.22
593.508	0.17
593.698	0.18
593.889	0.2
594.079	0.19
594.269	0.16
594.46	0.18
594.65	0.2
594.84	0.2
595.031	0.17
595.221	0.18
595.411	0.15
595.602	0.24
595.792	0.22
595.982	0.2
596.172	0.28
596.363	0.21
596.553	0.23
596.743	0.24
596.933	0.23
597.123	0.28
597.314	0.26
597.504	0.21
597.694	0.3
597.884	0.26
598.074	0.25
598.264	0.26
598.454	0.31
598.644	0.3
598.834	0.33
599.024	0.24
599.214	0.27
599.404	0.34
599.594	0.32
599.784	0.3
599.974	0.39
600.164	0.35
600.354	0.31
600.544	0.32
600.734	0.37
600.924	0.43
601.114	0.34
601.303	0.39
601.493	0.41
601.683	0.38
601.873	0.41
602.063	0.34
602.252	0.45
602.442	0.39
602.632	0.4
602.821	0.42
603.011	0.48
603.201	0.47
603.39	0.44
603.58	0.47
603.77	0.51
603.959	0.53
604.149	0.5
604.339	0.48
604.528	0.55
604.718	0.57
604.907	0.56
605.097	0.58
605.286	0.55
605.476	0.58
605.665	0.61
605.855	0.56
606.044	0.68
606.234	0.63
606.423	0.62
606.612	0.65
606.802	0.65
606.991	0.67
607.181	0.72
607.37	0.7
607.559	0.72
607.749	0.72
607.938	0.74
608.127	0.76
608.316	0.79
608.506	0.81
608.695	0.86
608.884	0.84
609.073	0.9
609.263	0.92
609.452	0.94
609.641	0.93
609.83	0.89
610.019	0.98
610.208	0.92
610.397	1.02
610.586	1.05
610.775	1.03
610.965	1.05
611.154	1.07
611.343	1.15
611.532	1.11
611.721	1.17
611.91	1.2
612.099	1.21
612.287	1.23
612.476	1.22
612.665	1.38
612.854	1.3
613.043	1.35
613.232	1.37
613.421	1.38
613.61	1.48
613.798	1.44
613.987	1.54
614.176	1.57
614.365	1.61
614.554	1.61
614.742	1.73
614.931	1.64
615.12	1.76
615.309	1.75
615.497	1.82
615.686	1.79
615.875	1.86
616.063	1.87
616.252	1.91
616.44	1.92
616.629	1.97
616.818	2.04
617.006	2.06
617.195	2.1
617.383	2.14
617.572	2.15
617.76	2.24
617.949	2.29
618.137	2.3
618.326	2.37
618.514	2.34
618.703	2.31
618.891	2.49
619.079	2.47
619.268	2.58
619.456	2.51
619.644	2.62
619.833	2.62
620.021	2.66
620.209	2.57
620.398	2.7
620.586	2.7
620.774	2.8
620.962	2.81
621.151	2.92
621.339	2.86
621.527	2.87
621.715	2.89
621.903	2.89
622.092	2.9
622.28	3.01
622.468	2.9
622.656	3.01
622.844	2.93
623.032	3.01
623.22	2.98
623.408	3.1
623.596	3.02
623.784	3.11
623.972	2.98
624.16	3.04
624.348	3.02
624.536	3.09
624.724	2.94
624.912	3.05
625.1	2.97
625.288	2.97
625.476	2.9
625.664	2.9
625.851	2.84
626.039	2.86
626.227	2.75
626.415	2.69
626.603	2.59
626.79	2.56
626.978	2.54
627.166	2.54
627.354	2.43
627.541	2.33
627.729	2.25
627.917	2.35
628.104	2.29
628.292	2.14
628.48	2.1
628.667	2.03
628.855	2.03
629.042	1.94
629.23	1.85
629.418	1.77
629.605	1.74
629.793	1.64
629.98	1.58
630.168	1.51
630.355	1.46
630.543	1.41
630.73	1.34
630.917	1.32
631.105	1.37
631.292	1.25
631.48	1.12
631.667	1.2
631.854	1.1
632.042	1.07
632.229	0.96
632.416	1
632.604	0.94
632.791	0.84
632.978	0.91
633.165	0.84
633.353	0.86
633.54	0.81
633.727	0.7
633.914	0.69
634.101	0.62
634.289	0.73
634.476	0.62
634.663	0.61
634.85	0.58
635.037	0.5
635.224	0.48
635.411	0.58
635.598	0.54
635.785	0.48
635.972	0.48
636.159	0.5
636.346	0.38
636.533	0.43
636.72	0.41
636.907	0.41
637.094	0.39
637.281	0.34
637.468	0.35
637.655	0.36
637.842	0.31
638.029	0.32
638.215	0.35
638.402	0.29
638.589	0.24
638.776	0.26
638.963	0.23
639.149	0.31
639.336	0.31
639.523	0.27
639.709	0.23
639.896	0.25
640.083	0.25
640.27	0.23
640.456	0.17
640.643	0.21
640.829	0.16
641.016	0.15
641.203	0.17
641.389	0.18
641.576	0.19
641.762	0.14
641.949	0.11
642.135	0.16
642.322	0.17
642.508	0.1
642.695	0.17
642.881	0.08
643.068	0.14
643.254	0.13
643.441	0.18
643.627	0.12
643.813	0.09
644	0.14
644.186	0.09
644.372	0.15
644.559	0.12
644.745	0.12
644.931	0.09
645.118	0.11
645.304	0.09
645.49	0.07
645.676	0.06
645.862	0.09
646.049	0.14
646.235	0.09
646.421	0.12
646.607	0.11
646.793	0.07
646.979	0.04
647.165	0.08
647.352	0.07
647.538	0.11
647.724	0.09
647.91	0.08
648.096	0.05
648.282	0.09
648.468	0.03
648.654	0.07
648.84	0.07
649.026	0.06
649.212	0.04
649.397	0.02
649.583	0
649.769	0.06
649.955	0.03
650.141	0.04
650.327	0.09
650.513	0.02
650.698	0.07
650.884	-0.03
651.07	0.05
651.256	0.04
651.442	0.02
651.627	0.03
651.813	0.06
651.999	0.05
652.184	0.04
652.37	0.02
652.556	-0
652.741	0.1
652.927	-0.05
653.113	0.01
653.298	0.04
653.484	0.02
653.669	-0.04
653.855	0.03
654.04	0.04
654.226	0.03
654.412	-0
654.597	0
654.782	0.04
654.968	0.05
655.153	0.03
655.339	0
655.524	-0.01
655.71	0.02
655.895	0.03
656.08	-0
656.266	0.08
656.451	0.04
656.636	-0.03
656.822	0.02
657.007	0
657.192	-0.01
657.378	-0.05
657.563	0.03
657.748	0.04
657.933	0.01
658.118	-0.01
658.304	-0.01
658.489	0.02
658.674	0.02
658.859	-0.05
659.044	0.02
659.229	0
659.414	-0.03
659.599	-0.01
659.785	-0.05
659.97	-0.01
660.155	0.02
660.34	0.03
660.525	0.01
660.71	-0.02
660.895	0.06
661.08	0
661.264	-0.05
661.449	0.05
661.634	0.02
661.819	0.04
662.004	0.02
662.189	-0.06
662.374	0.01
662.559	-0.03
662.743	-0.07
662.928	0
663.113	-0.02
663.298	-0.05
663.483	0.01
663.667	0.01
663.852	-0.01
664.037	0.05
664.221	-0.01
664.406	0.06
664.591	0.02
664.775	0.02
664.96	0.01
665.145	0.03
665.329	-0
665.514	-0.02
665.698	-0.02
665.883	-0.05
666.068	0.08
666.252	0.02
666.437	-0.03
666.621	-0.03
666.806	0.03
666.99	0.03
667.174	-0
667.359	0.05
667.543	-0
667.728	-0
667.912	-0.04
668.096	0.03
668.281	-0.05
668.465	-0.03
668.649	0.03
668.834	-0.02
669.018	-0.01
669.202	0.01
669.387	-0.02
669.571	0.04
669.755	-0.04
669.939	-0.03
670.124	0.01
670.308	0.07
670.492	0.05
670.676	0.02
670.86	-0.03
671.044	-0.04
671.228	0.05
671.413	-0.04
671.597	-0.03
671.781	-0.03
671.965	0.03
672.149	-0.01
672.333	-0.01
672.517	-0.06
672.701	0.03
672.885	-0.02
673.069	-0.04
673.253	0.07
673.437	0
673.621	-0.04
673.804	-0
673.988	0.02
674.172	-0
674.356	-0.07
674.54	-0
674.724	0.08
674.908	0
675.091	0.04
675.275	0.03
675.459	0.04
675.643	0
675.826	0.03
676.01	-0.01
676.194	-0.01
676.377	0.04
676.561	0.04
676.745	0
676.928	0.03
677.112	0.03
677.296	-0.02
677.479	-0.05
677.663	0.01
677.846	0
678.03	-0.03
678.213	-0.01
678.397	0.04
678.58	-0.02
678.764	-0.01
678.947	-0.02
679.131	-0.04
679.314	0.04
679.498	0.01
679.681	0.01
679.865	0.05
680.048	0.02
680.231	0
680.415	-0.01
680.598	0.03
680.781	-0.03
680.965	-0.04
681.148	0.01
681.331	-0.02
681.514	0
681.698	-0.02
681.881	0.01
682.064	-0.01
682.247	0.03
682.43	-0.02
682.614	0.07
682.797	0.06
682.98	0.05
683.163	-0.06
683.346	-0
683.529	-0.05
683.712	-0.02
683.895	0.01
684.078	-0.03
684.261	-0.01
684.444	0.02
684.627	0
684.81	-0.05
684.993	-0.02
685.176	0.01
685.359	-0.08
685.542	-0
685.725	-0
685.908	-0.03
686.091	-0.03
686.274	0.06
686.457	0.04
686.639	0.03
686.822	-0.01
687.005	-0.01
687.188	0.05
687.371	0.09
687.553	0.06
687.736	-0.01
687.919	0.06
688.102	0.04
688.284	-0.01
688.467	0.02
688.65	-0
688.832	-0.02
689.015	-0
689.197	-0.04
689.38	0.11
689.563	0.08
689.745	-0.02
689.928	-0.04
690.11	0.01
690.293	0.01
690.475	-0.09
690.658	0.03
690.84	0.02
691.023	0.01
691.205	-0.01
691.388	0
691.57	0.07
691.752	-0
691.935	-0.06
692.117	-0
692.3	-0.04
692.482	-0
692.664	0.05
692.847	-0.02
693.029	0.04
693.211	0.02
693.393	-0
693.576	-0.05
693.758	-0.03
693.94	0.02
694.122	-0.07
694.304	-0.04
694.487	-0.04
694.669	0.09
694.851	-0.04
695.033	0
695.215	-0.05
695.397	-0.03
695.579	0.04
695.761	-0.01
695.943	-0.11
696.125	0.05
696.308	-0
696.49	-0.08
696.671	0.07
696.853	-0.01
697.035	0.15
697.217	-0.03
697.399	0.01
697.581	-0.06
697.763	0.03
697.945	-0.04
698.127	-0.06
698.309	0.02
698.491	0
698.672	-0.02
698.854	0.1
699.036	0.04
699.218	-0.04
699.399	0.05
699.581	0.07
699.763	-0.02
699.945	-0
700.126	-0.02
700.308	-0.01
700.49	0
700.671	-0.07
700.853	-0.08
701.035	-0.07
701.216	-0.04
701.398	-0.05
701.579	0.01
701.761	0.07
701.943	0.01
702.124	-0.12
702.306	-0.05
702.487	0.09
702.669	0.06
702.85	-0.09
703.031	-0.06
703.213	0.1
703.394	0.03
703.576	-0.04
703.757	0.09
703.938	0.04
704.12	0.12
704.301	-0.03
704.483	-0.05
704.664	0
704.845	0.09
705.026	0.01
705.208	0.03
705.389	-0.04
705.57	-0.06
705.751	-0.01
705.933	0.01
706.114	0.03
706.295	-0.04
706.476	-0.02
706.657	0.08
706.838	0.03
707.02	0.08
707.201	-0.03
707.382	-0
707.563	0.04
707.744	-0.03
707.925	-0.05
708.106	-0.12
708.287	-0.03
708.468	0.11
708.649	-0.05
708.83	0.01
709.011	0.01
709.192	0.05
709.373	-0.08
709.554	-0.01
709.734	0.08
709.915	0.07
710.096	-0.04
710.277	-0.11
710.458	0.02
710.639	0.06
710.819	-0.09
711	0.02
711.181	0.1
711.362	0.05
711.542	0.04
711.723	0.05
711.904	0.08
712.085	0.03
712.265	0.06
712.446	-0.04
712.627	-0
712.807	0.03
712.988	0.04
713.168	-0.08
713.349	-0.01
713.53	-0.11
713.71	-0.07
713.891	-0.03
714.071	-0
714.252	-0.05
714.432	-0.05
714.613	-0.06
714.793	0.05
714.974	0.15
715.154	0.13
715.334	-0.02
715.515	0.1
715.695	-0.09
715.876	0
716.056	-0.02
716.236	-0.05
716.417	0.03
716.597	-0.05
716.777	0.17
716.957	-0.02
717.138	-0
717.318	0
717.498	-0.14
717.678	-0.02
717.859	-0.01
718.039	-0.07
718.219	0.04
718.399	0
718.579	0.01
718.759	-0.06
718.939	0.01
719.12	-0.06
719.3	-0.02
719.48	-0.13
719.66	-0.07
719.84	-0.03
720.02	0.01
720.2	-0.02
720.38	0.02
720.56	0.06
720.74	-0.03
720.92	-0.01
721.1	-0.03
721.279	0.08
721.459	0.02
721.639	-0.09
721.819	-0.02
721.999	-0.01
722.179	0.04
722.359	-0.01
722.538	-0.03
722.718	0.01
722.898	-0.07
723.078	-0.04
723.257	-0.07
723.437	0.06
723.617	-0.01
723.797	0.02
723.976	0.06
724.156	0.04
724.336	0.1
724.515	0.13
724.695	-0.11
724.874	-0
725.054	0.03
725.234	-0.07
725.413	0.08
725.593	0.07
725.772	-0.04
725.952	-0.05
726.131	-0.08
726.311	0.05
726.49	0.01
726.67	-0.02
726.849	-0.07
727.028	-0.06
727.208	-0.07
727.387	0.05
727.567	-0.11
727.746	-0.01
727.925	-0.02
728.105	-0.08
728.284	-0.07
728.463	-0.07
728.643	0.04
728.822	-0.09
729.001	-0.06
729.18	0.09
729.359	0.04
729.539	0.03
729.718	-0.01
729.897	0.08
730.076	0.01
730.255	-0.09
730.434	0.02
730.614	0.02
730.793	0.05
730.972	0.01
731.151	-0.08
731.33	0.13
731.509	-0
731.688	0.03
731.867	-0.02
732.046	-0.12
732.225	0.1
732.404	-0.07
732.583	-0.05
732.762	0.03
732.941	0.02
733.12	0.01
733.298	0.04
733.477	-0.01
733.656	0.01
733.835	0.05
734.014	0.07
734.193	-0.03
734.371	0.04
734.55	-0.01
734.729	-0.19
734.908	0.05
735.086	0.02
735.265	0.02
735.444	-0.12
735.623	-0.05
735.801	-0.13
735.98	-0.06
736.159	-0.1
736.337	0.14
736.516	0.05
736.694	0.06
736.873	-0.07
737.052	0.15
737.23	-0.01
737.409	-0.13
737.587	0.22
737.766	-0.21
737.944	-0.18
738.123	-0.05
738.301	0.12
738.479	-0.11
738.658	-0.02
738.836	-0.23
739.015	0.02
739.193	0.04
739.371	-0.11
739.55	0.01
739.728	-0.15
739.906	0.12
740.085	0.14
740.263	-0.03
740.441	-0.21
740.62	0.2
740.798	0.14
740.976	0.03
741.154	-0.09
741.332	0.17
741.511	-0.01
741.689	0.09
741.867	0.09
742.045	0.01
742.223	0.01
742.401	-0.09
742.579	-0.02
742.757	0.06
742.935	-0.1
743.114	-0.08
743.292	-0.01
743.47	-0.03
743.648	-0.01
743.826	-0.14
744.004	0.1
744.181	0.02
744.359	0.05
744.537	-0.06
744.715	0.06
744.893	0.01
745.071	-0.01
745.249	-0.04
745.427	0
745.605	0.09
745.782	-0.04
745.96	0.08
746.138	-0.01
746.316	0.09
746.493	-0.1
746.671	-0.04
746.849	-0.07
747.027	0.14
747.204	-0.11
747.382	0.11
747.56	-0.1
747.737	-0.11
747.915	-0.11
748.093	0.03
748.27	-0.14
748.448	-0.07
748.625	-0.06
748.803	-0.04
748.98	-0.05
749.158	0.05
749.335	0.11
749.513	-0.01
749.69	-0.04
749.868	-0.06
750.045	0.05
750.223	-0.06
750.4	-0.21
750.578	0.12
750.755	0.03
750.932	-0.07
751.11	0.03
751.287	-0.09
751.464	0.17
751.642	-0.14
751.819	-0.02
751.996	-0.01
752.173	-0.06
752.351	-0.22
752.528	0
752.705	0.01
752.882	-0.05
753.06	-0.02
753.237	0.13
753.414	0.14
753.591	0.19
753.768	0.04
753.945	-0.11
754.122	-0.06
754.299	0.02
754.476	-0.06
754.654	0.04
754.831	0.12
755.008	-0.04
755.185	-0.03
755.362	-0.04
755.539	-0.03
755.716	-0.15
755.892	-0.02
756.069	0.01
756.246	-0.04
756.423	-0.04
756.6	0.08
756.777	-0.05
756.954	0.1
757.131	-0.03
757.307	-0.17
757.484	-0.18
757.661	-0.02
757.838	-0.04
758.015	-0.09
758.191	-0.04
758.368	0.1
758.545	0.13
758.721	0.03
758.898	0.03
759.075	0.06
759.251	0.06
759.428	-0.02
759.605	-0.14
759.781	-0.03
759.958	0.02
760.134	0.08
760.311	-0
760.488	0.14
760.664	0.11
760.841	0
761.017	-0.09
761.194	0.04
761.37	0.16
761.547	-0.03
761.723	0.01
761.899	0.18
762.076	-0.03
762.252	-0.07
762.429	-0.04
762.605	0.04
762.781	-0.02
762.958	0.09
763.134	-0.03
763.31	0.03
763.486	0.04
763.663	-0.11
763.839	0.01
764.015	-0.19
764.191	-0.16
764.368	-0.04
764.544	-0.05
764.72	0.03
764.896	0.04
765.072	0.02
765.248	0.09
765.425	-0.03
765.601	0.07
765.777	-0.03
765.953	-0.35
766.129	-0.04
766.305	-0.17
766.481	0.1
766.657	0.05
766.833	0.21
767.009	-0.19
767.185	-0.08
767.361	-0.01
767.537	-0.18
767.713	-0.04
767.889	-0.1
768.065	0.1
768.24	-0.04
768.416	0.06
768.592	-0
768.768	-0
768.944	0.08
769.12	0.02
769.295	-0.05
769.471	-0.13
769.647	0.04
769.823	0.18
769.998	-0.07
770.174	-0.08
770.35	0.37
770.525	0.29
770.701	0.01
770.877	-0.11
771.052	0.01
771.228	0.04
771.403	-0.09
771.579	0.12
771.755	0.22
771.93	-0.16
772.106	-0.16
772.281	-0.27
772.457	0.07
772.632	0.08
772.808	-0.15
772.983	0.02
773.159	-0.15
773.334	0.18
773.509	-0.03
773.685	-0.02
773.86	0.37
774.036	0.11
774.211	0.05
774.386	-0.02
774.562	-0.04
774.737	0.24
774.912	0.03
775.087	0.12
775.263	0.08
775.438	-0.11
775.613	0.02
775.788	-0.06
775.964	0.11
776.139	0.32
776.314	-0.16
776.489	-0.01
776.664	0.2
776.839	-0.04
777.014	0
777.19	0
777.365	0.02
777.54	0.3
777.715	0.01
777.89	0
778.065	-0.13
778.24	0.11
778.415	0.14
778.59	-0.31
778.765	-0.16
778.94	0.01
779.115	-0.01
779.289	-0.15
779.464	0.1
779.639	0.05
779.814	-0.27
779.989	-0.22
780.164	0.18
780.339	0.08
780.513	-0.09
780.688	-0.19
780.863	-0.05
781.038	0.09
781.212	-0.13
781.387	-0.06
781.562	0.22
781.737	-0.02
781.911	0.11
782.086	-0.03
782.261	-0.11
782.435	0.27
782.61	-0.18
782.784	-0.05
782.959	0.08
783.134	-0.15
783.308	-0.25
783.483	0.03
783.657	0.4
783.832	0.16
784.006	-0.3
784.181	0.1
784.355	0.1
784.53	-0.34
784.704	-0.12
784.878	0.26
785.053	0.23
785.227	0.04
785.402	0.33
785.576	-0.39
785.75	0.13
785.925	-0.05
786.099	0.04
786.273	0.11
786.448	0.3
786.622	0.14
786.796	-0.23
786.97	-0
787.145	0.38
787.319	-0.5
787.493	-0.13
787.667	-0.26
787.841	0.08
788.015	0.32
788.19	-0.01
788.364	0.12
788.538	0.4
788.712	0.11
788.886	-0.15
789.06	0.23
789.234	0.09
789.408	-0.1
789.582	0.04
789.756	-0.1
789.93	-0.28
790.104	0.08
790.278	-0.18
790.452	-0.19
790.626	0.05
790.8	-0.25
790.973	0.23
791.147	0.32
791.321	0.18
791.495	0.22
791.669	0.08
791.843	0.17
792.016	0.02
792.19	0.45
792.364	-0.18
792.538	0.46
792.711	0.31
792.885	-0.29
793.059	-0.35
793.233	-0.63
793.406	0.24
793.58	0.09
793.754	0.06
793.927	-0.01
794.101	0.28
794.274	-0.03
794.448	0.34
794.622	-0.3
794.795	0.36
794.969	-0.01
795.142	0.32
795.316	0.03
795.489	-0.07
795.663	0.37
795.836	0.03
796.009	-0.05
796.183	0.3
796.356	0.18
796.53	0.11
796.703	-0.11
796.876	0.39
797.05	0.02
797.223	0.02
797.396	0.27
797.57	0.05
797.743	0.31
797.916	0.04
798.09	-0.1
798.263	0.15
798.436	-0.08
798.609	-0.25
798.782	-0.07
798.956	0
799.129	-0.07
799.302	0.06
799.475	-0.15
799.648	-0.09
799.821	-0.17
799.994	-0.04
800.167	-0.2
800.34	-0.07
800.514	-0.12
800.687	-0.21
800.86	-0.06
801.033	0.06
801.206	0.21
801.379	-0.17
801.551	0.25
801.724	0.25
801.897	0.27
802.07	0.16
802.243	-0.16
802.416	-0.12
802.589	0.11
802.762	0.13
802.935	0.32
803.107	-0.01
803.28	0.36
803.453	0.08
803.626	-0.24
803.798	-0.36
803.971	-0.12
804.144	0.17
804.317	0.18
804.489	0.21
804.662	-0.04
804.835	0.05
805.007	-0.31
805.18	0.19
805.353	0.13
805.525	-0.3
805.698	-0.26
805.87	0.28
806.043	0.51
806.215	-0.32
806.388	-0.01
806.56	0.47
806.733	0.36
806.905	-0.11
807.078	-0.05
807.25	-0.37
807.423	0.16
807.595	0.14
807.768	0.09
807.94	0.39
808.112	0.19
808.285	0.31
808.457	-0.39
808.629	-0.12
808.802	0.14
808.974	0.05
809.146	-0.24
809.318	-0.42
809.491	-0.08
809.663	0.36
809.835	-0.27
810.007	0.01
810.18	-0.06
810.352	-0.73
810.524	0.09
810.696	0.14
810.868	0.83
811.04	-0.06
811.212	-0.21
811.384	0.21
811.556	0.04
811.728	0.03
811.901	0.39
812.073	0.18
812.245	0.6
812.417	-0.03
812.589	-0.82
812.76	0.2
812.932	-0.29
813.104	0.44
813.276	0.02
813.448	0.37
813.62	0.04
813.792	0.33
813.964	0.03
814.136	0.22
814.307	-0.09
814.479	-0.32
814.651	0.14
814.823	0.71
814.995	0.22
815.166	0.21
815.338	-0.07
815.51	-0.41
815.681	1.22
815.853	0.22
816.025	-0.17
816.196	0.68
816.368	0.32
816.54	-0.41
816.711	-0.12
816.883	-0.14
817.054	0.85
817.226	-0.47
817.398	-0.08
817.569	-0.41
817.741	-0.09
817.912	-0.09
818.084	-0.17
818.255	0.47
818.426	-0.11
818.598	0.07
818.769	-0.34
818.941	0.33
819.112	0.3
819.283	0.29
819.455	-0.62
819.626	0.02
819.798	0.18
819.969	0.36
820.14	-0.26
820.311	-0.53
820.483	0.42
820.654	0.08
820.825	-0.19
820.996	-0.4
821.168	-0.1
821.339	0.2
821.51	-0.12
821.681	0.13
821.852	-0.09
822.023	-0.15
822.195	-0.35
822.366	0.79
822.537	0.43
822.708	-0.06
822.879	-0.28
823.05	0.66
823.221	-0.28
823.392	0.58
823.563	-0.03
823.734	0.12
823.905	0.09
824.076	0.2
824.247	-0.16
824.418	-0.36
824.589	0.69
824.759	-0.31
824.93	0.44
825.101	-0.31
825.272	0.11
825.443	0.5
825.614	0.35
825.784	-1.41
825.955	1.21
826.126	0.6
826.297	0.39
826.467	0.77
826.638	1.42
826.809	-1.25
826.98	0.03
827.15	0.56
827.321	0.14
827.492	0.87
827.662	0.28
827.833	1.16
828.003	0.2
828.174	-0.26
828.345	-0.7
828.515	0.59
828.686	0.22
828.856	-0.52
829.027	0.22
829.197	0.4
829.368	0.26
829.538	-0.42
829.709	0.04
829.879	0.1
830.049	0.06
830.22	0.37
830.39	0.43
830.56	0.44
830.731	-0.39
830.901	-0.96
831.072	0.1
831.242	-0.04
831.412	0.09
831.582	0.36
831.753	-0.8
831.923	0.44
832.093	-0.12
832.263	0.8
832.434	-0.63
832.604	-0.05
832.774	0.58
832.944	0.03
833.114	-0.1
833.284	0.5
833.454	-0.68
833.624	-0.28
833.795	-0.13
833.965	1.05
834.135	0.14
834.305	-0.84
834.475	-0.5
834.645	0.31
834.815	-0.56
834.985	-0.45
835.155	-0.29
835.325	0.73
835.494	0.08
835.664	0.16
835.834	-0.67
836.004	1.06
836.174	0.06
836.344	0.04
836.514	-0.68
836.684	0.19
836.853	0.13
837.023	-0.2
837.193	0.14
837.363	0.64
837.532	-0.17
837.702	0.09
837.872	-0.59
838.041	1.17
838.211	1.14
838.381	-0.91
838.55	0.55
838.72	0.93
838.89	0.82
839.059	0.05
839.229	0.04
839.398	1.28
839.568	0.74
839.738	-0.11
839.907	0.59
840.077	0.02
840.246	-0.65
840.416	-0.43
840.585	-0.04
840.755	1
840.924	0.77
841.093	-0.83
841.263	-0.48
841.432	-0.26
841.602	-0.87
841.771	-1.03
841.94	-0.91
842.11	1.77
842.279	0.92
842.448	-0.58
842.617	-0.8
842.787	0.77
842.956	-0.79
843.125	-0.36
843.294	0.59
843.464	1.41
843.633	0.6
843.802	-0.66
843.971	0.15
844.14	1.13
844.309	1.14
844.479	-0.8
844.648	-0.26
844.817	0.06
844.986	0.48
845.155	-0.13
845.324	0.17
845.493	0.04
845.662	-0.88
845.831	0.14
846	0.33
846.169	-0.05
846.338	1.26
846.507	-0.04
846.676	0.2
846.844	-0.45
847.013	-0.69
847.182	0.27
847.351	-0.09
847.52	-0.32
847.689	0.03
847.858	0.13
848.026	-0.74
848.195	-0.03
848.364	-0.33
848.533	-1.15
848.701	-0.39
848.87	-0.5
849.039	0.37
849.207	1.59
849.376	0.66
849.545	1.16
849.713	-0.24
849.882	-0.34
850.051	0.53
850.219	0.77
850.388	0.55
850.556	-0.09
850.725	-1.8
850.893	-0.57
851.062	0.4
851.23	0.93
851.399	-0.73
851.567	-0.88
851.736	-0.22
851.904	-0.45
852.073	1.3
852.241	1.4
852.41	0.99
852.578	-0.4
852.746	-1.19
852.915	0.74
853.083	0.48
853.251	-0.73
853.42	-0.29
853.588	0.55
853.756	1.28
853.924	0.05
854.093	-0.07
854.261	-0.58
854.429	-1.29
854.597	-0.23
854.765	-1.16
854.934	0.77
855.102	1.67
855.27	-0.17
855.438	0.93
855.606	0.61
855.774	1.1
855.942	-2.15
856.11	-1.68
856.278	0.1
856.446	0.79
856.614	0.82
856.782	0.78
856.95	1.07
857.118	0.25
857.286	-0.04
857.454	-0.74
857.622	-0.47
857.79	-0.21
857.958	-1.17
858.126	0.18
858.294	-1.89
858.462	-0.21
858.629	0.2
858.797	-0.89
858.965	-0.36
859.133	0.32
859.301	-0.87
859.468	0.73
859.636	-0.77
859.804	1.29
859.971	0.87
860.139	-0.7
860.307	1.88
860.474	0.2
860.642	-0.25
860.81	-1.09
860.977	-1.38
861.145	1.52
861.313	-0.45
861.48	-0.19
861.648	0.62
861.815	0.66
861.983	-0.6
862.15	-0.22
862.318	-0.49
862.485	2.32
862.653	-0.11
862.82	-0.43
862.988	1.52
863.155	-0.3
863.322	-0.62
863.49	-0.57
863.657	-0.36
863.824	1.11
863.992	0.89
864.159	1.2
864.326	-0.21
864.494	-0.5
864.661	2.07
864.828	-0.69
864.996	-0.09
865.163	2.22
865.33	-0.42
865.497	-2.02
865.664	0.14
865.832	-0.8
865.999	1.32
866.166	-0.69
866.333	-1.57
866.5	-0.49
866.667	1.07
866.834	-0.31
867.001	1.13
867.168	-1.27
867.335	1.65
867.502	-0.58
867.669	-0.76
867.836	2.26
868.003	0.35
868.17	0.4
868.337	2.04
868.504	1.02
868.671	-1.82
868.838	-0.01
869.005	0.98
869.172	0.54
869.339	-0.76
869.505	-0.26
869.672	-0.42
869.839	0.09
870.006	-0.32
870.173	-2.54
870.339	1.6
870.506	1.56
870.673	-0.54
870.84	-0.24
871.006	1.17
871.173	0.55
871.34	0.76
871.506	-1.98
871.673	-0.41
871.839	-2.1
872.006	0.84
872.173	-0.47
872.339	-0.62
872.506	0.9
872.672	-0.34
872.839	-0.36
873.005	0.36
873.172	2.06
873.338	1.48
873.505	1.3
873.671	2.11
873.838	1.03
874.004	-2.46
874.171	-0.5
874.337	1
874.503	-0.57
874.67	-0.37
874.836	-1.61
875.002	2.02
875.169	0.98
875.335	1.07
875.501	0.1
875.668	3.46
875.834	0.61
876	0.51
876.166	0.65
876.332	-0.29
876.499	3.57
876.665	-1.4
876.831	-0.45
876.997	4.57
877.163	1.35
877.329	-0.63
877.495	2
877.662	-0.23
877.828	-0.32
877.994	0.77
878.16	-2.28
878.326	-1.19
878.492	-1.3
878.658	-1.42
878.824	-0.82
878.99	1.87
879.156	-1.14
879.322	2.83
879.487	-0.06
879.653	-0.29
879.819	1.48
879.985	-0.29
880.151	1.54
880.317	1.26
880.483	-0.08
880.648	0.14
880.814	-2.19
880.98	0.59
881.146	-1.73
881.312	-1.47
881.477	-1.15
881.643	0.14
881.809	2.08
881.974	1.82
882.14	-2.11
882.306	-0.59
882.471	4.21
882.637	-0.85
882.803	1.47
882.968	4.07
883.134	3.21
883.299	0.1
883.465	1.56
883.63	0.55
883.796	1.15
883.961	0.93
884.127	1.39
884.292	-3.92
884.458	-1.36
884.623	-1.35
