Data from Apollo_Calib_20240827__AbsoluteIrradiance__540__08-09-02-730.txt Node

Date: Wed Aug 28 08:09:02 BST 2024
User: biology
Spectrometer: FLMT08252
Trigger mode: 0
Integration Time (sec): 5.000000E-1
Scans to average: 5
Electric dark correction enabled: true
Nonlinearity correction enabled: false
Boxcar width: 0
XAxis mode: Wavelengths
Number of Pixels in Spectrum: 3648
>>>>>Begin Spectral Data<<<<<
179.588	-0
179.809	-0
180.03	-0
180.251	-0
180.473	-0
180.694	0
180.915	0
181.136	-0
181.357	0
181.578	0
181.799	-0
182.02	-0
182.241	0
182.462	-0
182.683	0
182.904	0
183.125	-0
183.346	0
183.567	0
183.788	-0
184.009	-0
184.23	0
184.451	-0
184.672	-0
184.892	-0
185.113	0
185.334	0
185.555	-0
185.776	-0
185.996	0
186.217	0
186.438	-0
186.659	-0
186.879	-0
187.1	0
187.321	-0
187.541	-0
187.762	-0
187.983	0
188.203	-0
188.424	-0
188.644	0
188.865	0
189.086	-0
189.306	-0
189.527	-0
189.747	-0
189.968	-0
190.188	-0
190.409	-0
190.629	0
190.849	-0
191.07	-0
191.29	0
191.511	0
191.731	-0
191.951	-0
192.172	-0
192.392	-0
192.612	-0
192.833	-0
193.053	-0
193.273	0
193.493	-0
193.714	-0
193.934	0
194.154	0
194.374	0
194.594	-0
194.815	-0
195.035	0
195.255	-0
195.475	-0
195.695	0
195.915	0
196.135	-0
196.355	0
196.575	0
196.795	0
197.015	-0
197.235	-0
197.455	-0
197.675	-0
197.895	-0
198.115	-0
198.335	-0
198.555	-0
198.775	0
198.995	-0
199.214	0
199.434	0
199.654	-0
199.874	-0
200.094	0.34
200.313	-0.26
200.533	-0.5
200.753	-0.6
200.973	0.28
201.192	0.24
201.412	-1.01
201.632	-0.66
201.851	0.54
202.071	-0.45
202.291	-0.69
202.51	-0.62
202.73	0.01
202.95	-0.2
203.169	-0.77
203.389	-0.2
203.608	0.16
203.828	-0.25
204.047	-0.72
204.267	-0.07
204.486	-0.35
204.706	-0.06
204.925	-0.16
205.145	-0.44
205.364	0.27
205.583	1.03
205.803	-0.13
206.022	-0.4
206.242	-0.21
206.461	0.01
206.68	-0.19
206.9	0.1
207.119	0.15
207.338	0.39
207.557	-0.07
207.777	-0.09
207.996	-0.26
208.215	0.31
208.434	-0.3
208.654	-0.57
208.873	0.12
209.092	0.39
209.311	-0.23
209.53	-0.27
209.749	0.08
209.968	-0.39
210.187	-0.16
210.407	-0.77
210.626	-0.48
210.845	0.04
211.064	-0.24
211.283	-0.6
211.502	-0
211.721	-0.15
211.94	-0.37
212.159	0.28
212.377	0.34
212.596	0.34
212.815	0.11
213.034	-0.07
213.253	0.16
213.472	0.17
213.691	-0.16
213.91	-0.34
214.128	0.08
214.347	0.14
214.566	-0.42
214.785	-0.37
215.003	-0.03
215.222	-0.11
215.441	-0.03
215.66	-0.14
215.878	-0.18
216.097	0.08
216.316	-0.38
216.534	-0.12
216.753	0.08
216.972	-0.2
217.19	-0.16
217.409	-0.38
217.627	-0.19
217.846	-0.04
218.064	0.02
218.283	-0.23
218.501	0.42
218.72	0.03
218.938	-0.19
219.157	-0.1
219.375	0.08
219.594	0.08
219.812	-0.19
220.031	-0.25
220.249	0.22
220.467	0.19
220.686	-0.04
220.904	-0.27
221.122	-0.21
221.341	0.33
221.559	0
221.777	-0.22
221.995	0.01
222.214	0.1
222.432	-0.26
222.65	0.17
222.868	-0.05
223.086	0.03
223.305	0.03
223.523	-0.1
223.741	0.1
223.959	-0.17
224.177	-0.19
224.395	-0.21
224.613	-0.09
224.831	0.18
225.049	-0.31
225.267	-0.15
225.485	-0.1
225.703	-0.11
225.921	-0.07
226.139	-0.18
226.357	0.02
226.575	0.01
226.793	-0.04
227.011	0.32
227.229	0.14
227.447	0.06
227.665	-0.08
227.883	-0.25
228.1	0.02
228.318	-0.02
228.536	-0.3
228.754	-0.23
228.972	-0.02
229.189	0.06
229.407	-0.21
229.625	-0.18
229.843	0.21
230.06	-0.02
230.278	-0.14
230.496	-0.06
230.713	-0.02
230.931	0.06
231.149	-0.01
231.366	-0.25
231.584	-0.04
231.801	0.25
232.019	-0.16
232.236	-0.18
232.454	-0.13
232.671	0.03
232.889	-0.07
233.106	-0.12
233.324	-0.06
233.541	-0.06
233.759	-0.09
233.976	-0.15
234.194	-0.04
234.411	-0.12
234.628	-0.08
234.846	-0.01
235.063	-0.15
235.28	-0.05
235.498	0.04
235.715	-0.15
235.932	0.12
236.149	0.02
236.367	-0.09
236.584	0.01
236.801	-0.12
237.018	0.01
237.236	0.01
237.453	-0.1
237.67	0.06
237.887	-0.11
238.104	-0.03
238.321	-0.15
238.538	-0.11
238.755	0.06
238.973	-0.25
239.19	0
239.407	0.08
239.624	-0.03
239.841	-0.13
240.058	-0.05
240.275	0.02
240.492	-0.11
240.709	-0.05
240.925	-0.07
241.142	0.01
241.359	-0.13
241.576	-0.13
241.793	0.06
242.01	-0.09
242.227	0.08
242.444	0.03
242.66	0.01
242.877	-0.08
243.094	-0.11
243.311	-0.04
243.527	-0.01
243.744	-0.03
243.961	0.02
244.178	-0.17
244.394	-0.02
244.611	0.07
244.828	0.1
245.044	-0.12
245.261	-0.02
245.477	-0.03
245.694	0.12
245.911	-0.04
246.127	-0.02
246.344	0.07
246.56	0.05
246.777	-0
246.993	0
247.21	0
247.426	0.02
247.643	-0.01
247.859	-0.1
248.076	-0.14
248.292	0.16
248.508	-0.01
248.725	-0.02
248.941	0.01
249.157	0.05
249.374	-0.07
249.59	-0.08
249.806	-0.06
250.023	-0.01
250.239	-0.08
250.455	-0.07
250.671	0.02
250.888	0.02
251.104	-0.03
251.32	-0.06
251.536	-0.05
251.752	-0.05
251.969	-0.05
252.185	-0.03
252.401	0.14
252.617	-0.03
252.833	-0
253.049	-0.02
253.265	-0.08
253.481	-0
253.697	-0.06
253.913	-0.01
254.129	0.04
254.345	-0.05
254.561	-0.03
254.777	-0.04
254.993	0.07
255.209	-0.01
255.425	-0.04
255.641	-0.06
255.857	0.1
256.073	-0.02
256.288	-0.15
256.504	-0.12
256.72	-0.04
256.936	0.09
257.152	-0.07
257.367	-0.07
257.583	0.01
257.799	0.06
258.015	-0.15
258.23	-0.05
258.446	0.05
258.662	-0.03
258.877	-0.08
259.093	-0.12
259.309	0.03
259.524	0
259.74	-0.1
259.955	-0.12
260.171	-0.02
260.387	-0.01
260.602	0.1
260.818	-0.03
261.033	-0.08
261.249	-0.05
261.464	-0.04
261.68	-0.1
261.895	0.02
262.11	-0.02
262.326	-0.1
262.541	-0.13
262.757	0.01
262.972	0
263.187	0.05
263.403	0
263.618	0.08
263.833	-0.01
264.049	-0.07
264.264	-0.04
264.479	0.07
264.694	0.02
264.91	-0.16
265.125	-0.04
265.34	0.03
265.555	0.08
265.77	0.03
265.986	-0.04
266.201	-0.04
266.416	0.07
266.631	-0.07
266.846	-0.09
267.061	0.02
267.276	0.01
267.491	-0.11
267.706	-0.01
267.921	0.02
268.136	-0.01
268.351	0
268.566	-0.15
268.781	0.1
268.996	-0.01
269.211	-0.01
269.426	-0.12
269.641	-0.07
269.856	0.03
270.071	-0.07
270.285	-0.13
270.5	0.02
270.715	-0.01
270.93	-0.07
271.145	0.02
271.359	0.02
271.574	-0.13
271.789	-0.06
272.004	-0.07
272.218	-0.02
272.433	0.01
272.648	-0.08
272.862	0.03
273.077	-0.05
273.292	-0.05
273.506	-0.07
273.721	-0.04
273.936	0.03
274.15	0.01
274.365	-0.02
274.579	0.04
274.794	0.02
275.008	-0.03
275.223	-0.14
275.437	-0.03
275.652	0.02
275.866	0.04
276.081	0.02
276.295	0.03
276.509	-0.02
276.724	-0.05
276.938	0.02
277.153	-0.02
277.367	0.06
277.581	-0.1
277.796	-0.08
278.01	-0.04
278.224	0.03
278.438	0.07
278.653	-0.08
278.867	-0.09
279.081	0.05
279.295	-0.04
279.51	0.03
279.724	-0.16
279.938	0.02
280.152	0.04
280.366	-0.08
280.58	-0.01
280.794	0.07
281.008	-0
281.222	0.02
281.437	0.13
281.651	-0.01
281.865	0.04
282.079	-0.07
282.293	-0.09
282.507	-0.07
282.721	-0.05
282.935	-0.02
283.148	-0.07
283.362	-0.02
283.576	-0.03
283.79	0.01
284.004	-0.02
284.218	0.05
284.432	0.01
284.646	-0.03
284.859	-0.04
285.073	-0.01
285.287	-0.01
285.501	0.01
285.714	-0.02
285.928	0.02
286.142	-0.02
286.356	-0.02
286.569	-0.02
286.783	0.06
286.997	0.05
287.21	0.01
287.424	0
287.637	-0
287.851	-0.04
288.065	0.04
288.278	0.02
288.492	-0.02
288.705	0.02
288.919	-0
289.132	-0.07
289.346	0.03
289.559	-0.06
289.773	-0.06
289.986	-0.06
290.2	-0
290.413	0.07
290.626	-0.04
290.84	-0.04
291.053	-0.04
291.267	0.02
291.48	-0.03
291.693	-0.02
291.906	-0.06
292.12	-0.03
292.333	-0.05
292.546	-0.03
292.76	0.09
292.973	0.02
293.186	0.02
293.399	-0.01
293.612	0.04
293.826	-0
294.039	0
294.252	0
294.465	-0
294.678	-0.01
294.891	0.03
295.104	-0.06
295.317	-0.01
295.53	0.02
295.743	-0
295.956	-0.02
296.169	0.04
296.382	0.09
296.595	0.02
296.808	-0.04
297.021	0.04
297.234	0.03
297.447	-0.02
297.66	0.01
297.873	0.02
298.086	-0
298.299	-0.04
298.511	-0.05
298.724	0.01
298.937	-0.09
299.15	-0.03
299.363	0
299.575	0.03
299.788	0.03
300.001	-0.02
300.213	-0.05
300.426	-0.04
300.639	-0.03
300.852	-0.04
301.064	0.02
301.277	0.1
301.489	0.1
301.702	0.02
301.915	-0.02
302.127	-0.04
302.34	-0
302.552	0.01
302.765	-0.03
302.977	0.03
303.19	-0.02
303.402	-0.02
303.615	-0.01
303.827	-0.03
304.04	-0.01
304.252	0.02
304.464	-0.03
304.677	0.08
304.889	0.09
305.102	-0.07
305.314	-0.04
305.526	0.08
305.739	0
305.951	-0.03
306.163	-0.04
306.375	0.03
306.588	-0.07
306.8	-0.06
307.012	-0.05
307.224	0.06
307.436	0.05
307.649	-0.05
307.861	0.01
308.073	0.01
308.285	0.02
308.497	-0.06
308.709	-0.02
308.921	0.04
309.133	-0.01
309.346	-0.05
309.558	-0.07
309.77	0.06
309.982	0.01
310.194	0.03
310.406	-0.01
310.617	0.06
310.829	-0
311.041	0.04
311.253	-0
311.465	0.01
311.677	-0.04
311.889	-0.02
312.101	-0
312.313	-0.02
312.524	0.07
312.736	-0.03
312.948	-0.05
313.16	0.06
313.372	0.04
313.583	-0.03
313.795	-0.01
314.007	-0.04
314.218	0.04
314.43	-0.02
314.642	-0.04
314.853	-0.06
315.065	0.04
315.277	-0.02
315.488	-0.02
315.7	0.07
315.912	0
316.123	-0.01
316.335	0.02
316.546	0.09
316.758	-0.03
316.969	0
317.181	0.03
317.392	0.02
317.604	0.02
317.815	-0.05
318.026	-0.03
318.238	-0.05
318.449	0.03
318.661	-0.03
318.872	-0.04
319.083	-0.07
319.295	0.03
319.506	-0.01
319.717	-0.04
319.929	0.01
320.14	-0.03
320.351	0.04
320.562	-0.06
320.774	-0.02
320.985	-0.04
321.196	-0.07
321.407	-0.06
321.618	0.03
321.829	-0.02
322.041	0.03
322.252	0.02
322.463	0.03
322.674	0.04
322.885	-0.07
323.096	-0.01
323.307	0.02
323.518	0.02
323.729	-0.03
323.94	-0.02
324.151	-0
324.362	-0.02
324.573	0.05
324.784	-0
324.995	0.02
325.206	-0
325.417	-0.03
325.628	-0.04
325.838	-0.02
326.049	-0.02
326.26	0.01
326.471	-0.06
326.682	0.03
326.892	-0.01
327.103	-0.05
327.314	-0.09
327.525	0.05
327.735	-0.02
327.946	-0.04
328.157	-0.03
328.368	0.02
328.578	-0.04
328.789	0.02
328.999	-0.01
329.21	-0
329.421	0.01
329.631	-0.05
329.842	-0.05
330.052	0.01
330.263	0.02
330.473	0.03
330.684	-0.03
330.894	-0.04
331.105	0.06
331.315	-0.05
331.526	-0.06
331.736	0.08
331.947	0.01
332.157	0.01
332.367	-0.03
332.578	0.03
332.788	0.03
332.999	0.03
333.209	-0.01
333.419	-0.06
333.629	0.02
333.84	0.04
334.05	-0
334.26	0.04
334.47	0.02
334.681	0.05
334.891	-0.04
335.101	0.05
335.311	0.1
335.521	0.02
335.732	-0.07
335.942	0.05
336.152	0.02
336.362	-0.06
336.572	0
336.782	0.08
336.992	0.01
337.202	-0.04
337.412	-0.03
337.622	0.02
337.832	-0.04
338.042	0
338.252	-0.06
338.462	-0.05
338.672	-0.01
338.882	0
339.092	-0
339.302	0.04
339.511	0
339.721	-0.03
339.931	-0.05
340.141	0.01
340.351	0.01
340.561	-0.03
340.77	-0.01
340.98	0.04
341.19	0.02
341.4	-0.04
341.609	-0.05
341.819	0.02
342.029	-0.05
342.238	-0.02
342.448	-0.04
342.658	-0.01
342.867	-0.01
343.077	0.01
343.286	0.01
343.496	-0.02
343.706	0.09
343.915	-0.08
344.125	-0.03
344.334	0.02
344.544	-0.06
344.753	-0.05
344.963	-0.01
345.172	-0.06
345.381	-0.05
345.591	-0.01
345.8	-0.02
346.01	0.03
346.219	0.05
346.428	-0.15
346.638	0
346.847	-0.03
347.056	0.05
347.266	-0.02
347.475	-0.01
347.684	-0
347.893	0.01
348.103	0.04
348.312	-0.04
348.521	-0.02
348.73	0.03
348.94	-0
349.149	-0.02
349.358	-0.01
349.567	-0.08
349.776	-0.09
349.985	-0.02
350.194	0.02
350.403	0.03
350.612	-0.08
350.821	-0.02
351.03	0.02
351.239	-0.09
351.448	-0
351.657	-0.01
351.866	0.06
352.075	0
352.284	-0
352.493	-0.04
352.702	0.02
352.911	0.01
353.12	0
353.329	-0.05
353.538	0.01
353.746	-0.05
353.955	-0.04
354.164	0.01
354.373	-0.01
354.582	-0.01
354.79	-0.01
354.999	0.09
355.208	-0.04
355.416	0.07
355.625	-0.07
355.834	-0.03
356.042	0.01
356.251	-0.04
356.46	-0.04
356.668	0.01
356.877	0.06
357.085	0.04
357.294	-0.06
357.503	0.01
357.711	-0
357.92	0.09
358.128	0.01
358.337	-0.02
358.545	-0.01
358.754	0.01
358.962	0.02
359.17	-0.01
359.379	0.01
359.587	0.05
359.796	-0.05
360.004	0.03
360.212	0.01
360.421	0.03
360.629	-0.02
360.837	-0.04
361.046	0.02
361.254	0.06
361.462	-0.03
361.67	-0.01
361.879	-0.01
362.087	0.07
362.295	-0.03
362.503	-0.05
362.711	-0.08
362.92	-0.03
363.128	-0.04
363.336	-0.04
363.544	-0.05
363.752	-0.05
363.96	-0.02
364.168	-0.01
364.376	-0.04
364.584	0
364.792	0.04
365	-0.02
365.208	0.02
365.416	-0
365.624	0.06
365.832	-0.01
366.04	0.04
366.248	0.03
366.456	-0.01
366.664	-0.01
366.872	-0.03
367.079	0
367.287	-0.02
367.495	0.03
367.703	0.01
367.911	-0.03
368.118	-0.04
368.326	-0.01
368.534	-0.05
368.742	0.06
368.949	-0.05
369.157	-0.04
369.365	0.01
369.572	0.01
369.78	-0.05
369.988	0.02
370.195	-0.03
370.403	-0.01
370.61	-0.03
370.818	0
371.026	0.04
371.233	-0.07
371.441	0.02
371.648	-0.05
371.856	-0.01
372.063	-0.02
372.271	-0.02
372.478	-0.01
372.685	-0.04
372.893	0.03
373.1	-0.02
373.308	-0.03
373.515	0.06
373.722	0.01
373.93	-0.03
374.137	0.01
374.344	0.1
374.552	-0.01
374.759	-0.01
374.966	-0.03
375.173	-0.01
375.381	0.07
375.588	-0.01
375.795	-0.09
376.002	0
376.209	-0.06
376.417	-0.01
376.624	0
376.831	0.01
377.038	-0.02
377.245	-0.11
377.452	-0.01
377.659	-0.02
377.866	-0.04
378.073	-0.05
378.28	-0.01
378.487	-0
378.694	0.02
378.901	-0.02
379.108	-0.04
379.315	0.04
379.522	0.06
379.729	-0.01
379.936	-0.03
380.143	-0.02
380.35	-0.02
380.557	-0.03
380.763	0.01
380.97	-0.02
381.177	-0.01
381.384	-0.01
381.591	-0.04
381.797	-0.02
382.004	0.03
382.211	0.03
382.418	0.01
382.624	0.03
382.831	0.04
383.038	-0.04
383.244	-0.01
383.451	-0.05
383.658	-0.04
383.864	-0.01
384.071	-0.01
384.277	0.06
384.484	-0.06
384.69	-0.01
384.897	-0.03
385.103	-0.01
385.31	-0.02
385.516	-0.03
385.723	-0.01
385.929	0.01
386.136	-0.02
386.342	-0
386.549	-0.01
386.755	0.04
386.961	0.01
387.168	-0.02
387.374	-0.02
387.58	-0
387.787	0.03
387.993	-0.02
388.199	-0
388.406	-0.06
388.612	-0.01
388.818	-0.04
389.024	-0.03
389.231	-0
389.437	0.06
389.643	-0.02
389.849	0
390.055	0.01
390.261	-0.01
390.467	-0.03
390.674	-0.04
390.88	0
391.086	0.01
391.292	-0.07
391.498	0.03
391.704	0.01
391.91	-0.03
392.116	-0.03
392.322	-0.11
392.528	-0.02
392.734	-0.05
392.94	-0
393.146	-0.07
393.352	-0.05
393.557	-0.05
393.763	-0
393.969	-0.01
394.175	0.01
394.381	-0.03
394.587	-0.05
394.792	-0
394.998	0.03
395.204	0.01
395.41	-0.04
395.615	0.02
395.821	-0.02
396.027	0.01
396.233	-0.04
396.438	-0
396.644	0
396.85	0.01
397.055	-0.02
397.261	0
397.466	0.08
397.672	0.02
397.878	0.06
398.083	0.03
398.289	-0.03
398.494	0.06
398.7	0.02
398.905	-0.09
399.111	0.02
399.316	-0.04
399.522	-0.03
399.727	-0.04
399.932	0
400.138	-0.04
400.343	0.01
400.549	-0
400.754	-0.01
400.959	0.01
401.165	-0
401.37	0.01
401.575	0.02
401.78	0.01
401.986	-0.04
402.191	-0.02
402.396	-0.02
402.601	0.01
402.807	0.01
403.012	0.02
403.217	0.02
403.422	-0.06
403.627	-0.01
403.832	-0.02
404.037	0.01
404.243	-0
404.448	-0.04
404.653	-0.04
404.858	-0
405.063	0.01
405.268	-0.05
405.473	-0.05
405.678	-0.02
405.883	0.12
406.088	-0.02
406.293	-0.08
406.498	-0.08
406.703	0.06
406.907	-0.03
407.112	-0.05
407.317	0.03
407.522	0.02
407.727	-0.05
407.932	-0.02
408.136	0.04
408.341	-0.03
408.546	-0.04
408.751	-0.07
408.956	-0.04
409.16	-0.03
409.365	0.02
409.57	-0.03
409.774	0.01
409.979	-0.01
410.184	0
410.388	-0.07
410.593	0.03
410.798	0.01
411.002	-0.04
411.207	0.01
411.411	-0.01
411.616	-0.08
411.82	-0.03
412.025	0.01
412.229	-0.05
412.434	0.08
412.638	-0
412.843	-0.01
413.047	0.02
413.252	-0.02
413.456	-0.01
413.66	0.01
413.865	-0.05
414.069	0.02
414.273	-0.05
414.478	-0.05
414.682	-0.01
414.886	-0.02
415.091	-0.07
415.295	-0.08
415.499	-0.02
415.703	-0.06
415.908	0.01
416.112	-0.04
416.316	0.02
416.52	-0.03
416.724	-0.07
416.929	-0.07
417.133	0.04
417.337	-0.07
417.541	-0.01
417.745	-0.05
417.949	0.01
418.153	-0.01
418.357	-0.09
418.561	0.07
418.765	-0.07
418.969	0.1
419.173	-0.02
419.377	-0.05
419.581	0.07
419.785	-0.09
419.989	-0.1
420.193	-0.05
420.397	-0.03
420.601	0.01
420.804	0.02
421.008	-0.04
421.212	-0.04
421.416	0.02
421.62	-0.02
421.823	-0.01
422.027	0.08
422.231	0
422.435	-0.04
422.638	0
422.842	-0.02
423.046	-0.05
423.249	0.04
423.453	0.02
423.657	0.02
423.86	-0.04
424.064	-0.01
424.268	0.06
424.471	-0.01
424.675	0.02
424.878	0.01
425.082	-0.03
425.285	0.06
425.489	0.03
425.692	0.01
425.896	-0.05
426.099	0.01
426.303	-0.04
426.506	-0.06
426.71	0.01
426.913	0.05
427.116	0.06
427.32	-0.02
427.523	-0.05
427.726	0.06
427.93	-0.08
428.133	0.02
428.336	-0.07
428.54	-0.05
428.743	0.01
428.946	0.03
429.149	-0.05
429.353	-0.01
429.556	-0.03
429.759	-0.03
429.962	-0.06
430.165	-0.03
430.368	-0.06
430.571	-0.08
430.775	-0.02
430.978	-0.08
431.181	0
431.384	0.02
431.587	-0.04
431.79	-0
431.993	-0.02
432.196	-0.02
432.399	-0.01
432.602	0.06
432.805	-0.03
433.008	-0.06
433.211	-0.04
433.414	-0.01
433.616	0.01
433.819	-0.02
434.022	-0.12
434.225	0.05
434.428	-0.01
434.631	0.06
434.833	0.01
435.036	-0.03
435.239	0.03
435.442	0.03
435.645	-0.03
435.847	0.01
436.05	0.02
436.253	0.01
436.455	-0.03
436.658	-0.05
436.861	0.06
437.063	-0.05
437.266	-0.02
437.468	0.02
437.671	0.1
437.874	-0.01
438.076	-0.1
438.279	-0.08
438.481	-0.03
438.684	-0.08
438.886	0.03
439.089	-0.1
439.291	-0.04
439.494	0.03
439.696	-0.05
439.899	-0.04
440.101	-0.02
440.303	-0.09
440.506	0.01
440.708	-0.05
440.91	0.03
441.113	-0.04
441.315	0.05
441.517	-0.05
441.72	0.02
441.922	-0.02
442.124	-0.09
442.326	-0
442.529	0.06
442.731	-0.06
442.933	0.07
443.135	-0.07
443.337	-0.04
443.539	-0.05
443.742	-0
443.944	-0.02
444.146	-0.07
444.348	-0.03
444.55	-0.02
444.752	-0.04
444.954	-0.06
445.156	0.01
445.358	-0.01
445.56	0
445.762	-0.04
445.964	-0.06
446.166	-0.06
446.368	-0.06
446.57	0.02
446.772	-0
446.974	-0.03
447.175	-0.01
447.377	-0.07
447.579	-0.06
447.781	-0.07
447.983	0.06
448.184	-0.04
448.386	0.04
448.588	-0.1
448.79	0.01
448.991	-0.05
449.193	-0.05
449.395	-0.04
449.597	0.04
449.798	-0
450	-0.01
450.202	-0.05
450.403	-0.03
450.605	0.03
450.806	-0.03
451.008	-0.1
451.21	-0.05
451.411	-0.02
451.613	-0.01
451.814	0.03
452.016	-0
452.217	-0
452.419	0.04
452.62	-0
452.821	-0.02
453.023	0.04
453.224	0.01
453.426	-0.03
453.627	-0
453.828	-0
454.03	-0.01
454.231	-0.05
454.432	-0.05
454.634	0.05
454.835	-0.04
455.036	-0.06
455.238	0.02
455.439	0.06
455.64	-0.07
455.841	-0.05
456.042	0.08
456.244	0.02
456.445	-0.08
456.646	-0.06
456.847	-0.04
457.048	0
457.249	0.03
457.45	0.18
457.651	-0.1
457.852	0.04
458.054	0.01
458.255	-0.03
458.456	0.02
458.657	-0.03
458.858	-0.02
459.058	0.03
459.259	0.01
459.46	-0.01
459.661	-0.04
459.862	0.09
460.063	-0.05
460.264	0.04
460.465	-0.02
460.666	0.07
460.866	-0.01
461.067	-0.01
461.268	-0.02
461.469	-0.02
461.67	-0.06
461.87	-0.02
462.071	-0
462.272	-0.04
462.473	0.01
462.673	-0.02
462.874	-0.04
463.075	0.01
463.275	-0.02
463.476	-0.01
463.676	0.01
463.877	-0.02
464.078	-0.04
464.278	0
464.479	-0.02
464.679	0.03
464.88	-0.08
465.08	0.03
465.281	-0.07
465.481	-0.04
465.682	-0.02
465.882	0.03
466.083	-0.02
466.283	-0.04
466.483	-0.03
466.684	-0.04
466.884	-0.03
467.085	-0.04
467.285	0.03
467.485	-0.02
467.686	0.01
467.886	-0.09
468.086	-0.02
468.286	-0
468.487	-0.03
468.687	-0.03
468.887	-0.06
469.087	0.05
469.287	-0.02
469.488	-0.06
469.688	0.01
469.888	0.02
470.088	0.03
470.288	0.05
470.488	0.02
470.688	-0.06
470.888	-0.02
471.088	-0.06
471.288	-0.03
471.488	-0.03
471.688	0.01
471.888	-0.02
472.088	-0.02
472.288	0.04
472.488	-0.07
472.688	-0.04
472.888	0.01
473.088	-0.04
473.288	-0.03
473.488	-0.02
473.688	0.06
473.887	-0.02
474.087	-0.03
474.287	-0
474.487	-0.03
474.687	0.02
474.886	-0.03
475.086	-0.02
475.286	0
475.486	-0.01
475.685	-0.04
475.885	-0.04
476.085	-0.03
476.284	0.03
476.484	-0
476.684	-0
476.883	0.03
477.083	-0.01
477.282	-0.02
477.482	0.02
477.681	0.07
477.881	0.01
478.08	-0.06
478.28	-0.04
478.479	0.02
478.679	0.06
478.878	-0.01
479.078	-0.04
479.277	-0.01
479.477	-0.01
479.676	0.03
479.875	-0.02
480.075	-0.07
480.274	-0.01
480.473	0
480.673	-0.03
480.872	0.03
481.071	0.01
481.271	0.02
481.47	-0.01
481.669	-0.03
481.868	-0.03
482.067	-0.06
482.267	-0.02
482.466	-0.02
482.665	-0.01
482.864	-0.04
483.063	-0.06
483.262	0.01
483.461	0.01
483.661	0.01
483.86	-0
484.059	-0.01
484.258	-0.04
484.457	-0
484.656	-0.02
484.855	0.02
485.054	-0.04
485.253	-0.01
485.452	-0.04
485.651	-0
485.849	-0.01
486.048	-0.03
486.247	-0.05
486.446	-0.02
486.645	-0.05
486.844	-0.05
487.043	-0.01
487.241	0.01
487.44	-0.03
487.639	-0.03
487.838	0.01
488.037	0.01
488.235	0.02
488.434	-0.01
488.633	-0.01
488.831	0.01
489.03	0.01
489.229	-0.01
489.427	-0.01
489.626	0.03
489.825	0.04
490.023	-0.01
490.222	-0
490.42	0.02
490.619	0.01
490.817	0
491.016	-0.01
491.214	0.04
491.413	-0.01
491.611	-0
491.81	-0.02
492.008	0.01
492.207	0.02
492.405	-0.01
492.604	-0.07
492.802	-0.02
493	0.01
493.199	-0.02
493.397	0
493.595	0
493.794	-0.01
493.992	0.04
494.19	-0.01
494.388	0.02
494.587	-0.01
494.785	0
494.983	-0.05
495.181	-0.01
495.379	-0.01
495.578	-0.02
495.776	0.02
495.974	0.01
496.172	-0.02
496.37	-0.04
496.568	-0.04
496.766	-0.04
496.964	0.02
497.162	-0.01
497.36	-0.03
497.558	0.01
497.756	0
497.954	-0.04
498.152	-0.04
498.35	-0.01
498.548	-0.03
498.746	-0
498.944	-0.01
499.142	-0.01
499.34	-0.03
499.538	0
499.736	-0.03
499.933	0.02
500.131	0.02
500.329	-0.02
500.527	0.02
500.725	0.01
500.922	-0.01
501.12	-0
501.318	-0.01
501.516	-0.02
501.713	0.01
501.911	-0.01
502.109	-0.04
502.306	0
502.504	-0.02
502.701	-0.02
502.899	-0.01
503.097	0.02
503.294	-0.01
503.492	-0
503.689	0.01
503.887	-0
504.084	0.03
504.282	0
504.479	-0.04
504.677	-0
504.874	-0.03
505.072	-0.02
505.269	-0.03
505.466	0.03
505.664	0.01
505.861	-0.06
506.059	-0.05
506.256	-0.01
506.453	-0
506.651	0.02
506.848	0.03
507.045	0
507.242	0
507.44	-0.01
507.637	-0.02
507.834	-0.01
508.031	0.03
508.229	-0.03
508.426	0
508.623	0.01
508.82	-0.02
509.017	-0.04
509.214	-0.02
509.411	-0.04
509.608	-0.06
509.805	-0.01
510.003	-0.02
510.2	-0.04
510.397	0.01
510.594	-0.01
510.791	-0.01
510.988	-0
511.184	0.01
511.381	0.01
511.578	-0.04
511.775	0.01
511.972	-0.03
512.169	0
512.366	-0.02
512.563	0
512.76	-0.03
512.956	-0.02
513.153	-0.03
513.35	-0.03
513.547	-0.03
513.744	-0.01
513.94	-0.03
514.137	-0
514.334	0.02
514.53	0
514.727	0
514.924	0.04
515.12	-0.03
515.317	-0.04
515.514	-0.02
515.71	-0.04
515.907	-0.02
516.103	-0.01
516.3	0.03
516.497	0.03
516.693	0.02
516.89	-0.01
517.086	-0.03
517.283	0.05
517.479	-0.01
517.676	-0
517.872	-0.01
518.068	-0.01
518.265	-0
518.461	-0.01
518.658	-0.04
518.854	0.01
519.05	-0.02
519.247	-0.02
519.443	-0
519.639	-0
519.836	-0
520.032	0.01
520.228	-0.02
520.424	0.02
520.621	0.02
520.817	-0.01
521.013	0.01
521.209	0.01
521.405	0.05
521.601	0
521.798	0.01
521.994	0.01
522.19	-0.01
522.386	-0.03
522.582	-0.01
522.778	-0.01
522.974	-0.01
523.17	-0.02
523.366	-0.03
523.562	0.01
523.758	0.01
523.954	-0.02
524.15	-0.02
524.346	-0
524.542	-0.03
524.738	-0.02
524.934	-0.02
525.129	-0.09
525.325	-0.01
525.521	-0.02
525.717	0.01
525.913	-0.01
526.109	-0.01
526.304	-0.02
526.5	-0.02
526.696	0
526.892	-0.01
527.087	-0.01
527.283	-0.02
527.479	0.02
527.674	-0.02
527.87	-0.01
528.066	-0.02
528.261	0.01
528.457	0.01
528.653	-0.01
528.848	-0.01
529.044	-0.01
529.239	-0.02
529.435	0.01
529.63	0.01
529.826	0.02
530.021	-0
530.217	0.02
530.412	-0.02
530.608	-0.03
530.803	-0.01
530.999	-0.02
531.194	-0.03
531.389	0.01
531.585	-0.06
531.78	-0.02
531.975	-0.03
532.171	0
532.366	-0.01
532.561	-0
532.757	-0.01
532.952	-0.03
533.147	0.01
533.342	0
533.538	-0.01
533.733	0
533.928	-0
534.123	-0.02
534.318	-0.02
534.513	-0.02
534.709	-0.01
534.904	-0.02
535.099	-0.02
535.294	0
535.489	-0
535.684	-0.03
535.879	-0.04
536.074	-0
536.269	-0.03
536.464	0.02
536.659	-0.02
536.854	-0.03
537.049	-0.01
537.244	-0
537.439	-0.01
537.634	0
537.828	0
538.023	-0.01
538.218	-0.03
538.413	-0.02
538.608	-0.01
538.803	-0.01
538.997	-0.05
539.192	0.01
539.387	-0.01
539.582	0
539.776	0.01
539.971	-0.03
540.166	-0
540.36	-0.02
540.555	-0
540.75	-0.02
540.944	-0.01
541.139	-0.08
541.334	-0.03
541.528	-0
541.723	0.01
541.917	-0
542.112	-0.04
542.306	-0.03
542.501	-0.01
542.695	-0.01
542.89	-0.03
543.084	-0.01
543.279	-0.01
543.473	-0.02
543.668	-0
543.862	-0
544.056	0.01
544.251	-0
544.445	-0.01
544.64	-0.02
544.834	-0.06
545.028	0
545.222	0.01
545.417	0.01
545.611	0.01
545.805	-0.01
546	-0.02
546.194	-0.02
546.388	-0.03
546.582	0
546.776	-0.01
546.97	0.01
547.165	-0.01
547.359	0.02
547.553	-0.03
547.747	-0.03
547.941	0.01
548.135	-0
548.329	0.01
548.523	0.01
548.717	-0.02
548.911	-0.02
549.105	0.02
549.299	-0.01
549.493	0.01
549.687	0.01
549.881	-0.01
550.075	0
550.269	-0.04
550.463	0.01
550.657	-0.02
550.85	-0.01
551.044	-0.01
551.238	0.01
551.432	-0.02
551.626	-0.04
551.82	0
552.013	-0.03
552.207	0.01
552.401	-0
552.594	0
552.788	-0.01
552.982	-0.02
553.176	-0.02
553.369	0.01
553.563	0.01
553.756	-0.03
553.95	-0.05
554.144	-0.02
554.337	0
554.531	-0.01
554.724	-0
554.918	-0.02
555.111	0.02
555.305	-0.01
555.498	0.06
555.692	0.02
555.885	-0.01
556.079	-0.01
556.272	-0.03
556.466	0.02
556.659	0.01
556.852	-0.02
557.046	-0.01
557.239	0.01
557.432	-0.03
557.626	-0.03
557.819	0.01
558.012	0.01
558.206	-0.02
558.399	-0.01
558.592	0.01
558.785	-0.01
558.979	0.03
559.172	-0
559.365	-0
559.558	-0
559.751	-0.01
559.944	-0.02
560.138	-0.04
560.331	0.01
560.524	-0.03
560.717	-0
560.91	-0.01
561.103	0
561.296	0.01
561.489	-0.01
561.682	-0.01
561.875	0.01
562.068	0
562.261	-0.01
562.454	0.01
562.647	0.01
562.84	-0
563.032	-0
563.225	-0.01
563.418	-0.01
563.611	-0.02
563.804	-0.01
563.997	-0.03
564.19	-0.02
564.382	-0.06
564.575	-0.03
564.768	-0.03
564.961	0
565.153	-0.03
565.346	0.02
565.539	0.02
565.731	0.02
565.924	0.01
566.117	0.03
566.309	-0.03
566.502	-0.03
566.695	0.01
566.887	0.01
567.08	-0.02
567.272	-0.03
567.465	-0.03
567.657	-0.03
567.85	0.01
568.042	0
568.235	0.01
568.427	-0.02
568.62	-0.01
568.812	-0
569.005	-0
569.197	-0.02
569.389	0.02
569.582	-0
569.774	-0
569.966	-0.03
570.159	-0.06
570.351	0.02
570.543	-0
570.736	-0.02
570.928	-0.02
571.12	-0.01
571.312	-0.03
571.505	-0.02
571.697	0.03
571.889	-0.02
572.081	-0.02
572.273	-0.03
572.465	0.04
572.658	-0.01
572.85	-0
573.042	-0.02
573.234	-0.02
573.426	0.03
573.618	-0.03
573.81	-0.01
574.002	0.03
574.194	0.02
574.386	-0.06
574.578	-0.06
574.77	-0.04
574.962	-0.01
575.154	-0.04
575.346	0
575.538	0.01
575.729	-0.01
575.921	-0.02
576.113	-0.01
576.305	0.02
576.497	-0.02
576.689	-0.02
576.88	-0.04
577.072	-0
577.264	-0.03
577.456	-0.03
577.647	-0.04
577.839	-0.03
578.031	0.03
578.223	-0.04
578.414	-0.04
578.606	0.01
578.798	-0
578.989	-0.03
579.181	-0.03
579.372	0.01
579.564	-0.02
579.755	0
579.947	-0.01
580.139	0.02
580.33	-0.05
580.522	-0.02
580.713	-0.06
580.905	-0
581.096	-0.02
581.287	-0
581.479	0
581.67	0.01
581.862	-0.01
582.053	-0.03
582.244	-0.06
582.436	-0.03
582.627	-0
582.818	-0.03
583.01	-0.04
583.201	0.03
583.392	0.01
583.583	-0
583.775	0
583.966	-0.02
584.157	-0.04
584.348	-0.01
584.54	-0.04
584.731	-0.01
584.922	-0.03
585.113	-0.04
585.304	0.01
585.495	-0.01
585.686	-0
585.877	0
586.068	0.01
586.259	0
586.45	-0.01
586.641	-0.01
586.832	-0.05
587.023	0.01
587.214	-0.06
587.405	0.02
587.596	-0.05
587.787	0.04
587.978	0.01
588.169	-0.01
588.36	-0.03
588.551	0.04
588.742	-0.01
588.932	-0.01
589.123	-0.01
589.314	0
589.505	0.01
589.696	0.01
589.886	-0.02
590.077	-0.05
590.268	-0.02
590.458	-0.03
590.649	-0.05
590.84	0.01
591.03	-0.04
591.221	-0.04
591.412	-0.05
591.602	-0.01
591.793	0.01
591.984	-0.05
592.174	-0.03
592.365	0.03
592.555	-0.04
592.746	0.03
592.936	0
593.127	0.02
593.317	0.01
593.508	-0.03
593.698	-0.03
593.889	-0
594.079	0.02
594.269	-0.04
594.46	0
594.65	0
594.84	-0
595.031	-0.04
595.221	-0.02
595.411	-0.06
595.602	0
595.792	-0.02
595.982	-0.04
596.172	0.01
596.363	0.01
596.553	-0.01
596.743	-0.01
596.933	-0.01
597.123	0.03
597.314	-0.04
597.504	-0.02
597.694	0.02
597.884	-0.01
598.074	-0.01
598.264	-0.03
598.454	0.02
598.644	-0.02
598.834	0
599.024	-0.06
599.214	-0.02
599.404	0.02
599.594	-0.02
599.784	-0.05
599.974	0.01
600.164	0.01
600.354	-0.03
600.544	-0.04
600.734	0.01
600.924	-0.01
601.114	-0.04
601.303	-0.01
601.493	0.01
601.683	-0.02
601.873	-0
602.063	-0.06
602.252	0.02
602.442	-0.07
602.632	-0.02
602.821	-0.02
603.011	0.01
603.201	-0.04
603.39	-0.04
603.58	-0.04
603.77	0
603.959	-0
604.149	-0.02
604.339	-0.04
604.528	0.02
604.718	0.02
604.907	-0.01
605.097	-0.03
605.286	-0.09
605.476	0.01
605.665	0.01
605.855	-0.02
606.044	0.01
606.234	0.02
606.423	-0.02
606.612	-0.06
606.802	-0.03
606.991	-0.03
607.181	-0.01
607.37	-0.05
607.559	-0.03
607.749	-0.05
607.938	0.02
608.127	-0.04
608.316	-0.01
608.506	-0.02
608.695	-0.03
608.884	-0.02
609.073	-0.01
609.263	0.03
609.452	0
609.641	0.01
609.83	-0.05
610.019	0.01
610.208	-0.03
610.397	-0.03
610.586	-0.01
610.775	-0.02
610.965	-0.02
611.154	-0.03
611.343	-0.01
611.532	-0.02
611.721	-0.05
611.91	-0.02
612.099	-0.03
612.287	-0
612.476	-0.03
612.665	0.01
612.854	-0.03
613.043	0.04
613.232	-0.02
613.421	-0.06
613.61	-0.02
613.798	-0.03
613.987	0.01
614.176	-0
614.365	0.02
614.554	-0.01
614.742	0.02
614.931	-0.02
615.12	0.01
615.309	-0.02
615.497	0
615.686	-0.03
615.875	-0.02
616.063	-0.02
616.252	-0.04
616.44	-0.03
616.629	-0.03
616.818	0.05
617.006	-0.02
617.195	-0.02
617.383	-0.01
617.572	0.01
617.76	-0.02
617.949	-0.02
618.137	-0.01
618.326	0.04
618.514	-0.08
618.703	-0.03
618.891	0.02
619.079	-0.06
619.268	0.02
619.456	-0.03
619.644	0.03
619.833	-0.02
620.021	-0.03
620.209	-0.05
620.398	-0.02
620.586	-0.01
620.774	0.03
620.962	-0
621.151	0.05
621.339	-0.01
621.527	-0.04
621.715	-0.03
621.903	-0.01
622.092	-0.03
622.28	0.01
622.468	-0.02
622.656	0.01
622.844	-0
623.032	-0.06
623.22	-0.05
623.408	-0.04
623.596	-0.01
623.784	0.01
623.972	-0.06
624.16	-0.05
624.348	0.04
624.536	-0.01
624.724	-0.03
624.912	0.05
625.1	0.06
625.288	-0.05
625.476	-0.01
625.664	0.01
625.851	-0.06
626.039	-0
626.227	-0.02
626.415	-0.03
626.603	-0.09
626.79	-0.01
626.978	0.01
627.166	0
627.354	-0
627.541	-0.03
627.729	-0.05
627.917	-0.02
628.104	0.03
628.292	0.01
628.48	-0.02
628.667	-0.01
628.855	-0.02
629.042	-0
629.23	-0.03
629.418	-0.01
629.605	-0.02
629.793	-0.02
629.98	-0.02
630.168	-0.01
630.355	0
630.543	0.01
630.73	-0.07
630.917	0.01
631.105	0.03
631.292	-0.02
631.48	0.01
631.667	0.04
631.854	-0.02
632.042	-0.01
632.229	-0.06
632.416	-0.01
632.604	-0.03
632.791	-0.04
632.978	0.01
633.165	-0
633.353	0.03
633.54	0.02
633.727	-0.08
633.914	-0.03
634.101	-0.07
634.289	0.02
634.476	-0.04
634.663	-0.07
634.85	0.01
635.037	-0.02
635.224	-0.07
635.411	0
635.598	0.03
635.785	-0.01
635.972	-0.04
636.159	0
636.346	-0.04
636.533	-0.04
636.72	0
636.907	-0.04
637.094	0.01
637.281	-0.01
637.468	0.03
637.655	-0.06
637.842	0
638.029	-0.03
638.215	-0.01
638.402	0
638.589	-0.02
638.776	-0.03
638.963	-0.05
639.149	0.01
639.336	0.04
639.523	0
639.709	0
639.896	-0.02
640.083	0.03
640.27	0.03
640.456	-0.01
640.643	0.03
640.829	-0.03
641.016	0
641.203	-0.06
641.389	0.01
641.576	-0
641.762	-0.02
641.949	-0.03
642.135	-0.01
642.322	-0.02
642.508	-0.08
642.695	0.01
642.881	-0.01
643.068	-0.01
643.254	-0.02
643.441	0.02
643.627	-0.04
643.813	-0.04
644	0.01
644.186	-0.03
644.372	-0.04
644.559	0.02
644.745	0.01
644.931	-0.01
645.118	0.02
645.304	0
645.49	0
645.676	-0.02
645.862	0.01
646.049	0.06
646.235	0.01
646.421	0.08
646.607	0.07
646.793	-0.06
646.979	-0
647.165	-0.01
647.352	-0.01
647.538	0.05
647.724	0.01
647.91	-0
648.096	0.02
648.282	0.01
648.468	-0.01
648.654	0.01
648.84	-0.01
649.026	-0.01
649.212	0.01
649.397	-0.02
649.583	-0.04
649.769	0.04
649.955	-0.04
650.141	0.03
650.327	0.06
650.513	-0.01
650.698	0.01
650.884	-0.06
651.07	0
651.256	0.02
651.442	-0.01
651.627	0
651.813	-0.01
651.999	0.03
652.184	0.01
652.37	-0.02
652.556	-0.03
652.741	0.06
652.927	-0.06
653.113	-0.03
653.298	0.01
653.484	0.03
653.669	-0.04
653.855	-0.03
654.04	0.04
654.226	0.06
654.412	-0.02
654.597	-0.02
654.782	0.02
654.968	0.01
655.153	0.05
655.339	0.02
655.524	-0.04
655.71	0.06
655.895	0.01
656.08	-0.01
656.266	0.05
656.451	0.03
656.636	-0.02
656.822	0.02
657.007	0.03
657.192	0.03
657.378	-0.06
657.563	0.03
657.748	0.03
657.933	0.02
658.118	0
658.304	0.01
658.489	0.01
658.674	0.05
658.859	-0.01
659.044	0
659.229	0.02
659.414	0.01
659.599	-0.03
659.785	-0.06
659.97	0.02
660.155	0.07
660.34	0.02
660.525	-0
660.71	-0.01
660.895	0.02
661.08	0
661.264	0
661.449	0.03
661.634	0.08
661.819	-0.02
662.004	-0
662.189	-0.04
662.374	-0.03
662.559	-0.01
662.743	-0.07
662.928	0
663.113	-0.03
663.298	-0.1
663.483	-0.02
663.667	0.01
663.852	-0.05
664.037	0.05
664.221	-0.02
664.406	0.04
664.591	0.03
664.775	-0.05
664.96	-0.04
665.145	-0.02
665.329	0.02
665.514	-0.02
665.698	0.04
665.883	-0.1
666.068	0.05
666.252	0.01
666.437	-0.03
666.621	-0.05
666.806	0.01
666.99	-0.04
667.174	-0.04
667.359	0.01
667.543	-0.03
667.728	-0.05
667.912	-0.07
668.096	0
668.281	-0.03
668.465	-0.04
668.649	-0.03
668.834	-0.06
669.018	-0.03
669.202	-0.03
669.387	-0.06
669.571	0.02
669.755	-0.03
669.939	-0.02
670.124	-0.03
670.308	0.02
670.492	-0.01
670.676	-0.04
670.86	-0.03
671.044	-0.05
671.228	0.03
671.413	-0.03
671.597	-0.04
671.781	-0.05
671.965	0.01
672.149	-0.06
672.333	-0.03
672.517	-0.04
672.701	0.03
672.885	-0.02
673.069	-0.09
673.253	0.06
673.437	-0.03
673.621	-0.02
673.804	-0.07
673.988	-0.02
674.172	-0.04
674.356	-0.08
674.54	-0.03
674.724	0.03
674.908	-0.01
675.091	-0.01
675.275	-0.04
675.459	0.02
675.643	-0.01
675.826	-0.03
676.01	0.01
676.194	0.02
676.377	0.04
676.561	0.04
676.745	0.01
676.928	-0.01
677.112	0.02
677.296	-0.09
677.479	-0.05
677.663	-0.03
677.846	0
678.03	-0.02
678.213	-0.03
678.397	0.02
678.58	-0.03
678.764	-0.03
678.947	-0.04
679.131	-0.05
679.314	-0.03
679.498	-0
679.681	0.01
679.865	0.07
680.048	0.02
680.231	-0.03
680.415	0.01
680.598	-0.02
680.781	-0.03
680.965	-0.07
681.148	0.03
681.331	-0.02
681.514	0.03
681.698	-0.02
681.881	-0.01
682.064	-0.02
682.247	-0.02
682.43	-0.05
682.614	0.03
682.797	0.03
682.98	0.03
683.163	-0.02
683.346	0
683.529	-0.03
683.712	-0.02
683.895	0.02
684.078	-0.04
684.261	-0.04
684.444	0.01
684.627	0.06
684.81	-0.06
684.993	-0.01
685.176	-0.01
685.359	-0.06
685.542	-0.03
685.725	0.01
685.908	-0.04
686.091	-0.04
686.274	-0
686.457	0.04
686.639	-0.01
686.822	0.02
687.005	-0.04
687.188	0.01
687.371	-0
687.553	0.01
687.736	0.06
687.919	0.09
688.102	0.03
688.284	-0.04
688.467	0.01
688.65	-0.05
688.832	-0.05
689.015	-0.05
689.197	-0.08
689.38	0.05
689.563	0.01
689.745	-0.06
689.928	-0.05
690.11	-0
690.293	-0.01
690.475	-0.1
690.658	0.01
690.84	-0.03
691.023	-0
691.205	-0.04
691.388	0.04
691.57	0.02
691.752	-0.01
691.935	-0.07
692.117	-0.08
692.3	-0.01
692.482	-0.03
692.664	-0.05
692.847	-0.01
693.029	-0.01
693.211	0
693.393	-0.03
693.576	-0.03
693.758	0.04
693.94	-0.03
694.122	-0.06
694.304	-0.03
694.487	-0.01
694.669	0.04
694.851	-0.04
695.033	-0.04
695.215	-0.03
695.397	-0.08
695.579	-0.01
695.761	-0.1
695.943	-0.12
696.125	0.06
696.308	-0.01
696.49	-0.15
696.671	0.09
696.853	0
697.035	0.11
697.217	-0.05
697.399	-0.07
697.581	-0.01
697.763	-0.02
697.945	-0.06
698.127	-0.06
698.309	0.05
698.491	0.01
698.672	0.02
698.854	0.02
699.036	0.03
699.218	-0.06
699.399	0.03
699.581	0.02
699.763	-0.04
699.945	-0.01
700.126	-0.1
700.308	-0.03
700.49	-0.04
700.671	-0.03
700.853	-0.04
701.035	-0.07
701.216	-0.06
701.398	-0.03
701.579	-0.03
701.761	0
701.943	-0.06
702.124	-0.08
702.306	-0.07
702.487	0.08
702.669	-0.07
702.85	-0.05
703.031	-0.04
703.213	0.06
703.394	0.04
703.576	-0.05
703.757	0.02
703.938	0.09
704.12	0.12
704.301	-0.03
704.483	-0.07
704.664	0.01
704.845	0.07
705.026	0.01
705.208	-0
705.389	-0
705.57	-0.02
705.751	-0.05
705.933	-0.07
706.114	0.02
706.295	-0
706.476	-0.13
706.657	0.07
706.838	-0.01
707.02	0.02
707.201	-0.02
707.382	-0.05
707.563	0.01
707.744	-0.01
707.925	-0.04
708.106	-0.07
708.287	0
708.468	0.05
708.649	-0.01
708.83	0.04
709.011	-0.06
709.192	0.05
709.373	-0.14
709.554	-0.06
709.734	0.03
709.915	0.06
710.096	-0.05
710.277	-0.09
710.458	-0.01
710.639	0.06
710.819	-0.1
711	-0.05
711.181	0.01
711.362	0.01
711.542	0.03
711.723	-0.06
711.904	0.05
712.085	0.03
712.265	-0.02
712.446	-0.08
712.627	-0.02
712.807	0.01
712.988	-0.03
713.168	-0.1
713.349	0.03
713.53	-0.07
713.71	-0.03
713.891	-0.03
714.071	0.02
714.252	-0.04
714.432	-0.06
714.613	-0.07
714.793	-0.01
714.974	0.09
715.154	0.04
715.334	0.03
715.515	0.06
715.695	-0.04
715.876	-0.08
716.056	-0
716.236	-0.03
716.417	-0.03
716.597	-0.03
716.777	0.13
716.957	-0.08
717.138	0.01
717.318	-0.03
717.498	-0.04
717.678	-0.02
717.859	0.03
718.039	-0.12
718.219	0.01
718.399	0.06
718.579	-0.11
718.759	-0.09
718.939	0.04
719.12	-0.03
719.3	-0.02
719.48	-0.12
719.66	-0.09
719.84	0.01
720.02	-0
720.2	-0.02
720.38	0.02
720.56	-0.04
720.74	-0.1
720.92	-0.04
721.1	0.06
721.279	0.03
721.459	0.01
721.639	-0.14
721.819	0
721.999	-0.05
722.179	0
722.359	-0.09
722.538	-0.01
722.718	-0.01
722.898	-0.09
723.078	-0.03
723.257	-0.01
723.437	0.01
723.617	-0.03
723.797	-0.03
723.976	-0.03
724.156	0.07
724.336	0.07
724.515	0.1
724.695	-0.11
724.874	-0.03
725.054	0.07
725.234	-0.14
725.413	0.04
725.593	-0.05
725.772	0.03
725.952	-0.01
726.131	-0.02
726.311	-0.07
726.49	-0.09
726.67	-0.1
726.849	-0.06
727.028	-0.01
727.208	-0.04
727.387	0.04
727.567	-0.09
727.746	-0
727.925	-0.13
728.105	-0.06
728.284	-0.04
728.463	-0.08
728.643	0.04
728.822	-0.16
729.001	-0.05
729.18	-0.08
729.359	0.01
729.539	-0.04
729.718	-0.05
729.897	0.06
730.076	-0.1
730.255	-0.14
730.434	-0.04
730.614	0.04
730.793	0.03
730.972	-0.12
731.151	-0.02
731.33	0.09
731.509	0.09
731.688	0.01
731.867	-0.04
732.046	-0.1
732.225	0.19
732.404	-0.12
732.583	-0.16
732.762	-0
732.941	0.06
733.12	0.01
733.298	-0.06
733.477	0.12
733.656	-0.1
733.835	-0.13
734.014	0.01
734.193	0.03
734.371	0.05
734.55	0.08
734.729	-0.12
734.908	0.09
735.086	0.02
735.265	0.06
735.444	-0.17
735.623	-0.09
735.801	-0.11
735.98	0
736.159	0.03
736.337	0.08
736.516	0.01
736.694	0.02
736.873	0
737.052	0.02
737.23	0.06
737.409	-0.08
737.587	0.1
737.766	-0.17
737.944	-0.14
738.123	0.03
738.301	0.06
738.479	-0.08
738.658	-0.01
738.836	-0.19
739.015	0.06
739.193	-0.05
739.371	-0.08
739.55	-0.11
739.728	-0.2
739.906	0.12
740.085	0.05
740.263	-0.09
740.441	-0.21
740.62	0.1
740.798	0.05
740.976	0.05
741.154	-0.07
741.332	0.13
741.511	-0.04
741.689	-0.03
741.867	0.05
742.045	-0.03
742.223	-0.09
742.401	-0.16
742.579	-0.17
742.757	0.01
742.935	-0.05
743.114	-0.12
743.292	-0.12
743.47	-0.07
743.648	-0.15
743.826	0.01
744.004	-0.05
744.181	0.07
744.359	-0.09
744.537	-0.01
744.715	-0.07
744.893	-0.03
745.071	-0.04
745.249	-0.03
745.427	-0.05
745.605	0.05
745.782	-0.07
745.96	0.07
746.138	0.01
746.316	-0
746.493	-0.02
746.671	-0.02
746.849	0.08
747.027	0.13
747.204	-0.11
747.382	-0.03
747.56	-0.14
747.737	0.08
747.915	-0.1
748.093	0.03
748.27	-0.1
748.448	-0.19
748.625	-0.15
748.803	-0.08
748.98	-0.05
749.158	-0
749.335	0.03
749.513	-0.02
749.69	-0.05
749.868	0
750.045	0.05
750.223	-0.07
750.4	-0.24
750.578	0.03
750.755	-0.04
750.932	-0.15
751.11	0.05
751.287	-0.15
751.464	0.09
751.642	-0.18
751.819	0.05
751.996	-0.07
752.173	-0.02
752.351	-0.11
752.528	0.04
752.705	-0.01
752.882	-0.06
753.06	0.06
753.237	0.07
753.414	0.17
753.591	0.05
753.768	-0.11
753.945	-0.13
754.122	-0.06
754.299	0.02
754.476	-0.11
754.654	-0.04
754.831	-0.03
755.008	-0.07
755.185	-0.04
755.362	-0.12
755.539	-0.04
755.716	-0.18
755.892	0.02
756.069	-0.1
756.246	-0.07
756.423	-0.06
756.6	0.2
756.777	-0.06
756.954	0.11
757.131	-0.11
757.307	-0.12
757.484	-0.15
757.661	-0.02
757.838	0.08
758.015	-0.17
758.191	0.07
758.368	-0.09
758.545	0.05
758.721	0.13
758.898	-0.13
759.075	0.12
759.251	0.03
759.428	0.01
759.605	-0.03
759.781	-0.07
759.958	-0.06
760.134	0.02
760.311	-0.09
760.488	0.08
760.664	0.06
760.841	-0.13
761.017	-0.1
761.194	0.06
761.37	0.01
761.547	-0.06
761.723	0.01
761.899	0.16
762.076	-0.09
762.252	-0.15
762.429	0.01
762.605	-0
762.781	-0.05
762.958	0.02
763.134	-0.13
763.31	-0.12
763.486	0.04
763.663	-0.24
763.839	0.06
764.015	-0.15
764.191	-0.09
764.368	0.02
764.544	-0.17
764.72	0.05
764.896	0.02
765.072	-0.08
765.248	-0.13
765.425	-0.07
765.601	-0.16
765.777	-0.11
765.953	-0.21
766.129	-0.08
766.305	-0.1
766.481	-0.02
766.657	0.03
766.833	0.18
767.009	-0.11
767.185	-0.14
767.361	-0.03
767.537	-0.19
767.713	0.06
767.889	-0.13
768.065	-0.08
768.24	-0.25
768.416	0.07
768.592	-0.12
768.768	-0
768.944	-0.08
769.12	-0.04
769.295	-0.1
769.471	-0.07
769.647	-0.1
769.823	0.05
769.998	-0.07
770.174	-0.17
770.35	0.27
770.525	0.1
770.701	-0.04
770.877	-0.12
771.052	-0.1
771.228	0.02
771.403	-0.02
771.579	0.13
771.755	0.21
771.93	-0.26
772.106	-0.07
772.281	-0.18
772.457	-0.05
772.632	-0.01
772.808	-0.15
772.983	-0.04
773.159	-0.24
773.334	0.04
773.509	0
773.685	-0.09
773.86	0.24
774.036	0.17
774.211	-0.13
774.386	-0.04
774.562	-0.08
774.737	-0.02
774.912	-0.29
775.087	0.03
775.263	0.05
775.438	-0.07
775.613	-0.14
775.788	-0.11
775.964	0.09
776.139	0.2
776.314	-0.1
776.489	-0.09
776.664	0.01
776.839	-0.18
777.014	0.13
777.19	0.14
777.365	0.22
777.54	0.22
777.715	-0.11
777.89	0.01
778.065	-0.11
778.24	-0.04
778.415	0.08
778.59	-0.18
778.765	-0.22
778.94	-0
779.115	-0.14
779.289	-0.22
779.464	-0.09
779.639	-0.07
779.814	-0.13
779.989	-0.09
780.164	0.27
780.339	-0.03
780.513	-0.28
780.688	-0.12
780.863	-0.08
781.038	-0.1
781.212	-0.28
781.387	-0.15
781.562	0.18
781.737	0.01
781.911	0.08
782.086	-0.17
782.261	-0.16
782.435	0.32
782.61	-0.05
782.784	0.08
782.959	0.15
783.134	-0.15
783.308	-0.32
783.483	0.05
783.657	0.22
783.832	0.11
784.006	-0.32
784.181	0.05
784.355	0.07
784.53	-0.37
784.704	-0.09
784.878	0.17
785.053	-0.09
785.227	0.19
785.402	0.36
785.576	-0.37
785.75	-0.21
785.925	-0.08
786.099	0.04
786.273	-0.02
786.448	0.09
786.622	0.19
786.796	0.1
786.97	0.16
787.145	0.24
787.319	-0.36
787.493	-0.17
787.667	-0.34
787.841	0.03
788.015	0.23
788.19	-0.02
788.364	-0.08
788.538	-0.07
788.712	0.17
788.886	0.08
789.06	0.45
789.234	0.06
789.408	-0.31
789.582	-0.1
789.756	-0.08
789.93	-0.15
790.104	-0.08
790.278	-0.17
790.452	-0.39
790.626	0.11
790.8	-0.15
790.973	0.13
791.147	0.17
791.321	0.37
791.495	-0.05
791.669	0.06
791.843	-0.01
792.016	0.07
792.19	0.32
792.364	-0.31
792.538	0.26
792.711	0.17
792.885	-0.12
793.059	-0.09
793.233	-0.66
793.406	0.15
793.58	-0.1
793.754	-0.06
793.927	0.07
794.101	0.09
794.274	-0.13
794.448	0.16
794.622	-0.19
794.795	0.29
794.969	-0.27
795.142	0.19
795.316	-0.07
795.489	-0.12
795.663	0.3
795.836	0.19
796.009	-0.17
796.183	0.05
796.356	-0.05
796.53	0.09
796.703	0.13
796.876	0.62
797.05	0.04
797.223	0.07
797.396	0.13
797.57	0.12
797.743	0.29
797.916	-0.04
798.09	-0.25
798.263	0.15
798.436	0.02
798.609	-0.02
798.782	-0.24
798.956	0
799.129	-0.01
799.302	-0.18
799.475	-0.12
799.648	-0.21
799.821	0.05
799.994	-0.16
800.167	-0.43
800.34	-0.06
800.514	0.05
800.687	-0.25
800.86	-0.21
801.033	-0.32
801.206	-0.25
801.379	-0.19
801.551	0.16
801.724	0
801.897	0.32
802.07	-0.11
802.243	-0.28
802.416	-0.37
802.589	-0.1
802.762	0.23
802.935	-0.15
803.107	-0.1
803.28	-0.16
803.453	0.24
803.626	-0.23
803.798	-0.15
803.971	0
804.144	0.18
804.317	0.04
804.489	-0.22
804.662	-0.24
804.835	0.15
805.007	-0.18
805.18	0.31
805.353	-0.16
805.525	-0.02
805.698	-0.49
805.87	0.25
806.043	-0.02
806.215	-0.29
806.388	-0.49
806.56	0.07
806.733	0.35
806.905	0.21
807.078	-0.29
807.25	-0.47
807.423	0.07
807.595	0.06
807.768	-0.23
807.94	0.43
808.112	0.03
808.285	-0.07
808.457	-0.6
808.629	-0.27
808.802	0.39
808.974	-0.28
809.146	0.03
809.318	-0.41
809.491	-0.18
809.663	0.25
809.835	-0.27
810.007	0.17
810.18	0.12
810.352	-0.36
810.524	-0.29
810.696	0.17
810.868	0.07
811.04	0.07
811.212	-0.34
811.384	0.08
811.556	-0.01
811.728	-0.38
811.901	0.62
812.073	-0.34
812.245	-0.2
812.417	0.34
812.589	-0.4
812.76	0.21
812.932	0.27
813.104	0.06
813.276	-0.02
813.448	0.38
813.62	0.22
813.792	-0.01
813.964	0.34
814.136	0.23
814.307	-0.36
814.479	-0.23
814.651	-0.35
814.823	0.22
814.995	-0.45
815.166	-0.33
815.338	-0.14
815.51	-0.5
815.681	0.57
815.853	0.02
816.025	-0.39
816.196	0.45
816.368	0.57
816.54	-0.39
816.711	-0.53
816.883	0.19
817.054	1.08
817.226	-0.36
817.398	-0.14
817.569	-0.38
817.741	-0.34
817.912	0.23
818.084	-0.34
818.255	0.44
818.426	-0.03
818.598	-0.25
818.769	-0.1
818.941	-0.1
819.112	0.47
819.283	0.43
819.455	-0.14
819.626	0.32
819.798	-0.11
819.969	0.01
820.14	-0.3
820.311	-0.23
820.483	-0.09
820.654	0.03
820.825	-0.06
820.996	-0.08
821.168	-0.64
821.339	-0.26
821.51	-0.48
821.681	0.02
821.852	-0.29
822.023	-0.57
822.195	-1
822.366	-0.02
822.537	-0.02
822.708	0.32
822.879	-0.43
823.05	0.17
823.221	-0
823.392	0.02
823.563	-0.14
823.734	0.42
823.905	-0.69
824.076	-0.62
824.247	-0.5
824.418	-0.64
824.589	0.75
824.759	-0.09
824.93	0.05
825.101	-0.25
825.272	0.38
825.443	0.57
825.614	0.06
825.784	-0.99
825.955	0.61
826.126	0.17
826.297	0.15
826.467	0.85
826.638	0.23
826.809	-1.1
826.98	-0.12
827.15	0.01
827.321	-0.1
827.492	0.35
827.662	0.19
827.833	0.58
828.003	0.5
828.174	-0.35
828.345	-0.87
828.515	0.53
828.686	-0.15
828.856	-0.27
829.027	-0.12
829.197	-0.01
829.368	0.58
829.538	-0.69
829.709	-0.02
829.879	0.14
830.049	-0.19
830.22	0.09
830.39	-0.26
830.56	0.45
830.731	-0.24
830.901	-0.76
831.072	-0.15
831.242	-0.28
831.412	0.32
831.582	-0.43
831.753	-0.17
831.923	0.06
832.093	-0.42
832.263	-0.55
832.434	-0.3
832.604	0.01
832.774	0.03
832.944	-0.56
833.114	0.08
833.284	0.05
833.454	-0.85
833.624	-0.41
833.795	-0.77
833.965	0.18
834.135	0.11
834.305	-0.45
834.475	-0.92
834.645	-0.11
834.815	-0.13
834.985	-0.67
835.155	-0.17
835.325	0.02
835.494	0.47
835.664	-0.29
835.834	-0.9
836.004	-0.1
836.174	0.3
836.344	-0.45
836.514	-0.63
836.684	-0.54
836.853	0.12
837.023	0.16
837.193	-0.33
837.363	0.98
837.532	-0.13
837.702	-0.14
837.872	-0.19
838.041	0.27
838.211	1.08
838.381	-0.95
838.55	0.28
838.72	0.9
838.89	1.24
839.059	-0.66
839.229	-0.77
839.398	1.07
839.568	0.01
839.738	-0.27
839.907	0.74
840.077	0.4
840.246	0.05
840.416	-0.39
840.585	-0.42
840.755	0.65
840.924	0.4
841.093	-0.32
841.263	-0.14
841.432	0.33
841.602	-0.13
841.771	-1.02
841.94	-0.31
842.11	1.46
842.279	1.52
842.448	-0.41
842.617	-1.51
842.787	0.57
842.956	-1.42
843.125	0.11
843.294	-0.05
843.464	1.27
843.633	0.11
843.802	-1.32
843.971	-0.23
844.14	0.41
844.309	0.52
844.479	-1.08
844.648	-0.94
844.817	-0.45
844.986	0.01
845.155	-0.79
845.324	-0.73
845.493	-0.2
845.662	-0.8
845.831	-0.11
846	0.53
846.169	-0.38
846.338	1.05
846.507	0.58
846.676	0.5
846.844	-0.99
847.013	0.21
847.182	1.13
847.351	-0.6
847.52	-0.1
847.689	0.24
847.858	0.33
848.026	-0.35
848.195	0.11
848.364	-0.56
848.533	-1.26
848.701	-0.62
848.87	0.52
849.039	-0.05
849.207	0.78
849.376	0.39
849.545	1.13
849.713	0.21
849.882	-0.43
850.051	-0.63
850.219	0.13
850.388	0.55
850.556	-0.39
850.725	-1.08
850.893	0.25
851.062	-0.89
851.23	-0.35
851.399	-1.31
851.567	-1.18
851.736	-0.32
851.904	-0.64
852.073	-0.72
852.241	0.37
852.41	0.21
852.578	0.57
852.746	-0.01
852.915	0.53
853.083	0.16
853.251	-1.73
853.42	-0.34
853.588	0.17
853.756	0.75
853.924	0.33
854.093	-0.5
854.261	0.01
854.429	-0.9
854.597	-0.18
854.765	-1.43
854.934	-0.04
855.102	1.28
855.27	0.64
855.438	0.77
855.606	0.37
855.774	1.24
855.942	-2.08
856.11	-1.67
856.278	0.84
856.446	0.49
856.614	0.07
856.782	-1.36
856.95	-0.04
857.118	0.35
857.286	-0.16
857.454	-0.91
857.622	-0.22
857.79	0.57
857.958	-1.86
858.126	-0.22
858.294	-2.38
858.462	-0.67
858.629	-1.28
858.797	-0.81
858.965	0.11
859.133	0
859.301	-0.48
859.468	-0.38
859.636	-0.51
859.804	1.9
859.971	0.48
860.139	-0.97
860.307	0.77
860.474	0.36
860.642	-0.84
860.81	-0.94
860.977	-0.49
861.145	0.66
861.313	0.32
861.48	-1.71
861.648	-0.12
861.815	-0.6
861.983	-1.43
862.15	-1.63
862.318	-0.14
862.485	1.47
862.653	-1.28
862.82	-1.38
862.988	1.4
863.155	0.77
863.322	-1.03
863.49	-0.48
863.657	-0.91
863.824	1.75
863.992	0.45
864.159	-0.63
864.326	1.62
864.494	0.47
864.661	1.65
864.828	-0.58
864.996	1.01
865.163	1.4
865.33	-1.43
865.497	-2.38
865.664	-0.6
865.832	-2.19
865.999	-0.48
866.166	-1.12
866.333	-0.77
866.5	-0.14
866.667	-0.47
866.834	0.23
867.001	1.8
867.168	-1.53
867.335	-1.39
867.502	-1.33
867.669	-1.24
867.836	2.66
868.003	0.07
868.17	0.84
868.337	2.38
868.504	2.28
868.671	-1.3
868.838	-0.48
869.005	-0.26
869.172	0.21
869.339	0.15
869.505	0.81
869.672	-1.35
869.839	2.08
870.006	-1.13
870.173	-2.41
870.339	0.64
870.506	1.85
870.673	-2.11
870.84	1.41
871.006	-0.45
871.173	-0.92
871.34	-0.46
871.506	-0.94
871.673	-0.12
871.839	-1.04
872.006	-0.52
872.173	0.91
872.339	0.14
872.506	1.38
872.672	-0.82
872.839	-1.91
873.005	-0.04
873.172	1.47
873.338	1.72
873.505	-0.38
873.671	-0.75
873.838	0.36
874.004	-1.32
874.171	-1.24
874.337	0.81
874.503	0.78
874.67	0.04
874.836	-0.44
875.002	2.05
875.169	0.81
875.335	-0.86
875.501	-0.47
875.668	0.62
875.834	0.06
876	-0.74
876.166	1.17
876.332	1.75
876.499	3.09
876.665	-0.36
876.831	-0.94
876.997	1.8
877.163	0.78
877.329	0.54
877.495	-0.58
877.662	1.93
877.828	1.44
877.994	-0.73
878.16	-2.75
878.326	0.14
878.492	0.54
878.658	-0.79
878.824	-0.55
878.99	2.09
879.156	-0.83
879.322	0.92
879.487	-0.27
879.653	0.81
879.819	0.46
879.985	-1.4
880.151	0.66
880.317	0.7
880.483	-0.01
880.648	2.16
880.814	-1.41
880.98	2.31
881.146	-2.32
881.312	-0.91
881.477	-0.12
881.643	0.27
881.809	1.63
881.974	3.45
882.14	-2.38
882.306	-1.84
882.471	3
882.637	-0.91
882.803	1.17
882.968	3.8
883.134	3.47
883.299	-1.38
883.465	-0.35
883.63	-0.01
883.796	-0.37
883.961	2.4
884.127	1.81
884.292	-3.18
884.458	-2.37
884.623	-2.37
