Data from Apollo_Calib_20240827__AbsoluteIrradiance__628__09-37-02-529.txt Node

Date: Wed Aug 28 09:37:02 BST 2024
User: biology
Spectrometer: FLMT08252
Trigger mode: 0
Integration Time (sec): 5.000000E-1
Scans to average: 5
Electric dark correction enabled: true
Nonlinearity correction enabled: false
Boxcar width: 0
XAxis mode: Wavelengths
Number of Pixels in Spectrum: 3648
>>>>>Begin Spectral Data<<<<<
179.588	-0
179.809	-0
180.03	-0
180.251	-0
180.473	-0
180.694	0
180.915	0
181.136	-0
181.357	0
181.578	-0
181.799	-0
182.02	-0
182.241	0
182.462	-0
182.683	0
182.904	-0
183.125	0
183.346	-0
183.567	0
183.788	-0
184.009	-0
184.23	-0
184.451	0
184.672	-0
184.892	-0
185.113	-0
185.334	0
185.555	-0
185.776	-0
185.996	0
186.217	-0
186.438	-0
186.659	-0
186.879	-0
187.1	-0
187.321	-0
187.541	-0
187.762	-0
187.983	0
188.203	-0
188.424	-0
188.644	-0
188.865	0
189.086	-0
189.306	0
189.527	-0
189.747	0
189.968	-0
190.188	-0
190.409	-0
190.629	0
190.849	-0
191.07	-0
191.29	0
191.511	-0
191.731	-0
191.951	-0
192.172	0
192.392	-0
192.612	-0
192.833	-0
193.053	0
193.273	0
193.493	-0
193.714	0
193.934	0
194.154	0
194.374	0
194.594	0
194.815	-0
195.035	-0
195.255	-0
195.475	-0
195.695	-0
195.915	0
196.135	-0
196.355	0
196.575	0
196.795	-0
197.015	-0
197.235	-0
197.455	-0
197.675	-0
197.895	-0
198.115	-0
198.335	0
198.555	-0
198.775	0
198.995	0
199.214	0
199.434	-0
199.654	-0
199.874	-0
200.094	0.15
200.313	-0.4
200.533	-0.29
200.753	-0.89
200.973	0.45
201.192	0.4
201.412	-0.96
201.632	-0.55
201.851	0.76
202.071	-0.8
202.291	-0.46
202.51	-1.01
202.73	0.09
202.95	-0.47
203.169	-0.75
203.389	-0.34
203.608	0.37
203.828	-0.66
204.047	-0.42
204.267	0.09
204.486	-0.06
204.706	-0.04
204.925	-0.36
205.145	-0.29
205.364	0.43
205.583	0.61
205.803	-0.7
206.022	-0.3
206.242	0.26
206.461	0.16
206.68	-0.07
206.9	0.03
207.119	0.11
207.338	0.45
207.557	-0.27
207.777	-0.09
207.996	-0.2
208.215	0.06
208.434	-0.42
208.654	-0.6
208.873	-0.07
209.092	0.6
209.311	-0.15
209.53	-0.07
209.749	-0.29
209.968	-0.24
210.187	-0.27
210.407	-0.64
210.626	-0.4
210.845	0.26
211.064	0.01
211.283	-0.07
211.502	0.22
211.721	0
211.94	-0.44
212.159	0.24
212.377	0.14
212.596	0.48
212.815	0.1
213.034	-0.03
213.253	0.17
213.472	0.1
213.691	-0.1
213.91	-0.42
214.128	-0.28
214.347	0.26
214.566	-0.36
214.785	-0.23
215.003	0.07
215.222	0.13
215.441	-0.02
215.66	-0.34
215.878	-0
216.097	0.11
216.316	-0.37
216.534	-0.24
216.753	-0.07
216.972	-0.23
217.19	0.06
217.409	-0.31
217.627	-0.29
217.846	-0.19
218.064	-0.11
218.283	-0.21
218.501	0.37
218.72	0.15
218.938	-0.21
219.157	-0.09
219.375	0.06
219.594	0.01
219.812	-0.4
220.031	-0.34
220.249	0.2
220.467	0.2
220.686	-0.08
220.904	-0.26
221.122	-0.17
221.341	0.22
221.559	-0.1
221.777	-0.24
221.995	-0.04
222.214	0.02
222.432	-0.2
222.65	0.25
222.868	-0.08
223.086	-0.03
223.305	-0.03
223.523	-0.11
223.741	0.17
223.959	-0.16
224.177	-0.3
224.395	-0.21
224.613	0.09
224.831	0.06
225.049	-0.16
225.267	-0.03
225.485	-0.05
225.703	-0.01
225.921	-0.07
226.139	-0.04
226.357	0.13
226.575	0.05
226.793	-0.12
227.011	0.44
227.229	-0.06
227.447	0.04
227.665	-0.12
227.883	-0.3
228.1	-0.12
228.318	-0.04
228.536	-0.29
228.754	-0.06
228.972	-0.02
229.189	0.09
229.407	-0.08
229.625	-0.04
229.843	0.15
230.06	-0.01
230.278	-0.17
230.496	-0.04
230.713	-0.01
230.931	0.09
231.149	-0.08
231.366	-0.3
231.584	-0.05
231.801	0.26
232.019	-0.03
232.236	-0.16
232.454	-0.17
232.671	-0.03
232.889	-0
233.106	-0.15
233.324	0.03
233.541	-0.03
233.759	0.15
233.976	-0.09
234.194	-0.08
234.411	0.06
234.628	-0.11
234.846	-0.07
235.063	0.05
235.28	0.11
235.498	-0.16
235.715	-0.15
235.932	0.11
236.149	-0.03
236.367	-0.19
236.584	0.04
236.801	-0.17
237.018	0.1
237.236	-0.11
237.453	-0.17
237.67	0.05
237.887	-0.02
238.104	-0.04
238.321	-0.08
238.538	-0.16
238.755	0.07
238.973	-0.19
239.19	-0.02
239.407	0.08
239.624	0.01
239.841	-0.18
240.058	-0.07
240.275	0.09
240.492	-0.03
240.709	0.03
240.925	-0.1
241.142	-0
241.359	-0.08
241.576	-0.1
241.793	-0.09
242.01	-0.01
242.227	0.04
242.444	-0.02
242.66	0.12
242.877	0.04
243.094	-0.07
243.311	-0.02
243.527	-0.18
243.744	0.04
243.961	0.03
244.178	-0.16
244.394	-0.07
244.611	0.07
244.828	0.16
245.044	-0.15
245.261	-0.06
245.477	0.07
245.694	0.04
245.911	-0.05
246.127	-0.09
246.344	0.1
246.56	0.12
246.777	-0.03
246.993	0.03
247.21	0.07
247.426	0.13
247.643	-0.08
247.859	-0.1
248.076	-0.09
248.292	0.14
248.508	-0.01
248.725	0.03
248.941	0.02
249.157	0.02
249.374	-0.07
249.59	-0.11
249.806	0.1
250.023	-0.05
250.239	-0.11
250.455	-0.14
250.671	-0.03
250.888	0.04
251.104	-0.07
251.32	-0.07
251.536	-0.04
251.752	-0.02
251.969	-0.07
252.185	-0.03
252.401	0.13
252.617	-0.05
252.833	-0.01
253.049	-0.01
253.265	0.04
253.481	-0.06
253.697	-0.1
253.913	-0.06
254.129	0.02
254.345	-0.03
254.561	-0.04
254.777	-0.02
254.993	0.02
255.209	-0.01
255.425	-0.01
255.641	-0.14
255.857	0.08
256.073	-0.12
256.288	-0.07
256.504	-0.15
256.72	-0.02
256.936	0.06
257.152	-0.04
257.367	-0.09
257.583	-0.03
257.799	-0.01
258.015	-0.09
258.23	-0.12
258.446	0.07
258.662	-0.03
258.877	-0.09
259.093	-0.06
259.309	-0.04
259.524	0.04
259.74	-0.15
259.955	-0.08
260.171	-0.02
260.387	-0.04
260.602	0.08
260.818	0.09
261.033	-0.14
261.249	-0.02
261.464	-0.08
261.68	-0.11
261.895	-0
262.11	0.04
262.326	-0.07
262.541	-0.17
262.757	0.05
262.972	0.06
263.187	-0.04
263.403	-0.07
263.618	0.02
263.833	-0.02
264.049	-0.03
264.264	-0.03
264.479	0.05
264.694	0.1
264.91	-0.09
265.125	-0
265.34	0.04
265.555	0.1
265.77	-0.03
265.986	-0.05
266.201	-0
266.416	0.04
266.631	-0.06
266.846	-0.01
267.061	0.03
267.276	0.03
267.491	-0.15
267.706	0.06
267.921	0.04
268.136	-0.02
268.351	-0
268.566	-0.04
268.781	0.06
268.996	-0.04
269.211	-0.01
269.426	-0.07
269.641	-0.02
269.856	-0.04
270.071	-0.02
270.285	-0.09
270.5	-0
270.715	0.01
270.93	-0.02
271.145	0.02
271.359	0.03
271.574	-0.05
271.789	-0
272.004	-0.06
272.218	-0.05
272.433	0.05
272.648	-0.04
272.862	0.05
273.077	0.01
273.292	-0.04
273.506	-0.06
273.721	-0.05
273.936	0.05
274.15	-0
274.365	-0.07
274.579	0.01
274.794	0.01
275.008	0
275.223	-0.1
275.437	-0.02
275.652	0.07
275.866	-0.05
276.081	-0.03
276.295	-0.01
276.509	0.01
276.724	-0.03
276.938	-0.03
277.153	0.02
277.367	0.01
277.581	-0.04
277.796	-0.01
278.01	-0.07
278.224	0.02
278.438	0.11
278.653	-0.1
278.867	-0.08
279.081	-0.19
279.295	-0.02
279.51	0.05
279.724	-0.07
279.938	-0.02
280.152	0.03
280.366	-0.03
280.58	0.02
280.794	0.05
281.008	0.02
281.222	0.01
281.437	0.09
281.651	0.01
281.865	0.09
282.079	-0.01
282.293	-0.08
282.507	-0.09
282.721	-0.02
282.935	-0
283.148	-0.09
283.362	-0.06
283.576	-0.06
283.79	0.03
284.004	-0.03
284.218	0.08
284.432	-0
284.646	-0.02
284.859	-0.06
285.073	-0.01
285.287	-0.01
285.501	-0.04
285.714	-0.05
285.928	-0
286.142	-0.01
286.356	-0.03
286.569	-0.03
286.783	0.06
286.997	0.01
287.21	-0.01
287.424	0.02
287.637	-0.03
287.851	0.01
288.065	0.04
288.278	-0.02
288.492	-0.03
288.705	0.06
288.919	0.02
289.132	-0.09
289.346	0.09
289.559	-0.1
289.773	-0.08
289.986	-0
290.2	-0.05
290.413	0.02
290.626	-0.02
290.84	-0.02
291.053	-0.02
291.267	0.05
291.48	-0.03
291.693	-0.02
291.906	-0.04
292.12	0
292.333	-0.04
292.546	-0.03
292.76	0.08
292.973	-0
293.186	0.04
293.399	-0.03
293.612	0.09
293.826	-0.02
294.039	0.02
294.252	-0.04
294.465	-0.01
294.678	0.04
294.891	-0.02
295.104	-0.01
295.317	-0.02
295.53	-0.01
295.743	0
295.956	-0.04
296.169	0.05
296.382	0.05
296.595	-0.03
296.808	-0.05
297.021	0.04
297.234	0.02
297.447	0.04
297.66	0.03
297.873	0
298.086	0.03
298.299	-0.05
298.511	-0.1
298.724	-0.04
298.937	-0.06
299.15	-0.03
299.363	0
299.575	-0.01
299.788	0.05
300.001	-0.03
300.213	-0.03
300.426	-0.03
300.639	-0.05
300.852	-0.02
301.064	0.03
301.277	0.04
301.489	0.03
301.702	0.03
301.915	0.03
302.127	0.04
302.34	0.01
302.552	0.03
302.765	-0.06
302.977	0.08
303.19	0.01
303.402	-0.02
303.615	-0.06
303.827	-0.03
304.04	0.01
304.252	0
304.464	0.02
304.677	0.13
304.889	0.06
305.102	-0
305.314	-0.03
305.526	0.02
305.739	0.06
305.951	-0.02
306.163	-0.07
306.375	0.05
306.588	0
306.8	-0.01
307.012	-0.06
307.224	0.03
307.436	0.01
307.649	-0.08
307.861	0
308.073	0.01
308.285	0
308.497	-0.05
308.709	-0.03
308.921	-0.02
309.133	0.05
309.346	-0.03
309.558	-0.03
309.77	0.04
309.982	0.04
310.194	0.05
310.406	-0.03
310.617	0.07
310.829	-0.03
311.041	-0.01
311.253	0.01
311.465	0.01
311.677	0.01
311.889	0.02
312.101	-0.03
312.313	0.05
312.524	0.08
312.736	-0.04
312.948	-0.01
313.16	0.05
313.372	-0.03
313.583	-0.01
313.795	-0.04
314.007	-0.03
314.218	0.02
314.43	0
314.642	-0.03
314.853	-0.04
315.065	0.04
315.277	-0
315.488	0
315.7	0.02
315.912	0.02
316.123	-0.03
316.335	-0.03
316.546	0.1
316.758	-0.02
316.969	-0.06
317.181	0.02
317.392	-0.04
317.604	0.06
317.815	-0.08
318.026	-0.02
318.238	-0.01
318.449	-0.02
318.661	-0.08
318.872	-0.07
319.083	-0.04
319.295	0.04
319.506	-0.04
319.717	-0.01
319.929	0.02
320.14	-0.01
320.351	-0.01
320.562	-0.01
320.774	-0.03
320.985	0.01
321.196	-0.02
321.407	-0.07
321.618	0.04
321.829	0.01
322.041	0.03
322.252	-0.03
322.463	-0.01
322.674	-0.02
322.885	-0.08
323.096	-0.03
323.307	0.01
323.518	-0
323.729	0.03
323.94	0.01
324.151	-0.02
324.362	-0.03
324.573	-0.02
324.784	-0.01
324.995	0.01
325.206	0
325.417	-0.03
325.628	-0.02
325.838	0.03
326.049	-0.02
326.26	0.04
326.471	-0.06
326.682	-0.02
326.892	-0.04
327.103	-0.08
327.314	-0.07
327.525	0.05
327.735	-0.01
327.946	-0.03
328.157	-0.05
328.368	0.01
328.578	-0.02
328.789	0
328.999	-0.01
329.21	-0.01
329.421	0.02
329.631	-0.06
329.842	-0.04
330.052	0.04
330.263	0
330.473	0.01
330.684	-0.03
330.894	-0.02
331.105	-0.01
331.315	-0.01
331.526	-0.03
331.736	0.08
331.947	0.04
332.157	0.01
332.367	-0.06
332.578	0.05
332.788	0.01
332.999	0.07
333.209	0.01
333.419	-0.05
333.629	0.05
333.84	0.01
334.05	0
334.26	0.04
334.47	0
334.681	0.05
334.891	-0.05
335.101	0.07
335.311	0.05
335.521	-0.03
335.732	-0.06
335.942	0.06
336.152	0.02
336.362	-0.01
336.572	-0.01
336.782	0.03
336.992	-0.02
337.202	-0.03
337.412	-0.05
337.622	0.03
337.832	-0.03
338.042	0.01
338.252	-0.02
338.462	-0.01
338.672	-0.02
338.882	0.03
339.092	-0.02
339.302	0.06
339.511	0.04
339.721	-0.06
339.931	-0.07
340.141	0.06
340.351	0.08
340.561	0
340.77	-0.03
340.98	-0.01
341.19	0.02
341.4	-0.01
341.609	-0.06
341.819	-0.05
342.029	-0.03
342.238	-0
342.448	-0.01
342.658	0.04
342.867	0
343.077	0.03
343.286	0.02
343.496	-0.04
343.706	0.04
343.915	-0.05
344.125	0.02
344.334	0.02
344.544	-0.09
344.753	-0.04
344.963	-0.02
345.172	-0.01
345.381	-0.02
345.591	-0.05
345.8	-0.02
346.01	0.05
346.219	0.02
346.428	-0.13
346.638	-0.07
346.847	-0
347.056	0.03
347.266	0
347.475	-0.05
347.684	-0.01
347.893	0.01
348.103	0
348.312	-0.01
348.521	-0.01
348.73	-0.03
348.94	0
349.149	-0.04
349.358	-0.06
349.567	0.02
349.776	-0.06
349.985	-0.01
350.194	0.03
350.403	0.01
350.612	-0.06
350.821	-0.02
351.03	-0.02
351.239	-0.07
351.448	0
351.657	-0.04
351.866	0.05
352.075	0.02
352.284	0.01
352.493	-0.02
352.702	0.04
352.911	0.02
353.12	0.01
353.329	-0.03
353.538	0.04
353.746	0.01
353.955	-0.05
354.164	0.04
354.373	-0.01
354.582	0.01
354.79	-0
354.999	0.02
355.208	0.01
355.416	0.07
355.625	-0.04
355.834	-0.03
356.042	0.04
356.251	-0.02
356.46	-0.07
356.668	-0.01
356.877	0.05
357.085	0.05
357.294	-0.09
357.503	0.03
357.711	-0.03
357.92	0.08
358.128	-0.01
358.337	-0.01
358.545	-0
358.754	-0.07
358.962	0.02
359.17	0.02
359.379	-0.01
359.587	0.01
359.796	-0.02
360.004	0.03
360.212	0
360.421	0.03
360.629	-0
360.837	-0.01
361.046	-0.01
361.254	0.07
361.462	-0
361.67	-0.02
361.879	-0.02
362.087	0.06
362.295	-0.02
362.503	-0.02
362.711	-0.04
362.92	-0.03
363.128	-0.02
363.336	-0.01
363.544	-0.06
363.752	-0.04
363.96	-0.05
364.168	-0.03
364.376	0.02
364.584	0.04
364.792	0.04
365	-0.02
365.208	-0.01
365.416	0.05
365.624	0.09
365.832	-0.02
366.04	0.08
366.248	0.02
366.456	0.01
366.664	-0.01
366.872	-0
367.079	-0.01
367.287	0.02
367.495	0
367.703	-0
367.911	-0.02
368.118	-0.01
368.326	-0.02
368.534	-0.02
368.742	0.05
368.949	-0.04
369.157	-0.01
369.365	0.04
369.572	-0.03
369.78	-0.02
369.988	-0
370.195	0
370.403	0.02
370.61	-0.01
370.818	0
371.026	0.04
371.233	-0.03
371.441	-0
371.648	-0.05
371.856	0
372.063	0.02
372.271	-0
372.478	-0.02
372.685	-0.05
372.893	0.03
373.1	-0.03
373.308	-0.02
373.515	0.11
373.722	-0.03
373.93	0.02
374.137	0.02
374.344	0.07
374.552	-0.01
374.759	0.02
374.966	0.01
375.173	-0.04
375.381	0
375.588	-0.02
375.795	-0.09
376.002	-0.03
376.209	-0.04
376.417	-0
376.624	-0.05
376.831	0.01
377.038	0.02
377.245	-0.05
377.452	-0.03
377.659	-0.01
377.866	-0.04
378.073	0.02
378.28	0.01
378.487	-0.01
378.694	0
378.901	0.01
379.108	-0.06
379.315	0
379.522	0.04
379.729	-0.02
379.936	-0.05
380.143	0
380.35	-0.01
380.557	-0.01
380.763	-0.02
380.97	-0.02
381.177	0.04
381.384	0.01
381.591	-0.04
381.797	-0.04
382.004	0.01
382.211	0.01
382.418	-0.05
382.624	0.04
382.831	0.01
383.038	-0.03
383.244	0.01
383.451	-0
383.658	-0
383.864	-0.04
384.071	-0.04
384.277	0.03
384.484	-0.03
384.69	0.02
384.897	-0.01
385.103	0.01
385.31	-0.03
385.516	-0
385.723	-0.03
385.929	-0.04
386.136	-0
386.342	0.04
386.549	-0.02
386.755	0.02
386.961	0.02
387.168	-0.06
387.374	0.04
387.58	-0
387.787	-0.03
387.993	0.03
388.199	-0.05
388.406	-0.06
388.612	-0.04
388.818	-0.03
389.024	-0.04
389.231	-0.05
389.437	0.08
389.643	-0.01
389.849	-0.05
390.055	-0.07
390.261	-0.05
390.467	0.01
390.674	-0.05
390.88	-0.02
391.086	0.01
391.292	-0.05
391.498	-0
391.704	0.01
391.91	-0.03
392.116	-0.03
392.322	-0.04
392.528	0.02
392.734	-0.02
392.94	0.01
393.146	-0.07
393.352	-0.01
393.557	-0.01
393.763	-0.05
393.969	0.02
394.175	-0.02
394.381	-0.01
394.587	-0.06
394.792	-0.01
394.998	0
395.204	0.06
395.41	-0.01
395.615	0.05
395.821	0.01
396.027	0.02
396.233	-0.07
396.438	0.01
396.644	0.05
396.85	-0.01
397.055	-0
397.261	-0.01
397.466	0.04
397.672	-0.02
397.878	0.04
398.083	-0
398.289	-0.04
398.494	0.07
398.7	0.02
398.905	-0.09
399.111	0.06
399.316	-0.09
399.522	-0.06
399.727	0.02
399.932	-0.04
400.138	-0
400.343	0.03
400.549	-0.03
400.754	0
400.959	-0.03
401.165	-0.02
401.37	0
401.575	-0.02
401.78	0
401.986	-0.07
402.191	-0.02
402.396	-0
402.601	0.01
402.807	0.02
403.012	-0.02
403.217	0.02
403.422	-0.01
403.627	-0.02
403.832	-0.04
404.037	0.03
404.243	-0.01
404.448	-0.03
404.653	-0.02
404.858	-0.03
405.063	0.05
405.268	-0.03
405.473	-0.02
405.678	-0.04
405.883	0.09
406.088	0.02
406.293	-0.04
406.498	-0.06
406.703	0.03
406.907	0
407.112	-0.07
407.317	0.03
407.522	0.03
407.727	-0.06
407.932	0.02
408.136	0.01
408.341	-0.01
408.546	-0.02
408.751	0.03
408.956	-0.05
409.16	-0
409.365	-0.03
409.57	-0.02
409.774	-0.01
409.979	-0.02
410.184	0.01
410.388	-0.07
410.593	0.01
410.798	0.01
411.002	-0.08
411.207	-0.03
411.411	0.02
411.616	-0.11
411.82	-0.02
412.025	0.03
412.229	-0.05
412.434	0.05
412.638	0.04
412.843	-0.06
413.047	0.02
413.252	-0.05
413.456	-0.04
413.66	0.02
413.865	-0.03
414.069	0.06
414.273	-0.03
414.478	-0.08
414.682	-0.04
414.886	-0.07
415.091	-0.08
415.295	-0.12
415.499	0
415.703	-0.02
415.908	0.02
416.112	-0.09
416.316	0.02
416.52	-0.04
416.724	-0.07
416.929	-0.04
417.133	0.09
417.337	0
417.541	-0.02
417.745	-0.05
417.949	-0.01
418.153	0
418.357	-0.07
418.561	0.03
418.765	-0.01
418.969	0.07
419.173	0.03
419.377	-0.05
419.581	0.06
419.785	-0.03
419.989	-0.04
420.193	-0.07
420.397	0.01
420.601	0.04
420.804	-0.01
421.008	-0.02
421.212	-0.02
421.416	0
421.62	-0.08
421.823	-0.06
422.027	0.08
422.231	-0.01
422.435	-0.05
422.638	0.03
422.842	-0.01
423.046	-0.04
423.249	-0
423.453	0.03
423.657	-0.02
423.86	-0.03
424.064	-0.04
424.268	0.03
424.471	-0.01
424.675	0.07
424.878	0.06
425.082	-0.01
425.285	0.01
425.489	-0.05
425.692	0.02
425.896	-0.06
426.099	0.02
426.303	-0.05
426.506	-0.08
426.71	0.02
426.913	0.01
427.116	0.05
427.32	-0.03
427.523	0.02
427.726	0.05
427.93	-0.09
428.133	0.01
428.336	-0.03
428.54	-0.07
428.743	-0.03
428.946	0.03
429.149	-0.04
429.353	-0.02
429.556	-0.04
429.759	0.01
429.962	-0.07
430.165	-0.03
430.368	-0.01
430.571	-0.02
430.775	0.01
430.978	-0.03
431.181	-0.01
431.384	0.01
431.587	-0.06
431.79	-0.01
431.993	-0.07
432.196	-0.01
432.399	-0.03
432.602	0.02
432.805	-0.04
433.008	-0.05
433.211	-0.09
433.414	-0.03
433.616	0.02
433.819	-0.02
434.022	-0.12
434.225	0.06
434.428	-0.03
434.631	0.03
434.833	-0.01
435.036	-0.07
435.239	-0.02
435.442	-0.02
435.645	-0.05
435.847	-0.03
436.05	0.05
436.253	0
436.455	-0.07
436.658	-0.04
436.861	0.04
437.063	-0.04
437.266	-0.02
437.468	-0.01
437.671	0.1
437.874	0
438.076	-0.07
438.279	-0.08
438.481	0
438.684	-0.04
438.886	0.04
439.089	-0.08
439.291	-0.03
439.494	-0.01
439.696	-0.04
439.899	-0.03
440.101	-0.01
440.303	-0.07
440.506	0.02
440.708	-0
440.91	0
441.113	-0.05
441.315	0
441.517	-0.02
441.72	0.02
441.922	-0.08
442.124	-0.05
442.326	-0.01
442.529	0.03
442.731	-0.05
442.933	0.1
443.135	-0.02
443.337	-0.05
443.539	-0.06
443.742	-0.04
443.944	-0.03
444.146	-0.04
444.348	-0.02
444.55	-0.07
444.752	-0.02
444.954	-0.04
445.156	-0.05
445.358	-0.05
445.56	0.06
445.762	-0.03
445.964	-0.03
446.166	-0.03
446.368	-0.08
446.57	0.02
446.772	-0.02
446.974	-0.01
447.175	0.02
447.377	-0.06
447.579	-0.03
447.781	-0.1
447.983	0.02
448.184	0.03
448.386	0.01
448.588	-0.11
448.79	-0.03
448.991	-0.03
449.193	-0.07
449.395	-0.02
449.597	0.03
449.798	-0.01
450	0.03
450.202	-0.03
450.403	-0.01
450.605	0.01
450.806	-0.02
451.008	-0.09
451.21	-0.02
451.411	-0.03
451.613	0.03
451.814	0.01
452.016	0.01
452.217	-0.01
452.419	0.05
452.62	0.02
452.821	0.02
453.023	0.05
453.224	0.03
453.426	-0
453.627	-0.01
453.828	-0.01
454.03	-0.02
454.231	0.02
454.432	-0.09
454.634	0.04
454.835	-0.05
455.036	-0.05
455.238	0.03
455.439	0.03
455.64	-0.05
455.841	-0.06
456.042	0.08
456.244	-0.01
456.445	-0.03
456.646	-0.13
456.847	-0.05
457.048	0.05
457.249	0.04
457.45	0.16
457.651	-0.06
457.852	0.02
458.054	0.05
458.255	0.05
458.456	-0.01
458.657	0.04
458.858	-0.05
459.058	-0.03
459.259	0.06
459.46	-0.06
459.661	-0.05
459.862	0.1
460.063	-0.02
460.264	0.02
460.465	-0.09
460.666	0.12
460.866	-0.03
461.067	-0
461.268	-0.01
461.469	-0.04
461.67	-0.04
461.87	-0.02
462.071	-0.03
462.272	-0.02
462.473	-0.01
462.673	0
462.874	-0.07
463.075	-0.02
463.275	-0.05
463.476	-0.01
463.676	-0.08
463.877	-0.05
464.078	-0.05
464.278	0.01
464.479	-0.01
464.679	-0.02
464.88	-0.01
465.08	0.03
465.281	-0.05
465.481	-0.08
465.682	-0.04
465.882	0
466.083	-0
466.283	-0.02
466.483	-0.03
466.684	-0.06
466.884	-0.05
467.085	-0.02
467.285	0.02
467.485	-0.06
467.686	-0.03
467.886	-0.09
468.086	-0.03
468.286	-0.02
468.487	0.02
468.687	-0.03
468.887	-0.02
469.087	0.02
469.287	-0.01
469.488	-0.05
469.688	0.03
469.888	-0.01
470.088	0.01
470.288	0.05
470.488	0
470.688	-0.03
470.888	-0.04
471.088	-0.07
471.288	-0.01
471.488	0.05
471.688	-0
471.888	-0.03
472.088	0.02
472.288	0.05
472.488	-0.01
472.688	-0.03
472.888	-0
473.088	-0.02
473.288	0.01
473.488	-0.02
473.688	0.06
473.887	-0.02
474.087	-0.01
474.287	-0.01
474.487	-0.06
474.687	0.02
474.886	-0.03
475.086	-0.03
475.286	0.01
475.486	-0
475.685	-0.01
475.885	-0.01
476.085	-0.02
476.284	0
476.484	-0.01
476.684	0
476.883	0.03
477.083	0
477.282	-0.03
477.482	0.04
477.681	0.05
477.881	-0
478.08	-0.06
478.28	-0.04
478.479	0.01
478.679	0.05
478.878	-0.01
479.078	-0.03
479.277	0.01
479.477	-0.05
479.676	0
479.875	-0.03
480.075	-0.05
480.274	0.03
480.473	0.04
480.673	-0.07
480.872	0.03
481.071	-0.01
481.271	0.03
481.47	-0.02
481.669	-0.02
481.868	-0.03
482.067	-0.06
482.267	-0.06
482.466	-0.07
482.665	-0.05
482.864	-0.02
483.063	-0.06
483.262	0.03
483.461	0.07
483.661	0.02
483.86	-0.02
484.059	-0.01
484.258	-0.01
484.457	0
484.656	-0.02
484.855	0.04
485.054	-0.03
485.253	-0.04
485.452	-0.05
485.651	0.01
485.849	0
486.048	-0.03
486.247	-0.05
486.446	-0.02
486.645	-0.03
486.844	-0.01
487.043	-0.01
487.241	0.04
487.44	-0.01
487.639	-0
487.838	0.01
488.037	-0.01
488.235	0.06
488.434	0.02
488.633	-0.02
488.831	-0
489.03	0.04
489.229	0
489.427	-0.01
489.626	0.03
489.825	0.03
490.023	0
490.222	-0.03
490.42	0
490.619	0.01
490.817	-0.01
491.016	-0.01
491.214	0.02
491.413	-0.01
491.611	-0.02
491.81	0
492.008	0.04
492.207	0.01
492.405	0.01
492.604	-0.05
492.802	-0
493	-0.01
493.199	-0.03
493.397	0.01
493.595	0
493.794	-0.02
493.992	0.04
494.19	-0.02
494.388	0.01
494.587	-0.03
494.785	-0
494.983	-0.02
495.181	-0.01
495.379	-0
495.578	-0.01
495.776	0.02
495.974	0.02
496.172	-0.01
496.37	-0.02
496.568	-0.04
496.766	-0.02
496.964	0.02
497.162	-0.01
497.36	-0.03
497.558	0.01
497.756	0
497.954	-0
498.152	-0.02
498.35	-0.02
498.548	-0.01
498.746	0.01
498.944	-0.04
499.142	-0.01
499.34	-0.04
499.538	0.01
499.736	-0.02
499.933	0.03
500.131	0.02
500.329	-0.02
500.527	0.03
500.725	0.02
500.922	0.01
501.12	-0.01
501.318	0.01
501.516	-0.02
501.713	0.02
501.911	-0
502.109	-0.03
502.306	-0.01
502.504	-0.01
502.701	-0.02
502.899	-0.01
503.097	0.02
503.294	0.01
503.492	-0.02
503.689	0
503.887	0.01
504.084	0.03
504.282	-0.02
504.479	-0.05
504.677	0
504.874	-0.02
505.072	0
505.269	-0.01
505.466	0.01
505.664	0
505.861	-0.03
506.059	-0.05
506.256	0.01
506.453	-0.02
506.651	0.03
506.848	0
507.045	-0.01
507.242	-0.01
507.44	-0.03
507.637	0.01
507.834	-0.01
508.031	-0.01
508.229	-0.02
508.426	0.01
508.623	0.02
508.82	-0.02
509.017	-0.02
509.214	0
509.411	-0
509.608	-0.03
509.805	-0.02
510.003	-0.02
510.2	-0.02
510.397	0.02
510.594	-0.04
510.791	-0.04
510.988	-0
511.184	0.02
511.381	-0
511.578	-0.03
511.775	0.04
511.972	-0.01
512.169	-0.02
512.366	-0
512.563	0
512.76	-0.01
512.956	0.03
513.153	-0.02
513.35	0.01
513.547	-0.02
513.744	-0.04
513.94	-0.04
514.137	-0.01
514.334	-0.01
514.53	-0
514.727	-0.01
514.924	0.04
515.12	-0.02
515.317	-0.01
515.514	0
515.71	-0.02
515.907	-0.02
516.103	0
516.3	0.01
516.497	0.02
516.693	0.03
516.89	-0.01
517.086	-0.03
517.283	0.04
517.479	0
517.676	-0
517.872	-0.02
518.068	-0.03
518.265	-0.02
518.461	-0.02
518.658	-0.01
518.854	0.01
519.05	0.01
519.247	-0.01
519.443	0.01
519.639	0.02
519.836	0
520.032	0
520.228	-0
520.424	0.05
520.621	0.01
520.817	-0.02
521.013	0.02
521.209	0.01
521.405	0.04
521.601	-0.02
521.798	0
521.994	0
522.19	-0.04
522.386	-0.04
522.582	0.01
522.778	0
522.974	-0.02
523.17	-0.01
523.366	-0.01
523.562	0.02
523.758	-0.02
523.954	-0
524.15	-0.03
524.346	-0
524.542	-0
524.738	-0.04
524.934	-0.02
525.129	-0.01
525.325	-0.01
525.521	0
525.717	0.03
525.913	-0.01
526.109	-0.01
526.304	0
526.5	0
526.696	0.02
526.892	-0.01
527.087	-0
527.283	-0.04
527.479	0.01
527.674	-0.02
527.87	-0.02
528.066	-0.01
528.261	0.02
528.457	0
528.653	-0.01
528.848	-0.01
529.044	0.02
529.239	-0.01
529.435	0.04
529.63	-0.01
529.826	0.05
530.021	-0.01
530.217	0.01
530.412	-0.03
530.608	-0.02
530.803	-0
530.999	-0.01
531.194	-0.05
531.389	0.01
531.585	-0.05
531.78	0
531.975	-0.01
532.171	0.02
532.366	-0.02
532.561	-0.01
532.757	-0.01
532.952	-0.01
533.147	0.03
533.342	-0
533.538	-0.03
533.733	-0
533.928	-0
534.123	-0.01
534.318	-0.02
534.513	-0.02
534.709	0.01
534.904	-0.03
535.099	-0.02
535.294	-0.01
535.489	-0.01
535.684	-0.02
535.879	-0.03
536.074	0
536.269	-0.01
536.464	0.01
536.659	-0.02
536.854	-0.01
537.049	-0
537.244	-0.03
537.439	-0.03
537.634	0.02
537.828	-0
538.023	-0.02
538.218	-0.02
538.413	-0.02
538.608	-0.04
538.803	0.02
538.997	-0.04
539.192	-0.01
539.387	0.01
539.582	0.01
539.776	0
539.971	-0.03
540.166	-0.02
540.36	-0.03
540.555	-0
540.75	-0.02
540.944	0.01
541.139	-0.04
541.334	-0.02
541.528	-0
541.723	0.03
541.917	-0.03
542.112	-0.04
542.306	-0.01
542.501	-0.01
542.695	-0.01
542.89	-0.02
543.084	-0.02
543.279	-0.01
543.473	-0.01
543.668	0
543.862	-0
544.056	0.02
544.251	-0.01
544.445	-0
544.64	-0.02
544.834	0.01
545.028	-0.01
545.222	0.01
545.417	0.03
545.611	0
545.805	-0.01
546	-0.01
546.194	-0
546.388	-0.02
546.582	0.02
546.776	-0.01
546.97	-0.02
547.165	0.02
547.359	0.02
547.553	-0.03
547.747	-0.02
547.941	-0.02
548.135	-0.01
548.329	-0
548.523	-0
548.717	-0.03
548.911	-0.01
549.105	0
549.299	0
549.493	0
549.687	0
549.881	-0
550.075	-0.03
550.269	-0.03
550.463	0
550.657	-0.03
550.85	-0.01
551.044	-0.02
551.238	-0
551.432	-0.01
551.626	-0.02
551.82	0
552.013	-0.01
552.207	-0.01
552.401	0.02
552.594	0.02
552.788	-0.03
552.982	-0.01
553.176	-0.03
553.369	0.02
553.563	-0
553.756	-0.03
553.95	-0.03
554.144	-0
554.337	0.02
554.531	0
554.724	0
554.918	-0.01
555.111	-0.01
555.305	-0.02
555.498	0.04
555.692	0.01
555.885	-0.02
556.079	0.01
556.272	-0.05
556.466	0.01
556.659	0.01
556.852	-0.01
557.046	-0.03
557.239	0.03
557.432	-0.04
557.626	-0.04
557.819	0
558.012	0.02
558.206	0.01
558.399	-0.01
558.592	0.01
558.785	-0.01
558.979	-0
559.172	-0.01
559.365	0.01
559.558	-0.01
559.751	0.01
559.944	0.02
560.138	-0.03
560.331	-0
560.524	-0.01
560.717	-0.02
560.91	0
561.103	-0
561.296	-0.02
561.489	0
561.682	-0
561.875	0.03
562.068	-0.01
562.261	0.01
562.454	0.02
562.647	0
562.84	0.01
563.032	-0.01
563.225	-0.01
563.418	-0.01
563.611	-0.03
563.804	-0.02
563.997	-0.03
564.19	-0.04
564.382	-0.07
564.575	-0.01
564.768	-0
564.961	0.01
565.153	-0.02
565.346	0.03
565.539	-0
565.731	0.02
565.924	0.01
566.117	0.02
566.309	-0
566.502	-0.04
566.695	-0.02
566.887	-0
567.08	-0.03
567.272	-0.02
567.465	-0.02
567.657	-0
567.85	0.03
568.042	0.01
568.235	0.03
568.427	-0.03
568.62	-0.02
568.812	0.01
569.005	-0
569.197	-0.03
569.389	-0.02
569.582	-0.03
569.774	-0
569.966	-0.03
570.159	-0.04
570.351	0.01
570.543	-0.03
570.736	-0.01
570.928	-0.02
571.12	0.01
571.312	-0.02
571.505	-0.01
571.697	0.01
571.889	-0.02
572.081	-0.01
572.273	-0.02
572.465	0.02
572.658	-0.02
572.85	0.03
573.042	-0.02
573.234	-0.02
573.426	0.03
573.618	-0.06
573.81	0.01
574.002	0.02
574.194	0.03
574.386	-0.05
574.578	-0.06
574.77	-0.05
574.962	0
575.154	-0.04
575.346	-0.03
575.538	-0
575.729	-0.03
575.921	-0.01
576.113	-0.03
576.305	0.01
576.497	-0.03
576.689	-0
576.88	-0.04
577.072	0
577.264	-0.01
577.456	-0.02
577.647	-0.08
577.839	0.01
578.031	0.05
578.223	-0.04
578.414	-0.03
578.606	-0
578.798	0
578.989	-0.05
579.181	-0.02
579.372	0
579.564	-0.01
579.755	-0
579.947	0.01
580.139	-0
580.33	-0.05
580.522	-0.04
580.713	-0.08
580.905	-0.03
581.096	-0.01
581.287	0
581.479	-0.01
581.67	0.02
581.862	0
582.053	-0.05
582.244	-0.04
582.436	-0
582.627	0
582.818	-0.03
583.01	-0.04
583.201	0.01
583.392	0.01
583.583	-0.01
583.775	-0.01
583.966	-0.03
584.157	-0.04
584.348	-0.01
584.54	-0.05
584.731	0.02
584.922	-0.01
585.113	-0.02
585.304	0.01
585.495	0
585.686	0
585.877	0.02
586.068	0.02
586.259	0.01
586.45	0.01
586.641	-0.03
586.832	-0.06
587.023	0.01
587.214	-0.02
587.405	0.01
587.596	-0.05
587.787	0.02
587.978	0
588.169	-0.01
588.36	-0.01
588.551	0
588.742	-0.02
588.932	-0
589.123	-0.02
589.314	0.02
589.505	0.02
589.696	0
589.886	-0.04
590.077	-0.05
590.268	-0
590.458	-0.04
590.649	-0.04
590.84	0.04
591.03	-0.04
591.221	-0.04
591.412	-0.05
591.602	-0.01
591.793	0
591.984	-0.06
592.174	-0.02
592.365	0.04
592.555	-0.05
592.746	0.01
592.936	0
593.127	-0
593.317	0.03
593.508	-0.02
593.698	-0.02
593.889	0.01
594.079	0.01
594.269	-0.03
594.46	0.01
594.65	-0.01
594.84	-0.02
595.031	-0.05
595.221	-0.01
595.411	-0.03
595.602	0.02
595.792	-0.02
595.982	-0.04
596.172	0.05
596.363	-0.01
596.553	0.01
596.743	-0.01
596.933	-0.02
597.123	0.03
597.314	-0.05
597.504	-0.04
597.694	0.03
597.884	0.02
598.074	-0.01
598.264	-0.01
598.454	0
598.644	-0.01
598.834	-0.01
599.024	-0.02
599.214	-0.02
599.404	0.02
599.594	-0.01
599.784	-0.02
599.974	0.05
600.164	0
600.354	-0.06
600.544	-0.05
600.734	-0
600.924	-0
601.114	-0
601.303	-0.01
601.493	0.01
601.683	-0.03
601.873	-0.01
602.063	-0.04
602.252	0.03
602.442	-0.06
602.632	-0.02
602.821	-0.05
603.011	-0.01
603.201	-0.04
603.39	-0.02
603.58	-0.05
603.77	-0.02
603.959	0.01
604.149	0.03
604.339	-0.01
604.528	0.02
604.718	0.01
604.907	-0.02
605.097	-0.01
605.286	-0.05
605.476	0.01
605.665	0.04
605.855	0
606.044	0.03
606.234	0.02
606.423	-0.01
606.612	-0.03
606.802	-0.02
606.991	0.01
607.181	-0.02
607.37	-0.05
607.559	0.01
607.749	-0.06
607.938	-0.02
608.127	-0.04
608.316	-0.03
608.506	0
608.695	-0.02
608.884	-0.05
609.073	0
609.263	0
609.452	0
609.641	0.01
609.83	-0.04
610.019	-0.01
610.208	-0.02
610.397	-0.03
610.586	0.06
610.775	-0.03
610.965	-0.02
611.154	-0.03
611.343	0.02
611.532	-0.02
611.721	-0.04
611.91	-0.04
612.099	0.04
612.287	-0.03
612.476	-0.07
612.665	-0.01
612.854	-0.04
613.043	0.01
613.232	-0.03
613.421	-0.06
613.61	-0.02
613.798	-0.04
613.987	0.01
614.176	-0.04
614.365	0.03
614.554	0.01
614.742	0
614.931	-0.05
615.12	-0
615.309	-0.03
615.497	0.01
615.686	-0.04
615.875	-0.01
616.063	-0
616.252	-0.03
616.44	-0.01
616.629	-0
616.818	-0
617.006	-0.01
617.195	-0.04
617.383	0.01
617.572	-0.02
617.76	-0.02
617.949	-0.03
618.137	0.01
618.326	0.03
618.514	-0.07
618.703	-0.02
618.891	0.05
619.079	-0.07
619.268	-0.02
619.456	-0.04
619.644	0.03
619.833	-0.03
620.021	-0.02
620.209	-0.06
620.398	0.01
620.586	0
620.774	-0
620.962	0
621.151	0.05
621.339	-0
621.527	-0.06
621.715	-0.07
621.903	-0.04
622.092	-0.05
622.28	0.02
622.468	-0.01
622.656	0.02
622.844	0.02
623.032	-0.04
623.22	-0.07
623.408	0.01
623.596	-0.01
623.784	-0
623.972	-0.05
624.16	-0.05
624.348	0.03
624.536	-0.02
624.724	-0.05
624.912	0
625.1	0.04
625.288	-0.04
625.476	-0.04
625.664	0
625.851	-0.03
626.039	-0.03
626.227	0.02
626.415	-0.01
626.603	-0.05
626.79	-0.01
626.978	0.01
627.166	-0.01
627.354	-0.01
627.541	-0.04
627.729	-0.08
627.917	0.03
628.104	0.02
628.292	0
628.48	-0.01
628.667	0.02
628.855	0.01
629.042	-0.02
629.23	-0.02
629.418	-0
629.605	-0.01
629.793	-0.05
629.98	-0.03
630.168	-0.02
630.355	-0.02
630.543	-0.03
630.73	-0.06
630.917	0
631.105	0.03
631.292	-0.04
631.48	-0.01
631.667	0.04
631.854	0
632.042	-0
632.229	-0.07
632.416	-0
632.604	0.01
632.791	-0.04
632.978	-0
633.165	0.04
633.353	0.04
633.54	0.01
633.727	-0.07
633.914	-0.03
634.101	-0.09
634.289	0.02
634.476	-0.07
634.663	-0.03
634.85	-0
635.037	-0.04
635.224	-0.06
635.411	0.01
635.598	0.02
635.785	-0.04
635.972	-0
636.159	0.03
636.346	-0.05
636.533	-0.01
636.72	-0.05
636.907	-0.06
637.094	0.02
637.281	-0.03
637.468	-0.01
637.655	-0.01
637.842	-0.03
638.029	-0.03
638.215	0.01
638.402	0.01
638.589	-0.05
638.776	-0.05
638.963	-0.02
639.149	-0.01
639.336	0.06
639.523	-0.04
639.709	0.01
639.896	0
640.083	0.07
640.27	-0
640.456	-0.03
640.643	0.01
640.829	-0.06
641.016	-0.03
641.203	-0.06
641.389	0
641.576	-0
641.762	0
641.949	-0.05
642.135	-0
642.322	-0.02
642.508	-0.05
642.695	-0.02
642.881	-0.02
643.068	-0.01
643.254	-0.03
643.441	0.05
643.627	-0
643.813	-0.04
644	0
644.186	-0.04
644.372	-0.01
644.559	0.03
644.745	-0.04
644.931	-0.04
645.118	-0.02
645.304	-0.02
645.49	-0.05
645.676	-0.02
645.862	-0
646.049	0.02
646.235	-0.03
646.421	0.05
646.607	0.01
646.793	-0.01
646.979	-0.05
647.165	-0.01
647.352	-0
647.538	0.01
647.724	-0.01
647.91	-0.04
648.096	-0.01
648.282	0.05
648.468	-0.04
648.654	-0
648.84	-0
649.026	-0.03
649.212	0
649.397	-0.05
649.583	-0.04
649.769	-0.01
649.955	0.02
650.141	0.02
650.327	0.02
650.513	-0.01
650.698	-0.01
650.884	-0.07
651.07	-0.01
651.256	-0.01
651.442	-0.02
651.627	-0.02
651.813	-0.01
651.999	-0.02
652.184	-0.01
652.37	-0.01
652.556	-0.07
652.741	0.02
652.927	-0.07
653.113	-0.01
653.298	-0.01
653.484	-0.02
653.669	-0.04
653.855	-0.04
654.04	-0.02
654.226	-0
654.412	-0.03
654.597	-0.05
654.782	0.02
654.968	-0.01
655.153	0.01
655.339	-0.03
655.524	-0.03
655.71	0.03
655.895	-0.04
656.08	-0.04
656.266	0.02
656.451	-0.01
656.636	-0.05
656.822	-0.02
657.007	-0.05
657.192	-0.03
657.378	-0.07
657.563	-0.03
657.748	0
657.933	0.03
658.118	0
658.304	-0.05
658.489	0.01
658.674	0.03
658.859	-0.05
659.044	0.01
659.229	0.01
659.414	-0
659.599	-0.04
659.785	-0.06
659.97	-0.01
660.155	-0
660.34	0.01
660.525	-0.02
660.71	-0.05
660.895	-0.02
661.08	-0.02
661.264	-0.02
661.449	0.01
661.634	0
661.819	-0
662.004	0.03
662.189	-0.11
662.374	-0.04
662.559	-0.06
662.743	-0.08
662.928	-0.05
663.113	-0.02
663.298	-0.09
663.483	-0.01
663.667	0.03
663.852	-0.06
664.037	0.03
664.221	-0.04
664.406	0.02
664.591	-0.02
664.775	-0.02
664.96	-0.08
665.145	-0.01
665.329	0
665.514	-0.04
665.698	-0
665.883	-0.11
666.068	0.06
666.252	-0.03
666.437	-0.07
666.621	-0.03
666.806	0.02
666.99	-0.02
667.174	-0.07
667.359	0.05
667.543	-0.04
667.728	-0.02
667.912	-0.05
668.096	0.01
668.281	-0.01
668.465	-0.01
668.649	-0.01
668.834	-0.04
669.018	-0.01
669.202	-0.01
669.387	-0.02
669.571	-0.02
669.755	-0.05
669.939	-0.01
670.124	-0.02
670.308	0.03
670.492	0.05
670.676	0.01
670.86	-0.05
671.044	-0.05
671.228	0.01
671.413	-0.08
671.597	-0.02
671.781	-0.04
671.965	-0.02
672.149	0
672.333	-0.02
672.517	-0.04
672.701	0.03
672.885	-0.03
673.069	-0.06
673.253	0.04
673.437	-0.05
673.621	-0.06
673.804	-0.01
673.988	-0
674.172	0.03
674.356	-0.05
674.54	-0.05
674.724	0.06
674.908	0
675.091	0.02
675.275	-0.04
675.459	0.02
675.643	-0.03
675.826	0.01
676.01	0.01
676.194	-0.05
676.377	0
676.561	0
676.745	-0.04
676.928	0.01
677.112	0.03
677.296	-0.07
677.479	-0.01
677.663	-0.03
677.846	0.04
678.03	-0.07
678.213	-0.03
678.397	-0.04
678.58	0.02
678.764	-0.03
678.947	-0.04
679.131	-0.06
679.314	-0.01
679.498	-0.03
679.681	-0
679.865	0.01
680.048	0
680.231	-0.05
680.415	-0.01
680.598	-0
680.781	-0.01
680.965	-0.04
681.148	0.01
681.331	-0.05
681.514	0.03
681.698	-0
681.881	0
682.064	-0.03
682.247	0.03
682.43	-0.11
682.614	0.03
682.797	0.02
682.98	-0.02
683.163	-0.07
683.346	-0.01
683.529	-0.01
683.712	-0.03
683.895	0.03
684.078	-0.07
684.261	-0.03
684.444	0.02
684.627	0.01
684.81	-0
684.993	-0.03
685.176	0.01
685.359	-0.02
685.542	-0.02
685.725	0.08
685.908	0.01
686.091	-0.03
686.274	0.04
686.457	0.03
686.639	-0.07
686.822	-0
687.005	0.02
687.188	-0.02
687.371	0.1
687.553	-0.02
687.736	0.05
687.919	0.05
688.102	0.05
688.284	-0.03
688.467	-0.01
688.65	-0.06
688.832	0.02
689.015	-0.01
689.197	-0.03
689.38	0.07
689.563	0.08
689.745	-0.08
689.928	-0.03
690.11	0.01
690.293	-0.02
690.475	-0.08
690.658	-0
690.84	0.02
691.023	-0.03
691.205	-0.01
691.388	0.03
691.57	0.02
691.752	0.07
691.935	-0.11
692.117	-0.02
692.3	0.06
692.482	0.01
692.664	-0.02
692.847	-0
693.029	0.08
693.211	0.06
693.393	0.01
693.576	-0.01
693.758	0
693.94	0.01
694.122	0
694.304	-0.03
694.487	-0.03
694.669	0.07
694.851	-0.02
695.033	-0.01
695.215	-0.06
695.397	0.02
695.579	-0.05
695.761	-0.05
695.943	-0.07
696.125	0.05
696.308	0.04
696.49	-0.05
696.671	0.1
696.853	0
697.035	0.13
697.217	0.04
697.399	0.03
697.581	-0.05
697.763	-0.03
697.945	-0.02
698.127	0.08
698.309	0.05
698.491	0.03
698.672	0.05
698.854	0.07
699.036	0.06
699.218	0
699.399	0.06
699.581	0.05
699.763	0.03
699.945	-0.05
700.126	-0.07
700.308	0.04
700.49	-0.02
700.671	-0.04
700.853	-0.05
701.035	-0.02
701.216	0.07
701.398	-0.02
701.579	-0
701.761	0.07
701.943	-0.02
702.124	-0.01
702.306	-0.02
702.487	0.13
702.669	-0
702.85	-0.02
703.031	-0.04
703.213	0.09
703.394	0.12
703.576	-0.04
703.757	0.07
703.938	0.04
704.12	0.17
704.301	0.03
704.483	0.01
704.664	0
704.845	0.09
705.026	0.06
705.208	-0.08
705.389	0.04
705.57	0.09
705.751	0.04
705.933	0.02
706.114	0.08
706.295	0.04
706.476	-0.01
706.657	0.12
706.838	0.1
707.02	0.09
707.201	-0.01
707.382	0
707.563	0.05
707.744	0.04
707.925	0.02
708.106	-0.01
708.287	0.12
708.468	0.16
708.649	-0.06
708.83	0.07
709.011	-0.03
709.192	0.04
709.373	-0.01
709.554	0
709.734	0.16
709.915	0.05
710.096	0.05
710.277	-0.07
710.458	0.09
710.639	0.1
710.819	-0.01
711	0
711.181	0.14
711.362	0.1
711.542	0.09
711.723	0.1
711.904	0.1
712.085	0.15
712.265	0.04
712.446	-0.05
712.627	0.08
712.807	0.09
712.988	0.02
713.168	-0.02
713.349	0.14
713.53	-0.04
713.71	0.03
713.891	0.04
714.071	0.13
714.252	0.06
714.432	0.11
714.613	0.02
714.793	0.07
714.974	0.16
715.154	0.12
715.334	0.11
715.515	0.16
715.695	0.01
715.876	0.05
716.056	0.05
716.236	0.01
716.417	0.04
716.597	0.09
716.777	0.16
716.957	0.06
717.138	0.1
717.318	0.07
717.498	0.01
717.678	0.14
717.859	0.17
718.039	-0.01
718.219	0.19
718.399	0.19
718.579	0.06
718.759	0.05
718.939	0.15
719.12	0.19
719.3	0.18
719.48	-0.02
719.66	0.1
719.84	0.19
720.02	0.14
720.2	0.03
720.38	0.1
720.56	0.28
720.74	0.14
720.92	0.19
721.1	0.19
721.279	0.21
721.459	0.1
721.639	0.06
721.819	0.16
721.999	0.15
722.179	0.31
722.359	0.01
722.538	0.2
722.718	0.16
722.898	0.21
723.078	0.14
723.257	0.1
723.437	0.21
723.617	0.21
723.797	0.13
723.976	0.2
724.156	0.31
724.336	0.32
724.515	0.36
724.695	0
724.874	0.26
725.054	0.28
725.234	0.16
725.413	0.27
725.593	0.22
725.772	0.26
725.952	0.2
726.131	0.23
726.311	0.24
726.49	0.17
726.67	0.19
726.849	0.18
727.028	0.3
727.208	0.27
727.387	0.38
727.567	0.2
727.746	0.33
727.925	0.25
728.105	0.17
728.284	0.23
728.463	0.18
728.643	0.34
728.822	0.18
729.001	0.23
729.18	0.24
729.359	0.32
729.539	0.3
729.718	0.35
729.897	0.35
730.076	0.3
730.255	0.27
730.434	0.25
730.614	0.37
730.793	0.48
730.972	0.31
731.151	0.35
731.33	0.45
731.509	0.41
731.688	0.39
731.867	0.29
732.046	0.26
732.225	0.49
732.404	0.31
732.583	0.23
732.762	0.43
732.941	0.44
733.12	0.54
733.298	0.36
733.477	0.5
733.656	0.29
733.835	0.32
734.014	0.57
734.193	0.46
734.371	0.49
734.55	0.44
734.729	0.39
734.908	0.44
735.086	0.5
735.265	0.48
735.444	0.27
735.623	0.23
735.801	0.35
735.98	0.42
736.159	0.38
736.337	0.43
736.516	0.52
736.694	0.41
736.873	0.4
737.052	0.56
737.23	0.41
737.409	0.33
737.587	0.59
737.766	0.3
737.944	0.31
738.123	0.4
738.301	0.44
738.479	0.45
738.658	0.41
738.836	0.21
739.015	0.31
739.193	0.44
739.371	0.26
739.55	0.24
739.728	0.17
739.906	0.44
740.085	0.36
740.263	0.32
740.441	0.14
740.62	0.51
740.798	0.39
740.976	0.22
741.154	0.14
741.332	0.44
741.511	0.24
741.689	0.32
741.867	0.36
742.045	0.25
742.223	0.23
742.401	0.12
742.579	0.22
742.757	0.32
742.935	0.12
743.114	0.14
743.292	0.24
743.47	0.13
743.648	0.13
743.826	0.21
744.004	0.18
744.181	0.2
744.359	0.1
744.537	0.16
744.715	0.13
744.893	0.07
745.071	0.1
745.249	0.12
745.427	0.07
745.605	0.16
745.782	0.03
745.96	0.16
746.138	0.14
746.316	0.22
746.493	0.06
746.671	0.02
746.849	0.04
747.027	0.22
747.204	0.04
747.382	0.1
747.56	-0.07
747.737	0.11
747.915	-0.06
748.093	0.22
748.27	-0.05
748.448	0.06
748.625	-0.07
748.803	-0.02
748.98	0
749.158	0.04
749.335	0.08
749.513	0.05
749.69	-0
749.868	0.03
750.045	0.1
750.223	0.02
750.4	-0.15
750.578	0.14
750.755	-0.02
750.932	-0.08
751.11	0.1
751.287	-0.05
751.464	0.18
751.642	0.01
751.819	0.05
751.996	0
752.173	-0.05
752.351	-0.12
752.528	0.03
752.705	-0.02
752.882	-0.06
753.06	-0
753.237	0.06
753.414	0.22
753.591	0.19
753.768	-0.05
753.945	0.01
754.122	0.06
754.299	0.06
754.476	0.06
754.654	-0.12
754.831	0.12
755.008	0.09
755.185	-0.05
755.362	-0.22
755.539	0.11
755.716	-0.09
755.892	-0.04
756.069	-0.02
756.246	0.13
756.423	0.03
756.6	0.06
756.777	-0.02
756.954	0.18
757.131	-0.01
757.307	-0.03
757.484	-0.1
757.661	-0.18
757.838	-0.04
758.015	-0.13
758.191	0.06
758.368	0.11
758.545	0.04
758.721	0.09
758.898	-0.06
759.075	-0.02
759.251	0.08
759.428	0.07
759.605	-0.15
759.781	-0.07
759.958	0.14
760.134	0.03
760.311	-0.09
760.488	0.14
760.664	0.14
760.841	-0.08
761.017	-0
761.194	0.14
761.37	0.07
761.547	-0.02
761.723	0.04
761.899	0.15
762.076	-0.12
762.252	-0.15
762.429	-0.15
762.605	0.06
762.781	0.02
762.958	-0.04
763.134	-0.02
763.31	-0.14
763.486	0.1
763.663	-0.22
763.839	-0
764.015	-0.11
764.191	-0.12
764.368	-0.19
764.544	-0.12
764.72	0.03
764.896	0.1
765.072	-0.02
765.248	-0.01
765.425	-0.01
765.601	-0.06
765.777	-0.03
765.953	-0.24
766.129	-0.05
766.305	-0.14
766.481	0.02
766.657	0.01
766.833	0.25
767.009	-0.02
767.185	-0.15
767.361	-0.07
767.537	-0.14
767.713	0.01
767.889	-0.08
768.065	-0.09
768.24	0.04
768.416	0.06
768.592	-0.12
768.768	-0.02
768.944	0.05
769.12	-0.2
769.295	-0.15
769.471	-0.14
769.647	-0.08
769.823	0.13
769.998	-0.12
770.174	-0.11
770.35	0.33
770.525	0.3
770.701	-0
770.877	-0.06
771.052	-0.11
771.228	0.14
771.403	0.13
771.579	0.1
771.755	0.27
771.93	-0.17
772.106	-0.26
772.281	-0.2
772.457	-0.07
772.632	0.09
772.808	-0.13
772.983	0.05
773.159	-0.12
773.334	0.12
773.509	-0.01
773.685	-0.02
773.86	0.23
774.036	0.09
774.211	-0.01
774.386	-0.09
774.562	0.04
774.737	-0.07
774.912	-0.19
775.087	0.05
775.263	-0.03
775.438	0
775.613	-0.04
775.788	-0.13
775.964	0.06
776.139	0.17
776.314	-0.2
776.489	0.11
776.664	0.13
776.839	-0.16
777.014	0.08
777.19	0.22
777.365	0.16
777.54	0.19
777.715	-0.17
777.89	0.05
778.065	-0.08
778.24	-0.11
778.415	0.15
778.59	-0.17
778.765	-0.14
778.94	0.13
779.115	-0.03
779.289	0.02
779.464	0.01
779.639	-0.07
779.814	-0.23
779.989	-0.26
780.164	0.24
780.339	0.06
780.513	-0.2
780.688	-0.02
780.863	0.01
781.038	0.15
781.212	-0.25
781.387	-0.05
781.562	0.23
781.737	-0.11
781.911	0.11
782.086	-0.13
782.261	-0.12
782.435	0.11
782.61	-0.08
782.784	-0.04
782.959	-0.04
783.134	-0.12
783.308	-0.25
783.483	-0.03
783.657	0.36
783.832	-0.05
784.006	-0.17
784.181	-0.08
784.355	0.15
784.53	-0.2
784.704	-0.24
784.878	0.28
785.053	0.06
785.227	0.21
785.402	0.19
785.576	-0.13
785.75	-0.1
785.925	-0.17
786.099	0.07
786.273	-0.06
786.448	0.19
786.622	0.02
786.796	0.02
786.97	-0.08
787.145	0.48
787.319	-0.37
787.493	-0.05
787.667	-0.37
787.841	-0.04
788.015	0.07
788.19	-0.08
788.364	0.19
788.538	0.18
788.712	0.07
788.886	-0.09
789.06	0.27
789.234	0.07
789.408	-0.31
789.582	0.03
789.756	-0.03
789.93	-0.15
790.104	-0.05
790.278	0.02
790.452	0.04
790.626	0.03
790.8	-0.01
790.973	0.1
791.147	0.01
791.321	0.35
791.495	0.05
791.669	-0.02
791.843	-0.01
792.016	0.04
792.19	0.31
792.364	-0.1
792.538	0.49
792.711	0.1
792.885	-0.23
793.059	-0.21
793.233	-0.62
793.406	0.35
793.58	-0.19
793.754	0.02
793.927	-0.14
794.101	0.4
794.274	-0.04
794.448	0.01
794.622	-0.06
794.795	0.2
794.969	-0.22
795.142	0.25
795.316	-0.03
795.489	-0.33
795.663	0.38
795.836	0.23
796.009	-0.22
796.183	0.01
796.356	0.09
796.53	0.09
796.703	0.02
796.876	0.54
797.05	-0.21
797.223	-0.11
797.396	0.05
797.57	0
797.743	0.16
797.916	-0.13
798.09	-0.12
798.263	0.11
798.436	0.06
798.609	-0.21
798.782	0.04
798.956	-0.05
799.129	-0
799.302	-0.12
799.475	-0.26
799.648	-0.19
799.821	-0.05
799.994	-0.09
800.167	-0.3
800.34	-0.08
800.514	0.23
800.687	-0.13
800.86	-0.12
801.033	-0.03
801.206	0.11
801.379	-0.66
801.551	0.18
801.724	0.61
801.897	0.14
802.07	-0.33
802.243	-0.28
802.416	-0.21
802.589	-0.36
802.762	-0.04
802.935	0.01
803.107	0.13
803.28	0.33
803.453	0.19
803.626	-0.43
803.798	0.2
803.971	-0.35
804.144	-0.1
804.317	0.22
804.489	0.15
804.662	-0.09
804.835	0.19
805.007	-0.2
805.18	0.3
805.353	-0.04
805.525	-0.13
805.698	-0.24
805.87	0.52
806.043	0.23
806.215	-0.3
806.388	-0.19
806.56	0.22
806.733	0.47
806.905	-0.07
807.078	-0.45
807.25	-0.41
807.423	-0.08
807.595	-0.26
807.768	-0.02
807.94	-0.05
808.112	0.14
808.285	0.04
808.457	-0.23
808.629	0.03
808.802	0.18
808.974	0.09
809.146	-0.08
809.318	-0.14
809.491	-0.2
809.663	0.17
809.835	-0.16
810.007	0.19
810.18	-0.19
810.352	-0.34
810.524	-0.01
810.696	0.1
810.868	0.52
811.04	0.05
811.212	0.02
811.384	0.16
811.556	-0.28
811.728	0.13
811.901	0.52
812.073	-0.36
812.245	0.32
812.417	-0.07
812.589	-0.74
812.76	0.25
812.932	-0.09
813.104	0.44
813.276	-0.1
813.448	0.16
813.62	-0.19
813.792	-0.01
813.964	0.14
814.136	-0.1
814.307	-0.32
814.479	-0.18
814.651	-0.12
814.823	0.28
814.995	-0.01
815.166	-0.08
815.338	-0.59
815.51	-0.43
815.681	0.83
815.853	-0.06
816.025	-0.23
816.196	0.42
816.368	0.48
816.54	-0.65
816.711	-0.39
816.883	0.33
817.054	0.38
817.226	-0.81
817.398	-0.09
817.569	-0.15
817.741	-0.19
817.912	-0.25
818.084	-0.38
818.255	0.36
818.426	-0.26
818.598	0.05
818.769	-0.41
818.941	-0.38
819.112	0.32
819.283	0.09
819.455	-0.54
819.626	-0.15
819.798	0.28
819.969	-0.14
820.14	-0.14
820.311	-0.25
820.483	0.3
820.654	0.22
820.825	-0.12
820.996	-0.06
821.168	-0.62
821.339	-0.24
821.51	-0.38
821.681	-0.35
821.852	-0.32
822.023	-0.24
822.195	-0.39
822.366	0.28
822.537	-0.19
822.708	-0.34
822.879	-0.11
823.05	0.46
823.221	-0.45
823.392	0.31
823.563	-0.43
823.734	-0.13
823.905	0.12
824.076	-0.49
824.247	-0.05
824.418	-0.02
824.589	0.4
824.759	-0.65
824.93	0.2
825.101	-0.29
825.272	0.32
825.443	0.79
825.614	0.44
825.784	-0.86
825.955	0.23
826.126	0.09
826.297	0.01
826.467	-0.5
826.638	0.43
826.809	-0.92
826.98	-0.14
827.15	0.37
827.321	-0
827.492	0.91
827.662	0.21
827.833	0.91
828.003	0.28
828.174	-0.74
828.345	-0.22
828.515	0.47
828.686	0.07
828.856	-0.5
829.027	-0.12
829.197	0.07
829.368	0.44
829.538	0.01
829.709	-0.53
829.879	0.53
830.049	-0.14
830.22	-0.21
830.39	0.38
830.56	-0.08
830.731	-0.15
830.901	-0.77
831.072	-0.03
831.242	0.23
831.412	0.17
831.582	-0.16
831.753	-0.72
831.923	0.63
832.093	0.09
832.263	0.01
832.434	-0.25
832.604	-0.45
832.774	0.26
832.944	-0.19
833.114	0.04
833.284	0.26
833.454	-0.71
833.624	-0.43
833.795	-0.47
833.965	0.11
834.135	0.27
834.305	-0.58
834.475	-0.15
834.645	-0.34
834.815	-0.67
834.985	-0.99
835.155	-0.87
835.325	-0.25
835.494	0.28
835.664	-0.27
835.834	-0.79
836.004	0.31
836.174	0.02
836.344	-0.33
836.514	-0.88
836.684	-0.98
836.853	-0.28
837.023	-0.36
837.193	-0.72
837.363	0.04
837.532	-0.05
837.702	0.14
837.872	-0.55
838.041	0.46
838.211	0.7
838.381	-1.04
838.55	0.53
838.72	0.7
838.89	1.05
839.059	-0.23
839.229	-0.82
839.398	1.04
839.568	-0.2
839.738	-0.36
839.907	0.92
840.077	0.4
840.246	-0.71
840.416	-0.56
840.585	-0.58
840.755	0.74
840.924	0.39
841.093	-0.41
841.263	-0.19
841.432	0.34
841.602	-1.12
841.771	-0.14
841.94	-0.43
842.11	2.26
842.279	1.41
842.448	-0.8
842.617	-1.11
842.787	0.9
842.956	-0.57
843.125	0.25
843.294	0.17
843.464	1.11
843.633	0.13
843.802	-0.43
843.971	-0.02
844.14	0.43
844.309	0.53
844.479	-0.82
844.648	-0.77
844.817	-0.9
844.986	-0.28
845.155	-1.02
845.324	-0.68
845.493	-0.46
845.662	-0.26
845.831	0.22
846	0.41
846.169	0.3
846.338	0.55
846.507	-0.23
846.676	0.09
846.844	-0.51
847.013	0.87
847.182	-0.23
847.351	0.17
847.52	0.11
847.689	0.57
847.858	-0.28
848.026	-0.53
848.195	-0.36
848.364	-0.57
848.533	-0.96
848.701	-0.18
848.87	0.47
849.039	1.17
849.207	0.71
849.376	0.26
849.545	1.35
849.713	-1.51
849.882	-0.03
850.051	-0.6
850.219	0.26
850.388	0.78
850.556	-1.02
850.725	-1.12
850.893	0.27
851.062	-0.66
851.23	0.24
851.399	-1.27
851.567	-0.32
851.736	0.37
851.904	-1.27
852.073	-0.56
852.241	0.77
852.41	0.22
852.578	-0.37
852.746	-1.07
852.915	0.73
853.083	-0.1
853.251	-1.05
853.42	0.15
853.588	0.09
853.756	0.72
853.924	0.09
854.093	-0.45
854.261	-0.61
854.429	-0.39
854.597	-0.42
854.765	-1.19
854.934	0.84
855.102	0.92
855.27	0.38
855.438	1.42
855.606	1.1
855.774	0.92
855.942	-1.37
856.11	-1.83
856.278	-0.35
856.446	0.8
856.614	-0.18
856.782	-0.32
856.95	0.28
857.118	-0.1
857.286	1.17
857.454	-1.55
857.622	0.95
857.79	0.85
857.958	-1
858.126	-0.83
858.294	-2.78
858.462	0.74
858.629	-1.21
858.797	-0.86
858.965	0.52
859.133	-0.37
859.301	0.74
859.468	0.02
859.636	-1.3
859.804	0.71
859.971	0.95
860.139	0.28
860.307	1.9
860.474	0.81
860.642	-0.7
860.81	-0.65
860.977	0.36
861.145	0.36
861.313	-0.51
861.48	-0.93
861.648	1.44
861.815	-0.06
861.983	-1
862.15	-0.65
862.318	0.39
862.485	0.99
862.653	0.06
862.82	-0.83
862.988	1.41
863.155	-0.33
863.322	-1.76
863.49	-1.24
863.657	0.64
863.824	1.24
863.992	0.07
864.159	-0.13
864.326	1.89
864.494	-0.85
864.661	2.73
864.828	-1.19
864.996	1.35
865.163	1.19
865.33	-0.93
865.497	-1.85
865.664	-0.31
865.832	-1.38
865.999	0.4
866.166	-2.91
866.333	0.14
866.5	-0.67
866.667	-0.66
866.834	-0.19
867.001	2.3
867.168	0.18
867.335	-0.65
867.502	-2.05
867.669	1.41
867.836	1.71
868.003	0.48
868.17	2.22
868.337	-0.76
868.504	1.75
868.671	-1.27
868.838	-1.42
869.005	1.09
869.172	-0.03
869.339	-1.31
869.505	-0.97
869.672	-0.23
869.839	1.22
870.006	0.12
870.173	-2.71
870.339	-0.7
870.506	3.38
870.673	-1.4
870.84	-0.41
871.006	0.56
871.173	-0.93
871.34	-0.43
871.506	-0.27
871.673	-1.21
871.839	-2.48
872.006	-0.75
872.173	0.1
872.339	0.68
872.506	1.2
872.672	-1.46
872.839	-1.59
873.005	0.16
873.172	3.91
873.338	1.56
873.505	0.46
873.671	-0.01
873.838	1.11
874.004	-1.73
874.171	-0.08
874.337	0.98
874.503	-0.53
874.67	-0.91
874.836	-0.03
875.002	1.72
875.169	0.91
875.335	0.42
875.501	-0.19
875.668	0.2
875.834	-0.3
876	-1.04
876.166	1.4
876.332	0.04
876.499	2.88
876.665	-1.75
876.831	0.52
876.997	4.97
877.163	-0.84
877.329	-1.88
877.495	-0.62
877.662	2.88
877.828	-0.14
877.994	-0.44
878.16	-4.04
878.326	-2.73
878.492	-0.83
878.658	-1.18
878.824	0.73
878.99	-0.18
879.156	-0.81
879.322	2.56
879.487	-1.51
879.653	1.13
879.819	1.78
879.985	-0.68
880.151	-0.14
880.317	-0.05
880.483	1.09
880.648	-0.14
880.814	-3.26
880.98	1
881.146	-2.6
881.312	-0.99
881.477	-0.09
881.643	0.95
881.809	1.93
881.974	0.61
882.14	-2.6
882.306	-0.84
882.471	4.02
882.637	-1.55
882.803	0.64
882.968	2.55
883.134	2.49
883.299	0.12
883.465	-0.26
883.63	0.42
883.796	0.83
883.961	0.31
884.127	-0.27
884.292	-2.41
884.458	-2.54
884.623	-2.54
