Data from Apollo_Calib_20240827__AbsoluteIrradiance__546__08-15-01-117.txt Node

Date: Wed Aug 28 08:15:01 BST 2024
User: biology
Spectrometer: FLMT08252
Trigger mode: 0
Integration Time (sec): 5.000000E-1
Scans to average: 5
Electric dark correction enabled: true
Nonlinearity correction enabled: false
Boxcar width: 0
XAxis mode: Wavelengths
Number of Pixels in Spectrum: 3648
>>>>>Begin Spectral Data<<<<<
179.588	-0
179.809	-0
180.03	-0
180.251	-0
180.473	-0
180.694	0
180.915	0
181.136	-0
181.357	0
181.578	-0
181.799	-0
182.02	-0
182.241	-0
182.462	-0
182.683	0
182.904	-0
183.125	-0
183.346	0
183.567	0
183.788	-0
184.009	-0
184.23	0
184.451	0
184.672	-0
184.892	-0
185.113	0
185.334	0
185.555	-0
185.776	-0
185.996	0
186.217	-0
186.438	-0
186.659	-0
186.879	-0
187.1	-0
187.321	-0
187.541	-0
187.762	0
187.983	-0
188.203	-0
188.424	-0
188.644	-0
188.865	-0
189.086	-0
189.306	-0
189.527	-0
189.747	-0
189.968	-0
190.188	-0
190.409	-0
190.629	0
190.849	-0
191.07	-0
191.29	0
191.511	-0
191.731	-0
191.951	-0
192.172	-0
192.392	-0
192.612	-0
192.833	-0
193.053	0
193.273	-0
193.493	-0
193.714	-0
193.934	0
194.154	0
194.374	0
194.594	0
194.815	0
195.035	0
195.255	-0
195.475	-0
195.695	0
195.915	-0
196.135	-0
196.355	0
196.575	0
196.795	-0
197.015	-0
197.235	-0
197.455	-0
197.675	0
197.895	-0
198.115	-0
198.335	0
198.555	-0
198.775	-0
198.995	0
199.214	0
199.434	0
199.654	-0
199.874	-0
200.094	0.64
200.313	-0.3
200.533	-0.46
200.753	-0.84
200.973	0.1
201.192	0.38
201.412	-0.79
201.632	-0.3
201.851	0.19
202.071	-0.66
202.291	-0.58
202.51	-0.8
202.73	-0.02
202.95	-0.62
203.169	-0.63
203.389	0.06
203.608	-0.18
203.828	-0.31
204.047	-0.36
204.267	0.53
204.486	0.01
204.706	0.05
204.925	-0.07
205.145	-0.2
205.364	0.03
205.583	0.51
205.803	-0.07
206.022	-0.39
206.242	-0.01
206.461	-0.44
206.68	-0.4
206.9	-0.03
207.119	0.31
207.338	0.67
207.557	0.15
207.777	-0.23
207.996	-0.29
208.215	0.68
208.434	-0.37
208.654	-0.57
208.873	-0.24
209.092	0.41
209.311	-0.27
209.53	-0.01
209.749	-0.24
209.968	-0.18
210.187	-0.2
210.407	-0.27
210.626	-0.22
210.845	0.16
211.064	-0.15
211.283	-0.17
211.502	0.37
211.721	-0.16
211.94	-0.13
212.159	0.02
212.377	0.06
212.596	0.01
212.815	0.17
213.034	0.11
213.253	0.26
213.472	-0.06
213.691	-0.24
213.91	-0.29
214.128	-0.17
214.347	0.21
214.566	-0.42
214.785	-0.33
215.003	-0.01
215.222	-0.03
215.441	-0.07
215.66	-0.37
215.878	0.09
216.097	0.1
216.316	-0.23
216.534	-0.21
216.753	0.1
216.972	-0.07
217.19	0.07
217.409	-0.11
217.627	-0.14
217.846	-0.21
218.064	0.07
218.283	-0.19
218.501	0.38
218.72	0.23
218.938	-0.2
219.157	-0.23
219.375	0.16
219.594	0
219.812	-0.15
220.031	-0.26
220.249	0.11
220.467	0.16
220.686	-0.15
220.904	-0.19
221.122	-0.16
221.341	0.22
221.559	-0.07
221.777	-0.33
221.995	-0.03
222.214	-0.05
222.432	-0.05
222.65	0.14
222.868	-0.18
223.086	0.11
223.305	0.05
223.523	-0.13
223.741	0.09
223.959	-0.15
224.177	-0.14
224.395	-0.12
224.613	-0.11
224.831	0.09
225.049	-0.21
225.267	-0.13
225.485	-0.07
225.703	-0.05
225.921	-0.09
226.139	-0.19
226.357	-0.03
226.575	-0.01
226.793	-0.14
227.011	0.56
227.229	0.09
227.447	0.09
227.665	-0.14
227.883	-0.19
228.1	-0.02
228.318	-0.02
228.536	-0.26
228.754	-0.19
228.972	0.07
229.189	0.13
229.407	-0.14
229.625	-0.15
229.843	0.03
230.06	0.05
230.278	-0.09
230.496	-0
230.713	-0.02
230.931	0.01
231.149	0.1
231.366	-0.22
231.584	0.06
231.801	0.36
232.019	0.04
232.236	-0.15
232.454	-0.11
232.671	0.1
232.889	-0.05
233.106	-0.18
233.324	-0.04
233.541	-0.03
233.759	-0.07
233.976	-0.09
234.194	-0.09
234.411	0.08
234.628	-0.13
234.846	-0.05
235.063	0.02
235.28	-0.11
235.498	-0.08
235.715	-0.2
235.932	0.07
236.149	0.14
236.367	-0.21
236.584	-0.02
236.801	-0.1
237.018	0.05
237.236	0.05
237.453	-0.21
237.67	0.04
237.887	-0.11
238.104	-0.03
238.321	-0.11
238.538	-0.06
238.755	-0.03
238.973	-0.15
239.19	-0.1
239.407	0.07
239.624	-0.04
239.841	-0.11
240.058	-0.11
240.275	-0.04
240.492	-0.15
240.709	0.05
240.925	-0.15
241.142	-0.11
241.359	-0.11
241.576	-0.09
241.793	-0.07
242.01	0.05
242.227	0.14
242.444	0.06
242.66	0.03
242.877	-0.08
243.094	-0.01
243.311	0
243.527	-0.09
243.744	-0.02
243.961	0.07
244.178	-0.05
244.394	-0
244.611	0.05
244.828	0.16
245.044	-0.09
245.261	-0.05
245.477	-0.03
245.694	0.05
245.911	-0.05
246.127	0
246.344	0.14
246.56	0.02
246.777	-0.06
246.993	-0
247.21	-0
247.426	0
247.643	-0.1
247.859	-0.15
248.076	-0.08
248.292	0.16
248.508	-0.09
248.725	-0.05
248.941	-0.02
249.157	0.04
249.374	-0.04
249.59	-0.06
249.806	-0.06
250.023	0
250.239	-0.1
250.455	-0.02
250.671	-0.05
250.888	-0.01
251.104	0.02
251.32	-0.04
251.536	-0.03
251.752	-0.09
251.969	-0.03
252.185	-0.01
252.401	0.16
252.617	0.02
252.833	0.01
253.049	-0.04
253.265	-0.01
253.481	0.07
253.697	-0.06
253.913	-0.09
254.129	-0.02
254.345	0.07
254.561	-0.07
254.777	0
254.993	0.05
255.209	0.01
255.425	-0.07
255.641	-0.02
255.857	0.08
256.073	0
256.288	-0.01
256.504	-0.08
256.72	0.02
256.936	0.09
257.152	-0.06
257.367	-0.09
257.583	-0.03
257.799	0.03
258.015	-0.09
258.23	-0.11
258.446	0.1
258.662	-0.06
258.877	-0.08
259.093	-0.07
259.309	-0.01
259.524	-0.01
259.74	-0.06
259.955	-0.12
260.171	0.02
260.387	-0.1
260.602	0.01
260.818	0.1
261.033	-0.09
261.249	-0.08
261.464	-0.04
261.68	-0.18
261.895	0.06
262.11	0
262.326	-0.04
262.541	-0.08
262.757	0.04
262.972	0.02
263.187	0.01
263.403	-0.09
263.618	-0
263.833	-0.02
264.049	-0.11
264.264	0.02
264.479	0.02
264.694	0.12
264.91	-0.08
265.125	0.01
265.34	0.03
265.555	0.09
265.77	0.08
265.986	-0.02
266.201	0.02
266.416	0.02
266.631	-0
266.846	-0.04
267.061	-0
267.276	0.08
267.491	-0.16
267.706	0
267.921	0.03
268.136	0.02
268.351	-0.01
268.566	-0.07
268.781	0.1
268.996	0.02
269.211	-0.02
269.426	-0.07
269.641	-0.04
269.856	0.01
270.071	-0.07
270.285	-0.11
270.5	0.01
270.715	0.07
270.93	-0.06
271.145	0.01
271.359	0.04
271.574	-0.05
271.789	0.02
272.004	-0.01
272.218	-0.07
272.433	0.12
272.648	-0.03
272.862	0.06
273.077	-0.01
273.292	-0.02
273.506	-0.06
273.721	-0.04
273.936	-0.05
274.15	0.02
274.365	-0.02
274.579	0.01
274.794	0.01
275.008	-0
275.223	-0.1
275.437	-0.04
275.652	0.02
275.866	-0.01
276.081	-0.04
276.295	-0.03
276.509	-0.04
276.724	-0.05
276.938	-0
277.153	0
277.367	0.08
277.581	-0.03
277.796	-0.05
278.01	-0.08
278.224	0.07
278.438	0.12
278.653	-0.03
278.867	-0.03
279.081	0.03
279.295	0.01
279.51	0.02
279.724	-0.08
279.938	-0.04
280.152	-0.01
280.366	-0.04
280.58	-0.01
280.794	0.07
281.008	0.03
281.222	0.04
281.437	0.1
281.651	0.02
281.865	0.03
282.079	-0.04
282.293	-0.12
282.507	-0.06
282.721	-0.02
282.935	-0.02
283.148	-0.07
283.362	-0.04
283.576	-0.06
283.79	0.04
284.004	-0.05
284.218	0.04
284.432	-0.07
284.646	-0.01
284.859	-0.04
285.073	-0
285.287	0.01
285.501	-0.02
285.714	-0.02
285.928	0
286.142	-0.03
286.356	-0.04
286.569	0
286.783	0.03
286.997	-0.03
287.21	-0.01
287.424	-0.02
287.637	-0.02
287.851	-0.02
288.065	0.06
288.278	-0.02
288.492	-0.01
288.705	-0.02
288.919	-0
289.132	-0.06
289.346	0.01
289.559	-0.11
289.773	-0.08
289.986	-0.05
290.2	-0.07
290.413	-0.02
290.626	-0.07
290.84	-0.03
291.053	0.03
291.267	0.06
291.48	0.01
291.693	-0.07
291.906	-0.02
292.12	-0.02
292.333	-0.1
292.546	-0.02
292.76	0.05
292.973	-0
293.186	0.02
293.399	-0.05
293.612	0.02
293.826	-0.01
294.039	-0.03
294.252	-0
294.465	0
294.678	0
294.891	0.01
295.104	-0.01
295.317	-0.02
295.53	0.01
295.743	-0.02
295.956	-0.03
296.169	0.06
296.382	0.03
296.595	0.05
296.808	-0.05
297.021	0.05
297.234	0.03
297.447	-0.03
297.66	-0.03
297.873	0.07
298.086	0.01
298.299	-0.03
298.511	-0.02
298.724	-0.02
298.937	-0.04
299.15	-0.03
299.363	-0.01
299.575	-0.01
299.788	0.01
300.001	-0.01
300.213	-0.05
300.426	-0.03
300.639	-0.04
300.852	-0
301.064	-0
301.277	0.01
301.489	-0.01
301.702	0.05
301.915	0.01
302.127	0.02
302.34	0.05
302.552	-0.03
302.765	-0.04
302.977	0.02
303.19	-0.01
303.402	0
303.615	-0.05
303.827	-0.03
304.04	-0.02
304.252	0.01
304.464	-0.02
304.677	0.05
304.889	0.01
305.102	-0.04
305.314	-0.06
305.526	0.05
305.739	-0.02
305.951	-0.03
306.163	-0.02
306.375	0.07
306.588	-0.06
306.8	-0.02
307.012	-0.06
307.224	-0.01
307.436	0.04
307.649	-0.12
307.861	-0.04
308.073	0.05
308.285	-0.05
308.497	-0.07
308.709	-0.01
308.921	-0.01
309.133	0.04
309.346	-0.02
309.558	0.01
309.77	0
309.982	0.01
310.194	0.03
310.406	-0.08
310.617	0.07
310.829	0.03
311.041	0.02
311.253	-0.03
311.465	-0.05
311.677	0.01
311.889	-0.02
312.101	-0.04
312.313	0.02
312.524	0.07
312.736	-0.07
312.948	-0.01
313.16	0.05
313.372	0.02
313.583	0
313.795	-0.03
314.007	-0.02
314.218	0.02
314.43	-0.02
314.642	-0.02
314.853	-0.03
315.065	0.03
315.277	-0.03
315.488	0
315.7	-0.01
315.912	0.01
316.123	0.02
316.335	0.01
316.546	0.09
316.758	-0.05
316.969	0
317.181	0.01
317.392	-0.01
317.604	0.01
317.815	-0.06
318.026	-0.02
318.238	0.01
318.449	-0.01
318.661	-0.08
318.872	-0.07
319.083	-0.08
319.295	0
319.506	-0.03
319.717	0.03
319.929	-0.02
320.14	-0.03
320.351	0
320.562	-0
320.774	-0.06
320.985	0.01
321.196	-0.07
321.407	-0.07
321.618	0.02
321.829	0.03
322.041	0.03
322.252	-0.01
322.463	0.04
322.674	0.01
322.885	-0.05
323.096	0.02
323.307	-0.01
323.518	-0.02
323.729	-0.06
323.94	0.01
324.151	-0.04
324.362	-0
324.573	-0
324.784	-0.05
324.995	0.05
325.206	0.01
325.417	-0.05
325.628	-0.07
325.838	-0.01
326.049	0.01
326.26	0.03
326.471	0
326.682	0.02
326.892	-0.02
327.103	-0.09
327.314	-0.02
327.525	0.07
327.735	-0.05
327.946	-0.01
328.157	-0.02
328.368	0.02
328.578	-0.04
328.789	0.02
328.999	-0.01
329.21	-0.05
329.421	-0.05
329.631	-0.05
329.842	-0
330.052	0.02
330.263	0.05
330.473	0.03
330.684	-0.04
330.894	0.02
331.105	-0
331.315	-0.04
331.526	-0.05
331.736	-0
331.947	-0
332.157	0.01
332.367	-0.06
332.578	0.04
332.788	0.01
332.999	0.02
333.209	-0.02
333.419	-0.07
333.629	-0.01
333.84	0.02
334.05	-0.05
334.26	0.03
334.47	0.01
334.681	0.06
334.891	0.04
335.101	-0.01
335.311	0.05
335.521	0
335.732	-0.09
335.942	0.03
336.152	0.02
336.362	0.05
336.572	0
336.782	0.05
336.992	-0
337.202	-0.01
337.412	-0.04
337.622	0.03
337.832	-0.04
338.042	-0.02
338.252	-0.06
338.462	0
338.672	0.02
338.882	0
339.092	0.01
339.302	0.08
339.511	0.04
339.721	-0.02
339.931	-0.02
340.141	0.01
340.351	0.04
340.561	0.06
340.77	-0
340.98	-0.01
341.19	0.02
341.4	-0.05
341.609	-0.04
341.819	-0.02
342.029	-0.02
342.238	0
342.448	-0.04
342.658	0.03
342.867	0.01
343.077	0.03
343.286	-0.01
343.496	-0.02
343.706	0.05
343.915	-0.07
344.125	0.02
344.334	0.02
344.544	-0.02
344.753	-0.02
344.963	-0.01
345.172	-0.03
345.381	-0.04
345.591	-0.02
345.8	-0.02
346.01	0.02
346.219	0.05
346.428	-0.13
346.638	-0.02
346.847	-0.07
347.056	0.05
347.266	-0.02
347.475	-0.01
347.684	0.01
347.893	0.04
348.103	0.04
348.312	-0.05
348.521	-0.02
348.73	0.01
348.94	0.02
349.149	-0.04
349.358	-0.03
349.567	-0.01
349.776	-0.06
349.985	-0.01
350.194	0.01
350.403	0.02
350.612	-0.04
350.821	0.02
351.03	-0.02
351.239	-0.06
351.448	0.02
351.657	-0.02
351.866	-0
352.075	0
352.284	0.02
352.493	-0.08
352.702	0.02
352.911	0.02
353.12	0
353.329	-0.03
353.538	-0
353.746	-0.01
353.955	-0.03
354.164	0.01
354.373	-0.01
354.582	0.01
354.79	0.02
354.999	0.05
355.208	-0.02
355.416	0.05
355.625	-0.04
355.834	0.01
356.042	0
356.251	0.02
356.46	-0.03
356.668	0
356.877	0.08
357.085	0.01
357.294	-0.12
357.503	0.01
357.711	-0.02
357.92	0.11
358.128	0.01
358.337	-0.02
358.545	0
358.754	-0.09
358.962	-0.01
359.17	-0.08
359.379	0.02
359.587	0.01
359.796	-0.02
360.004	0.05
360.212	0.02
360.421	0.03
360.629	-0.03
360.837	-0.01
361.046	0.05
361.254	0.08
361.462	-0.03
361.67	0.02
361.879	0
362.087	0.08
362.295	-0
362.503	0
362.711	-0.05
362.92	-0.06
363.128	-0.03
363.336	0
363.544	-0.06
363.752	-0.02
363.96	-0.06
364.168	-0.02
364.376	-0.02
364.584	-0.01
364.792	0.02
365	0.03
365.208	-0.02
365.416	-0.01
365.624	0.01
365.832	-0.01
366.04	0.04
366.248	-0.03
366.456	-0.02
366.664	0.01
366.872	-0.01
367.079	-0.03
367.287	-0
367.495	0.01
367.703	-0.02
367.911	-0.02
368.118	-0.01
368.326	-0.03
368.534	-0.03
368.742	0.04
368.949	-0.05
369.157	-0.05
369.365	0.01
369.572	0.02
369.78	-0.04
369.988	-0.01
370.195	0.02
370.403	-0.01
370.61	-0.04
370.818	-0.02
371.026	0.01
371.233	-0.08
371.441	0.02
371.648	-0
371.856	-0.05
372.063	0.01
372.271	-0.01
372.478	0.02
372.685	-0.02
372.893	0.02
373.1	-0.05
373.308	-0.02
373.515	0.07
373.722	0.03
373.93	0.02
374.137	-0
374.344	0.06
374.552	0.05
374.759	0
374.966	-0.05
375.173	-0.05
375.381	0.05
375.588	-0.04
375.795	-0.07
376.002	-0.03
376.209	-0.04
376.417	-0.05
376.624	-0
376.831	0.02
377.038	-0.03
377.245	-0.09
377.452	-0.04
377.659	0
377.866	-0.01
378.073	-0.03
378.28	-0.02
378.487	0.04
378.694	0.03
378.901	-0.04
379.108	-0.02
379.315	0.06
379.522	0.08
379.729	0.01
379.936	-0.04
380.143	-0.01
380.35	0.02
380.557	-0
380.763	-0.01
380.97	0.04
381.177	0.03
381.384	0.03
381.591	-0.02
381.797	-0.03
382.004	0.02
382.211	0.01
382.418	-0.07
382.624	0.03
382.831	0.07
383.038	0.01
383.244	-0.01
383.451	-0.01
383.658	0.02
383.864	-0.02
384.071	-0.03
384.277	0.01
384.484	-0.02
384.69	0.05
384.897	-0.04
385.103	-0.06
385.31	-0.07
385.516	-0.01
385.723	-0.03
385.929	-0.02
386.136	-0.03
386.342	-0.01
386.549	-0.01
386.755	0.04
386.961	-0.02
387.168	-0.01
387.374	-0
387.58	0.01
387.787	0.01
387.993	-0.01
388.199	-0.02
388.406	-0.04
388.612	-0.03
388.818	-0.04
389.024	-0.03
389.231	0
389.437	0.05
389.643	0.05
389.849	0.01
390.055	-0.03
390.261	-0.04
390.467	0.01
390.674	-0.06
390.88	0.01
391.086	0.03
391.292	-0.01
391.498	0.01
391.704	0
391.91	-0
392.116	-0.02
392.322	-0.1
392.528	0.01
392.734	-0.04
392.94	0.02
393.146	-0.05
393.352	0.01
393.557	-0.03
393.763	-0
393.969	-0.01
394.175	-0.02
394.381	-0.01
394.587	0.01
394.792	-0.02
394.998	0.02
395.204	0.05
395.41	-0.03
395.615	0.01
395.821	0.02
396.027	0.01
396.233	-0.04
396.438	0.02
396.644	0.02
396.85	0.03
397.055	-0.02
397.261	0
397.466	0.07
397.672	0.01
397.878	0.02
398.083	0.02
398.289	-0.04
398.494	0.05
398.7	0.01
398.905	-0.08
399.111	-0
399.316	-0.09
399.522	0.01
399.727	-0.01
399.932	-0.01
400.138	-0.03
400.343	0.06
400.549	0.01
400.754	-0.01
400.959	-0.02
401.165	-0.01
401.37	-0.02
401.575	0.01
401.78	-0.02
401.986	-0.06
402.191	-0.03
402.396	-0.04
402.601	0.05
402.807	0
403.012	-0.01
403.217	0.03
403.422	0.03
403.627	0.02
403.832	-0.06
404.037	0.02
404.243	0.03
404.448	-0.03
404.653	-0.07
404.858	-0.02
405.063	0.02
405.268	-0.03
405.473	-0.01
405.678	-0.01
405.883	0.08
406.088	-0.01
406.293	-0.07
406.498	-0.03
406.703	0.04
406.907	-0
407.112	-0.04
407.317	0.05
407.522	-0
407.727	-0.06
407.932	-0.02
408.136	0.07
408.341	-0.02
408.546	-0.01
408.751	-0.01
408.956	-0.04
409.16	0.04
409.365	-0.02
409.57	-0.07
409.774	-0.01
409.979	0.05
410.184	-0.04
410.388	-0.07
410.593	0.01
410.798	-0.05
411.002	-0.04
411.207	0.01
411.411	0
411.616	-0.09
411.82	-0.04
412.025	0.01
412.229	-0.04
412.434	0.07
412.638	0.01
412.843	-0.04
413.047	-0.01
413.252	-0.04
413.456	-0.03
413.66	0.01
413.865	-0.02
414.069	0.07
414.273	0.01
414.478	-0.01
414.682	-0.03
414.886	0
415.091	-0.07
415.295	-0.08
415.499	-0.05
415.703	-0.05
415.908	-0.01
416.112	-0.08
416.316	0.04
416.52	-0.01
416.724	-0.06
416.929	-0.06
417.133	0.1
417.337	-0.06
417.541	-0.04
417.745	-0.01
417.949	0.02
418.153	-0.04
418.357	-0.06
418.561	0.06
418.765	-0.02
418.969	0.08
419.173	0.03
419.377	-0
419.581	0.08
419.785	-0.06
419.989	-0.09
420.193	-0.05
420.397	-0.04
420.601	0.05
420.804	0
421.008	0.01
421.212	0.02
421.416	0.01
421.62	-0.06
421.823	0.02
422.027	0.06
422.231	-0.01
422.435	0.01
422.638	-0.02
422.842	-0
423.046	-0.03
423.249	0.07
423.453	0.03
423.657	-0.05
423.86	-0.03
424.064	-0.01
424.268	0.07
424.471	-0.04
424.675	0.09
424.878	0.06
425.082	-0
425.285	0.02
425.489	-0.02
425.692	0.04
425.896	-0.11
426.099	0
426.303	-0.04
426.506	-0.09
426.71	0.02
426.913	0.05
427.116	0.04
427.32	-0.01
427.523	-0.01
427.726	0.09
427.93	-0.06
428.133	0
428.336	-0.04
428.54	-0.09
428.743	0
428.946	0.05
429.149	0
429.353	-0.01
429.556	-0.04
429.759	-0.02
429.962	-0.04
430.165	-0.02
430.368	-0.04
430.571	-0.05
430.775	0.02
430.978	-0.05
431.181	0.01
431.384	0.03
431.587	-0.01
431.79	-0
431.993	-0.02
432.196	-0.07
432.399	-0.04
432.602	0.03
432.805	-0.01
433.008	-0.06
433.211	-0.07
433.414	0.01
433.616	-0.05
433.819	-0.03
434.022	-0.12
434.225	0.07
434.428	0.03
434.631	0.03
434.833	-0.05
435.036	0.01
435.239	0.01
435.442	0.02
435.645	-0.01
435.847	-0.04
436.05	0.02
436.253	-0.01
436.455	-0.03
436.658	-0.04
436.861	0.05
437.063	-0.01
437.266	-0.04
437.468	-0.02
437.671	0.12
437.874	-0.01
438.076	-0.04
438.279	-0.08
438.481	0.01
438.684	-0.07
438.886	-0.03
439.089	-0.1
439.291	-0.03
439.494	0.05
439.696	-0.03
439.899	-0.03
440.101	0.02
440.303	-0.07
440.506	-0.01
440.708	-0.01
440.91	0.02
441.113	-0.07
441.315	-0.01
441.517	-0.02
441.72	-0.01
441.922	-0.04
442.124	-0.01
442.326	-0.03
442.529	0.04
442.731	-0.06
442.933	0.05
443.135	-0.04
443.337	-0.05
443.539	-0.05
443.742	-0.07
443.944	-0
444.146	-0.05
444.348	-0.08
444.55	-0.05
444.752	-0.02
444.954	-0.09
445.156	-0
445.358	-0.06
445.56	0.02
445.762	-0.02
445.964	0.02
446.166	-0.04
446.368	-0.05
446.57	0.01
446.772	-0.06
446.974	-0.04
447.175	-0.01
447.377	-0.04
447.579	-0.08
447.781	-0.09
447.983	0.03
448.184	-0.01
448.386	-0.01
448.588	-0.13
448.79	-0.04
448.991	-0.05
449.193	-0.04
449.395	-0.03
449.597	0.06
449.798	-0.06
450	-0.04
450.202	-0
450.403	-0.03
450.605	-0.01
450.806	-0.03
451.008	-0.08
451.21	0.02
451.411	-0.03
451.613	-0.01
451.814	-0.02
452.016	0.01
452.217	-0
452.419	0.01
452.62	-0.01
452.821	0.04
453.023	0.1
453.224	0.02
453.426	-0.03
453.627	0.02
453.828	-0.02
454.03	0
454.231	-0
454.432	-0.03
454.634	0.04
454.835	-0.07
455.036	-0.02
455.238	-0.01
455.439	0.05
455.64	-0.07
455.841	-0.08
456.042	0.05
456.244	0.02
456.445	-0.08
456.646	-0.14
456.847	-0.01
457.048	0.05
457.249	0.04
457.45	0.14
457.651	-0.07
457.852	0.01
458.054	0
458.255	0.01
458.456	0.03
458.657	0.01
458.858	-0.04
459.058	-0.03
459.259	0.03
459.46	0.04
459.661	-0.05
459.862	0.1
460.063	-0.01
460.264	0.04
460.465	-0.09
460.666	0.1
460.866	-0.02
461.067	-0.06
461.268	-0.01
461.469	-0.04
461.67	-0.05
461.87	-0.02
462.071	-0.02
462.272	-0.06
462.473	-0.02
462.673	0.03
462.874	-0.05
463.075	-0.05
463.275	-0.06
463.476	0.01
463.676	-0
463.877	-0.01
464.078	0.01
464.278	0.04
464.479	-0.04
464.679	-0.06
464.88	-0.04
465.08	0.02
465.281	-0.07
465.481	-0.06
465.682	-0.03
465.882	0.03
466.083	0.03
466.283	0.03
466.483	-0.05
466.684	-0.07
466.884	-0.06
467.085	-0.05
467.285	0.01
467.485	-0.02
467.686	-0.04
467.886	-0.05
468.086	-0.01
468.286	0
468.487	-0.01
468.687	-0.02
468.887	-0.03
469.087	0.04
469.287	-0
469.488	-0.05
469.688	-0.01
469.888	0.03
470.088	0.06
470.288	0.06
470.488	0.04
470.688	-0.07
470.888	-0.01
471.088	-0.03
471.288	0.03
471.488	0
471.688	0.01
471.888	-0.03
472.088	0.04
472.288	0.01
472.488	-0.03
472.688	-0.03
472.888	0.01
473.088	-0.01
473.288	0
473.488	-0.03
473.688	0.05
473.887	-0.03
474.087	-0.02
474.287	0.03
474.487	-0.01
474.687	0.04
474.886	-0.01
475.086	-0.03
475.286	-0.04
475.486	0
475.685	0
475.885	-0.01
476.085	-0.01
476.284	0.02
476.484	-0.03
476.684	0.01
476.883	0.04
477.083	-0.03
477.282	-0.05
477.482	0.05
477.681	0.06
477.881	0.01
478.08	-0.04
478.28	-0.03
478.479	0.03
478.679	0.06
478.878	-0.01
479.078	-0.05
479.277	-0.02
479.477	-0.02
479.676	0.03
479.875	-0.01
480.075	-0.06
480.274	0
480.473	0.03
480.673	-0.05
480.872	0.02
481.071	0
481.271	0.02
481.47	-0.02
481.669	-0.02
481.868	-0.05
482.067	-0.02
482.267	-0.03
482.466	-0.02
482.665	-0.05
482.864	-0.03
483.063	-0.07
483.262	-0.02
483.461	0.04
483.661	0
483.86	-0.03
484.059	-0
484.258	-0.02
484.457	0.02
484.656	-0.02
484.855	-0.01
485.054	-0.04
485.253	-0.04
485.452	-0.02
485.651	0.01
485.849	-0.04
486.048	-0.04
486.247	-0.06
486.446	-0
486.645	-0.05
486.844	-0.01
487.043	-0.03
487.241	0.03
487.44	-0.05
487.639	-0.01
487.838	0.02
488.037	-0
488.235	0.02
488.434	-0
488.633	-0.06
488.831	0.02
489.03	0.02
489.229	-0.01
489.427	-0.02
489.626	0.03
489.825	0.06
490.023	-0.02
490.222	0
490.42	0.02
490.619	0.02
490.817	-0
491.016	-0.02
491.214	0.03
491.413	-0.03
491.611	0
491.81	-0.02
492.008	-0.02
492.207	0.02
492.405	-0.03
492.604	-0.07
492.802	-0.03
493	-0.01
493.199	-0.02
493.397	-0.01
493.595	-0.03
493.794	-0.03
493.992	0.04
494.19	0.01
494.388	0.02
494.587	-0.02
494.785	-0.01
494.983	-0.05
495.181	0
495.379	0.01
495.578	-0
495.776	-0
495.974	-0.01
496.172	-0.01
496.37	-0.02
496.568	-0.03
496.766	-0.02
496.964	0.01
497.162	-0.01
497.36	-0.03
497.558	0.01
497.756	0.02
497.954	0.01
498.152	-0.03
498.35	-0.01
498.548	-0.02
498.746	0.01
498.944	-0.03
499.142	-0.01
499.34	-0.03
499.538	0
499.736	-0.04
499.933	0.01
500.131	0.02
500.329	0.01
500.527	0.03
500.725	0.02
500.922	0.03
501.12	-0.01
501.318	0
501.516	-0.02
501.713	0
501.911	-0.01
502.109	-0.04
502.306	0.01
502.504	-0.02
502.701	-0.02
502.899	-0.01
503.097	0.07
503.294	-0.01
503.492	-0.02
503.689	0.01
503.887	0.02
504.084	0.02
504.282	-0.01
504.479	-0.03
504.677	-0
504.874	-0.05
505.072	0.01
505.269	0
505.466	0.03
505.664	-0
505.861	-0.05
506.059	-0.04
506.256	0.01
506.453	-0.01
506.651	0.04
506.848	-0
507.045	-0
507.242	0
507.44	-0.01
507.637	-0.01
507.834	-0
508.031	0.04
508.229	-0.04
508.426	-0.01
508.623	0.01
508.82	-0.01
509.017	-0.02
509.214	-0.01
509.411	0.01
509.608	-0.04
509.805	0
510.003	-0.01
510.2	-0.03
510.397	0.03
510.594	-0.06
510.791	-0.03
510.988	0.01
511.184	0.02
511.381	-0
511.578	-0.02
511.775	0.01
511.972	-0.03
512.169	-0.02
512.366	-0.01
512.563	0
512.76	-0.01
512.956	0.01
513.153	-0.02
513.35	-0
513.547	-0
513.744	-0.05
513.94	-0.04
514.137	0.01
514.334	0
514.53	-0.02
514.727	-0.01
514.924	0.05
515.12	-0.02
515.317	-0.03
515.514	-0.01
515.71	-0.03
515.907	-0.01
516.103	0
516.3	0.01
516.497	0.02
516.693	0.05
516.89	-0.01
517.086	-0.03
517.283	0.03
517.479	-0.01
517.676	-0.02
517.872	-0.01
518.068	-0.02
518.265	-0.02
518.461	-0.02
518.658	-0.03
518.854	0.01
519.05	-0.02
519.247	-0
519.443	-0
519.639	-0.01
519.836	0.01
520.032	0
520.228	-0.01
520.424	0.03
520.621	0.01
520.817	-0.02
521.013	0.01
521.209	0
521.405	0.04
521.601	0
521.798	0.02
521.994	0.03
522.19	-0.02
522.386	-0.03
522.582	-0.02
522.778	0.01
522.974	-0.02
523.17	-0
523.366	-0.01
523.562	0.01
523.758	-0.01
523.954	-0.01
524.15	-0.02
524.346	0.04
524.542	-0.04
524.738	-0.01
524.934	-0.01
525.129	-0.09
525.325	0.01
525.521	-0.01
525.717	0.02
525.913	-0.01
526.109	-0.02
526.304	-0.02
526.5	0
526.696	0
526.892	-0.01
527.087	0.01
527.283	-0.01
527.479	0.01
527.674	-0.02
527.87	-0.01
528.066	-0.03
528.261	0.02
528.457	-0.02
528.653	-0.02
528.848	-0.01
529.044	0
529.239	-0.02
529.435	0
529.63	0
529.826	0.04
530.021	0.01
530.217	0
530.412	-0
530.608	-0.03
530.803	0.01
530.999	-0.02
531.194	-0.04
531.389	-0.01
531.585	-0.05
531.78	-0
531.975	-0.01
532.171	0.01
532.366	-0.03
532.561	-0
532.757	-0.02
532.952	-0.01
533.147	0.03
533.342	-0.01
533.538	-0.03
533.733	0.01
533.928	-0
534.123	0
534.318	-0.05
534.513	-0.01
534.709	-0.01
534.904	-0.01
535.099	-0.01
535.294	0.01
535.489	-0.01
535.684	-0.02
535.879	-0.03
536.074	-0.01
536.269	-0.02
536.464	0
536.659	-0.02
536.854	-0.02
537.049	0.02
537.244	0
537.439	-0.02
537.634	0.02
537.828	0
538.023	-0.02
538.218	-0.03
538.413	-0
538.608	-0.05
538.803	0.03
538.997	-0.03
539.192	-0.01
539.387	0
539.582	0.02
539.776	-0
539.971	-0
540.166	-0
540.36	-0.02
540.555	-0.02
540.75	-0.01
540.944	0
541.139	-0.03
541.334	-0.01
541.528	0.01
541.723	0
541.917	-0.01
542.112	-0.04
542.306	-0.02
542.501	-0.04
542.695	-0
542.89	-0.02
543.084	0
543.279	-0.01
543.473	-0.01
543.668	-0.01
543.862	-0.02
544.056	-0.01
544.251	-0.01
544.445	0.02
544.64	-0.02
544.834	-0.02
545.028	0
545.222	0.01
545.417	-0.01
545.611	0
545.805	-0.03
546	-0.02
546.194	-0.02
546.388	-0.02
546.582	-0.01
546.776	-0.01
546.97	-0.01
547.165	-0
547.359	-0.01
547.553	-0.03
547.747	-0.02
547.941	0.02
548.135	-0
548.329	0
548.523	0.03
548.717	0.01
548.911	-0.01
549.105	-0.01
549.299	-0.02
549.493	0.03
549.687	0.02
549.881	-0.02
550.075	0
550.269	-0.03
550.463	0.02
550.657	-0.02
550.85	-0.01
551.044	-0.02
551.238	-0.01
551.432	-0.02
551.626	-0.05
551.82	-0.01
552.013	-0.02
552.207	0
552.401	-0
552.594	-0.03
552.788	-0.01
552.982	-0.02
553.176	-0.03
553.369	-0
553.563	0.01
553.756	-0.04
553.95	-0.04
554.144	-0.01
554.337	0.02
554.531	0
554.724	-0.01
554.918	-0.01
555.111	0.01
555.305	-0.03
555.498	0.03
555.692	0
555.885	-0.01
556.079	-0
556.272	-0.03
556.466	0.01
556.659	0
556.852	-0.01
557.046	-0.02
557.239	0.03
557.432	-0.03
557.626	-0.03
557.819	-0.02
558.012	0.01
558.206	-0.01
558.399	0
558.592	0.02
558.785	-0.03
558.979	0.02
559.172	-0
559.365	0.01
559.558	0.01
559.751	0.02
559.944	0.03
560.138	-0.02
560.331	-0.01
560.524	-0.02
560.717	0.01
560.91	-0
561.103	0.02
561.296	0
561.489	-0
561.682	-0.02
561.875	0.03
562.068	-0
562.261	0.01
562.454	0.01
562.647	-0
562.84	-0
563.032	-0.02
563.225	-0.01
563.418	-0.01
563.611	-0.01
563.804	-0.02
563.997	-0.04
564.19	-0.05
564.382	-0.06
564.575	-0.02
564.768	-0
564.961	-0.03
565.153	-0.02
565.346	0.02
565.539	0.02
565.731	0.03
565.924	-0
566.117	0.02
566.309	-0.03
566.502	-0.04
566.695	-0
566.887	-0.01
567.08	-0.04
567.272	0.01
567.465	-0.02
567.657	-0.01
567.85	-0.02
568.042	0.03
568.235	0.01
568.427	-0
568.62	-0.01
568.812	-0.02
569.005	-0.01
569.197	-0.05
569.389	-0.02
569.582	0
569.774	0.01
569.966	-0.04
570.159	-0.07
570.351	0.03
570.543	-0.03
570.736	-0
570.928	-0
571.12	-0.01
571.312	-0.03
571.505	-0.03
571.697	0.02
571.889	-0.02
572.081	-0.01
572.273	-0.03
572.465	0.02
572.658	-0.04
572.85	0
573.042	-0.01
573.234	-0.02
573.426	0.02
573.618	-0.05
573.81	-0.01
574.002	0.05
574.194	0.03
574.386	-0.04
574.578	-0.09
574.77	-0.03
574.962	-0.01
575.154	-0.04
575.346	-0
575.538	0.01
575.729	-0.04
575.921	-0.04
576.113	0
576.305	0.03
576.497	-0.02
576.689	-0.03
576.88	-0.05
577.072	-0
577.264	-0.01
577.456	-0
577.647	-0.04
577.839	-0.01
578.031	0.03
578.223	-0.04
578.414	-0.04
578.606	0.01
578.798	-0.01
578.989	-0.02
579.181	-0.01
579.372	-0.01
579.564	-0.03
579.755	-0.02
579.947	-0.01
580.139	0.01
580.33	-0.05
580.522	-0.03
580.713	-0.09
580.905	-0.01
581.096	0
581.287	-0
581.479	-0.01
581.67	0.02
581.862	0
582.053	-0.04
582.244	-0.05
582.436	0
582.627	-0.02
582.818	-0.03
583.01	-0.02
583.201	0.01
583.392	0.03
583.583	-0
583.775	-0.02
583.966	-0.01
584.157	-0.01
584.348	-0.01
584.54	-0.03
584.731	-0.02
584.922	-0
585.113	0
585.304	-0.01
585.495	0.01
585.686	-0
585.877	0.02
586.068	0.01
586.259	0
586.45	-0.02
586.641	-0.04
586.832	-0.05
587.023	0.03
587.214	0
587.405	-0.01
587.596	-0.01
587.787	0.01
587.978	0.02
588.169	-0.01
588.36	-0.02
588.551	0.02
588.742	-0.02
588.932	0.01
589.123	-0.01
589.314	0.04
589.505	0.01
589.696	-0
589.886	-0.04
590.077	-0.04
590.268	-0.01
590.458	-0.06
590.649	-0.04
590.84	-0.01
591.03	-0.04
591.221	-0.03
591.412	-0.04
591.602	0.01
591.793	0.01
591.984	-0.06
592.174	-0.05
592.365	0.05
592.555	-0.02
592.746	0.01
592.936	-0
593.127	0.01
593.317	0.02
593.508	-0.02
593.698	-0.02
593.889	0.01
594.079	-0
594.269	-0.02
594.46	0.01
594.65	-0.01
594.84	-0.02
595.031	-0.02
595.221	-0.02
595.411	-0.05
595.602	0.01
595.792	0
595.982	-0.04
596.172	0.06
596.363	-0.02
596.553	0.01
596.743	0
596.933	-0.02
597.123	0.02
597.314	-0.03
597.504	-0.04
597.694	0.01
597.884	0.02
598.074	-0
598.264	-0.02
598.454	-0.01
598.644	-0.03
598.834	-0.03
599.024	-0.07
599.214	-0.01
599.404	0.03
599.594	-0.04
599.784	-0.04
599.974	0.05
600.164	0.01
600.354	-0.06
600.544	-0.04
600.734	-0.01
600.924	0.01
601.114	-0.02
601.303	-0.01
601.493	-0.01
601.683	-0.02
601.873	0
602.063	-0.03
602.252	-0.01
602.442	-0.09
602.632	-0.02
602.821	-0.03
603.011	-0
603.201	0
603.39	-0.03
603.58	-0.01
603.77	0.01
603.959	0.01
604.149	-0.01
604.339	-0.01
604.528	0.02
604.718	0
604.907	-0.01
605.097	-0.03
605.286	-0.04
605.476	0.01
605.665	0.02
605.855	0.01
606.044	0.01
606.234	-0.01
606.423	-0.01
606.612	-0.04
606.802	0.03
606.991	-0
607.181	0.02
607.37	-0.05
607.559	-0.02
607.749	-0.04
607.938	-0.03
608.127	-0.02
608.316	-0.02
608.506	-0.02
608.695	-0.02
608.884	-0.02
609.073	-0.01
609.263	0.01
609.452	-0.01
609.641	-0.01
609.83	-0.01
610.019	0.02
610.208	-0.01
610.397	-0.01
610.586	0.02
610.775	-0.02
610.965	0
611.154	-0.03
611.343	-0
611.532	0.01
611.721	-0.02
611.91	-0
612.099	0.03
612.287	-0
612.476	-0.02
612.665	-0
612.854	-0.03
613.043	0.04
613.232	-0.02
613.421	-0.01
613.61	0.01
613.798	-0.03
613.987	0.05
614.176	-0.01
614.365	0.02
614.554	0
614.742	0.01
614.931	-0.01
615.12	0.02
615.309	-0.02
615.497	0.01
615.686	0.01
615.875	-0.02
616.063	-0.01
616.252	-0.01
616.44	-0.04
616.629	-0.01
616.818	0.02
617.006	-0.05
617.195	-0.02
617.383	0.02
617.572	-0
617.76	-0.01
617.949	0
618.137	-0.02
618.326	-0.02
618.514	-0.04
618.703	-0.03
618.891	0.04
619.079	-0.05
619.268	0.03
619.456	-0.03
619.644	0.06
619.833	0
620.021	0.01
620.209	-0.06
620.398	0.02
620.586	-0
620.774	0.03
620.962	0
621.151	0.03
621.339	0.01
621.527	-0.03
621.715	-0.02
621.903	-0.03
622.092	-0.02
622.28	-0
622.468	-0.01
622.656	0.07
622.844	0.05
623.032	-0.06
623.22	-0.05
623.408	0.03
623.596	0.02
623.784	0.01
623.972	-0.05
624.16	0.02
624.348	0.04
624.536	-0.01
624.724	-0.02
624.912	0.04
625.1	0.06
625.288	0.01
625.476	-0.01
625.664	0.04
625.851	-0.02
626.039	-0
626.227	0.03
626.415	0.01
626.603	-0.03
626.79	0.03
626.978	-0.01
627.166	0.06
627.354	0.07
627.541	0
627.729	-0.06
627.917	0.03
628.104	0.04
628.292	0.04
628.48	0.03
628.667	-0
628.855	0.01
629.042	0.04
629.23	0.01
629.418	-0
629.605	0
629.793	0.01
629.98	0.02
630.168	0.01
630.355	0
630.543	0.02
630.73	-0.02
630.917	0.05
631.105	0.05
631.292	0.01
631.48	0.02
631.667	0.09
631.854	0.04
632.042	0.01
632.229	-0
632.416	0.02
632.604	0.03
632.791	-0.02
632.978	0.06
633.165	0.05
633.353	0.1
633.54	0.07
633.727	-0.03
633.914	0.01
634.101	-0.03
634.289	0.05
634.476	0.03
634.663	-0.01
634.85	0.04
635.037	-0.05
635.224	-0.02
635.411	0.05
635.598	0.06
635.785	0.05
635.972	-0
636.159	0.08
636.346	0.04
636.533	0.05
636.72	0.02
636.907	0.04
637.094	0.04
637.281	0.02
637.468	0.09
637.655	0.05
637.842	0.04
638.029	0.01
638.215	0.07
638.402	0.08
638.589	0.07
638.776	0.02
638.963	0
639.149	0.11
639.336	0.11
639.523	0.06
639.709	0.06
639.896	0.06
640.083	0.12
640.27	0.06
640.456	0.03
640.643	0.08
640.829	0.03
641.016	0.05
641.203	0.01
641.389	0.1
641.576	0.1
641.762	0.09
641.949	0.03
642.135	0.11
642.322	0.09
642.508	0.03
642.695	0.09
642.881	0.08
643.068	0.06
643.254	0.1
643.441	0.14
643.627	0.1
643.813	0.04
644	0.14
644.186	0.1
644.372	0.04
644.559	0.14
644.745	0.08
644.931	0.09
645.118	0.1
645.304	0.1
645.49	0.09
645.676	0.09
645.862	0.12
646.049	0.16
646.235	0.12
646.421	0.15
646.607	0.18
646.793	0.09
646.979	0.1
647.165	0.14
647.352	0.14
647.538	0.16
647.724	0.13
647.91	0.18
648.096	0.17
648.282	0.21
648.468	0.14
648.654	0.15
648.84	0.15
649.026	0.15
649.212	0.16
649.397	0.14
649.583	0.14
649.769	0.2
649.955	0.2
650.141	0.2
650.327	0.2
650.513	0.17
650.698	0.2
650.884	0.1
651.07	0.22
651.256	0.21
651.442	0.19
651.627	0.2
651.813	0.22
651.999	0.21
652.184	0.26
652.37	0.22
652.556	0.2
652.741	0.29
652.927	0.16
653.113	0.23
653.298	0.24
653.484	0.21
653.669	0.17
653.855	0.27
654.04	0.25
654.226	0.26
654.412	0.23
654.597	0.2
654.782	0.28
654.968	0.3
655.153	0.3
655.339	0.25
655.524	0.24
655.71	0.31
655.895	0.28
656.08	0.32
656.266	0.35
656.451	0.29
656.636	0.28
656.822	0.28
657.007	0.24
657.192	0.32
657.378	0.26
657.563	0.27
657.748	0.3
657.933	0.31
658.118	0.25
658.304	0.28
658.489	0.3
658.674	0.28
658.859	0.24
659.044	0.27
659.229	0.29
659.414	0.27
659.599	0.27
659.785	0.24
659.97	0.28
660.155	0.28
660.34	0.27
660.525	0.26
660.71	0.23
660.895	0.24
661.08	0.22
661.264	0.18
661.449	0.27
661.634	0.24
661.819	0.24
662.004	0.21
662.189	0.14
662.374	0.21
662.559	0.14
662.743	0.12
662.928	0.18
663.113	0.13
663.298	0.06
663.483	0.14
663.667	0.14
663.852	0.06
664.037	0.17
664.221	0.09
664.406	0.16
664.591	0.19
664.775	0.15
664.96	0.13
665.145	0.08
665.329	0.09
665.514	0.06
665.698	0.05
665.883	0.03
666.068	0.09
666.252	0.07
666.437	0.05
666.621	0.07
666.806	0.07
666.99	0.08
667.174	0.04
667.359	0.1
667.543	0.04
667.728	0.04
667.912	-0.02
668.096	0.06
668.281	0.02
668.465	0.01
668.649	0.04
668.834	0.02
669.018	0.08
669.202	0.06
669.387	0.05
669.571	0.06
669.755	-0.01
669.939	0.01
670.124	0.03
670.308	0.07
670.492	0.04
670.676	0.04
670.86	0
671.044	-0
671.228	0.04
671.413	-0.02
671.597	-0.01
671.781	-0.01
671.965	0.04
672.149	0.01
672.333	-0.03
672.517	0
672.701	0.05
672.885	-0.01
673.069	-0.06
673.253	0.07
673.437	0.01
673.621	-0
673.804	0.01
673.988	-0.01
674.172	-0.02
674.356	-0.07
674.54	0.01
674.724	0.1
674.908	-0.02
675.091	0.06
675.275	-0
675.459	0.01
675.643	-0.01
675.826	0.02
676.01	-0
676.194	-0.01
676.377	0.04
676.561	0.03
676.745	0.01
676.928	-0.01
677.112	0.02
677.296	-0.02
677.479	-0.01
677.663	-0.03
677.846	0.02
678.03	0
678.213	-0.02
678.397	0.01
678.58	-0.04
678.764	-0.03
678.947	-0.06
679.131	-0.04
679.314	0.03
679.498	-0.03
679.681	0.02
679.865	0.06
680.048	-0.01
680.231	-0.03
680.415	0.03
680.598	-0.03
680.781	-0.01
680.965	-0.05
681.148	0.03
681.331	-0.02
681.514	-0.01
681.698	-0.04
681.881	0
682.064	0
682.247	0.02
682.43	-0.04
682.614	0.02
682.797	0.03
682.98	0.04
683.163	-0.04
683.346	0
683.529	-0.03
683.712	-0.05
683.895	0.02
684.078	-0.03
684.261	0.01
684.444	0.04
684.627	0.05
684.81	-0.02
684.993	-0.02
685.176	-0.02
685.359	-0.02
685.542	-0.02
685.725	-0.02
685.908	0
686.091	-0.04
686.274	-0
686.457	0.05
686.639	-0.01
686.822	0.01
687.005	-0.03
687.188	0.04
687.371	0.07
687.553	0.03
687.736	-0.01
687.919	0.01
688.102	0.09
688.284	-0.03
688.467	0.01
688.65	-0.03
688.832	0.02
689.015	-0.03
689.197	-0.02
689.38	0.08
689.563	0.04
689.745	-0.03
689.928	-0.06
690.11	-0.04
690.293	-0.03
690.475	-0.09
690.658	-0.03
690.84	-0.06
691.023	-0.02
691.205	-0.02
691.388	-0.06
691.57	0.04
691.752	0.01
691.935	-0.09
692.117	-0.07
692.3	0.01
692.482	0.01
692.664	-0.04
692.847	0.01
693.029	-0
693.211	-0
693.393	-0.04
693.576	0.01
693.758	0.04
693.94	-0.02
694.122	0.02
694.304	-0.02
694.487	-0.03
694.669	0.01
694.851	-0.03
695.033	0.02
695.215	-0.03
695.397	-0.05
695.579	-0
695.761	-0.02
695.943	-0.08
696.125	-0
696.308	0.03
696.49	-0.11
696.671	0.08
696.853	-0.01
697.035	0.1
697.217	-0.01
697.399	0.03
697.581	-0.07
697.763	-0.04
697.945	-0.03
698.127	0.03
698.309	0.07
698.491	0
698.672	-0.02
698.854	0.08
699.036	0.04
699.218	-0.04
699.399	-0.01
699.581	0
699.763	-0.05
699.945	-0.08
700.126	-0.05
700.308	0.03
700.49	0.01
700.671	-0.12
700.853	-0.11
701.035	-0.07
701.216	0.01
701.398	-0.04
701.579	-0.03
701.761	0.03
701.943	-0.05
702.124	-0.06
702.306	-0.01
702.487	0.08
702.669	-0.01
702.85	-0.06
703.031	-0.02
703.213	0.07
703.394	0.03
703.576	-0.03
703.757	0.01
703.938	0.05
704.12	0.16
704.301	-0.03
704.483	-0.01
704.664	-0.02
704.845	0.11
705.026	-0.01
705.208	0.01
705.389	0.01
705.57	-0.02
705.751	0
705.933	-0
706.114	0.03
706.295	-0.03
706.476	-0.06
706.657	0.07
706.838	-0
707.02	0.04
707.201	-0.04
707.382	-0.01
707.563	-0.01
707.744	-0.05
707.925	-0.04
708.106	-0.04
708.287	0.01
708.468	0.06
708.649	-0.04
708.83	0.04
709.011	-0.01
709.192	-0.02
709.373	-0.11
709.554	-0.01
709.734	0.07
709.915	0.06
710.096	0.01
710.277	-0.09
710.458	0.05
710.639	0.03
710.819	-0.14
711	-0.02
711.181	0.03
711.362	0.07
711.542	-0.05
711.723	-0.07
711.904	0.07
712.085	0
712.265	0.06
712.446	-0.06
712.627	-0.01
712.807	0.01
712.988	-0.03
713.168	-0.1
713.349	0.01
713.53	-0.1
713.71	-0.1
713.891	-0.13
714.071	-0.02
714.252	-0.09
714.432	0.01
714.613	-0.11
714.793	0.03
714.974	0.02
715.154	0.02
715.334	0.03
715.515	0.03
715.695	-0.04
715.876	0.03
716.056	0.03
716.236	-0.08
716.417	-0.01
716.597	-0.07
716.777	0.09
716.957	-0.01
717.138	-0.04
717.318	-0.05
717.498	-0.1
717.678	-0.04
717.859	0.04
718.039	-0.07
718.219	-0.01
718.399	0
718.579	-0.1
718.759	-0.06
718.939	-0.04
719.12	-0.04
719.3	-0.01
719.48	-0.15
719.66	-0.16
719.84	0.14
720.02	0.01
720.2	-0.12
720.38	-0
720.56	-0.01
720.74	-0.1
720.92	-0.01
721.1	0.04
721.279	0.09
721.459	-0.02
721.639	-0.12
721.819	0.01
721.999	-0.05
722.179	0.11
722.359	-0.06
722.538	0.01
722.718	0.04
722.898	-0.06
723.078	-0.06
723.257	0.01
723.437	-0.02
723.617	-0.03
723.797	-0.05
723.976	0.03
724.156	0.01
724.336	0.03
724.515	0.03
724.695	-0.11
724.874	0.01
725.054	-0.03
725.234	-0.01
725.413	0.04
725.593	0.01
725.772	-0.09
725.952	-0.01
726.131	-0.02
726.311	-0.07
726.49	0.01
726.67	-0.15
726.849	-0.04
727.028	0.04
727.208	-0.06
727.387	-0.01
727.567	-0.09
727.746	-0.05
727.925	-0.11
728.105	-0.05
728.284	-0.04
728.463	-0.05
728.643	-0.01
728.822	-0.19
729.001	-0.09
729.18	0.01
729.359	-0.04
729.539	-0.07
729.718	-0.07
729.897	0.03
730.076	0.01
730.255	-0.12
730.434	-0.03
730.614	-0.05
730.793	-0.06
730.972	-0.07
731.151	-0.08
731.33	0.06
731.509	0.07
731.688	0.03
731.867	0.01
732.046	-0.16
732.225	0.07
732.404	-0.04
732.583	-0.12
732.762	-0.01
732.941	0.01
733.12	0.03
733.298	-0.04
733.477	-0.01
733.656	-0.09
733.835	-0.17
734.014	0.07
734.193	0.02
734.371	-0.01
734.55	-0.08
734.729	-0.13
734.908	-0.04
735.086	0.07
735.265	0
735.444	-0.18
735.623	-0.16
735.801	-0.13
735.98	-0.01
736.159	-0.02
736.337	0.04
736.516	-0.08
736.694	-0.02
736.873	0.03
737.052	0.2
737.23	0.09
737.409	-0.17
737.587	0.12
737.766	-0.19
737.944	-0.06
738.123	0.04
738.301	-0.02
738.479	-0.03
738.658	-0.01
738.836	-0.2
739.015	0.1
739.193	0.04
739.371	-0.17
739.55	-0.1
739.728	-0.23
739.906	0.03
740.085	0.1
740.263	-0.14
740.441	-0.14
740.62	0.14
740.798	0.1
740.976	-0.17
741.154	-0.14
741.332	0.11
741.511	-0.14
741.689	0.05
741.867	0.07
742.045	-0.04
742.223	-0.07
742.401	-0.11
742.579	0.01
742.757	-0.04
742.935	-0.17
743.114	-0.02
743.292	-0.01
743.47	-0.1
743.648	-0.05
743.826	-0.17
744.004	0.12
744.181	0.04
744.359	-0.08
744.537	0.07
744.715	-0.07
744.893	-0.04
745.071	-0.02
745.249	-0.16
745.427	-0.05
745.605	-0
745.782	-0.03
745.96	0.09
746.138	-0.05
746.316	0.02
746.493	-0.05
746.671	-0.01
746.849	-0.04
747.027	0.05
747.204	-0.1
747.382	0.05
747.56	-0.17
747.737	-0.06
747.915	-0.14
748.093	-0.03
748.27	-0.08
748.448	-0.12
748.625	-0.09
748.803	-0
748.98	-0
749.158	-0.09
749.335	0.13
749.513	-0.08
749.69	-0.02
749.868	-0.07
750.045	0.04
750.223	-0
750.4	-0.19
750.578	0.1
750.755	-0.02
750.932	-0.15
751.11	0.08
751.287	-0.19
751.464	0.15
751.642	-0.09
751.819	0.1
751.996	-0.03
752.173	-0.11
752.351	-0.11
752.528	-0.02
752.705	0.03
752.882	-0.15
753.06	-0.03
753.237	0.16
753.414	0.03
753.591	0.17
753.768	0.1
753.945	-0.01
754.122	-0.14
754.299	0
754.476	-0.01
754.654	-0.07
754.831	-0.02
755.008	0.01
755.185	-0.11
755.362	-0.22
755.539	-0.02
755.716	-0.12
755.892	-0.11
756.069	-0.06
756.246	-0.03
756.423	-0.09
756.6	0.11
756.777	-0.12
756.954	0.15
757.131	-0.16
757.307	-0.19
757.484	-0.16
757.661	-0.06
757.838	-0.08
758.015	-0.07
758.191	0.06
758.368	-0.01
758.545	0.1
758.721	0.01
758.898	-0.06
759.075	-0.02
759.251	0.03
759.428	0.03
759.605	-0.04
759.781	0.02
759.958	-0.04
760.134	0.02
760.311	-0.08
760.488	0.02
760.664	0.06
760.841	0.03
761.017	-0.19
761.194	0.08
761.37	0.03
761.547	0.09
761.723	0.02
761.899	0.17
762.076	-0.11
762.252	-0.19
762.429	0.06
762.605	0
762.781	-0.11
762.958	0.06
763.134	-0.06
763.31	-0.04
763.486	0.12
763.663	-0.15
763.839	0.06
764.015	-0.09
764.191	-0.06
764.368	-0.05
764.544	-0.09
764.72	-0.01
764.896	0.17
765.072	-0.03
765.248	-0.04
765.425	-0.13
765.601	0.06
765.777	-0.02
765.953	-0.09
766.129	0.01
766.305	-0.16
766.481	0.09
766.657	0.11
766.833	0.16
767.009	-0.11
767.185	-0.12
767.361	-0.06
767.537	-0.15
767.713	0.11
767.889	-0.08
768.065	0
768.24	-0.05
768.416	0.07
768.592	-0.24
768.768	-0.14
768.944	-0.1
769.12	-0.18
769.295	-0.06
769.471	-0.02
769.647	-0.13
769.823	0.19
769.998	-0.07
770.174	-0.12
770.35	0.33
770.525	0.19
770.701	0.05
770.877	0.02
771.052	0.01
771.228	-0.04
771.403	-0.04
771.579	0.13
771.755	0.19
771.93	0.02
772.106	-0.11
772.281	-0.19
772.457	-0.05
772.632	-0.01
772.808	-0.11
772.983	-0.1
773.159	-0.22
773.334	0.1
773.509	0.05
773.685	-0.09
773.86	0.28
774.036	0.26
774.211	-0.08
774.386	-0.12
774.562	-0.1
774.737	-0
774.912	-0.13
775.087	0.11
775.263	0.14
775.438	-0.1
775.613	-0.21
775.788	0.04
775.964	0.07
776.139	0.22
776.314	-0.26
776.489	0.04
776.664	0.1
776.839	-0.02
777.014	0.16
777.19	-0.02
777.365	0.25
777.54	0.17
777.715	-0.12
777.89	0.01
778.065	-0.13
778.24	-0.04
778.415	0.29
778.59	-0.14
778.765	-0.09
778.94	0.06
779.115	-0.22
779.289	-0.08
779.464	-0.12
779.639	0
779.814	-0.21
779.989	-0.18
780.164	0.17
780.339	0.01
780.513	-0.13
780.688	-0.11
780.863	-0
781.038	0.17
781.212	-0.1
781.387	0.11
781.562	0.23
781.737	-0.12
781.911	0.15
782.086	-0.13
782.261	-0.05
782.435	0.26
782.61	-0.24
782.784	-0.03
782.959	0.19
783.134	-0.08
783.308	-0.45
783.483	0.03
783.657	0.3
783.832	0.12
784.006	-0.22
784.181	-0.07
784.355	0.14
784.53	-0.3
784.704	-0.24
784.878	0.19
785.053	0.09
785.227	0.05
785.402	0.22
785.576	-0.19
785.75	0.02
785.925	0.02
786.099	-0.11
786.273	-0.01
786.448	0.25
786.622	0.06
786.796	-0.15
786.97	0.2
787.145	0.36
787.319	-0.46
787.493	-0.15
787.667	-0.29
787.841	-0.08
788.015	0.22
788.19	-0.08
788.364	-0.05
788.538	0.11
788.712	0.08
788.886	-0.17
789.06	0.12
789.234	0.09
789.408	-0.3
789.582	-0.19
789.756	0.12
789.93	-0.17
790.104	-0.16
790.278	-0.15
790.452	-0.18
790.626	-0.02
790.8	-0.05
790.973	0.11
791.147	0.17
791.321	0.23
791.495	0.12
791.669	-0.07
791.843	-0.07
792.016	-0.05
792.19	0.28
792.364	-0.24
792.538	0.32
792.711	0.36
792.885	-0.05
793.059	-0.41
793.233	-0.19
793.406	0.1
793.58	-0.01
793.754	0.08
793.927	-0.06
794.101	0.18
794.274	0
794.448	0.28
794.622	-0.12
794.795	0.29
794.969	-0.24
795.142	0.19
795.316	-0.11
795.489	-0.22
795.663	0.18
795.836	0.09
796.009	-0.27
796.183	0.22
796.356	-0.02
796.53	-0.13
796.703	-0.13
796.876	0.35
797.05	-0.1
797.223	0.05
797.396	0.21
797.57	0.12
797.743	0.2
797.916	-0.21
798.09	-0.03
798.263	0.28
798.436	0.14
798.609	-0.12
798.782	-0.1
798.956	0.3
799.129	0.03
799.302	0.03
799.475	-0.34
799.648	-0.09
799.821	-0.14
799.994	0.03
800.167	-0.35
800.34	0.12
800.514	0.13
800.687	-0.03
800.86	0.02
801.033	0.29
801.206	-0.04
801.379	-0.09
801.551	0.18
801.724	0.13
801.897	0.14
802.07	-0.16
802.243	-0.26
802.416	-0.07
802.589	-0.14
802.762	0.07
802.935	-0.17
803.107	0.19
803.28	0.06
803.453	0.07
803.626	-0.15
803.798	-0.06
803.971	-0.23
804.144	-0.06
804.317	-0.01
804.489	0.25
804.662	-0.21
804.835	-0.09
805.007	-0.61
805.18	0.45
805.353	-0.09
805.525	-0.24
805.698	0.05
805.87	0.08
806.043	0.21
806.215	-0.45
806.388	-0.22
806.56	0.07
806.733	0.39
806.905	0.08
807.078	-0.31
807.25	-0.37
807.423	0.25
807.595	-0.14
807.768	-0.04
807.94	0.37
808.112	0.17
808.285	0.05
808.457	-0.09
808.629	-0.22
808.802	0.21
808.974	0.29
809.146	-0.25
809.318	-0.11
809.491	0.03
809.663	0.3
809.835	-0.09
810.007	0.3
810.18	-0.02
810.352	-0.58
810.524	-0.17
810.696	-0.15
810.868	0.19
811.04	0.12
811.212	-0.57
811.384	0.14
811.556	0.01
811.728	0.33
811.901	0.62
812.073	0.12
812.245	0.2
812.417	0.07
812.589	-0.69
812.76	0.05
812.932	-0.01
813.104	0.24
813.276	-0.18
813.448	0.48
813.62	0
813.792	-0.06
813.964	0.08
814.136	0.04
814.307	-0.11
814.479	-0.13
814.651	-0.08
814.823	0.53
814.995	0.23
815.166	0.15
815.338	-0.32
815.51	-0.6
815.681	0.88
815.853	-0.06
816.025	-0.27
816.196	0.34
816.368	0.64
816.54	-0.22
816.711	-0.11
816.883	-0.04
817.054	0.63
817.226	-0.28
817.398	0.51
817.569	-0.12
817.741	-0.05
817.912	-0.21
818.084	-0.31
818.255	0.19
818.426	-0.48
818.598	0.26
818.769	-0.25
818.941	0.04
819.112	0.81
819.283	0.09
819.455	-0.16
819.626	-0.18
819.798	0.55
819.969	0.21
820.14	0.1
820.311	-0.69
820.483	0.21
820.654	0.02
820.825	-0.07
820.996	-0.26
821.168	-0.05
821.339	-0.34
821.51	-0.28
821.681	-0.35
821.852	-0.09
822.023	-0.34
822.195	-0.37
822.366	0.2
822.537	0.08
822.708	-0.07
822.879	-0.7
823.05	0.66
823.221	0.07
823.392	0.24
823.563	-0.1
823.734	0.02
823.905	0.5
824.076	-0.48
824.247	-0.83
824.418	-0.81
824.589	0.43
824.759	-0.33
824.93	-0.36
825.101	-0.75
825.272	0.43
825.443	0.26
825.614	0.24
825.784	-0.73
825.955	0.79
826.126	0.28
826.297	0.47
826.467	0.72
826.638	0.15
826.809	-0.91
826.98	0.26
827.15	0.15
827.321	-0.05
827.492	0.58
827.662	-0.38
827.833	0.33
828.003	0.27
828.174	-0.23
828.345	-0.86
828.515	0.14
828.686	-0.1
828.856	-0.33
829.027	0.07
829.197	-0.04
829.368	-0.02
829.538	0.11
829.709	-0.04
829.879	0.34
830.049	0.24
830.22	0.03
830.39	0.28
830.56	-0.05
830.731	0.26
830.901	-0.56
831.072	0.02
831.242	-0.21
831.412	-0.03
831.582	0
831.753	-0.74
831.923	0.36
832.093	0.46
832.263	-0.49
832.434	-0.26
832.604	-0
832.774	0.25
832.944	-0.37
833.114	-0
833.284	0.3
833.454	-0.41
833.624	-0.49
833.795	-0.14
833.965	0.46
834.135	0.3
834.305	-0.97
834.475	-0.37
834.645	-0.47
834.815	-0.24
834.985	-0.76
835.155	-0.17
835.325	0.35
835.494	0.09
835.664	-0.15
835.834	-0.33
836.004	-0.57
836.174	0.49
836.344	-0.16
836.514	-0.88
836.684	0.04
836.853	-0.36
837.023	-0.3
837.193	-0.8
837.363	0.62
837.532	0.65
837.702	0.15
837.872	-0.71
838.041	0.35
838.211	1.2
838.381	-1.17
838.55	0.03
838.72	1.34
838.89	0.1
839.059	-0.59
839.229	-0.56
839.398	1.02
839.568	-0.1
839.738	-0.61
839.907	0.35
840.077	0.2
840.246	-0.69
840.416	-0.58
840.585	-0.41
840.755	0.72
840.924	0.57
841.093	-0.5
841.263	-0.3
841.432	-0.34
841.602	-1
841.771	-0.4
841.94	-0.02
842.11	1.6
842.279	1.14
842.448	-0.27
842.617	-1.11
842.787	0.89
842.956	-1.29
843.125	0.05
843.294	-0.04
843.464	0.39
843.633	-0.89
843.802	-0.65
843.971	-0.08
844.14	-0.15
844.309	0.42
844.479	-0.68
844.648	-0.82
844.817	-0.44
844.986	0.18
845.155	-0.55
845.324	0.37
845.493	-0.37
845.662	-0.91
845.831	0.69
846	0.41
846.169	-0.37
846.338	0.71
846.507	-0.33
846.676	0.45
846.844	-0.5
847.013	0.59
847.182	-0.08
847.351	-0.7
847.52	0.39
847.689	-0.27
847.858	0.13
848.026	-0.47
848.195	0.1
848.364	-0.18
848.533	-0.5
848.701	-0.49
848.87	-0.48
849.039	0.06
849.207	0.98
849.376	0.82
849.545	0.31
849.713	-0.37
849.882	0.12
850.051	0.12
850.219	0.22
850.388	0.1
850.556	-0.72
850.725	-0.17
850.893	0.34
851.062	-0.21
851.23	0.35
851.399	-0.7
851.567	-0.41
851.736	-0.48
851.904	-1.09
852.073	0.32
852.241	0.04
852.41	0.19
852.578	0.03
852.746	-0.34
852.915	0.18
853.083	-0.25
853.251	-1
853.42	0.11
853.588	-0.37
853.756	0.62
853.924	-0.07
854.093	0.84
854.261	-0.35
854.429	-0.71
854.597	-0.36
854.765	-0.84
854.934	-0.3
855.102	0.55
855.27	0.44
855.438	0.28
855.606	-0.06
855.774	1.02
855.942	-1.83
856.11	-1.55
856.278	-0.37
856.446	0.05
856.614	-0.56
856.782	-0.85
856.95	1.41
857.118	0.81
857.286	0.57
857.454	-0.61
857.622	0.93
857.79	0.04
857.958	-0.25
858.126	-0.26
858.294	-2.93
858.462	-0.67
858.629	0.42
858.797	-1.16
858.965	1.22
859.133	-0.15
859.301	-0.56
859.468	1.47
859.636	-0.86
859.804	1.12
859.971	0.21
860.139	-1.87
860.307	1.03
860.474	-0.07
860.642	-0.66
860.81	-1.21
860.977	-0.03
861.145	0.57
861.313	-0.7
861.48	0.38
861.648	0.54
861.815	0.08
861.983	-2.37
862.15	-0.36
862.318	-0.15
862.485	1.23
862.653	-0.26
862.82	-0.6
862.988	1.93
863.155	0.46
863.322	-0.88
863.49	-1.14
863.657	-0.5
863.824	2.28
863.992	0.24
864.159	0.5
864.326	0.8
864.494	-1.32
864.661	1.75
864.828	-1.38
864.996	0.83
865.163	2.32
865.33	-0.63
865.497	-2.37
865.664	-0.68
865.832	-1.95
865.999	-1.24
866.166	-2.09
866.333	0.04
866.5	-1.09
866.667	0.31
866.834	0.38
867.001	1.01
867.168	-2.12
867.335	-0.7
867.502	-0.47
867.669	0.35
867.836	1.82
868.003	-0.07
868.17	-0.74
868.337	-0.7
868.504	1.87
868.671	-1.26
868.838	-2.39
869.005	0.19
869.172	1.32
869.339	-0.1
869.505	0.34
869.672	-1.04
869.839	2.73
870.006	-1.19
870.173	-1.62
870.339	0.53
870.506	1.56
870.673	-1.43
870.84	-0.31
871.006	0.93
871.173	0.23
871.34	-0.1
871.506	-1.13
871.673	0.76
871.839	-2.87
872.006	1.12
872.173	-0.72
872.339	0.45
872.506	0.82
872.672	-0.71
872.839	-1.27
873.005	-0.47
873.172	1.81
873.338	2.86
873.505	0.76
873.671	1.19
873.838	1.02
874.004	-2.49
874.171	-1.65
874.337	1.6
874.503	0.76
874.67	-1.21
874.836	-0.44
875.002	1.74
875.169	-0.1
875.335	1.25
875.501	0.82
875.668	-0.27
875.834	0.56
876	-1.84
876.166	0.8
876.332	0.62
876.499	1.22
876.665	-1.5
876.831	-0.94
876.997	3.21
877.163	-1.33
877.329	-0.7
877.495	0.27
877.662	-0.27
877.828	0.16
877.994	-0.06
878.16	-3.06
878.326	-1.45
878.492	1.53
878.658	-0.34
878.824	0.57
878.99	0.57
879.156	-0.79
879.322	2.49
879.487	-2.1
879.653	0.59
879.819	-1.2
879.985	0.12
880.151	-0.29
880.317	0.2
880.483	1.48
880.648	-0.76
880.814	-1.84
880.98	0.98
881.146	-0.93
881.312	0.37
881.477	0.42
881.643	0.7
881.809	2.34
881.974	1.18
882.14	-2.45
882.306	-0.03
882.471	2.19
882.637	1.16
882.803	1.23
882.968	2.93
883.134	2.78
883.299	1.67
883.465	0.36
883.63	0.98
883.796	1.87
883.961	1.59
884.127	0.49
884.292	-4.82
884.458	-1.17
884.623	-1.17
