Data from Apollo_Calib_20240827__AbsoluteIrradiance__69__00-18-00-913.txt Node

Date: Wed Aug 28 00:18:00 BST 2024
User: biology
Spectrometer: FLMT08252
Trigger mode: 0
Integration Time (sec): 5.000000E-1
Scans to average: 5
Electric dark correction enabled: true
Nonlinearity correction enabled: false
Boxcar width: 0
XAxis mode: Wavelengths
Number of Pixels in Spectrum: 3648
>>>>>Begin Spectral Data<<<<<
179.588	-0
179.809	-0
180.03	-0
180.251	-0
180.473	-0
180.694	0
180.915	0
181.136	-0
181.357	0
181.578	-0
181.799	-0
182.02	-0
182.241	0
182.462	-0
182.683	0
182.904	-0
183.125	-0
183.346	0
183.567	0
183.788	-0
184.009	-0
184.23	0
184.451	0
184.672	-0
184.892	-0
185.113	0
185.334	0
185.555	-0
185.776	-0
185.996	0
186.217	0
186.438	0
186.659	-0
186.879	0
187.1	-0
187.321	-0
187.541	-0
187.762	-0
187.983	-0
188.203	0
188.424	-0
188.644	-0
188.865	0
189.086	-0
189.306	-0
189.527	-0
189.747	0
189.968	-0
190.188	-0
190.409	-0
190.629	0
190.849	-0
191.07	-0
191.29	-0
191.511	0
191.731	-0
191.951	-0
192.172	0
192.392	-0
192.612	-0
192.833	-0
193.053	0
193.273	0
193.493	-0
193.714	-0
193.934	0
194.154	0
194.374	-0
194.594	0
194.815	0
195.035	-0
195.255	-0
195.475	-0
195.695	0
195.915	0
196.135	0
196.355	0
196.575	0
196.795	0
197.015	-0
197.235	-0
197.455	0
197.675	-0
197.895	-0
198.115	-0
198.335	0
198.555	-0
198.775	0
198.995	0
199.214	0
199.434	0
199.654	-0
199.874	-0
200.094	0.95
200.313	-0.09
200.533	-0.28
200.753	-0.71
200.973	0.32
201.192	0.46
201.412	-1.14
201.632	-0.53
201.851	0.55
202.071	-1.06
202.291	-0.24
202.51	-0.63
202.73	-0.01
202.95	-0.16
203.169	-0.85
203.389	-0.15
203.608	0.16
203.828	-0.8
204.047	-0.2
204.267	0.53
204.486	-0.25
204.706	0.07
204.925	0.01
205.145	-0.24
205.364	0.22
205.583	0.87
205.803	-0.24
206.022	-0.4
206.242	-0.29
206.461	0.06
206.68	-0.42
206.9	0.14
207.119	0.67
207.338	0.16
207.557	-0.21
207.777	-0.4
207.996	0.11
208.215	0.38
208.434	-0.46
208.654	-0.53
208.873	0.09
209.092	0.28
209.311	-0.19
209.53	-0.16
209.749	-0.14
209.968	-0.35
210.187	-0.2
210.407	-0.76
210.626	-0.19
210.845	0.07
211.064	-0.23
211.283	-0.44
211.502	0.18
211.721	0.12
211.94	0.05
212.159	0.03
212.377	0.08
212.596	0.18
212.815	0.11
213.034	-0.07
213.253	-0.01
213.472	0.25
213.691	-0.1
213.91	-0.2
214.128	-0.03
214.347	0.43
214.566	-0.43
214.785	-0.26
215.003	0.21
215.222	0.18
215.441	0.04
215.66	-0.31
215.878	0.09
216.097	0.15
216.316	-0.35
216.534	-0.16
216.753	-0.02
216.972	-0.16
217.19	-0.28
217.409	-0.33
217.627	-0.15
217.846	-0.24
218.064	-0.15
218.283	-0.01
218.501	0.21
218.72	0.13
218.938	-0.17
219.157	-0.09
219.375	0.11
219.594	0.25
219.812	-0.25
220.031	-0.18
220.249	0.29
220.467	0.27
220.686	-0.17
220.904	-0.29
221.122	-0.26
221.341	0.21
221.559	0.03
221.777	-0.04
221.995	-0.1
222.214	0.06
222.432	-0.01
222.65	0.24
222.868	-0.04
223.086	-0.03
223.305	0.05
223.523	-0.02
223.741	0.13
223.959	-0.15
224.177	-0.27
224.395	-0.01
224.613	0.05
224.831	0.09
225.049	-0.13
225.267	-0.12
225.485	-0.01
225.703	-0.16
225.921	-0.11
226.139	-0.09
226.357	0.08
226.575	0.05
226.793	-0.07
227.011	0.44
227.229	0.05
227.447	0.13
227.665	-0.16
227.883	-0.16
228.1	-0.06
228.318	-0.01
228.536	-0.3
228.754	-0.16
228.972	0.06
229.189	0.03
229.407	-0.08
229.625	-0.04
229.843	0.11
230.06	0.02
230.278	-0.16
230.496	0.06
230.713	-0.14
230.931	0.17
231.149	-0.06
231.366	-0.25
231.584	0.05
231.801	0.31
232.019	-0.1
232.236	-0.1
232.454	-0.16
232.671	0.09
232.889	0.05
233.106	-0.06
233.324	-0.21
233.541	-0.11
233.759	0.06
233.976	-0.1
234.194	-0.11
234.411	-0.08
234.628	-0.05
234.846	-0.09
235.063	0.04
235.28	0.07
235.498	0
235.715	-0.15
235.932	0.11
236.149	-0.08
236.367	-0.13
236.584	-0.02
236.801	-0.17
237.018	0.1
237.236	-0.07
237.453	-0.2
237.67	0.03
237.887	-0.16
238.104	-0.06
238.321	-0.05
238.538	-0.11
238.755	0.15
238.973	-0.19
239.19	-0.07
239.407	0.03
239.624	0.05
239.841	-0.11
240.058	-0.17
240.275	0.08
240.492	-0.03
240.709	-0.01
240.925	-0.02
241.142	-0.08
241.359	-0.2
241.576	-0.1
241.793	-0.04
242.01	-0.06
242.227	0.13
242.444	0.04
242.66	0
242.877	-0.08
243.094	-0.08
243.311	-0.01
243.527	-0.07
243.744	0.06
243.961	0.06
244.178	-0.09
244.394	-0.06
244.611	0.1
244.828	0.15
245.044	-0.09
245.261	-0.01
245.477	-0.01
245.694	-0.01
245.911	-0.09
246.127	-0.05
246.344	0.09
246.56	0.12
246.777	-0.11
246.993	0.07
247.21	-0.02
247.426	0.15
247.643	-0.09
247.859	-0.06
248.076	-0.09
248.292	0.15
248.508	-0.07
248.725	0.02
248.941	0.05
249.157	0.15
249.374	-0.05
249.59	0
249.806	0
250.023	-0.04
250.239	-0.11
250.455	-0.11
250.671	-0.01
250.888	0.08
251.104	-0.03
251.32	-0.1
251.536	-0.01
251.752	-0.04
251.969	0.05
252.185	0.03
252.401	0.12
252.617	0.09
252.833	0
253.049	0.07
253.265	-0
253.481	0.01
253.697	-0.02
253.913	-0.18
254.129	-0.03
254.345	0.01
254.561	-0.08
254.777	-0.04
254.993	0.01
255.209	0.01
255.425	-0.09
255.641	-0.08
255.857	0.06
256.073	0
256.288	-0.18
256.504	-0.02
256.72	0.04
256.936	0.09
257.152	-0.07
257.367	-0.06
257.583	-0.05
257.799	0.08
258.015	-0.11
258.23	-0.05
258.446	0.06
258.662	-0.01
258.877	-0.05
259.093	-0.01
259.309	-0.06
259.524	0
259.74	-0.08
259.955	-0.12
260.171	-0.05
260.387	-0.06
260.602	0.02
260.818	-0
261.033	-0.08
261.249	-0.13
261.464	-0.02
261.68	-0.11
261.895	-0.01
262.11	0.04
262.326	-0.04
262.541	-0.13
262.757	0.08
262.972	-0.03
263.187	0.02
263.403	-0.03
263.618	0.01
263.833	-0.06
264.049	-0.1
264.264	-0.01
264.479	-0.02
264.694	0.02
264.91	-0.08
265.125	-0.02
265.34	0.06
265.555	0.09
265.77	-0.02
265.986	-0.08
266.201	0.1
266.416	0.1
266.631	-0.08
266.846	-0.01
267.061	0.06
267.276	0.03
267.491	-0.13
267.706	0.03
267.921	0.05
268.136	-0.07
268.351	-0.03
268.566	-0.02
268.781	0.11
268.996	0.05
269.211	-0.05
269.426	-0.12
269.641	-0.02
269.856	0.05
270.071	-0.08
270.285	-0.12
270.5	0.08
270.715	0.06
270.93	-0.02
271.145	0
271.359	0.06
271.574	-0.1
271.789	-0.02
272.004	-0.02
272.218	-0.02
272.433	0.05
272.648	-0.04
272.862	0.01
273.077	-0.06
273.292	-0.03
273.506	-0.09
273.721	-0.04
273.936	-0.01
274.15	0.07
274.365	-0.07
274.579	0
274.794	-0
275.008	0.12
275.223	-0.14
275.437	-0.09
275.652	0.06
275.866	0.02
276.081	-0
276.295	0.03
276.509	-0.03
276.724	-0.02
276.938	-0
277.153	-0.01
277.367	0.07
277.581	-0.01
277.796	-0.09
278.01	-0.13
278.224	0.02
278.438	0.12
278.653	0
278.867	-0.06
279.081	-0.01
279.295	-0.09
279.51	0.02
279.724	-0.08
279.938	0.06
280.152	0.03
280.366	-0.06
280.58	0.01
280.794	0.06
281.008	0.04
281.222	0.03
281.437	0.06
281.651	0
281.865	0.06
282.079	-0.06
282.293	-0.12
282.507	-0.05
282.721	-0.01
282.935	0.04
283.148	-0.1
283.362	-0.05
283.576	-0.05
283.79	-0.02
284.004	-0.03
284.218	0.03
284.432	-0.07
284.646	-0.02
284.859	-0.05
285.073	-0.01
285.287	-0.01
285.501	0.02
285.714	0
285.928	-0.02
286.142	-0.04
286.356	-0.04
286.569	-0.08
286.783	0.06
286.997	0.02
287.21	0
287.424	-0.03
287.637	-0.03
287.851	-0.04
288.065	0.06
288.278	0.01
288.492	-0.01
288.705	-0.03
288.919	0
289.132	-0.08
289.346	0.08
289.559	-0.08
289.773	-0.07
289.986	-0.01
290.2	-0.02
290.413	0.06
290.626	-0.04
290.84	-0.02
291.053	0.03
291.267	0.06
291.48	0
291.693	0.01
291.906	-0.02
292.12	-0.05
292.333	-0.05
292.546	-0
292.76	0.09
292.973	-0.01
293.186	0.01
293.399	-0.05
293.612	0.03
293.826	0
294.039	-0.04
294.252	0.02
294.465	0.02
294.678	0.09
294.891	-0
295.104	-0.01
295.317	-0.08
295.53	-0
295.743	-0.02
295.956	0.01
296.169	0.02
296.382	0.06
296.595	-0.03
296.808	-0.08
297.021	0.02
297.234	0.05
297.447	0
297.66	0.03
297.873	0.09
298.086	0.01
298.299	-0.06
298.511	-0.08
298.724	-0.02
298.937	-0.05
299.15	-0.06
299.363	-0.02
299.575	-0.01
299.788	0.02
300.001	-0.04
300.213	-0.01
300.426	-0
300.639	-0.03
300.852	-0.03
301.064	0.02
301.277	0.03
301.489	-0
301.702	0.04
301.915	0.04
302.127	0.04
302.34	0.04
302.552	0
302.765	-0.05
302.977	0.01
303.19	-0.06
303.402	-0.07
303.615	-0.02
303.827	-0.07
304.04	-0.04
304.252	-0.01
304.464	0.02
304.677	0.08
304.889	0.05
305.102	-0.04
305.314	-0.08
305.526	-0.02
305.739	-0.02
305.951	-0.03
306.163	-0.05
306.375	0.05
306.588	-0.02
306.8	-0.05
307.012	-0.07
307.224	0.02
307.436	0.02
307.649	-0.07
307.861	0.03
308.073	0.06
308.285	0.03
308.497	-0.07
308.709	-0.02
308.921	0.05
309.133	0.05
309.346	-0.02
309.558	-0.04
309.77	0.04
309.982	0.04
310.194	0
310.406	-0.06
310.617	0.03
310.829	0.04
311.041	-0.02
311.253	-0.02
311.465	-0.01
311.677	-0
311.889	0.01
312.101	-0.02
312.313	0.07
312.524	0.04
312.736	-0.08
312.948	-0.02
313.16	0.04
313.372	0.03
313.583	0.03
313.795	0
314.007	-0.03
314.218	0.05
314.43	-0
314.642	-0.02
314.853	-0.04
315.065	-0.04
315.277	0.02
315.488	0
315.7	0
315.912	-0.01
316.123	-0.02
316.335	0.04
316.546	0.09
316.758	-0.04
316.969	-0.04
317.181	0.01
317.392	0.01
317.604	0.07
317.815	-0.03
318.026	-0.06
318.238	-0.02
318.449	0.02
318.661	-0.1
318.872	-0.09
319.083	-0.05
319.295	0.02
319.506	-0.03
319.717	0.01
319.929	0.03
320.14	0.01
320.351	0
320.562	-0.05
320.774	-0.01
320.985	0.04
321.196	-0.05
321.407	-0.08
321.618	-0.01
321.829	-0
322.041	0.02
322.252	0
322.463	0.01
322.674	-0.01
322.885	-0.03
323.096	-0
323.307	-0.02
323.518	-0.04
323.729	-0.04
323.94	0.02
324.151	-0.02
324.362	0.03
324.573	-0.01
324.784	-0.04
324.995	0.07
325.206	-0
325.417	-0.03
325.628	0.03
325.838	0.02
326.049	-0.03
326.26	0.02
326.471	-0.03
326.682	0.02
326.892	-0.04
327.103	-0.08
327.314	-0.09
327.525	0.05
327.735	-0.05
327.946	-0.02
328.157	-0.07
328.368	0.02
328.578	-0
328.789	0.02
328.999	0.02
329.21	-0
329.421	0.06
329.631	-0.03
329.842	-0.04
330.052	0.04
330.263	0.02
330.473	0.06
330.684	-0.02
330.894	0.01
331.105	0
331.315	-0.01
331.526	-0.07
331.736	0.08
331.947	0
332.157	0.02
332.367	-0.06
332.578	0.03
332.788	0.05
332.999	0.02
333.209	-0.02
333.419	-0.05
333.629	0.01
333.84	-0.02
334.05	-0.01
334.26	0.02
334.47	0.02
334.681	0.04
334.891	-0.03
335.101	0.02
335.311	0.08
335.521	-0.01
335.732	-0.05
335.942	0.07
336.152	0.04
336.362	-0.04
336.572	0.03
336.782	0.03
336.992	-0.03
337.202	-0.04
337.412	-0.05
337.622	0.03
337.832	0.01
338.042	-0
338.252	-0.03
338.462	-0.05
338.672	-0.02
338.882	-0.06
339.092	0.02
339.302	0.06
339.511	0.03
339.721	-0.03
339.931	-0.02
340.141	0.01
340.351	0.01
340.561	-0.02
340.77	0.05
340.98	0.02
341.19	0.02
341.4	-0.03
341.609	-0.01
341.819	-0.03
342.029	-0.04
342.238	-0.01
342.448	-0.03
342.658	0.04
342.867	0.02
343.077	-0.03
343.286	0.06
343.496	-0.02
343.706	0.08
343.915	-0.06
344.125	-0.02
344.334	0.02
344.544	-0.08
344.753	-0.03
344.963	-0.02
345.172	0
345.381	0.01
345.591	-0.02
345.8	0.01
346.01	0.07
346.219	0.02
346.428	-0.16
346.638	-0.02
346.847	0
347.056	0.05
347.266	-0.07
347.475	0.02
347.684	0.04
347.893	0
348.103	0.02
348.312	-0.04
348.521	-0.04
348.73	0.02
348.94	0.02
349.149	0
349.358	-0.01
349.567	-0.01
349.776	-0.07
349.985	-0.02
350.194	0.03
350.403	0.03
350.612	-0.05
350.821	-0.01
351.03	0.01
351.239	-0.04
351.448	-0
351.657	-0.03
351.866	0.09
352.075	-0.02
352.284	0.05
352.493	-0.07
352.702	0.07
352.911	0
353.12	-0.01
353.329	0
353.538	0.03
353.746	-0.04
353.955	-0.07
354.164	0
354.373	0
354.582	0.03
354.79	0.02
354.999	0.05
355.208	-0.04
355.416	0.04
355.625	-0.05
355.834	-0.03
356.042	-0
356.251	0.03
356.46	-0.07
356.668	0.02
356.877	0.08
357.085	0.05
357.294	-0.06
357.503	0.03
357.711	-0.04
357.92	0.12
358.128	-0.01
358.337	-0.01
358.545	-0.03
358.754	0
358.962	0.03
359.17	-0.03
359.379	0.01
359.587	0.03
359.796	0.01
360.004	-0.01
360.212	0.03
360.421	0.07
360.629	-0.01
360.837	-0.01
361.046	0.03
361.254	0.09
361.462	-0.01
361.67	-0.03
361.879	-0.01
362.087	0.05
362.295	-0.01
362.503	-0.03
362.711	-0.06
362.92	-0.04
363.128	-0.03
363.336	-0.06
363.544	-0.07
363.752	-0.02
363.96	-0.02
364.168	0
364.376	-0
364.584	0.01
364.792	0.04
365	0.03
365.208	-0.01
365.416	0.03
365.624	0.04
365.832	-0.03
366.04	0.09
366.248	-0.01
366.456	0
366.664	0.01
366.872	0.02
367.079	0.02
367.287	0.02
367.495	-0
367.703	-0
367.911	-0.02
368.118	-0.01
368.326	-0
368.534	-0.05
368.742	0.05
368.949	-0.05
369.157	-0.08
369.365	0.04
369.572	0.03
369.78	-0.02
369.988	0.02
370.195	0.03
370.403	0.01
370.61	-0.04
370.818	0.02
371.026	0.04
371.233	-0.02
371.441	0.09
371.648	-0.02
371.856	0.02
372.063	-0.01
372.271	-0.03
372.478	-0.04
372.685	-0.01
372.893	0.02
373.1	0.02
373.308	-0.01
373.515	0.08
373.722	0.02
373.93	0.04
374.137	0.04
374.344	0.1
374.552	0.05
374.759	0.06
374.966	0.02
375.173	0.02
375.381	0.03
375.588	0.02
375.795	-0.07
376.002	-0
376.209	0.01
376.417	0.04
376.624	0.01
376.831	0.06
377.038	0.01
377.245	-0.03
377.452	0.06
377.659	0.05
377.866	0.03
378.073	0.05
378.28	0.03
378.487	0.1
378.694	0.08
378.901	0.05
379.108	0.09
379.315	0.09
379.522	0.15
379.729	0.07
379.936	0.08
380.143	0.07
380.35	0.15
380.557	0.1
380.763	0.09
380.97	0.13
381.177	0.15
381.384	0.13
381.591	0.12
381.797	0.12
382.004	0.13
382.211	0.17
382.418	0.13
382.624	0.13
382.831	0.17
383.038	0.09
383.244	0.12
383.451	0.05
383.658	0.11
383.864	0.08
384.071	0.04
384.277	0.18
384.484	0.05
384.69	0.1
384.897	0.03
385.103	0.09
385.31	0.06
385.516	0.04
385.723	0.06
385.929	0.06
386.136	0.07
386.342	0.06
386.549	0.05
386.755	0.12
386.961	0.08
387.168	0.06
387.374	0.04
387.58	0.03
387.787	0.02
387.993	0.05
388.199	0.02
388.406	0.02
388.612	-0.03
388.818	0.05
389.024	0
389.231	0.02
389.437	0.1
389.643	0.03
389.849	0.06
390.055	0.03
390.261	0.05
390.467	0.04
390.674	-0
390.88	-0.01
391.086	0.07
391.292	-0.02
391.498	0.11
391.704	0.03
391.91	0.03
392.116	-0.01
392.322	-0.1
392.528	0.05
392.734	0.03
392.94	0.04
393.146	-0.06
393.352	-0
393.557	0.04
393.763	-0.04
393.969	0.05
394.175	0.01
394.381	0.03
394.587	-0.02
394.792	-0.01
394.998	0.01
395.204	0.07
395.41	-0.03
395.615	0.05
395.821	-0.02
396.027	-0.01
396.233	-0.09
396.438	-0.02
396.644	0.1
396.85	0.02
397.055	0.01
397.261	0.01
397.466	0.09
397.672	0
397.878	0.05
398.083	-0.04
398.289	-0.05
398.494	0.04
398.7	0.06
398.905	-0.06
399.111	0.03
399.316	-0.03
399.522	0
399.727	-0.01
399.932	0.02
400.138	0.01
400.343	0.01
400.549	0.01
400.754	0.02
400.959	0.04
401.165	0.02
401.37	0.01
401.575	0.09
401.78	-0.04
401.986	-0.05
402.191	-0.05
402.396	-0.01
402.601	-0.02
402.807	0.03
403.012	-0.03
403.217	0.01
403.422	-0.01
403.627	0.05
403.832	-0.03
404.037	0.01
404.243	0.01
404.448	-0.08
404.653	0.01
404.858	-0.02
405.063	0.05
405.268	0
405.473	-0.07
405.678	-0.03
405.883	0.15
406.088	-0.02
406.293	-0.08
406.498	-0
406.703	0.06
406.907	-0.01
407.112	-0.08
407.317	0.03
407.522	0.01
407.727	-0.06
407.932	0.02
408.136	0.04
408.341	-0.01
408.546	-0.05
408.751	-0.02
408.956	0.01
409.16	-0
409.365	0.02
409.57	-0.03
409.774	-0.02
409.979	0.01
410.184	0.01
410.388	-0
410.593	0.05
410.798	0.05
411.002	-0.02
411.207	0.02
411.411	0.01
411.616	-0.02
411.82	-0.02
412.025	0.01
412.229	-0.06
412.434	0.03
412.638	0.03
412.843	-0.01
413.047	-0.02
413.252	-0.02
413.456	-0.04
413.66	0.01
413.865	-0.03
414.069	0.09
414.273	-0.04
414.478	-0.04
414.682	-0.02
414.886	-0.04
415.091	-0.05
415.295	-0.11
415.499	-0
415.703	-0.03
415.908	-0.01
416.112	-0.08
416.316	-0.03
416.52	-0.02
416.724	-0.06
416.929	-0.02
417.133	0.1
417.337	-0.04
417.541	-0.05
417.745	-0.03
417.949	0.01
418.153	0.04
418.357	-0.07
418.561	0.05
418.765	-0.03
418.969	0.08
419.173	0
419.377	-0.04
419.581	0.11
419.785	-0.07
419.989	-0.08
420.193	-0.04
420.397	-0
420.601	0.05
420.804	0.05
421.008	-0.01
421.212	-0.03
421.416	0.03
421.62	-0.06
421.823	-0.01
422.027	0.06
422.231	-0.01
422.435	-0.03
422.638	0
422.842	0.04
423.046	-0.05
423.249	0.01
423.453	0.02
423.657	-0.01
423.86	-0
424.064	0.02
424.268	0.02
424.471	-0.01
424.675	0.08
424.878	0.07
425.082	-0.06
425.285	-0.01
425.489	-0.01
425.692	-0.01
425.896	-0.03
426.099	0.04
426.303	-0.02
426.506	-0.07
426.71	0
426.913	0.06
427.116	0.04
427.32	0.07
427.523	0.04
427.726	0.05
427.93	-0.01
428.133	0.01
428.336	-0.08
428.54	-0.05
428.743	0.06
428.946	0.08
429.149	-0.05
429.353	-0.01
429.556	-0.04
429.759	0.02
429.962	-0.07
430.165	0.04
430.368	0
430.571	-0.02
430.775	0.04
430.978	-0.02
431.181	0.03
431.384	0.04
431.587	-0.02
431.79	-0
431.993	-0.02
432.196	-0.03
432.399	-0.06
432.602	0.07
432.805	0.02
433.008	-0.05
433.211	-0.11
433.414	0.06
433.616	0.03
433.819	-0.03
434.022	-0.07
434.225	0.11
434.428	-0
434.631	0.1
434.833	0.01
435.036	0.01
435.239	0.06
435.442	0
435.645	0.01
435.847	0
436.05	0.02
436.253	0.04
436.455	-0.05
436.658	-0.02
436.861	0.11
437.063	0.01
437.266	-0
437.468	0.03
437.671	0.16
437.874	0
438.076	-0.05
438.279	-0.06
438.481	0.08
438.684	-0.05
438.886	0.05
439.089	-0.07
439.291	0.01
439.494	0.02
439.696	-0.04
439.899	-0.04
440.101	0.04
440.303	0.03
440.506	0.07
440.708	0.03
440.91	0.06
441.113	-0.01
441.315	0.09
441.517	0
441.72	0.06
441.922	0.01
442.124	-0.03
442.326	0.08
442.529	0.11
442.731	0.04
442.933	0.11
443.135	0.01
443.337	-0.03
443.539	0.03
443.742	0.01
443.944	0.07
444.146	-0.01
444.348	0.02
444.55	0.06
444.752	0
444.954	-0.02
445.156	-0
445.358	0.01
445.56	0.14
445.762	0.03
445.964	0.07
446.166	0.04
446.368	-0
446.57	0.11
446.772	0.01
446.974	0.08
447.175	0.08
447.377	0.07
447.579	0.04
447.781	-0.05
447.983	0.12
448.184	0.04
448.386	0.03
448.588	0.02
448.79	0.06
448.991	0.03
449.193	0.02
449.395	0.03
449.597	0.13
449.798	0.06
450	0.06
450.202	0.04
450.403	0.02
450.605	0.14
450.806	0.05
451.008	0.01
451.21	0.03
451.411	0.07
451.613	0.05
451.814	0.09
452.016	0.03
452.217	0.06
452.419	0.15
452.62	0.01
452.821	0.08
453.023	0.12
453.224	0.1
453.426	0.05
453.627	0.02
453.828	0.06
454.03	0.02
454.231	0.13
454.432	0.01
454.634	0.16
454.835	-0.01
455.036	-0.06
455.238	0.05
455.439	0.14
455.64	-0.01
455.841	-0.02
456.042	0.1
456.244	0.04
456.445	0.03
456.646	-0.04
456.847	-0.01
457.048	0.12
457.249	0.02
457.45	0.24
457.651	-0.07
457.852	0.09
458.054	0.05
458.255	0.01
458.456	0.05
458.657	0.03
458.858	0.03
459.058	0.04
459.259	0.09
459.46	0.06
459.661	-0.03
459.862	0.09
460.063	0.01
460.264	0.06
460.465	-0.02
460.666	0.14
460.866	0
461.067	0
461.268	0.01
461.469	0.01
461.67	0.02
461.87	-0.03
462.071	0.04
462.272	-0.02
462.473	-0.02
462.673	0.07
462.874	-0.05
463.075	0.02
463.275	-0.08
463.476	-0.01
463.676	0.02
463.877	0
464.078	-0.03
464.278	0.04
464.479	-0.01
464.679	0.01
464.88	0
465.08	0.06
465.281	-0.06
465.481	-0.01
465.682	0.03
465.882	0.03
466.083	0.06
466.283	-0.04
466.483	0.07
466.684	-0.02
466.884	-0.05
467.085	0.02
467.285	0.03
467.485	-0.03
467.686	-0.02
467.886	-0.03
468.086	0
468.286	0.01
468.487	0.03
468.687	-0.05
468.887	-0.03
469.087	0
469.287	0.01
469.488	-0.04
469.688	0.04
469.888	0.09
470.088	0.06
470.288	0.06
470.488	0.03
470.688	-0.04
470.888	-0.04
471.088	-0.04
471.288	0.05
471.488	0.04
471.688	0.01
471.888	-0.06
472.088	0.05
472.288	0.05
472.488	-0.04
472.688	-0.02
472.888	0.01
473.088	-0
473.288	0.03
473.488	0.02
473.688	0.08
473.887	0.04
474.087	0
474.287	-0
474.487	-0.03
474.687	0.06
474.886	-0.02
475.086	0
475.286	0.01
475.486	0.01
475.685	0.02
475.885	0
476.085	-0.01
476.284	0.03
476.484	0.01
476.684	0.01
476.883	-0
477.083	0.02
477.282	-0.01
477.482	0.05
477.681	0.08
477.881	0.02
478.08	-0.03
478.28	-0.01
478.479	0.02
478.679	0.08
478.878	-0
479.078	-0.03
479.277	-0.01
479.477	0.02
479.676	0.04
479.875	-0.02
480.075	-0.06
480.274	0
480.473	0.05
480.673	-0.02
480.872	0.06
481.071	-0.01
481.271	0.01
481.47	-0.01
481.669	-0.01
481.868	-0.03
482.067	-0.05
482.267	-0.04
482.466	-0.02
482.665	-0.01
482.864	-0.02
483.063	-0.03
483.262	0.03
483.461	0.04
483.661	-0
483.86	-0.01
484.059	0.02
484.258	0.02
484.457	-0
484.656	-0.03
484.855	0.06
485.054	-0.07
485.253	-0.05
485.452	-0.03
485.651	-0.02
485.849	0.01
486.048	-0.03
486.247	-0.01
486.446	0.01
486.645	-0.01
486.844	-0.03
487.043	0.01
487.241	0
487.44	-0.03
487.639	-0.01
487.838	0.02
488.037	0.01
488.235	0.04
488.434	-0.02
488.633	-0.01
488.831	0.03
489.03	0.02
489.229	0
489.427	-0.01
489.626	0.03
489.825	0.03
490.023	-0.01
490.222	0.01
490.42	0.02
490.619	0.02
490.817	-0.01
491.016	-0.03
491.214	0.03
491.413	-0.01
491.611	-0.01
491.81	-0.01
492.008	0.01
492.207	-0.01
492.405	-0
492.604	-0.06
492.802	-0.01
493	0.02
493.199	-0.03
493.397	-0
493.595	-0
493.794	-0.02
493.992	0.05
494.19	0
494.388	-0.02
494.587	0
494.785	-0.01
494.983	-0.02
495.181	0
495.379	0
495.578	-0.03
495.776	0.02
495.974	0.02
496.172	-0.02
496.37	-0.01
496.568	-0.04
496.766	-0.04
496.964	0.04
497.162	0.01
497.36	-0.03
497.558	-0.01
497.756	0
497.954	-0
498.152	-0.03
498.35	0.01
498.548	-0.02
498.746	0.02
498.944	-0.03
499.142	-0.01
499.34	-0.01
499.538	0
499.736	-0.01
499.933	0.02
500.131	0.03
500.329	-0.02
500.527	0.03
500.725	0.04
500.922	0.02
501.12	-0
501.318	0.04
501.516	-0.03
501.713	0
501.911	-0.01
502.109	-0.02
502.306	0.01
502.504	-0.01
502.701	-0.02
502.899	-0.03
503.097	0.04
503.294	0.02
503.492	-0
503.689	0.02
503.887	0.02
504.084	0.04
504.282	-0.01
504.479	-0.02
504.677	0
504.874	-0.01
505.072	0.02
505.269	-0.01
505.466	0.01
505.664	-0.01
505.861	-0.04
506.059	-0.03
506.256	0.01
506.453	-0.02
506.651	0.03
506.848	0.03
507.045	-0.01
507.242	0.01
507.44	-0.01
507.637	0.01
507.834	-0.02
508.031	0
508.229	-0.04
508.426	0
508.623	0.01
508.82	-0.02
509.017	-0.05
509.214	0
509.411	-0.01
509.608	-0.04
509.805	-0.02
510.003	-0.03
510.2	-0.02
510.397	0
510.594	-0.02
510.791	-0.02
510.988	-0
511.184	0.03
511.381	0.02
511.578	-0.01
511.775	0.01
511.972	-0.01
512.169	0.02
512.366	-0.01
512.563	0.01
512.76	-0.02
512.956	0.02
513.153	-0.01
513.35	-0
513.547	-0.01
513.744	-0.03
513.94	-0.04
514.137	-0
514.334	0.01
514.53	0
514.727	-0
514.924	0.03
515.12	-0.02
515.317	-0.03
515.514	-0.02
515.71	-0.03
515.907	-0.01
516.103	0.01
516.3	0
516.497	0.04
516.693	0.03
516.89	-0.02
517.086	-0.03
517.283	0.03
517.479	0.01
517.676	-0.02
517.872	-0.01
518.068	-0.01
518.265	-0.01
518.461	-0
518.658	-0.04
518.854	0
519.05	-0.01
519.247	-0.03
519.443	-0
519.639	0.02
519.836	0.01
520.032	-0.01
520.228	-0.03
520.424	0.03
520.621	0.02
520.817	-0
521.013	0.03
521.209	0
521.405	0.03
521.601	-0.01
521.798	-0.02
521.994	0.03
522.19	-0.01
522.386	-0.03
522.582	-0.02
522.778	0.01
522.974	0
523.17	-0
523.366	0.01
523.562	0.02
523.758	-0.01
523.954	-0.03
524.15	-0.02
524.346	0.01
524.542	-0.02
524.738	-0.03
524.934	-0.03
525.129	-0.02
525.325	0
525.521	-0.01
525.717	0.02
525.913	-0
526.109	-0.01
526.304	-0
526.5	0.03
526.696	0.01
526.892	-0.01
527.087	-0.01
527.283	-0.02
527.479	-0
527.674	-0.02
527.87	0
528.066	-0.02
528.261	0
528.457	0.02
528.653	-0.02
528.848	-0.01
529.044	0
529.239	-0.01
529.435	-0.01
529.63	-0
529.826	0.03
530.021	0.01
530.217	0
530.412	-0.02
530.608	-0
530.803	-0.01
530.999	0
531.194	-0.02
531.389	-0
531.585	-0.05
531.78	-0
531.975	-0.02
532.171	-0
532.366	0.01
532.561	-0.01
532.757	-0.04
532.952	-0.01
533.147	0
533.342	0
533.538	-0.02
533.733	0.02
533.928	0.02
534.123	-0.01
534.318	-0.04
534.513	-0.02
534.709	-0.01
534.904	-0.01
535.099	-0.02
535.294	-0.01
535.489	-0.02
535.684	-0.01
535.879	-0.05
536.074	-0
536.269	-0.02
536.464	0
536.659	0
536.854	0.02
537.049	0.01
537.244	0
537.439	0.01
537.634	0.02
537.828	-0
538.023	-0
538.218	-0.04
538.413	-0.02
538.608	-0.02
538.803	-0.01
538.997	-0.03
539.192	0.01
539.387	0.01
539.582	0
539.776	0.03
539.971	-0.03
540.166	0
540.36	-0.04
540.555	-0.03
540.75	-0.02
540.944	-0.01
541.139	-0.04
541.334	-0.01
541.528	-0.01
541.723	0.02
541.917	-0.01
542.112	-0.05
542.306	-0.02
542.501	-0.01
542.695	-0
542.89	-0.02
543.084	0
543.279	-0.02
543.473	-0.01
543.668	-0.01
543.862	0.01
544.056	0.02
544.251	-0.01
544.445	0
544.64	-0
544.834	-0.03
545.028	-0.01
545.222	-0
545.417	0.01
545.611	0.01
545.805	0
546	-0.01
546.194	0
546.388	-0.03
546.582	0.01
546.776	-0.01
546.97	-0.01
547.165	0.02
547.359	0.02
547.553	-0.03
547.747	-0.01
547.941	-0.01
548.135	-0.02
548.329	0
548.523	-0
548.717	0
548.911	-0.04
549.105	-0.02
549.299	-0.01
549.493	0.02
549.687	-0
549.881	-0.01
550.075	-0
550.269	-0.03
550.463	-0.01
550.657	-0.04
550.85	0
551.044	-0.03
551.238	-0
551.432	-0.02
551.626	-0.04
551.82	0.01
552.013	-0.02
552.207	0.01
552.401	0.02
552.594	0.01
552.788	-0.01
552.982	0.02
553.176	-0.02
553.369	0.01
553.563	0.02
553.756	-0.04
553.95	-0.04
554.144	-0.01
554.337	0.01
554.531	0
554.724	-0.01
554.918	-0.01
555.111	0.02
555.305	-0.02
555.498	0.04
555.692	-0.01
555.885	-0.01
556.079	0.02
556.272	-0.03
556.466	0.02
556.659	0.01
556.852	-0.01
557.046	-0.01
557.239	0.03
557.432	-0.03
557.626	-0.03
557.819	0
558.012	0.01
558.206	0
558.399	-0
558.592	0.01
558.785	0.01
558.979	0.02
559.172	0.01
559.365	0.01
559.558	0
559.751	-0.01
559.944	0.01
560.138	-0.03
560.331	-0.02
560.524	-0.01
560.717	-0
560.91	-0.01
561.103	0
561.296	0
561.489	0.02
561.682	0
561.875	0.02
562.068	0
562.261	-0.01
562.454	0.02
562.647	0.01
562.84	0.02
563.032	-0.01
563.225	-0.01
563.418	-0.04
563.611	-0.02
563.804	-0
563.997	-0.01
564.19	-0.04
564.382	0.01
564.575	-0.01
564.768	-0
564.961	-0
565.153	-0.01
565.346	-0.01
565.539	0.01
565.731	0.01
565.924	-0
566.117	0.03
566.309	0.01
566.502	-0.02
566.695	0
566.887	-0.03
567.08	-0
567.272	-0.02
567.465	-0.02
567.657	-0
567.85	-0.01
568.042	0.02
568.235	0.02
568.427	-0.02
568.62	-0
568.812	0.01
569.005	-0.01
569.197	-0.02
569.389	0.01
569.582	-0
569.774	0.01
569.966	-0.04
570.159	-0.05
570.351	-0.01
570.543	-0.01
570.736	-0
570.928	-0.03
571.12	-0
571.312	-0.01
571.505	-0.02
571.697	0.02
571.889	-0.02
572.081	-0.01
572.273	-0.02
572.465	0.06
572.658	-0.03
572.85	-0.02
573.042	-0.02
573.234	-0.01
573.426	0.03
573.618	-0.02
573.81	-0.01
574.002	0
574.194	0.02
574.386	-0.04
574.578	-0.07
574.77	-0.03
574.962	-0.02
575.154	-0.05
575.346	-0.03
575.538	-0.01
575.729	0
575.921	-0.02
576.113	-0.02
576.305	0.02
576.497	-0
576.689	-0
576.88	-0.02
577.072	0.03
577.264	-0.01
577.456	-0.01
577.647	-0.07
577.839	0.01
578.031	0.04
578.223	-0.06
578.414	-0.04
578.606	0.01
578.798	-0.02
578.989	-0.03
579.181	-0.01
579.372	-0.01
579.564	-0.02
579.755	0
579.947	0
580.139	-0
580.33	-0.06
580.522	-0.02
580.713	-0.09
580.905	0
581.096	0.01
581.287	0.02
581.479	-0.01
581.67	0.02
581.862	-0.01
582.053	-0.03
582.244	-0.05
582.436	-0.01
582.627	-0.01
582.818	-0.02
583.01	-0.05
583.201	0
583.392	0
583.583	0.02
583.775	-0.04
583.966	-0.01
584.157	-0.01
584.348	-0.04
584.54	-0.06
584.731	0.02
584.922	-0
585.113	-0.03
585.304	0.01
585.495	0.04
585.686	0
585.877	0.02
586.068	-0
586.259	-0.01
586.45	0
586.641	-0.03
586.832	-0.06
587.023	0.01
587.214	-0.03
587.405	0
587.596	-0.05
587.787	0
587.978	-0.02
588.169	-0.03
588.36	-0.02
588.551	-0.01
588.742	-0.01
588.932	-0.02
589.123	-0
589.314	0.02
589.505	-0
589.696	0
589.886	-0.03
590.077	-0.05
590.268	-0
590.458	-0.03
590.649	-0.04
590.84	0.05
591.03	-0.02
591.221	-0.07
591.412	-0.04
591.602	0.01
591.793	0.02
591.984	-0.05
592.174	-0.02
592.365	0.06
592.555	-0.02
592.746	-0
592.936	0.01
593.127	0
593.317	0.02
593.508	-0.02
593.698	-0.03
593.889	-0.01
594.079	-0
594.269	-0.01
594.46	-0.02
594.65	-0.03
594.84	-0.01
595.031	-0.05
595.221	-0.03
595.411	-0.02
595.602	-0
595.792	-0.02
595.982	-0.02
596.172	0.02
596.363	-0
596.553	-0.02
596.743	-0.01
596.933	-0.01
597.123	0.01
597.314	-0.03
597.504	-0.03
597.694	0.03
597.884	0
598.074	-0
598.264	-0.02
598.454	0.03
598.644	-0.01
598.834	-0.01
599.024	-0.07
599.214	-0.02
599.404	0.03
599.594	-0.02
599.784	-0.04
599.974	0.01
600.164	0
600.354	-0.03
600.544	-0.03
600.734	-0.01
600.924	0.03
601.114	-0.02
601.303	0.01
601.493	-0.01
601.683	0.01
601.873	0.01
602.063	-0.04
602.252	0.01
602.442	-0.05
602.632	-0.04
602.821	-0.04
603.011	0.01
603.201	-0.03
603.39	-0.02
603.58	-0.05
603.77	0.01
603.959	0.06
604.149	-0.01
604.339	-0.02
604.528	0
604.718	0.03
604.907	-0.01
605.097	-0.03
605.286	-0.03
605.476	0.01
605.665	-0.01
605.855	-0.01
606.044	0.02
606.234	0.01
606.423	-0.01
606.612	-0.06
606.802	0.01
606.991	0
607.181	0.03
607.37	-0.04
607.559	-0
607.749	-0.03
607.938	-0.01
608.127	-0.02
608.316	-0.04
608.506	-0
608.695	-0.04
608.884	-0.04
609.073	-0.01
609.263	0.01
609.452	0.02
609.641	-0
609.83	-0.04
610.019	-0.02
610.208	-0.04
610.397	-0.02
610.586	-0.01
610.775	-0.05
610.965	-0.03
611.154	-0.02
611.343	0.05
611.532	-0
611.721	-0.06
611.91	-0.03
612.099	0.02
612.287	-0.01
612.476	-0.05
612.665	0.02
612.854	-0.02
613.043	0.03
613.232	-0.03
613.421	-0.05
613.61	0.01
613.798	-0.04
613.987	0.01
614.176	-0.02
614.365	0.01
614.554	-0
614.742	0.01
614.931	-0.02
615.12	0.02
615.309	-0.02
615.497	0.01
615.686	-0.04
615.875	-0.03
616.063	0.01
616.252	-0.02
616.44	-0.02
616.629	-0.02
616.818	0.04
617.006	-0.05
617.195	-0.03
617.383	-0.02
617.572	-0.02
617.76	-0.02
617.949	-0.01
618.137	0.01
618.326	0.06
618.514	-0.05
618.703	-0.04
618.891	0.02
619.079	-0.06
619.268	0.03
619.456	-0.02
619.644	0.05
619.833	0
620.021	-0.03
620.209	-0.02
620.398	0.04
620.586	0
620.774	0.01
620.962	-0.01
621.151	0.04
621.339	-0
621.527	-0.04
621.715	-0.04
621.903	0
622.092	-0.04
622.28	0.01
622.468	-0.04
622.656	-0.04
622.844	0.02
623.032	-0.02
623.22	-0.08
623.408	0.02
623.596	-0.01
623.784	0.03
623.972	-0.05
624.16	-0.02
624.348	0.03
624.536	0.03
624.724	-0.02
624.912	0.04
625.1	0.05
625.288	-0.02
625.476	-0.05
625.664	0.03
625.851	-0.05
626.039	-0
626.227	0.01
626.415	-0
626.603	-0.07
626.79	-0.01
626.978	0.01
627.166	-0
627.354	-0
627.541	-0.02
627.729	-0.04
627.917	0.02
628.104	0.04
628.292	0.02
628.48	-0
628.667	0.02
628.855	0
629.042	0.02
629.23	-0.04
629.418	0.03
629.605	-0.01
629.793	-0.03
629.98	-0.03
630.168	-0.01
630.355	0
630.543	0.02
630.73	-0.02
630.917	0.02
631.105	0.05
631.292	0
631.48	0
631.667	0.09
631.854	0
632.042	-0.02
632.229	-0.03
632.416	-0.02
632.604	0.01
632.791	-0.07
632.978	0.02
633.165	0.03
633.353	0.1
633.54	0.08
633.727	-0.07
633.914	-0.03
634.101	-0.05
634.289	0.03
634.476	-0.05
634.663	-0.04
634.85	0.05
635.037	-0.06
635.224	-0.07
635.411	0.06
635.598	0.06
635.785	0
635.972	-0.02
636.159	0.03
636.346	-0.02
636.533	0
636.72	0.02
636.907	-0.04
637.094	0.03
637.281	0.01
637.468	0.02
637.655	0.02
637.842	-0.01
638.029	-0
638.215	0.02
638.402	0.02
638.589	-0.02
638.776	-0.03
638.963	-0.01
639.149	0.02
639.336	0.06
639.523	-0.01
639.709	0.02
639.896	-0
640.083	0.07
640.27	0.05
640.456	0.03
640.643	0.02
640.829	-0.01
641.016	0.03
641.203	-0.01
641.389	0.05
641.576	0.03
641.762	0.01
641.949	-0.01
642.135	0.03
642.322	0.05
642.508	-0.01
642.695	0.03
642.881	0.01
643.068	0.03
643.254	-0.01
643.441	0.06
643.627	0
643.813	-0.01
644	0.04
644.186	-0.01
644.372	0.04
644.559	0.06
644.745	0.01
644.931	-0.01
645.118	0
645.304	0.04
645.49	0.02
645.676	0
645.862	0.05
646.049	0.12
646.235	0.01
646.421	0.14
646.607	0.11
646.793	-0.01
646.979	0.01
647.165	0.04
647.352	0.05
647.538	0.06
647.724	0.01
647.91	0.03
648.096	0.09
648.282	0.07
648.468	0.06
648.654	0.05
648.84	0.03
649.026	0.08
649.212	0.06
649.397	0.02
649.583	0
649.769	0.08
649.955	0.07
650.141	0.07
650.327	0.07
650.513	0.01
650.698	0.09
650.884	-0.03
651.07	0.09
651.256	0.09
651.442	0.03
651.627	0.05
651.813	0.06
651.999	0.04
652.184	0.09
652.37	0.1
652.556	0.02
652.741	0.14
652.927	0.01
653.113	0.09
653.298	0.08
653.484	0.08
653.669	0.03
653.855	0.05
654.04	0.11
654.226	0.1
654.412	0.07
654.597	0.03
654.782	0.09
654.968	0.11
655.153	0.11
655.339	0.08
655.524	0.04
655.71	0.14
655.895	0.07
656.08	0.09
656.266	0.11
656.451	0.12
656.636	0.06
656.822	0.11
657.007	0.05
657.192	0.07
657.378	0.05
657.563	0.08
657.748	0.13
657.933	0.11
658.118	0.08
658.304	0.08
658.489	0.14
658.674	0.12
658.859	0.05
659.044	0.09
659.229	0.13
659.414	0.09
659.599	0.1
659.785	0.04
659.97	0.11
660.155	0.12
660.34	0.1
660.525	0.07
660.71	0.07
660.895	0.15
661.08	0.12
661.264	0.07
661.449	0.15
661.634	0.14
661.819	0.11
662.004	0.13
662.189	0.03
662.374	0.05
662.559	0.04
662.743	0.03
662.928	0.06
663.113	0.07
663.298	0.03
663.483	0.08
663.667	0.08
663.852	0.03
664.037	0.09
664.221	0.05
664.406	0.09
664.591	0.06
664.775	0.04
664.96	-0
665.145	0.04
665.329	0.08
665.514	0.01
665.698	0.01
665.883	-0
666.068	0.1
666.252	0.06
666.437	0.03
666.621	0
666.806	0.04
666.99	0.04
667.174	-0.04
667.359	0.05
667.543	-0
667.728	0.02
667.912	-0.04
668.096	0.04
668.281	0.01
668.465	0.04
668.649	0.01
668.834	-0.02
669.018	0.04
669.202	-0.03
669.387	-0.03
669.571	-0.01
669.755	-0.05
669.939	0.02
670.124	0.01
670.308	0.03
670.492	0.06
670.676	0.02
670.86	-0.04
671.044	-0.02
671.228	0.01
671.413	-0.02
671.597	-0.01
671.781	-0.06
671.965	0.04
672.149	0.02
672.333	0.01
672.517	-0.05
672.701	0.04
672.885	-0.02
673.069	-0.06
673.253	0.06
673.437	0.03
673.621	-0.01
673.804	-0.01
673.988	0.01
674.172	0
674.356	-0.06
674.54	-0.02
674.724	0.1
674.908	0.01
675.091	0.04
675.275	0.01
675.459	0.02
675.643	0.06
675.826	-0.04
676.01	0.01
676.194	-0
676.377	0
676.561	0.03
676.745	0.04
676.928	-0
677.112	0.06
677.296	-0.05
677.479	0.01
677.663	-0.01
677.846	0
678.03	-0.02
678.213	-0
678.397	-0.01
678.58	-0.04
678.764	-0.04
678.947	-0.06
679.131	-0.06
679.314	0.06
679.498	-0.03
679.681	-0.01
679.865	0.05
680.048	0.02
680.231	0.01
680.415	-0.01
680.598	-0.06
680.781	-0.04
680.965	-0.06
681.148	0.01
681.331	0
681.514	0.06
681.698	-0.03
681.881	-0.01
682.064	-0.02
682.247	-0
682.43	-0.05
682.614	-0
682.797	0.03
682.98	0.04
683.163	-0.05
683.346	-0.02
683.529	-0.03
683.712	-0.06
683.895	0
684.078	-0.02
684.261	-0.05
684.444	0.02
684.627	0.02
684.81	-0.07
684.993	-0.02
685.176	-0
685.359	-0.02
685.542	-0.05
685.725	0.03
685.908	-0.02
686.091	-0.01
686.274	0.01
686.457	0.03
686.639	-0.01
686.822	-0.02
687.005	0
687.188	-0
687.371	0.07
687.553	-0.01
687.736	-0
687.919	0.08
688.102	0.07
688.284	0.01
688.467	0.03
688.65	-0.01
688.832	-0.04
689.015	-0.01
689.197	-0.11
689.38	0.1
689.563	0.02
689.745	0.01
689.928	-0.05
690.11	-0.01
690.293	0.01
690.475	-0.06
690.658	0.02
690.84	-0
691.023	-0.04
691.205	-0.05
691.388	0
691.57	0.01
691.752	-0
691.935	-0.06
692.117	-0.03
692.3	-0.02
692.482	-0.05
692.664	-0.02
692.847	0.01
693.029	0.04
693.211	-0.01
693.393	-0.04
693.576	-0.08
693.758	0
693.94	0.02
694.122	-0.02
694.304	-0.02
694.487	-0.02
694.669	0.07
694.851	-0.06
695.033	-0.04
695.215	-0.06
695.397	-0.06
695.579	-0.03
695.761	-0.07
695.943	-0.07
696.125	0.03
696.308	0.04
696.49	-0.1
696.671	0.06
696.853	-0.03
697.035	0.13
697.217	0.03
697.399	0.01
697.581	-0.1
697.763	-0.01
697.945	-0.04
698.127	-0.02
698.309	0.05
698.491	0.03
698.672	0.02
698.854	0.08
699.036	0.09
699.218	-0.02
699.399	0.08
699.581	0.04
699.763	-0.05
699.945	-0.01
700.126	-0.01
700.308	-0.02
700.49	0
700.671	-0.05
700.853	-0.05
701.035	-0.03
701.216	-0.04
701.398	-0.04
701.579	0.02
701.761	0.02
701.943	-0.05
702.124	-0.08
702.306	-0.04
702.487	0.15
702.669	-0.03
702.85	-0.1
703.031	-0.07
703.213	0.07
703.394	-0
703.576	-0.03
703.757	0.02
703.938	0.05
704.12	0.19
704.301	0.03
704.483	-0.04
704.664	0.03
704.845	0.07
705.026	0.07
705.208	0.03
705.389	0
705.57	-0.02
705.751	-0.01
705.933	-0.02
706.114	0.02
706.295	0.03
706.476	-0.03
706.657	0.1
706.838	0.03
707.02	0.03
707.201	0.01
707.382	0.02
707.563	0.03
707.744	-0.03
707.925	-0.05
708.106	0.02
708.287	0.04
708.468	0.09
708.649	-0.03
708.83	0.03
709.011	-0.01
709.192	0.12
709.373	-0.05
709.554	-0.06
709.734	0.06
709.915	0.03
710.096	0.02
710.277	-0.12
710.458	-0.05
710.639	0.02
710.819	-0.09
711	-0.05
711.181	0.1
711.362	0.07
711.542	-0.01
711.723	-0.05
711.904	0.06
712.085	0.07
712.265	-0
712.446	-0.07
712.627	0.02
712.807	-0.04
712.988	0.01
713.168	-0.1
713.349	0.08
713.53	-0.08
713.71	-0.02
713.891	-0.04
714.071	0.05
714.252	-0.03
714.432	-0.01
714.613	-0.07
714.793	0.02
714.974	0.11
715.154	0.08
715.334	0.01
715.515	0.1
715.695	-0.06
715.876	-0.01
716.056	0.03
716.236	0.04
716.417	0.07
716.597	0.01
716.777	0.17
716.957	0
717.138	-0.04
717.318	0.01
717.498	-0.07
717.678	0.08
717.859	0.02
718.039	-0.04
718.219	0.01
718.399	0.03
718.579	-0.04
718.759	-0.07
718.939	0.08
719.12	0.03
719.3	0.05
719.48	-0.1
719.66	-0.11
719.84	0.14
720.02	0.05
720.2	-0
720.38	0.03
720.56	0.07
720.74	-0.03
720.92	0.05
721.1	0.09
721.279	0.1
721.459	0.03
721.639	-0.01
721.819	-0.03
721.999	-0.02
722.179	0.04
722.359	-0.01
722.538	0
722.718	0.11
722.898	-0.07
723.078	-0.01
723.257	-0.02
723.437	0.05
723.617	0
723.797	-0.02
723.976	0.08
724.156	0.1
724.336	0.15
724.515	0.2
724.695	-0.09
724.874	0.01
725.054	0.04
725.234	0
725.413	0.13
725.593	0.05
725.772	0.05
725.952	0.05
726.131	0.02
726.311	-0.02
726.49	0.02
726.67	0.04
726.849	-0.02
727.028	0.12
727.208	0.04
727.387	0.07
727.567	-0.03
727.746	0.03
727.925	0.04
728.105	-0.06
728.284	0.01
728.463	0.03
728.643	0.09
728.822	-0.03
729.001	-0.09
729.18	0.08
729.359	0.1
729.539	0.01
729.718	0.04
729.897	0.08
730.076	0.03
730.255	-0.02
730.434	0.09
730.614	0.1
730.793	-0.02
730.972	0.09
731.151	-0
731.33	0.14
731.509	0.15
731.688	0.06
731.867	0.12
732.046	-0.03
732.225	0.24
732.404	-0.03
732.583	0.01
732.762	0.06
732.941	0.15
733.12	0.06
733.298	0.06
733.477	0.21
733.656	0.07
733.835	-0.08
734.014	0.13
734.193	0.08
734.371	0.18
734.55	0.03
734.729	0.08
734.908	0.08
735.086	0.02
735.265	0.17
735.444	-0.06
735.623	-0.04
735.801	-0.07
735.98	0.09
736.159	0.02
736.337	0.08
736.516	0.13
736.694	0.05
736.873	0.02
737.052	0.23
737.23	0.21
737.409	0.14
737.587	0.1
737.766	-0.07
737.944	0.01
738.123	0.05
738.301	0.13
738.479	0.02
738.658	0.08
738.836	-0.16
739.015	0.1
739.193	0.24
739.371	-0.06
739.55	-0
739.728	-0.05
739.906	0.18
740.085	0.26
740.263	0.11
740.441	-0.19
740.62	0.25
740.798	0.12
740.976	0.01
741.154	-0.09
741.332	0.31
741.511	0.1
741.689	-0.02
741.867	0.04
742.045	0.1
742.223	0.05
742.401	0.02
742.579	-0.03
742.757	0.08
742.935	-0.06
743.114	-0.08
743.292	0.04
743.47	0.09
743.648	0.03
743.826	0.11
744.004	-0.02
744.181	0.05
744.359	0.04
744.537	-0.03
744.715	-0.07
744.893	-0.07
745.071	0.06
745.249	-0
745.427	0.07
745.605	0.15
745.782	0.09
745.96	0.1
746.138	-0.01
746.316	0.13
746.493	-0.07
746.671	0.09
746.849	-0.01
747.027	0.1
747.204	-0.04
747.382	0.02
747.56	-0.11
747.737	-0.05
747.915	-0.1
748.093	0.06
748.27	-0.12
748.448	-0.03
748.625	-0.1
748.803	-0.09
748.98	-0.02
749.158	-0.03
749.335	0.08
749.513	-0.02
749.69	-0.1
749.868	-0.06
750.045	-0.01
750.223	-0.1
750.4	-0.14
750.578	0.16
750.755	0.03
750.932	-0.15
751.11	0.07
751.287	-0.18
751.464	0.06
751.642	-0.16
751.819	0.12
751.996	0.1
752.173	-0.07
752.351	-0.09
752.528	0.06
752.705	-0.08
752.882	0.01
753.06	0.03
753.237	0.05
753.414	0.16
753.591	0.12
753.768	0.08
753.945	-0.1
754.122	-0.04
754.299	-0.04
754.476	-0.08
754.654	0.03
754.831	0.06
755.008	0.13
755.185	-0.05
755.362	-0.11
755.539	0.11
755.716	-0.02
755.892	-0.08
756.069	-0.06
756.246	-0.04
756.423	-0.01
756.6	0.12
756.777	-0.06
756.954	0.09
757.131	0.01
757.307	-0.1
757.484	-0.15
757.661	0.09
757.838	0.14
758.015	-0.09
758.191	-0
758.368	-0.05
758.545	0.15
758.721	0.09
758.898	-0.14
759.075	0.11
759.251	0.07
759.428	0.09
759.605	-0.16
759.781	-0.01
759.958	0.04
760.134	0.02
760.311	-0.08
760.488	0.13
760.664	0.04
760.841	0.01
761.017	-0.04
761.194	0.08
761.37	0.12
761.547	0.08
761.723	-0.07
761.899	0.13
762.076	-0.03
762.252	-0.2
762.429	-0.03
762.605	0.03
762.781	-0.05
762.958	0.01
763.134	-0.06
763.31	-0.01
763.486	0.08
763.663	-0.18
763.839	0.05
764.015	-0.19
764.191	-0.15
764.368	-0.05
764.544	-0.14
764.72	0.03
764.896	0.06
765.072	0.08
765.248	-0.03
765.425	0.03
765.601	0.04
765.777	-0.01
765.953	-0.27
766.129	-0.11
766.305	0.02
766.481	0.01
766.657	0.02
766.833	0.1
767.009	-0.19
767.185	-0.01
767.361	-0.07
767.537	-0.11
767.713	0.09
767.889	-0.02
768.065	-0.03
768.24	-0.18
768.416	0.02
768.592	-0.12
768.768	0
768.944	0.03
769.12	-0.09
769.295	-0.04
769.471	-0.18
769.647	-0.18
769.823	0.06
769.998	-0.16
770.174	-0.14
770.35	0.26
770.525	0.31
770.701	0.04
770.877	-0.02
771.052	-0.09
771.228	0
771.403	0.01
771.579	0.01
771.755	0.26
771.93	-0.1
772.106	-0.13
772.281	-0.17
772.457	0.09
772.632	0.08
772.808	-0.06
772.983	0
773.159	-0.09
773.334	0.16
773.509	-0.03
773.685	-0.14
773.86	0.38
774.036	0.18
774.211	0.07
774.386	-0.1
774.562	-0.11
774.737	0.34
774.912	-0.02
775.087	0.16
775.263	-0.05
775.438	0.01
775.613	-0.07
775.788	-0.11
775.964	0.13
776.139	0.25
776.314	-0.14
776.489	0.07
776.664	0.03
776.839	-0.23
777.014	0.11
777.19	0.22
777.365	0.23
777.54	0.22
777.715	-0.12
777.89	0.04
778.065	-0.15
778.24	-0.06
778.415	-0.03
778.59	-0.1
778.765	-0.2
778.94	0.03
779.115	-0.02
779.289	-0.07
779.464	0.03
779.639	-0.09
779.814	-0.23
779.989	-0.11
780.164	0.2
780.339	-0.07
780.513	-0.21
780.688	-0.27
780.863	-0.11
781.038	-0.13
781.212	-0
781.387	0.06
781.562	0.18
781.737	0.01
781.911	0.14
782.086	-0.1
782.261	0.09
782.435	0.16
782.61	-0.09
782.784	-0.12
782.959	0.1
783.134	-0.22
783.308	-0.21
783.483	-0.09
783.657	0.24
783.832	0.07
784.006	-0.28
784.181	-0.06
784.355	0.26
784.53	0.02
784.704	-0.11
784.878	0.27
785.053	0.15
785.227	0.06
785.402	0.26
785.576	-0.15
785.75	0.09
785.925	0.01
786.099	0.05
786.273	0.2
786.448	0.16
786.622	-0.02
786.796	-0.2
786.97	-0.07
787.145	0.23
787.319	-0.58
787.493	0.06
787.667	-0.32
787.841	-0.13
788.015	0.17
788.19	-0.27
788.364	0.05
788.538	0.12
788.712	0.15
788.886	-0.04
789.06	0.2
789.234	0.03
789.408	-0.08
789.582	-0.11
789.756	0.06
789.93	-0.36
790.104	-0.06
790.278	-0.1
790.452	-0.33
790.626	-0.05
790.8	-0.05
790.973	0.08
791.147	0.25
791.321	0.21
791.495	0.07
791.669	-0
791.843	0.04
792.016	0.05
792.19	0.46
792.364	-0.04
792.538	0.31
792.711	0.36
792.885	-0.2
793.059	-0.21
793.233	-0.41
793.406	0.31
793.58	0.05
793.754	-0.26
793.927	-0.21
794.101	0.2
794.274	-0.09
794.448	0.23
794.622	-0.22
794.795	0.27
794.969	-0.14
795.142	0.33
795.316	0.01
795.489	-0.16
795.663	0.25
795.836	-0.02
796.009	-0.27
796.183	0.09
796.356	0.13
796.53	-0.03
796.703	-0.04
796.876	0.77
797.05	-0.12
797.223	0.04
797.396	0.02
797.57	0.15
797.743	0.06
797.916	0.22
798.09	-0.08
798.263	0.11
798.436	0.11
798.609	-0.12
798.782	-0.14
798.956	0.32
799.129	-0.19
799.302	-0.02
799.475	-0.38
799.648	-0.19
799.821	-0.19
799.994	-0.05
800.167	-0.4
800.34	-0.06
800.514	0.09
800.687	-0.08
800.86	-0.1
801.033	-0.1
801.206	-0.02
801.379	-0.3
801.551	0.06
801.724	0.19
801.897	0.11
802.07	-0.23
802.243	-0.27
802.416	0.27
802.589	-0.11
802.762	0.01
802.935	0.01
803.107	0.17
803.28	0.11
803.453	0.14
803.626	-0.42
803.798	0.21
803.971	-0.17
804.144	0.06
804.317	0.21
804.489	0.3
804.662	-0.39
804.835	0.12
805.007	-0.35
805.18	0.35
805.353	0.02
805.525	-0.13
805.698	-0.01
805.87	0.26
806.043	0.31
806.215	-0.1
806.388	-0.23
806.56	0.21
806.733	0.15
806.905	0.16
807.078	-0.2
807.25	-0.17
807.423	-0.09
807.595	-0.23
807.768	-0.23
807.94	-0.07
808.112	-0.19
808.285	0.35
808.457	-0.21
808.629	0.11
808.802	0.21
808.974	0.11
809.146	-0.12
809.318	-0.47
809.491	0.16
809.663	0.25
809.835	-0.09
810.007	0.03
810.18	-0.19
810.352	-0.42
810.524	-0.09
810.696	-0.03
810.868	0.5
811.04	-0.24
811.212	0.02
811.384	0.09
811.556	0.08
811.728	-0.08
811.901	0.37
812.073	-0.15
812.245	0.53
812.417	-0.08
812.589	-0.84
812.76	0.2
812.932	0.12
813.104	0.15
813.276	-0.09
813.448	0.15
813.62	-0.07
813.792	0.05
813.964	-0.17
814.136	0.44
814.307	-0.15
814.479	0.04
814.651	0.14
814.823	0.6
814.995	0.01
815.166	-0.11
815.338	-0.24
815.51	-0.38
815.681	0.82
815.853	0.08
816.025	-0.16
816.196	0.54
816.368	0.03
816.54	0.04
816.711	-0.28
816.883	-0.03
817.054	1.03
817.226	-0.65
817.398	0.11
817.569	-0.21
817.741	0.09
817.912	-0.23
818.084	-0.36
818.255	0.35
818.426	0.12
818.598	0.06
818.769	-0.42
818.941	-0.16
819.112	0.84
819.283	0.4
819.455	-0.01
819.626	-0.32
819.798	0.25
819.969	0.55
820.14	0.03
820.311	-0.19
820.483	0.15
820.654	0.27
820.825	0.16
820.996	0.12
821.168	-0.24
821.339	-0.04
821.51	-0.66
821.681	-0.36
821.852	0.05
822.023	-0.41
822.195	-0.52
822.366	0.31
822.537	0.04
822.708	0.45
822.879	-0.17
823.05	0.52
823.221	0.06
823.392	0.39
823.563	-0.55
823.734	-0.07
823.905	-0.01
824.076	-0.33
824.247	-0.06
824.418	-0.28
824.589	0.59
824.759	-0.11
824.93	-0.41
825.101	-0.71
825.272	0.15
825.443	0.14
825.614	0.97
825.784	-1.41
825.955	1.11
826.126	0.35
826.297	-0.1
826.467	0.97
826.638	0.75
826.809	-0.6
826.98	-0.05
827.15	0.48
827.321	-0.12
827.492	0.72
827.662	-0.05
827.833	0.84
828.003	0.43
828.174	0.01
828.345	-0.71
828.515	0.51
828.686	-0.1
828.856	-0.16
829.027	0.31
829.197	-0.07
829.368	0.12
829.538	-0.06
829.709	-0.28
829.879	0.02
830.049	-0.2
830.22	-0.39
830.39	-0.18
830.56	0.06
830.731	0.08
830.901	-0.77
831.072	0.05
831.242	0.03
831.412	-0.03
831.582	-0.24
831.753	-0.64
831.923	0.18
832.093	0.18
832.263	-0.65
832.434	-0.91
832.604	-0.36
832.774	0.8
832.944	0.21
833.114	-0.84
833.284	0.04
833.454	-0.33
833.624	-0.57
833.795	-0.41
833.965	0.4
834.135	0.72
834.305	-0.79
834.475	-0.37
834.645	0.01
834.815	-0.43
834.985	-0.63
835.155	-0.09
835.325	-0.09
835.494	-0.04
835.664	0.02
835.834	-0.74
836.004	0.29
836.174	-0.27
836.344	-0.38
836.514	-0.54
836.684	-0.3
836.853	-0.26
837.023	0.07
837.193	-0.1
837.363	0.5
837.532	0.96
837.702	-0.37
837.872	-0.06
838.041	0.22
838.211	1.23
838.381	-1.3
838.55	-0.37
838.72	1.53
838.89	1.31
839.059	-0.19
839.229	-0.71
839.398	1.16
839.568	-0.05
839.738	-0.19
839.907	0.81
840.077	0.47
840.246	-0.08
840.416	-1.39
840.585	-0.59
840.755	1.1
840.924	1.53
841.093	-0.09
841.263	0.49
841.432	0.2
841.602	-1.32
841.771	-1.06
841.94	0.7
842.11	1.94
842.279	1.17
842.448	-0.77
842.617	-0.07
842.787	1.32
842.956	-0.98
843.125	0.66
843.294	-0.13
843.464	0.93
843.633	-0.01
843.802	-0.74
843.971	-0.43
844.14	0.63
844.309	1.31
844.479	-0.88
844.648	-0.32
844.817	-0.52
844.986	0.19
845.155	-0.84
845.324	-0.05
845.493	-0.54
845.662	-0.97
845.831	0.63
846	0.5
846.169	-0.65
846.338	0.49
846.507	-0.39
846.676	-0.17
846.844	-0.46
847.013	0.42
847.182	-0.38
847.351	-0.51
847.52	-0.09
847.689	0.84
847.858	0.23
848.026	-0.59
848.195	-0.14
848.364	0
848.533	-0.03
848.701	-0.7
848.87	0.92
849.039	0.99
849.207	0.72
849.376	0.38
849.545	1.27
849.713	0.05
849.882	-0.86
850.051	-1.48
850.219	-0.09
850.388	0.92
850.556	-0.78
850.725	-1.06
850.893	0.57
851.062	-0.24
851.23	0.84
851.399	-0.78
851.567	-1.3
851.736	0.23
851.904	-0.96
852.073	0.48
852.241	-0.02
852.41	0.18
852.578	-0.85
852.746	-0.64
852.915	0.9
853.083	0.18
853.251	-0.32
853.42	-0.57
853.588	0.28
853.756	0.77
853.924	-0.3
854.093	-0.83
854.261	0.06
854.429	-1.86
854.597	-0.03
854.765	-0.28
854.934	0.31
855.102	1.02
855.27	-0.01
855.438	0.09
855.606	0.75
855.774	1.31
855.942	-0.89
856.11	-1.59
856.278	0.32
856.446	0.92
856.614	-0.05
856.782	-0.19
856.95	0.94
857.118	0.95
857.286	0.23
857.454	-0.85
857.622	0.53
857.79	1.03
857.958	-0.78
858.126	-0.88
858.294	-3.36
858.462	-0.93
858.629	0.29
858.797	-1.63
858.965	0.23
859.133	-0.18
859.301	-0.33
859.468	0.98
859.636	-2.38
859.804	1.02
859.971	1.47
860.139	-0.46
860.307	0.16
860.474	0.26
860.642	-0.51
860.81	-0.5
860.977	-0.33
861.145	0.89
861.313	-1.25
861.48	0.47
861.648	0.54
861.815	-0.13
861.983	-0.48
862.15	0.77
862.318	-0.11
862.485	1.02
862.653	-0.99
862.82	-1.72
862.988	1.19
863.155	-1.16
863.322	-0.9
863.49	-1.43
863.657	-0.85
863.824	2.22
863.992	0.27
864.159	1.97
864.326	2.25
864.494	0.42
864.661	2
864.828	-2.17
864.996	1.55
865.163	1.11
865.33	-0.48
865.497	-3
865.664	-1.21
865.832	-1.4
865.999	-0.32
866.166	-1.47
866.333	-0.62
866.5	-1.22
866.667	0.17
866.834	-1.21
867.001	0.6
867.168	-0.57
867.335	-0.94
867.502	-2.78
867.669	-0.01
867.836	2.01
868.003	-0.54
868.17	0.85
868.337	1.68
868.504	1.13
868.671	0.55
868.838	0.34
869.005	0.58
869.172	-0.31
869.339	-1.2
869.505	0.46
869.672	0.45
869.839	1.97
870.006	-0.32
870.173	-2.14
870.339	0.21
870.506	4.54
870.673	-1.73
870.84	0.86
871.006	0.94
871.173	-0.12
871.34	-0.47
871.506	-1.52
871.673	1.1
871.839	-1.23
872.006	0.84
872.173	0.57
872.339	1.48
872.506	1.3
872.672	-0.23
872.839	-2.59
873.005	-0.48
873.172	2.11
873.338	1.64
873.505	-1.9
873.671	-0.09
873.838	0.48
874.004	-1.93
874.171	-1.63
874.337	0.08
874.503	-0.35
874.67	-0.68
874.836	-1.17
875.002	2.7
875.169	1.15
875.335	0.02
875.501	-0.97
875.668	1.84
875.834	0.63
876	0.06
876.166	0.63
876.332	0.73
876.499	2.59
876.665	-1.17
876.831	0.19
876.997	3.3
877.163	2.6
877.329	-0.69
877.495	-0.98
877.662	0.67
877.828	-0.47
877.994	0.49
878.16	-3.71
878.326	0.04
878.492	0.86
878.658	-0.49
878.824	-0.4
878.99	1.7
879.156	-1.89
879.322	2.55
879.487	-0.18
879.653	-0.61
879.819	0.36
879.985	-0.46
880.151	-0.81
880.317	2.44
880.483	0.05
880.648	0.92
880.814	-1.9
880.98	0.76
881.146	-2.51
881.312	-2.22
881.477	-1.76
881.643	-1.57
881.809	4.73
881.974	0.8
882.14	-2.7
882.306	-0.29
882.471	2.53
882.637	-0.84
882.803	1.15
882.968	2.74
883.134	3.06
883.299	0.85
883.465	-0.05
883.63	2.71
883.796	1.26
883.961	0.52
884.127	0.18
884.292	-3.61
884.458	-3.02
884.623	-3.02
