Data from Apollo_Calib_20240827__AbsoluteIrradiance__317__04-26-00-841.txt Node

Date: Wed Aug 28 04:26:00 BST 2024
User: biology
Spectrometer: FLMT08252
Trigger mode: 0
Integration Time (sec): 5.000000E-1
Scans to average: 5
Electric dark correction enabled: true
Nonlinearity correction enabled: false
Boxcar width: 0
XAxis mode: Wavelengths
Number of Pixels in Spectrum: 3648
>>>>>Begin Spectral Data<<<<<
179.588	-0
179.809	-0
180.03	-0
180.251	-0
180.473	-0
180.694	0
180.915	0
181.136	-0
181.357	0
181.578	-0
181.799	0
182.02	-0
182.241	-0
182.462	-0
182.683	0
182.904	-0
183.125	-0
183.346	0
183.567	0
183.788	-0
184.009	-0
184.23	0
184.451	0
184.672	-0
184.892	-0
185.113	0
185.334	0
185.555	-0
185.776	0
185.996	0
186.217	0
186.438	0
186.659	-0
186.879	0
187.1	-0
187.321	-0
187.541	-0
187.762	0
187.983	0
188.203	0
188.424	-0
188.644	-0
188.865	0
189.086	0
189.306	-0
189.527	-0
189.747	0
189.968	-0
190.188	0
190.409	0
190.629	0
190.849	-0
191.07	-0
191.29	0
191.511	0
191.731	-0
191.951	-0
192.172	-0
192.392	-0
192.612	0
192.833	-0
193.053	0
193.273	0
193.493	-0
193.714	-0
193.934	0
194.154	0
194.374	-0
194.594	0
194.815	0
195.035	0
195.255	-0
195.475	-0
195.695	0
195.915	0
196.135	-0
196.355	0
196.575	0
196.795	0
197.015	-0
197.235	-0
197.455	-0
197.675	0
197.895	-0
198.115	-0
198.335	0
198.555	-0
198.775	0
198.995	0
199.214	0
199.434	0
199.654	-0
199.874	-0
200.094	0.88
200.313	0.23
200.533	-0.14
200.753	-0.52
200.973	0.99
201.192	0.65
201.412	-0.84
201.632	-0.53
201.851	0.72
202.071	-0.31
202.291	-0.76
202.51	-0.78
202.73	0.8
202.95	0.05
203.169	-0.36
203.389	0.06
203.608	0.04
203.828	-0.64
204.047	-0.17
204.267	0.39
204.486	0.28
204.706	0.38
204.925	-0.15
205.145	-0.03
205.364	0.4
205.583	0.57
205.803	-0.34
206.022	-0.46
206.242	0.19
206.461	0.27
206.68	-0.12
206.9	-0.16
207.119	0.63
207.338	0.74
207.557	-0.44
207.777	-0.15
207.996	-0.01
208.215	0.36
208.434	0.05
208.654	-0.36
208.873	0.38
209.092	0.38
209.311	-0.36
209.53	-0.13
209.749	-0.25
209.968	-0.44
210.187	-0.4
210.407	-0.4
210.626	0.11
210.845	0.2
211.064	-0.12
211.283	-0.22
211.502	0.58
211.721	0.15
211.94	-0.18
212.159	0.04
212.377	0.18
212.596	0.26
212.815	0.11
213.034	0.03
213.253	0.25
213.472	0.22
213.691	-0.23
213.91	-0.36
214.128	-0.06
214.347	0.23
214.566	-0.5
214.785	-0.34
215.003	0.41
215.222	0.24
215.441	-0.13
215.66	-0.26
215.878	-0.12
216.097	0.4
216.316	-0.22
216.534	-0.23
216.753	0.04
216.972	0.06
217.19	-0.1
217.409	-0.11
217.627	-0.17
217.846	0.03
218.064	-0.03
218.283	-0.1
218.501	0.67
218.72	0.11
218.938	-0.21
219.157	-0.14
219.375	0.11
219.594	0.26
219.812	-0.18
220.031	-0.26
220.249	0.16
220.467	0.42
220.686	-0.22
220.904	-0.1
221.122	-0.1
221.341	0.33
221.559	0.11
221.777	-0.2
221.995	-0.03
222.214	0.23
222.432	-0.13
222.65	0.13
222.868	0.06
223.086	0.06
223.305	0.06
223.523	0.05
223.741	0.34
223.959	-0.14
224.177	-0.32
224.395	0.02
224.613	0.17
224.831	0.29
225.049	-0.04
225.267	-0.06
225.485	0.1
225.703	0.07
225.921	-0.04
226.139	-0.15
226.357	0.21
226.575	0.08
226.793	-0.06
227.011	0.56
227.229	0.04
227.447	0.16
227.665	-0.16
227.883	-0.16
228.1	0.01
228.318	0.02
228.536	-0.27
228.754	-0.15
228.972	0.18
229.189	0.18
229.407	-0.09
229.625	-0.1
229.843	0.23
230.06	0.19
230.278	-0.12
230.496	0.01
230.713	0.15
230.931	0.26
231.149	-0.04
231.366	-0.17
231.584	-0.05
231.801	0.32
232.019	-0.15
232.236	-0.05
232.454	-0.05
232.671	0.12
232.889	-0.08
233.106	-0.1
233.324	0.08
233.541	-0.11
233.759	0.11
233.976	-0.09
234.194	-0.12
234.411	-0.08
234.628	-0.06
234.846	-0.08
235.063	0.01
235.28	-0.09
235.498	0.03
235.715	-0.17
235.932	0.14
236.149	-0.04
236.367	-0.02
236.584	0.02
236.801	-0.23
237.018	0.08
237.236	0.01
237.453	-0.14
237.67	0.12
237.887	-0.01
238.104	-0.07
238.321	-0.11
238.538	-0.2
238.755	0.19
238.973	-0.25
239.19	-0.07
239.407	0.02
239.624	0.16
239.841	-0.14
240.058	-0.09
240.275	0.13
240.492	0.08
240.709	-0.01
240.925	-0.02
241.142	-0.01
241.359	-0.08
241.576	-0.12
241.793	-0.02
242.01	0.01
242.227	0.03
242.444	0.03
242.66	0.15
242.877	0.09
243.094	-0.13
243.311	0.03
243.527	-0.04
243.744	0
243.961	0.12
244.178	-0.03
244.394	0.05
244.611	0.1
244.828	0.17
245.044	-0.19
245.261	-0.01
245.477	0.02
245.694	0.21
245.911	-0.02
246.127	-0.03
246.344	0.14
246.56	0.11
246.777	-0.11
246.993	-0.01
247.21	0.09
247.426	0.08
247.643	-0.01
247.859	-0.06
248.076	-0.12
248.292	0.25
248.508	-0.07
248.725	0.04
248.941	0.08
249.157	0.16
249.374	-0.05
249.59	-0.01
249.806	0.01
250.023	0.06
250.239	-0.1
250.455	-0.07
250.671	0.06
250.888	0.07
251.104	0.02
251.32	-0.09
251.536	0.04
251.752	-0.03
251.969	0.03
252.185	-0.03
252.401	0.17
252.617	0.05
252.833	-0.04
253.049	0.06
253.265	0.06
253.481	0.07
253.697	-0.07
253.913	-0.05
254.129	-0
254.345	0.05
254.561	0.03
254.777	-0.01
254.993	0.06
255.209	0.04
255.425	-0.05
255.641	-0.02
255.857	0.08
256.073	-0.02
256.288	-0.07
256.504	-0
256.72	-0.01
256.936	0.16
257.152	-0.06
257.367	-0.02
257.583	-0.02
257.799	0.12
258.015	-0.04
258.23	-0.04
258.446	0.18
258.662	0.01
258.877	-0.03
259.093	-0.01
259.309	0.03
259.524	0.04
259.74	-0.03
259.955	-0.07
260.171	0.06
260.387	0
260.602	0.07
260.818	0.04
261.033	-0.04
261.249	-0
261.464	-0.02
261.68	-0.06
261.895	0.11
262.11	0.07
262.326	-0.02
262.541	-0.05
262.757	0.07
262.972	0.09
263.187	0.06
263.403	-0
263.618	0.08
263.833	0.03
264.049	-0.09
264.264	-0.02
264.479	0.08
264.694	0.1
264.91	-0.05
265.125	-0.01
265.34	0.08
265.555	0.18
265.77	-0.01
265.986	0.01
266.201	0.03
266.416	0.09
266.631	-0.05
266.846	0
267.061	0.12
267.276	0.05
267.491	-0.13
267.706	0.04
267.921	0.07
268.136	0
268.351	0.01
268.566	-0.09
268.781	0.05
268.996	0.09
269.211	-0.02
269.426	-0.08
269.641	-0.06
269.856	0.06
270.071	-0.04
270.285	-0.14
270.5	0.1
270.715	0.12
270.93	0.04
271.145	0.04
271.359	0.02
271.574	-0.04
271.789	0
272.004	-0.05
272.218	-0
272.433	0.09
272.648	-0.04
272.862	0.07
273.077	0.05
273.292	0.02
273.506	-0.08
273.721	-0.02
273.936	0.09
274.15	0.05
274.365	0.03
274.579	0.1
274.794	0.07
275.008	0.07
275.223	-0.03
275.437	-0.04
275.652	0.05
275.866	0.08
276.081	0.06
276.295	0.1
276.509	0.04
276.724	0.02
276.938	-0.03
277.153	0.03
277.367	0.06
277.581	-0.01
277.796	-0.09
278.01	-0.07
278.224	0.05
278.438	0.17
278.653	-0.04
278.867	-0.01
279.081	-0.09
279.295	0.01
279.51	0.02
279.724	-0.12
279.938	0.05
280.152	0.07
280.366	-0.08
280.58	0.04
280.794	0.07
281.008	0.1
281.222	0.13
281.437	0.15
281.651	0.03
281.865	0.08
282.079	-0.02
282.293	-0.09
282.507	0.01
282.721	-0.05
282.935	-0.03
283.148	-0.06
283.362	-0.05
283.576	-0.04
283.79	-0.01
284.004	-0.04
284.218	0.1
284.432	-0.02
284.646	0.01
284.859	-0.01
285.073	-0.01
285.287	0.09
285.501	-0.02
285.714	0.01
285.928	0.01
286.142	0.03
286.356	0.02
286.569	0
286.783	0.07
286.997	0.06
287.21	0
287.424	-0.02
287.637	0.01
287.851	-0.02
288.065	0.06
288.278	0.03
288.492	0.03
288.705	0
288.919	0.02
289.132	-0.02
289.346	0.07
289.559	-0.11
289.773	-0.06
289.986	-0
290.2	-0.01
290.413	0.07
290.626	-0.01
290.84	0.02
291.053	0.04
291.267	0.08
291.48	0
291.693	-0.02
291.906	-0.04
292.12	-0.01
292.333	-0.02
292.546	-0.06
292.76	0.12
292.973	0.03
293.186	0.06
293.399	-0.02
293.612	0.05
293.826	-0.02
294.039	0.02
294.252	0.02
294.465	0.07
294.678	0.05
294.891	0.01
295.104	0.03
295.317	0.04
295.53	0.03
295.743	0.03
295.956	-0.01
296.169	0.13
296.382	0.11
296.595	-0.02
296.808	-0.02
297.021	0.09
297.234	0.08
297.447	0.02
297.66	0.03
297.873	0.08
298.086	0.02
298.299	-0.02
298.511	-0.06
298.724	-0.04
298.937	-0.03
299.15	0.02
299.363	0.05
299.575	0.06
299.788	0.06
300.001	-0
300.213	-0.03
300.426	0.02
300.639	0.01
300.852	-0.02
301.064	0.06
301.277	0.11
301.489	0.08
301.702	0.03
301.915	0.01
302.127	0.06
302.34	0.06
302.552	0.05
302.765	-0.05
302.977	0.06
303.19	-0.01
303.402	0.02
303.615	-0
303.827	0.01
304.04	0.02
304.252	0.1
304.464	0
304.677	0.11
304.889	0.1
305.102	-0.01
305.314	0.01
305.526	0.04
305.739	0.06
305.951	-0.02
306.163	-0.05
306.375	0.11
306.588	-0.03
306.8	-0.01
307.012	-0.03
307.224	0.07
307.436	0.09
307.649	-0.03
307.861	0.06
308.073	0.03
308.285	0.01
308.497	-0.02
308.709	-0
308.921	0.02
309.133	0.06
309.346	0.01
309.558	0.01
309.77	0.03
309.982	0.08
310.194	0.03
310.406	-0.01
310.617	0.1
310.829	0.02
311.041	0.05
311.253	-0.04
311.465	0
311.677	0.01
311.889	-0.04
312.101	0
312.313	0.05
312.524	0.05
312.736	-0.04
312.948	-0.02
313.16	0.13
313.372	0.03
313.583	0.03
313.795	0
314.007	-0.01
314.218	0.1
314.43	0.02
314.642	0.03
314.853	-0.03
315.065	0.01
315.277	0
315.488	0.05
315.7	0.09
315.912	0.05
316.123	0.01
316.335	0.01
316.546	0.09
316.758	0
316.969	0.01
317.181	-0
317.392	0.01
317.604	0.09
317.815	-0.01
318.026	0
318.238	0.01
318.449	0.06
318.661	-0.02
318.872	-0.05
319.083	-0
319.295	0.04
319.506	0
319.717	0.04
319.929	0.05
320.14	0.02
320.351	0.01
320.562	-0.04
320.774	0.02
320.985	0.02
321.196	-0.04
321.407	-0.07
321.618	0.06
321.829	0.05
322.041	0.02
322.252	0.05
322.463	0.08
322.674	0.07
322.885	-0.05
323.096	0.01
323.307	0.01
323.518	0.05
323.729	-0.02
323.94	-0
324.151	-0.03
324.362	0.04
324.573	0.03
324.784	-0.02
324.995	0.07
325.206	0.05
325.417	0.03
325.628	-0.02
325.838	0.05
326.049	0.02
326.26	0.08
326.471	0.01
326.682	0.09
326.892	0.04
327.103	-0.05
327.314	-0.05
327.525	0.1
327.735	0.01
327.946	0.02
328.157	-0.01
328.368	0.06
328.578	0
328.789	-0.01
328.999	0.04
329.21	-0
329.421	0.09
329.631	0.01
329.842	-0.02
330.052	0.05
330.263	0.06
330.473	0.06
330.684	0.03
330.894	0
331.105	0.03
331.315	0.06
331.526	-0.06
331.736	0.11
331.947	0.07
332.157	0.02
332.367	-0.03
332.578	-0.02
332.788	0.08
332.999	0.06
333.209	-0.01
333.419	-0.03
333.629	0.06
333.84	0.06
334.05	0.02
334.26	0.08
334.47	0.06
334.681	0
334.891	0.02
335.101	0.06
335.311	0.12
335.521	0.04
335.732	-0.03
335.942	0.12
336.152	0.06
336.362	0.08
336.572	0.02
336.782	0.06
336.992	0.03
337.202	0
337.412	-0
337.622	0.01
337.832	-0
338.042	0.02
338.252	0
338.462	0.02
338.672	0.01
338.882	0.04
339.092	0.01
339.302	0.07
339.511	0.03
339.721	0.01
339.931	-0.01
340.141	0.1
340.351	0.09
340.561	0.03
340.77	0.01
340.98	-0
341.19	0.02
341.4	-0.03
341.609	-0.03
341.819	-0.02
342.029	-0.02
342.238	0.03
342.448	0.01
342.658	0.09
342.867	0.04
343.077	0.05
343.286	0.05
343.496	0.04
343.706	0.08
343.915	0.03
344.125	0.06
344.334	0.02
344.544	-0.04
344.753	0.01
344.963	0
345.172	0
345.381	-0.02
345.591	0.01
345.8	0.04
346.01	0.1
346.219	0.06
346.428	-0.11
346.638	0.02
346.847	0
347.056	0.07
347.266	-0.03
347.475	0.03
347.684	0.05
347.893	0.08
348.103	0.05
348.312	0.01
348.521	-0.02
348.73	0.02
348.94	0.04
349.149	0.03
349.358	0.01
349.567	0.01
349.776	-0.08
349.985	0.02
350.194	0.03
350.403	0.1
350.612	-0.07
350.821	-0.03
351.03	0.03
351.239	-0.03
351.448	0.01
351.657	-0.01
351.866	0.13
352.075	0.04
352.284	0.11
352.493	-0.04
352.702	0.07
352.911	0.06
353.12	0.02
353.329	-0.01
353.538	0.05
353.746	0.02
353.955	-0.01
354.164	0.03
354.373	-0.01
354.582	0.08
354.79	-0.01
354.999	0.03
355.208	0.02
355.416	0.08
355.625	-0
355.834	-0.05
356.042	0.08
356.251	0.03
356.46	-0.05
356.668	0.06
356.877	0.12
357.085	0.07
357.294	-0.02
357.503	0.02
357.711	0.05
357.92	0.16
358.128	0.05
358.337	-0.07
358.545	0.04
358.754	0
358.962	0.05
359.17	0.04
359.379	0.02
359.587	0.07
359.796	0.02
360.004	0.05
360.212	0.05
360.421	0.06
360.629	0.04
360.837	-0.01
361.046	0.1
361.254	0.12
361.462	0.01
361.67	0
361.879	0.06
362.087	0.13
362.295	0.03
362.503	-0
362.711	0
362.92	-0.03
363.128	0.02
363.336	-0.04
363.544	-0.04
363.752	-0.01
363.96	-0.02
364.168	-0.03
364.376	0.04
364.584	0.04
364.792	0.03
365	0.06
365.208	0.03
365.416	0.05
365.624	0.02
365.832	0.01
366.04	0.12
366.248	0.04
366.456	0.05
366.664	0.03
366.872	0.02
367.079	-0.03
367.287	-0.01
367.495	0.02
367.703	0.03
367.911	0.01
368.118	0
368.326	0.04
368.534	0.01
368.742	0.05
368.949	-0.02
369.157	-0.03
369.365	0.04
369.572	0.01
369.78	0.01
369.988	0.09
370.195	0.02
370.403	0.06
370.61	-0.03
370.818	0.05
371.026	0.07
371.233	0.03
371.441	0.03
371.648	-0.03
371.856	0.01
372.063	0.05
372.271	-0.02
372.478	0.03
372.685	0
372.893	0.03
373.1	-0.04
373.308	-0.01
373.515	0.09
373.722	0.06
373.93	0.02
374.137	0.04
374.344	0.1
374.552	0.04
374.759	0.02
374.966	0.01
375.173	0.01
375.381	0.05
375.588	0.01
375.795	-0.06
376.002	0.01
376.209	0.03
376.417	0.03
376.624	0.03
376.831	0.04
377.038	0.01
377.245	-0.04
377.452	-0.02
377.659	0.01
377.866	-0.01
378.073	0.05
378.28	0.02
378.487	0.08
378.694	0.05
378.901	0.02
379.108	0.04
379.315	0.05
379.522	0.11
379.729	0.04
379.936	-0.01
380.143	0.04
380.35	0.02
380.557	0.05
380.763	-0.02
380.97	0.01
381.177	0.03
381.384	0
381.591	-0.02
381.797	0.04
382.004	0.04
382.211	0.05
382.418	0.02
382.624	0.02
382.831	0.04
383.038	0.01
383.244	0.02
383.451	0.02
383.658	-0.01
383.864	0
384.071	-0.01
384.277	0.09
384.484	-0.02
384.69	0.07
384.897	-0.03
385.103	0.02
385.31	0.01
385.516	-0.01
385.723	-0.02
385.929	0.03
386.136	-0.01
386.342	0.03
386.549	-0.04
386.755	0.06
386.961	0.06
387.168	0
387.374	0.03
387.58	0.05
387.787	0.02
387.993	0.01
388.199	0
388.406	0.02
388.612	0.04
388.818	-0.01
389.024	-0.01
389.231	0.04
389.437	0.12
389.643	0.05
389.849	0.05
390.055	0.06
390.261	0.04
390.467	0.01
390.674	-0.03
390.88	-0.01
391.086	0.06
391.292	-0.04
391.498	0.04
391.704	0.07
391.91	0.02
392.116	0.02
392.322	-0.03
392.528	0.05
392.734	0
392.94	0.04
393.146	0
393.352	0.04
393.557	-0.02
393.763	0.01
393.969	0.04
394.175	0.05
394.381	0.03
394.587	0
394.792	0.02
394.998	0.09
395.204	0.07
395.41	0.03
395.615	0.08
395.821	0.02
396.027	0.04
396.233	-0.01
396.438	0.07
396.644	0.09
396.85	0.05
397.055	0.03
397.261	0.02
397.466	0.03
397.672	-0
397.878	0.06
398.083	0.04
398.289	0.01
398.494	0.05
398.7	0.06
398.905	-0.01
399.111	0.08
399.316	-0.02
399.522	0.06
399.727	0.02
399.932	-0.02
400.138	0.01
400.343	0.08
400.549	0.02
400.754	0.07
400.959	0.05
401.165	0.03
401.37	0.05
401.575	0.11
401.78	0.03
401.986	0.03
402.191	0.03
402.396	0.01
402.601	0.08
402.807	0.04
403.012	0.03
403.217	0.06
403.422	0.08
403.627	0.04
403.832	-0.02
404.037	0.02
404.243	0.04
404.448	-0.05
404.653	0.07
404.858	0.06
405.063	0.07
405.268	-0.04
405.473	0.02
405.678	-0.01
405.883	0.17
406.088	0.02
406.293	0
406.498	-0
406.703	0.07
406.907	0.05
407.112	-0.02
407.317	0.04
407.522	0.06
407.727	-0.01
407.932	0.03
408.136	0.11
408.341	0.03
408.546	0.04
408.751	0.02
408.956	0.02
409.16	0.08
409.365	-0.01
409.57	0.08
409.774	0.03
409.979	0.09
410.184	0.08
410.388	-0.01
410.593	0.13
410.798	0.09
411.002	-0.01
411.207	0.06
411.411	0.09
411.616	0.01
411.82	0.03
412.025	0.11
412.229	0.06
412.434	0.13
412.638	0.07
412.843	0.05
413.047	0.08
413.252	0.03
413.456	0.06
413.66	0.1
413.865	0.02
414.069	0.15
414.273	0.05
414.478	0.07
414.682	0.08
414.886	0.07
415.091	0.03
415.295	0.01
415.499	0.12
415.703	0.08
415.908	0.14
416.112	0.02
416.316	0.1
416.52	0.11
416.724	0.05
416.929	0.08
417.133	0.25
417.337	0.12
417.541	0.07
417.745	0.15
417.949	0.13
418.153	0.14
418.357	0.07
418.561	0.23
418.765	0.15
418.969	0.25
419.173	0.21
419.377	0.13
419.581	0.26
419.785	0.18
419.989	0.15
420.193	0.22
420.397	0.19
420.601	0.26
420.804	0.26
421.008	0.22
421.212	0.27
421.416	0.28
421.62	0.25
421.823	0.25
422.027	0.39
422.231	0.27
422.435	0.27
422.638	0.33
422.842	0.27
423.046	0.26
423.249	0.37
423.453	0.36
423.657	0.41
423.86	0.34
424.064	0.37
424.268	0.47
424.471	0.38
424.675	0.52
424.878	0.48
425.082	0.45
425.285	0.54
425.489	0.46
425.692	0.53
425.896	0.48
426.099	0.54
426.303	0.5
426.506	0.49
426.71	0.61
426.913	0.61
427.116	0.72
427.32	0.6
427.523	0.65
427.726	0.77
427.93	0.75
428.133	0.75
428.336	0.73
428.54	0.69
428.743	0.83
428.946	0.86
429.149	0.85
429.353	0.9
429.556	0.88
429.759	0.92
429.962	0.91
430.165	0.95
430.368	0.94
430.571	0.88
430.775	1
430.978	0.96
431.181	1.01
431.384	0.95
431.587	0.95
431.79	1.02
431.993	0.96
432.196	1.08
432.399	1.09
432.602	1.21
432.805	1.15
433.008	1.24
433.211	1.16
433.414	1.31
433.616	1.34
433.819	1.3
434.022	1.24
434.225	1.45
434.428	1.43
434.631	1.58
434.833	1.42
435.036	1.42
435.239	1.56
435.442	1.55
435.645	1.52
435.847	1.58
436.05	1.69
436.253	1.71
436.455	1.69
436.658	1.73
436.861	1.87
437.063	1.78
437.266	1.84
437.468	1.9
437.671	2.07
437.874	1.96
438.076	1.92
438.279	2.09
438.481	2.14
438.684	2.26
438.886	2.32
439.089	2.29
439.291	2.42
439.494	2.42
439.696	2.46
439.899	2.59
440.101	2.82
440.303	2.84
440.506	2.99
440.708	3
440.91	3.12
441.113	3.16
441.315	3.33
441.517	3.14
441.72	3.45
441.922	3.35
442.124	3.41
442.326	3.54
442.529	3.73
442.731	3.74
442.933	3.94
443.135	3.84
443.337	3.88
443.539	4.08
443.742	4.02
443.944	4.26
444.146	4.14
444.348	4.33
444.55	4.36
444.752	4.54
444.954	4.47
445.156	4.64
445.358	4.82
445.56	4.95
445.762	4.84
445.964	5.03
446.166	4.99
446.368	5.11
446.57	5.19
446.772	5.19
446.974	5.06
447.175	5.2
447.377	5.16
447.579	5.38
447.781	5.29
447.983	5.38
448.184	5.26
448.386	5.46
448.588	5.23
448.79	5.32
448.991	5.3
449.193	5.45
449.395	5.21
449.597	5.24
449.798	5.3
450	5
450.202	5.08
450.403	5.03
450.605	5.03
450.806	4.98
451.008	4.73
451.21	4.76
451.411	4.72
451.613	4.43
451.814	4.47
452.016	4.48
452.217	4.21
452.419	4.3
452.62	4.07
452.821	4.09
453.023	4.03
453.224	3.89
453.426	3.71
453.627	3.43
453.828	3.55
454.03	3.46
454.231	3.47
454.432	3.3
454.634	3.29
454.835	3.2
455.036	3.06
455.238	2.99
455.439	2.96
455.64	2.74
455.841	2.67
456.042	2.85
456.244	2.68
456.445	2.52
456.646	2.35
456.847	2.45
457.048	2.42
457.249	2.37
457.45	2.56
457.651	2.09
457.852	2.12
458.054	1.97
458.255	1.91
458.456	2
458.657	1.96
458.858	1.77
459.058	1.79
459.259	1.87
459.46	1.73
459.661	1.75
459.862	1.87
460.063	1.69
460.264	1.72
460.465	1.55
460.666	1.66
460.866	1.53
461.067	1.46
461.268	1.46
461.469	1.42
461.67	1.44
461.87	1.3
462.071	1.35
462.272	1.31
462.473	1.32
462.673	1.37
462.874	1.24
463.075	1.35
463.275	1.26
463.476	1.31
463.676	1.24
463.877	1.23
464.078	1.19
464.278	1.2
464.479	1.16
464.679	1.14
464.88	1.07
465.08	1.15
465.281	0.99
465.481	0.98
465.682	0.96
465.882	1
466.083	0.92
466.283	0.9
466.483	0.86
466.684	0.83
466.884	0.8
467.085	0.78
467.285	0.84
467.485	0.69
467.686	0.65
467.886	0.65
468.086	0.73
468.286	0.62
468.487	0.71
468.687	0.61
468.887	0.6
469.087	0.65
469.287	0.6
469.488	0.54
469.688	0.58
469.888	0.64
470.088	0.58
470.288	0.52
470.488	0.55
470.688	0.45
470.888	0.44
471.088	0.4
471.288	0.49
471.488	0.5
471.688	0.45
471.888	0.39
472.088	0.49
472.288	0.4
472.488	0.34
472.688	0.37
472.888	0.4
473.088	0.37
473.288	0.34
473.488	0.32
473.688	0.47
473.887	0.35
474.087	0.29
474.287	0.36
474.487	0.27
474.687	0.36
474.886	0.32
475.086	0.3
475.286	0.29
475.486	0.3
475.685	0.27
475.885	0.24
476.085	0.3
476.284	0.3
476.484	0.21
476.684	0.26
476.883	0.28
477.083	0.24
477.282	0.22
477.482	0.27
477.681	0.25
477.881	0.22
478.08	0.2
478.28	0.18
478.479	0.24
478.679	0.27
478.878	0.17
479.078	0.16
479.277	0.21
479.477	0.21
479.676	0.2
479.875	0.17
480.075	0.11
480.274	0.19
480.473	0.16
480.673	0.14
480.872	0.19
481.071	0.19
481.271	0.17
481.47	0.13
481.669	0.1
481.868	0.16
482.067	0.12
482.267	0.1
482.466	0.11
482.665	0.09
482.864	0.1
483.063	0.1
483.262	0.15
483.461	0.18
483.661	0.17
483.86	0.1
484.059	0.14
484.258	0.12
484.457	0.11
484.656	0.1
484.855	0.12
485.054	0.05
485.253	0.07
485.452	0.07
485.651	0.11
485.849	0.08
486.048	0.07
486.247	0.06
486.446	0.09
486.645	0.03
486.844	0.05
487.043	0.08
487.241	0.09
487.44	0.06
487.639	0.07
487.838	0.08
488.037	0.07
488.235	0.13
488.434	0.08
488.633	0.03
488.831	0.08
489.03	0.1
489.229	0.07
489.427	0.06
489.626	0.1
489.825	0.1
490.023	0.05
490.222	0.04
490.42	0.06
490.619	0.08
490.817	0.07
491.016	0.04
491.214	0.08
491.413	0.07
491.611	0.05
491.81	0.06
492.008	0.08
492.207	0.08
492.405	0.06
492.604	-0
492.802	0.06
493	0.07
493.199	-0
493.397	0.07
493.595	0.04
493.794	0.04
493.992	0.09
494.19	0.05
494.388	0.06
494.587	0.04
494.785	0.03
494.983	0.03
495.181	0.06
495.379	0.03
495.578	0.03
495.776	0.04
495.974	0.06
496.172	0.03
496.37	0.03
496.568	0.01
496.766	-0.01
496.964	0.04
497.162	0.04
497.36	0.02
497.558	0.04
497.756	0.06
497.954	0.02
498.152	0.03
498.35	0.02
498.548	0.04
498.746	0.04
498.944	0.01
499.142	-0
499.34	-0.02
499.538	0
499.736	-0.01
499.933	0.07
500.131	0.07
500.329	0.03
500.527	0.07
500.725	0.07
500.922	0.04
501.12	0.01
501.318	0.06
501.516	0.01
501.713	0.06
501.911	-0.01
502.109	0
502.306	0.04
502.504	0.03
502.701	0
502.899	0.01
503.097	0.08
503.294	0.03
503.492	0.01
503.689	0.04
503.887	0.05
504.084	0.06
504.282	0.02
504.479	-0
504.677	0.03
504.874	0.01
505.072	0.02
505.269	-0.01
505.466	0.04
505.664	0.04
505.861	-0.01
506.059	0.01
506.256	0.03
506.453	0.01
506.651	0.07
506.848	0.04
507.045	0.03
507.242	0.01
507.44	0.01
507.637	0.01
507.834	0.02
508.031	0.04
508.229	-0.01
508.426	0.02
508.623	0.03
508.82	-0
509.017	-0
509.214	0
509.411	0.02
509.608	-0.01
509.805	0.01
510.003	0.01
510.2	0.01
510.397	0.04
510.594	-0.02
510.791	-0.01
510.988	0.02
511.184	0.04
511.381	0.01
511.578	0.02
511.775	0.04
511.972	0.01
512.169	0
512.366	0.04
512.563	0.02
512.76	0
512.956	0.02
513.153	0.01
513.35	0.02
513.547	0.01
513.744	-0
513.94	-0.02
514.137	0.02
514.334	0.03
514.53	0.01
514.727	0.01
514.924	0.06
515.12	-0.01
515.317	-0.05
515.514	-0.03
515.71	-0.03
515.907	0
516.103	0.03
516.3	0.02
516.497	0.01
516.693	0.03
516.89	0.01
517.086	0
517.283	0.03
517.479	0.04
517.676	0
517.872	0.01
518.068	0.01
518.265	0.01
518.461	-0
518.658	-0.02
518.854	0.03
519.05	0
519.247	-0.01
519.443	0.03
519.639	0.02
519.836	0.02
520.032	0.01
520.228	0.02
520.424	0.06
520.621	0.02
520.817	0.03
521.013	0.04
521.209	0.01
521.405	0.04
521.601	0.02
521.798	0
521.994	0.06
522.19	-0.01
522.386	-0.01
522.582	0.03
522.778	0.03
522.974	0.01
523.17	-0
523.366	0.04
523.562	0.05
523.758	0.02
523.954	-0.02
524.15	0
524.346	0.04
524.542	0.01
524.738	-0.01
524.934	0.01
525.129	0
525.325	0.03
525.521	0.01
525.717	0.03
525.913	0.02
526.109	0.01
526.304	0
526.5	0.02
526.696	0.02
526.892	0.01
527.087	0.01
527.283	-0.02
527.479	0.02
527.674	0.01
527.87	0.01
528.066	-0
528.261	0.02
528.457	0.01
528.653	-0.01
528.848	0
529.044	0.01
529.239	-0
529.435	0.01
529.63	0.04
529.826	0.08
530.021	0.03
530.217	0.01
530.412	-0
530.608	0
530.803	-0
530.999	-0
531.194	-0.04
531.389	0.02
531.585	-0.03
531.78	-0.01
531.975	0.02
532.171	0.03
532.366	-0
532.561	-0
532.757	0.02
532.952	0
533.147	-0.01
533.342	0.02
533.538	0
533.733	0.05
533.928	0.01
534.123	-0
534.318	-0.01
534.513	-0.01
534.709	0.01
534.904	-0
535.099	-0.01
535.294	0.01
535.489	0
535.684	0
535.879	-0.01
536.074	0.01
536.269	-0.01
536.464	0.02
536.659	0.02
536.854	-0.01
537.049	0.02
537.244	0.03
537.439	0.01
537.634	0.03
537.828	0.03
538.023	-0.02
538.218	-0.03
538.413	0.02
538.608	-0.02
538.803	0.03
538.997	-0.02
539.192	0.03
539.387	0.03
539.582	0.01
539.776	-0
539.971	-0.01
540.166	0.01
540.36	-0.03
540.555	-0
540.75	-0
540.944	-0
541.139	-0.05
541.334	-0.01
541.528	0.02
541.723	0.04
541.917	-0.01
542.112	-0.03
542.306	0.01
542.501	-0.01
542.695	0
542.89	-0.02
543.084	0.02
543.279	0.03
543.473	-0
543.668	-0.01
543.862	-0
544.056	0.02
544.251	0.01
544.445	0.02
544.64	0
544.834	-0.02
545.028	0.02
545.222	-0.01
545.417	0.03
545.611	0
545.805	0.01
546	-0.01
546.194	0.01
546.388	-0.01
546.582	0.04
546.776	-0.03
546.97	0.01
547.165	0.02
547.359	0.03
547.553	-0.02
547.747	0.01
547.941	0
548.135	-0.02
548.329	0.04
548.523	0.02
548.717	-0
548.911	-0.01
549.105	-0.01
549.299	0.02
549.493	0.03
549.687	0.01
549.881	0.03
550.075	0.03
550.269	-0.02
550.463	0.03
550.657	0
550.85	-0.02
551.044	-0.02
551.238	0
551.432	0
551.626	-0.01
551.82	0.01
552.013	-0.03
552.207	0.02
552.401	0.02
552.594	0
552.788	-0.01
552.982	-0.01
553.176	-0
553.369	0.01
553.563	0.03
553.756	-0.02
553.95	-0.01
554.144	0.02
554.337	0.02
554.531	0.03
554.724	0.02
554.918	0
555.111	0.02
555.305	0.01
555.498	0.06
555.692	0
555.885	-0.01
556.079	0.02
556.272	-0.02
556.466	0.05
556.659	0
556.852	-0.01
557.046	0.01
557.239	0.04
557.432	-0.04
557.626	-0.03
557.819	0.02
558.012	0.01
558.206	-0.01
558.399	0.02
558.592	0.02
558.785	-0.01
558.979	0.01
559.172	0.02
559.365	0.03
559.558	0.03
559.751	-0
559.944	-0
560.138	-0.04
560.331	-0.02
560.524	-0.01
560.717	-0.02
560.91	0.01
561.103	0.04
561.296	0.01
561.489	-0.01
561.682	0.03
561.875	0.03
562.068	0.04
562.261	0.03
562.454	0.06
562.647	0.03
562.84	0.02
563.032	-0.01
563.225	0
563.418	0
563.611	0
563.804	-0.01
563.997	-0.04
564.19	-0.03
564.382	0.03
564.575	0.01
564.768	-0
564.961	-0.01
565.153	-0.01
565.346	0.04
565.539	0.02
565.731	0.01
565.924	0.01
566.117	0.03
566.309	0.03
566.502	-0.02
566.695	-0.01
566.887	0.01
567.08	-0.02
567.272	0.02
567.465	-0.01
567.657	0.01
567.85	0.01
568.042	0.02
568.235	0.01
568.427	0.02
568.62	-0.01
568.812	0.01
569.005	-0
569.197	-0.04
569.389	0.02
569.582	0.02
569.774	0.01
569.966	-0.02
570.159	-0.03
570.351	0.03
570.543	-0.01
570.736	-0.01
570.928	-0.02
571.12	0
571.312	-0.03
571.505	-0.05
571.697	0.05
571.889	-0.04
572.081	-0.02
572.273	-0
572.465	0.05
572.658	0.01
572.85	0.02
573.042	-0.02
573.234	0.01
573.426	0.05
573.618	-0.01
573.81	-0
574.002	0.07
574.194	0.04
574.386	-0.03
574.578	-0.07
574.77	-0.03
574.962	0
575.154	-0.02
575.346	0.01
575.538	0.01
575.729	-0.04
575.921	-0.01
576.113	-0.02
576.305	0.03
576.497	0
576.689	-0.02
576.88	-0.02
577.072	0.04
577.264	0.01
577.456	-0
577.647	-0.07
577.839	-0.02
578.031	0.05
578.223	-0.04
578.414	-0.04
578.606	0.03
578.798	0.03
578.989	-0.03
579.181	-0.01
579.372	-0.01
579.564	-0.02
579.755	0.02
579.947	0.03
580.139	0.04
580.33	-0.05
580.522	-0.02
580.713	-0.07
580.905	0.01
581.096	0.03
581.287	0
581.479	-0
581.67	0.01
581.862	0.04
582.053	-0.02
582.244	-0.04
582.436	-0
582.627	0.01
582.818	-0.02
583.01	-0.03
583.201	0.02
583.392	0.04
583.583	0.01
583.775	-0
583.966	-0.01
584.157	0.01
584.348	-0
584.54	-0.03
584.731	0.04
584.922	0.01
585.113	-0.05
585.304	0.02
585.495	0.02
585.686	0.03
585.877	0.02
586.068	0.01
586.259	0.01
586.45	0.01
586.641	-0
586.832	-0.05
587.023	-0
587.214	-0
587.405	0.01
587.596	-0.01
587.787	0.05
587.978	0.01
588.169	-0.03
588.36	-0.01
588.551	0.02
588.742	-0.02
588.932	0.01
589.123	-0
589.314	0.02
589.505	0.05
589.696	0.03
589.886	-0.03
590.077	-0.03
590.268	0.01
590.458	-0.04
590.649	-0.04
590.84	0.04
591.03	-0.03
591.221	-0.03
591.412	-0.04
591.602	0.02
591.793	0.02
591.984	-0.05
592.174	0.01
592.365	0.08
592.555	-0.02
592.746	0.01
592.936	0.01
593.127	0.03
593.317	0.03
593.508	-0.02
593.698	0
593.889	0.02
594.079	-0.01
594.269	-0.02
594.46	-0.01
594.65	-0.02
594.84	-0.03
595.031	-0.02
595.221	-0.01
595.411	-0.05
595.602	0
595.792	-0.03
595.982	-0.02
596.172	0.06
596.363	0.03
596.553	-0.01
596.743	0.01
596.933	0.01
597.123	0.04
597.314	-0.04
597.504	-0.04
597.694	0.06
597.884	0.03
598.074	-0.01
598.264	-0.01
598.454	0.01
598.644	-0
598.834	0.01
599.024	-0
599.214	-0.04
599.404	0.04
599.594	-0.01
599.784	-0.05
599.974	0.03
600.164	-0.01
600.354	-0.05
600.544	-0.03
600.734	-0.01
600.924	0.01
601.114	-0.03
601.303	-0.02
601.493	0.01
601.683	0
601.873	0.01
602.063	-0.05
602.252	0.03
602.442	-0.05
602.632	-0.02
602.821	-0.04
603.011	0.03
603.201	-0.01
603.39	-0.02
603.58	-0.02
603.77	0.01
603.959	0.04
604.149	-0.02
604.339	-0.04
604.528	-0
604.718	0.01
604.907	-0.01
605.097	-0.03
605.286	-0
605.476	0.03
605.665	0.01
605.855	0.03
606.044	0.04
606.234	0.02
606.423	-0
606.612	-0.04
606.802	0.01
606.991	0.04
607.181	0.02
607.37	-0.05
607.559	0.01
607.749	-0.04
607.938	-0.03
608.127	-0.01
608.316	-0.03
608.506	0.01
608.695	-0.01
608.884	-0.02
609.073	0.01
609.263	-0.01
609.452	-0.01
609.641	0.01
609.83	-0.02
610.019	0.02
610.208	-0.01
610.397	-0.01
610.586	0.06
610.775	-0.04
610.965	-0.02
611.154	-0.04
611.343	0.02
611.532	-0.01
611.721	-0.02
611.91	-0.02
612.099	0
612.287	0
612.476	-0.05
612.665	-0
612.854	-0.01
613.043	0.04
613.232	-0.03
613.421	-0.03
613.61	-0
613.798	-0.02
613.987	0.04
614.176	-0.01
614.365	0.04
614.554	0.01
614.742	0.03
614.931	-0.03
615.12	0.03
615.309	-0.04
615.497	0
615.686	-0.03
615.875	-0.01
616.063	0.02
616.252	-0.01
616.44	-0.04
616.629	0.01
616.818	0.04
617.006	-0.02
617.195	-0.02
617.383	0.03
617.572	-0.01
617.76	-0.03
617.949	-0.03
618.137	0.02
618.326	0.04
618.514	0.01
618.703	-0.04
618.891	0.05
619.079	-0.03
619.268	0.01
619.456	-0.01
619.644	0.04
619.833	-0
620.021	-0.03
620.209	-0.06
620.398	-0
620.586	0
620.774	0.01
620.962	-0
621.151	0.07
621.339	-0.01
621.527	-0.03
621.715	-0.04
621.903	-0.01
622.092	-0.02
622.28	0
622.468	-0.01
622.656	-0.01
622.844	0.01
623.032	-0.03
623.22	-0.03
623.408	0.04
623.596	0.01
623.784	0.03
623.972	-0.06
624.16	-0.05
624.348	0.05
624.536	-0.01
624.724	-0.05
624.912	0.06
625.1	0.05
625.288	-0.03
625.476	-0.04
625.664	0.04
625.851	-0.07
626.039	-0.01
626.227	-0
626.415	-0
626.603	-0.08
626.79	0.01
626.978	-0.03
627.166	-0.01
627.354	0
627.541	-0.04
627.729	-0.1
627.917	0.02
628.104	0.05
628.292	0
628.48	0.02
628.667	0
628.855	0.03
629.042	0.01
629.23	-0.01
629.418	0.05
629.605	0.01
629.793	-0.01
629.98	-0.02
630.168	0.01
630.355	-0
630.543	-0.01
630.73	-0.01
630.917	0
631.105	0.04
631.292	-0.02
631.48	-0.03
631.667	0.08
631.854	-0.01
632.042	-0.03
632.229	-0.07
632.416	-0
632.604	-0
632.791	-0.06
632.978	0.03
633.165	0.02
633.353	0.04
633.54	0.03
633.727	-0.06
633.914	-0.02
634.101	-0.03
634.289	0.07
634.476	-0.02
634.663	-0.04
634.85	0.01
635.037	-0.04
635.224	-0.03
635.411	0.04
635.598	0.02
635.785	0
635.972	-0.01
636.159	0.05
636.346	-0.05
636.533	0.02
636.72	-0.02
636.907	-0.03
637.094	0.03
637.281	0.01
637.468	0.02
637.655	-0.01
637.842	0.01
638.029	-0.01
638.215	0.04
638.402	0.03
638.589	-0.05
638.776	0
638.963	0
639.149	0.01
639.336	0.06
639.523	-0.02
639.709	0.02
639.896	-0.02
640.083	0.06
640.27	0.03
640.456	-0.01
640.643	0.04
640.829	-0.05
641.016	0.01
641.203	-0.07
641.389	0.03
641.576	-0.02
641.762	-0.01
641.949	-0.03
642.135	0
642.322	0.01
642.508	-0.06
642.695	-0.01
642.881	0
643.068	-0
643.254	0.02
643.441	0.01
643.627	-0.01
643.813	-0.02
644	0.04
644.186	-0.03
644.372	-0.02
644.559	-0.01
644.745	0.01
644.931	-0.03
645.118	-0.05
645.304	-0.03
645.49	-0.02
645.676	-0.01
645.862	-0
646.049	0.06
646.235	-0.01
646.421	0.07
646.607	0.05
646.793	-0.02
646.979	-0.03
647.165	0
647.352	0.03
647.538	0.04
647.724	0.01
647.91	-0
648.096	0.04
648.282	0.06
648.468	0
648.654	0.01
648.84	0.02
649.026	0.01
649.212	-0.03
649.397	-0.03
649.583	-0.06
649.769	0.05
649.955	0.02
650.141	-0.02
650.327	0.07
650.513	-0.05
650.698	0.01
650.884	-0.07
651.07	0.04
651.256	0
651.442	-0.03
651.627	0.01
651.813	0.04
651.999	0.02
652.184	0.05
652.37	0
652.556	-0.03
652.741	0.08
652.927	-0.09
653.113	-0.03
653.298	-0.01
653.484	-0.03
653.669	-0.05
653.855	0.02
654.04	0.03
654.226	0.05
654.412	-0.05
654.597	-0.04
654.782	0
654.968	0.03
655.153	-0
655.339	-0.02
655.524	-0.03
655.71	0.04
655.895	-0.02
656.08	0.02
656.266	0.03
656.451	0.02
656.636	-0.04
656.822	-0.02
657.007	-0.01
657.192	-0.01
657.378	-0.07
657.563	-0.01
657.748	0.05
657.933	-0
658.118	-0.02
658.304	-0.01
658.489	0.04
658.674	0.03
658.859	-0.03
659.044	0.01
659.229	0.02
659.414	-0.02
659.599	-0.02
659.785	-0.07
659.97	-0.01
660.155	0.02
660.34	-0.01
660.525	-0.01
660.71	-0.02
660.895	0.03
661.08	-0.06
661.264	-0
661.449	0.09
661.634	0.06
661.819	0.01
662.004	0.04
662.189	-0.07
662.374	0.01
662.559	-0.03
662.743	-0.06
662.928	-0
663.113	-0.03
663.298	-0.07
663.483	-0.01
663.667	0.02
663.852	-0.07
664.037	0.04
664.221	-0.03
664.406	0.03
664.591	0.05
664.775	0.01
664.96	-0.04
665.145	0.02
665.329	-0
665.514	0
665.698	-0.04
665.883	-0.09
666.068	0.03
666.252	-0.01
666.437	-0.02
666.621	0.02
666.806	0.03
666.99	-0.02
667.174	-0.06
667.359	0.04
667.543	-0.04
667.728	0.01
667.912	-0.07
668.096	0.03
668.281	0.01
668.465	0.01
668.649	0
668.834	-0.02
669.018	-0.01
669.202	-0.02
669.387	-0.03
669.571	0.07
669.755	0
669.939	-0.02
670.124	-0.01
670.308	0.1
670.492	0.03
670.676	-0.01
670.86	-0.03
671.044	-0.05
671.228	0.01
671.413	-0.02
671.597	-0.02
671.781	-0.03
671.965	0.02
672.149	-0.03
672.333	0
672.517	-0.06
672.701	-0.01
672.885	-0.02
673.069	-0.07
673.253	0.01
673.437	-0.02
673.621	-0
673.804	0.01
673.988	0.02
674.172	0.01
674.356	-0.05
674.54	-0
674.724	0.1
674.908	-0.02
675.091	0.02
675.275	-0.02
675.459	0
675.643	0.04
675.826	0.01
676.01	-0.05
676.194	-0.04
676.377	0.06
676.561	0.04
676.745	0
676.928	0.03
677.112	0.05
677.296	0.02
677.479	-0.05
677.663	0.01
677.846	0.06
678.03	-0.01
678.213	-0.02
678.397	0.01
678.58	0
678.764	-0.04
678.947	0
679.131	0.01
679.314	0.04
679.498	-0.03
679.681	-0
679.865	0.05
680.048	-0.01
680.231	-0.01
680.415	0.01
680.598	0.04
680.781	-0.04
680.965	-0.01
681.148	0.07
681.331	-0.02
681.514	0.07
681.698	-0.02
681.881	-0.02
682.064	-0.03
682.247	0.01
682.43	-0.05
682.614	-0
682.797	0.04
682.98	0.03
683.163	-0.03
683.346	0.02
683.529	-0.01
683.712	-0.05
683.895	0.01
684.078	-0.09
684.261	-0.02
684.444	0.01
684.627	0.04
684.81	-0
684.993	-0.04
685.176	0.02
685.359	-0.04
685.542	-0.01
685.725	0.07
685.908	-0.05
686.091	0.01
686.274	0.04
686.457	0.02
686.639	-0.01
686.822	0.02
687.005	-0.01
687.188	0.04
687.371	0.14
687.553	0.01
687.736	0.03
687.919	0.02
688.102	0.06
688.284	-0.01
688.467	0.02
688.65	-0
688.832	-0.03
689.015	-0.02
689.197	-0.06
689.38	0.1
689.563	0.1
689.745	-0.01
689.928	-0.05
690.11	-0
690.293	0.04
690.475	-0.06
690.658	-0.01
690.84	-0.04
691.023	-0.05
691.205	-0.01
691.388	-0.04
691.57	0.02
691.752	0.04
691.935	-0.06
692.117	-0.01
692.3	0.02
692.482	0
692.664	0
692.847	0.03
693.029	0.04
693.211	0.07
693.393	0.01
693.576	-0.04
693.758	0.01
693.94	-0.01
694.122	0
694.304	0.01
694.487	-0.04
694.669	0.05
694.851	-0.06
695.033	0.02
695.215	-0.07
695.397	-0.01
695.579	0
695.761	-0.06
695.943	-0.04
696.125	0.08
696.308	0.01
696.49	-0.1
696.671	0.14
696.853	-0.03
697.035	0.15
697.217	-0.01
697.399	0.03
697.581	-0.02
697.763	-0
697.945	-0.04
698.127	0.05
698.309	0.03
698.491	0.03
698.672	0.05
698.854	0.06
699.036	0.14
699.218	0.02
699.399	0.06
699.581	0.06
699.763	-0.01
699.945	-0.05
700.126	-0.03
700.308	-0.02
700.49	0.07
700.671	-0.11
700.853	-0.06
701.035	-0.04
701.216	-0.03
701.398	-0.08
701.579	-0.03
701.761	0.06
701.943	-0.03
702.124	-0.01
702.306	0.03
702.487	0.12
702.669	0.04
702.85	-0.03
703.031	-0.1
703.213	0.11
703.394	0.05
703.576	-0.06
703.757	0.1
703.938	0.03
704.12	0.16
704.301	0.04
704.483	-0.03
704.664	-0.01
704.845	0.1
705.026	0.03
705.208	0.02
705.389	0.01
705.57	0.02
705.751	0.01
705.933	-0.05
706.114	0.03
706.295	0.02
706.476	-0.04
706.657	0.04
706.838	0.06
707.02	0.07
707.201	-0.02
707.382	-0.03
707.563	0.09
707.744	-0.01
707.925	-0.05
708.106	-0.02
708.287	0.05
708.468	0.07
708.649	-0.05
708.83	-0
709.011	-0.03
709.192	0.04
709.373	-0.15
709.554	0
709.734	0.09
709.915	0.03
710.096	-0.02
710.277	-0.1
710.458	-0.05
710.639	0.04
710.819	-0.08
711	0.01
711.181	-0.01
711.362	0.05
711.542	0.01
711.723	-0.03
711.904	0.11
712.085	0.13
712.265	0.02
712.446	-0.06
712.627	-0.01
712.807	0.01
712.988	-0
713.168	-0.06
713.349	0.05
713.53	-0.07
713.71	-0.1
713.891	-0.06
714.071	0.06
714.252	0.01
714.432	-0.02
714.613	-0.03
714.793	0.07
714.974	0.13
715.154	0.04
715.334	0.02
715.515	0.11
715.695	-0.1
715.876	0.01
716.056	0
716.236	-0.04
716.417	0.03
716.597	-0.1
716.777	0.2
716.957	0.03
717.138	-0.04
717.318	-0.05
717.498	-0.09
717.678	-0.03
717.859	0.05
718.039	-0.17
718.219	-0.04
718.399	0.04
718.579	-0.02
718.759	-0.1
718.939	0.03
719.12	0.01
719.3	-0.07
719.48	-0.15
719.66	-0.08
719.84	0.15
720.02	0.01
720.2	-0.09
720.38	0.01
720.56	0.05
720.74	-0.08
720.92	0.08
721.1	0.05
721.279	0.1
721.459	-0.01
721.639	-0.09
721.819	0.01
721.999	-0.03
722.179	0.19
722.359	-0.08
722.538	-0
722.718	0.02
722.898	-0.1
723.078	-0.02
723.257	-0.02
723.437	-0.02
723.617	-0.01
723.797	-0.07
723.976	0.11
724.156	0.06
724.336	0.09
724.515	0.19
724.695	-0.1
724.874	0.03
725.054	0.09
725.234	-0.03
725.413	-0.06
725.593	0.01
725.772	0.07
725.952	0.02
726.131	-0
726.311	0.04
726.49	0.06
726.67	-0.08
726.849	-0.03
727.028	0.06
727.208	-0
727.387	0.07
727.567	-0.1
727.746	-0.01
727.925	-0.1
728.105	-0.13
728.284	0.04
728.463	0.06
728.643	-0
728.822	-0.08
729.001	-0.08
729.18	0.02
729.359	0.12
729.539	-0.05
729.718	0.04
729.897	0.1
730.076	0.01
730.255	-0.06
730.434	0.01
730.614	0.06
730.793	0.04
730.972	0.02
731.151	0.01
731.33	0.02
731.509	0.08
731.688	0.03
731.867	-0
732.046	-0.07
732.225	0.25
732.404	-0.14
732.583	-0.13
732.762	0.01
732.941	0.06
733.12	0.02
733.298	-0.07
733.477	0.12
733.656	-0.02
733.835	-0.08
734.014	0.08
734.193	-0.03
734.371	-0
734.55	0.07
734.729	-0.03
734.908	0.07
735.086	0.09
735.265	0.09
735.444	-0.14
735.623	-0.1
735.801	-0.08
735.98	-0.03
736.159	-0.08
736.337	0.06
736.516	0.08
736.694	-0.02
736.873	-0.09
737.052	0.18
737.23	0.19
737.409	-0.06
737.587	0.22
737.766	-0.22
737.944	0.07
738.123	0.06
738.301	0.08
738.479	-0.03
738.658	-0.03
738.836	-0.12
739.015	0.09
739.193	0.04
739.371	-0.11
739.55	-0.04
739.728	-0.22
739.906	0.17
740.085	0.17
740.263	0.09
740.441	-0.22
740.62	0.26
740.798	0.14
740.976	-0.12
741.154	-0.19
741.332	0.19
741.511	-0.03
741.689	-0.01
741.867	0.11
742.045	0.05
742.223	-0.05
742.401	-0.08
742.579	-0.02
742.757	0.11
742.935	-0.11
743.114	0.01
743.292	-0.01
743.47	0.07
743.648	0.03
743.826	0.06
744.004	0.16
744.181	0.16
744.359	-0.13
744.537	-0.05
744.715	0.01
744.893	-0.01
745.071	0.01
745.249	-0.03
745.427	-0.03
745.605	0.03
745.782	0.14
745.96	0.06
746.138	-0.04
746.316	-0.03
746.493	-0.01
746.671	0.03
746.849	-0.05
747.027	0.2
747.204	-0.12
747.382	0.05
747.56	-0.1
747.737	0
747.915	-0
748.093	0.08
748.27	-0.03
748.448	-0.04
748.625	-0.12
748.803	-0.05
748.98	-0.13
749.158	-0.05
749.335	0.02
749.513	-0.01
749.69	0.02
749.868	-0.01
750.045	-0.01
750.223	-0.11
750.4	-0.23
750.578	0.15
750.755	0.01
750.932	-0.12
751.11	0.07
751.287	-0.13
751.464	0.08
751.642	-0.14
751.819	0.02
751.996	0
752.173	-0.06
752.351	-0.1
752.528	0.05
752.705	0.04
752.882	-0.05
753.06	-0.03
753.237	0.07
753.414	0.19
753.591	0.17
753.768	0.02
753.945	0.02
754.122	-0.11
754.299	0.18
754.476	-0.07
754.654	0.07
754.831	0.13
755.008	0.12
755.185	-0
755.362	-0.04
755.539	0.01
755.716	-0.05
755.892	-0.01
756.069	-0.01
756.246	-0.03
756.423	0.07
756.6	0.15
756.777	-0.07
756.954	0.14
757.131	-0.05
757.307	-0.13
757.484	-0.04
757.661	0.04
757.838	0.02
758.015	-0.13
758.191	0.02
758.368	0.05
758.545	0.14
758.721	0.11
758.898	-0.1
759.075	0.13
759.251	0.21
759.428	0.09
759.605	-0.07
759.781	-0.01
759.958	0.11
760.134	0.02
760.311	-0.09
760.488	0.19
760.664	0.14
760.841	0.05
761.017	-0.15
761.194	0.17
761.37	0.09
761.547	0.18
761.723	-0.03
761.899	0.2
762.076	-0.07
762.252	-0.05
762.429	0.02
762.605	0.13
762.781	0.05
762.958	0.05
763.134	-0.08
763.31	-0.02
763.486	0.12
763.663	-0.2
763.839	0.1
764.015	-0.1
764.191	-0.03
764.368	-0.02
764.544	0.11
764.72	-0.07
764.896	-0
765.072	0.02
765.248	-0.02
765.425	-0.05
765.601	0.05
765.777	0.02
765.953	-0.19
766.129	-0.09
766.305	-0.09
766.481	0.19
766.657	0.09
766.833	0.26
767.009	-0.09
767.185	-0.04
767.361	-0.01
767.537	-0.06
767.713	0.07
767.889	-0.11
768.065	-0.01
768.24	-0.15
768.416	-0.02
768.592	-0
768.768	0
768.944	0.08
769.12	-0.07
769.295	-0.12
769.471	-0.03
769.647	-0.02
769.823	0.17
769.998	-0.15
770.174	-0.2
770.35	0.46
770.525	0.38
770.701	0.01
770.877	0.04
771.052	-0.12
771.228	0.07
771.403	0.12
771.579	-0.02
771.755	0.25
771.93	-0.09
772.106	-0.13
772.281	-0.15
772.457	-0.12
772.632	0.09
772.808	-0.22
772.983	-0.06
773.159	-0.17
773.334	0.07
773.509	-0.04
773.685	-0.16
773.86	0.38
774.036	0.13
774.211	-0.02
774.386	-0.02
774.562	-0.03
774.737	0.1
774.912	-0.11
775.087	0.06
775.263	0.06
775.438	0.12
775.613	-0.13
775.788	0.14
775.964	0.06
776.139	0.45
776.314	-0.1
776.489	0.11
776.664	0.05
776.839	-0.24
777.014	0.17
777.19	0.21
777.365	0.43
777.54	0.36
777.715	-0.09
777.89	0.09
778.065	-0.25
778.24	-0.09
778.415	0.23
778.59	-0.24
778.765	-0.05
778.94	0.11
779.115	0.04
779.289	0.06
779.464	-0.12
779.639	-0.01
779.814	-0.12
779.989	-0.21
780.164	0.13
780.339	-0
780.513	-0.01
780.688	-0.23
780.863	-0.08
781.038	0.2
781.212	-0.21
781.387	0.07
781.562	0.29
781.737	-0.08
781.911	0.13
782.086	-0.03
782.261	-0.05
782.435	0.31
782.61	-0.03
782.784	-0
782.959	0.14
783.134	-0.07
783.308	-0.17
783.483	0.04
783.657	0.27
783.832	0.22
784.006	-0.19
784.181	0.03
784.355	0.24
784.53	-0.26
784.704	-0.04
784.878	0.38
785.053	0.11
785.227	0.16
785.402	0.24
785.576	-0.18
785.75	-0.06
785.925	-0.14
786.099	0.07
786.273	0.04
786.448	0.08
786.622	0.18
786.796	-0.06
786.97	-0.28
787.145	0.38
787.319	-0.07
787.493	-0.17
787.667	-0.34
787.841	-0.14
788.015	0.28
788.19	-0.13
788.364	-0.07
788.538	0.24
788.712	0.22
788.886	-0.17
789.06	0.22
789.234	0.14
789.408	-0.15
789.582	-0.12
789.756	0.01
789.93	-0.26
790.104	-0.11
790.278	-0.02
790.452	-0.25
790.626	-0.01
790.8	-0.13
790.973	0.08
791.147	0.2
791.321	0.42
791.495	0.13
791.669	0.12
791.843	0.17
792.016	0
792.19	0.38
792.364	-0.23
792.538	0.53
792.711	0.3
792.885	-0.17
793.059	-0.16
793.233	-0.49
793.406	0.09
793.58	0.14
793.754	0.06
793.927	-0.02
794.101	0.19
794.274	0.2
794.448	0.36
794.622	-0.37
794.795	0.21
794.969	-0.12
795.142	0.3
795.316	-0.01
795.489	-0.22
795.663	0.18
795.836	0.07
796.009	-0.23
796.183	0.34
796.356	0.35
796.53	0.2
796.703	-0.06
796.876	0.52
797.05	-0.07
797.223	0.14
797.396	0.07
797.57	0.11
797.743	0.42
797.916	0.02
798.09	0.24
798.263	0.09
798.436	0.14
798.609	-0.19
798.782	-0.19
798.956	0.36
799.129	0.03
799.302	-0.02
799.475	0.14
799.648	0.14
799.821	-0.24
799.994	-0.2
800.167	-0.64
800.34	-0.06
800.514	0.08
800.687	-0.18
800.86	-0.29
801.033	0.27
801.206	0.12
801.379	-0.28
801.551	0.33
801.724	0.08
801.897	0.41
802.07	-0.13
802.243	-0.41
802.416	-0.06
802.589	-0.36
802.762	0.05
802.935	-0.29
803.107	0.61
803.28	0.11
803.453	0.25
803.626	-0.2
803.798	0.01
803.971	0.08
804.144	-0.21
804.317	0.04
804.489	0.46
804.662	-0.1
804.835	0.16
805.007	-0.23
805.18	0.39
805.353	0.01
805.525	-0.24
805.698	-0.14
805.87	0.41
806.043	0.18
806.215	-0.36
806.388	-0.06
806.56	0.17
806.733	0.36
806.905	-0.01
807.078	0
807.25	-0.08
807.423	0.21
807.595	0.34
807.768	0.16
807.94	0.81
808.112	0.19
808.285	-0.2
808.457	0.06
808.629	0.19
808.802	0.33
808.974	0.05
809.146	-0.02
809.318	-0.13
809.491	0.62
809.663	0.24
809.835	-0.04
810.007	0.31
810.18	0.23
810.352	-0.43
810.524	-0.2
810.696	0.33
810.868	0.33
811.04	-0.01
811.212	0.1
811.384	0.4
811.556	0.32
811.728	-0.09
811.901	0.84
812.073	-0.18
812.245	0.2
812.417	0.1
812.589	-0.37
812.76	-0.05
812.932	0.3
813.104	0.25
813.276	0.22
813.448	0.01
813.62	0.03
813.792	0.34
813.964	-0.11
814.136	0.43
814.307	-0.25
814.479	-0.3
814.651	-0.14
814.823	0.84
814.995	-0.18
815.166	0.13
815.338	-0.07
815.51	-0.51
815.681	0.78
815.853	0.43
816.025	0.02
816.196	0.23
816.368	-0.02
816.54	-0.18
816.711	-0.62
816.883	0.25
817.054	1.03
817.226	-0.91
817.398	0.15
817.569	-0.22
817.741	-0
817.912	-0.12
818.084	0.07
818.255	0.61
818.426	-0.16
818.598	-0.06
818.769	-0.06
818.941	0.38
819.112	0.74
819.283	0.31
819.455	-0.16
819.626	0.09
819.798	0.39
819.969	-0.1
820.14	0.05
820.311	-0.41
820.483	0.29
820.654	0.24
820.825	-0.03
820.996	0.13
821.168	-0.57
821.339	0.2
821.51	-0.53
821.681	-0.35
821.852	0.26
822.023	-0.09
822.195	0.06
822.366	0.64
822.537	-0.25
822.708	0.01
822.879	-0.49
823.05	0.54
823.221	-0.28
823.392	-0.08
823.563	-0.02
823.734	-0.22
823.905	0.25
824.076	-0.53
824.247	-0.61
824.418	0.23
824.589	0.46
824.759	-0.46
824.93	-0.2
825.101	-0.97
825.272	0.97
825.443	0.43
825.614	0.32
825.784	-0.52
825.955	0.87
826.126	0.83
826.297	-0.04
826.467	1.16
826.638	1.36
826.809	-0.67
826.98	-0.11
827.15	0.33
827.321	-0.12
827.492	1.04
827.662	-0.06
827.833	1.01
828.003	0.77
828.174	-0.48
828.345	-0.81
828.515	0.58
828.686	-0.16
828.856	-0.36
829.027	0.2
829.197	-0.19
829.368	0.04
829.538	0.02
829.709	-0.48
829.879	-0.02
830.049	0.54
830.22	-0.29
830.39	0.01
830.56	0.17
830.731	-0.32
830.901	0.3
831.072	-0.18
831.242	0.46
831.412	-0.07
831.582	-0.38
831.753	-0.96
831.923	0.72
832.093	0.28
832.263	0.51
832.434	-0.8
832.604	-0.11
832.774	0.67
832.944	0.36
833.114	-0.25
833.284	0.59
833.454	-1.05
833.624	-0.32
833.795	0.07
833.965	0.42
834.135	0.66
834.305	-1.03
834.475	-0.49
834.645	0.18
834.815	-0.07
834.985	-0.5
835.155	-0.58
835.325	0.47
835.494	1.07
835.664	-0.32
835.834	-0.93
836.004	-0.18
836.174	0.7
836.344	-0.27
836.514	-0.48
836.684	-0.54
836.853	-0.03
837.023	0.3
837.193	-0.44
837.363	0.99
837.532	0.37
837.702	-0.16
837.872	-0.55
838.041	0.67
838.211	1.94
838.381	-0.37
838.55	-0.09
838.72	2.52
838.89	1.05
839.059	-0.3
839.229	-0.78
839.398	2.11
839.568	0.4
839.738	0.01
839.907	1.56
840.077	0.02
840.246	-0.6
840.416	-1.1
840.585	-0.4
840.755	0.95
840.924	1.35
841.093	-1
841.263	-0.29
841.432	-0.2
841.602	0.13
841.771	-0.41
841.94	-0.73
842.11	2.05
842.279	1.72
842.448	-0.47
842.617	0.05
842.787	1.37
842.956	-1.14
843.125	-0.19
843.294	-0.19
843.464	1.14
843.633	-0.09
843.802	-0.73
843.971	0.53
844.14	1.01
844.309	0.36
844.479	-0.78
844.648	-1.48
844.817	-0.55
844.986	0.13
845.155	0.07
845.324	-0.08
845.493	0.31
845.662	-0.45
845.831	0.9
846	0.04
846.169	-0.33
846.338	0.89
846.507	1.05
846.676	-0.31
846.844	0.36
847.013	0.45
847.182	0.61
847.351	-0.14
847.52	-0.54
847.689	0.81
847.858	-0.73
848.026	0.22
848.195	-0.26
848.364	0.14
848.533	-0.8
848.701	-1.15
848.87	0.53
849.039	1.64
849.207	0.86
849.376	0.74
849.545	1.23
849.713	-0.37
849.882	0.66
850.051	0.56
850.219	-0.05
850.388	0.92
850.556	-1.05
850.725	-0.37
850.893	0.31
851.062	-0.2
851.23	0.96
851.399	-1.14
851.567	-0.35
851.736	-0.4
851.904	-0.47
852.073	0.09
852.241	0.75
852.41	-0.71
852.578	-0.73
852.746	-0.4
852.915	0.81
853.083	-0.05
853.251	-0.7
853.42	-1.79
853.588	0.14
853.756	1.44
853.924	0.19
854.093	0.18
854.261	-0.15
854.429	-0.44
854.597	0.1
854.765	-0.78
854.934	1.68
855.102	1.22
855.27	-0.51
855.438	0.48
855.606	2.98
855.774	1.25
855.942	-1.23
856.11	-1.98
856.278	1.14
856.446	1.54
856.614	-0.11
856.782	-0.29
856.95	0.67
857.118	0.79
857.286	0.76
857.454	-0.76
857.622	1.25
857.79	0.57
857.958	-0.54
858.126	-0.64
858.294	-2.5
858.462	0.17
858.629	-1.21
858.797	-0.3
858.965	1.11
859.133	0.46
859.301	-0.02
859.468	-0.23
859.636	-0.43
859.804	2.15
859.971	0.72
860.139	-1.11
860.307	1.11
860.474	0.16
860.642	-0.35
860.81	-1
860.977	0.56
861.145	1.16
861.313	-0.92
861.48	-0.44
861.648	1.52
861.815	0.3
861.983	-0.86
862.15	0.15
862.318	-0.13
862.485	0.81
862.653	-0.12
862.82	-0.14
862.988	2.14
863.155	0.15
863.322	-0.29
863.49	-0.74
863.657	-1.43
863.824	2.53
863.992	1.05
864.159	0.43
864.326	2.59
864.494	-0.73
864.661	2.31
864.828	-2.12
864.996	2.91
865.163	2.1
865.33	-0.81
865.497	-1.07
865.664	-0.6
865.832	-0.64
865.999	-0.31
866.166	-1.76
866.333	0.87
866.5	-1.62
866.667	-0.87
866.834	-0.13
867.001	1.88
867.168	-2.39
867.335	0.02
867.502	-1.97
867.669	0.12
867.836	2
868.003	-0.03
868.17	0.98
868.337	-1.36
868.504	1.34
868.671	-2.39
868.838	-1.05
869.005	1.19
869.172	0.97
869.339	-0.12
869.505	0.92
869.672	0.37
869.839	1.67
870.006	-0.33
870.173	-2.21
870.339	-0.16
870.506	2.56
870.673	-0.9
870.84	1.04
871.006	-0.59
871.173	0.73
871.34	0.42
871.506	0.08
871.673	1.01
871.839	-2.24
872.006	-0.24
872.173	-1.54
872.339	-1.27
872.506	2.1
872.672	0.48
872.839	-3.51
873.005	0.9
873.172	3.87
873.338	0.7
873.505	-0.45
873.671	0.3
873.838	1.39
874.004	-1.27
874.171	-1.16
874.337	1.61
874.503	1.91
874.67	-0.24
874.836	-1.07
875.002	2.72
875.169	4.01
875.335	1.27
875.501	-0.52
875.668	-3.08
875.834	-0.19
876	0.91
876.166	0.73
876.332	0.04
876.499	2.87
876.665	-2.1
876.831	-0.25
876.997	2.78
877.163	0.96
877.329	-1.7
877.495	1.15
877.662	0.83
877.828	0.86
877.994	0.13
878.16	-3.34
878.326	-1.38
878.492	-1.09
878.658	-2.05
878.824	0.52
878.99	1.79
879.156	0.56
879.322	2.6
879.487	0.43
879.653	0.9
879.819	-1.51
879.985	0.34
880.151	0.13
880.317	1.57
880.483	0.39
880.648	0.79
880.814	-0.58
880.98	0.79
881.146	-2.66
881.312	-1.2
881.477	-0.92
881.643	0.32
881.809	2.62
881.974	1
882.14	-2.76
882.306	1.75
882.471	4.6
882.637	-0.71
882.803	0.68
882.968	2.66
883.134	1.98
883.299	1.37
883.465	-0.43
883.63	2.35
883.796	0.9
883.961	0.72
884.127	1.23
884.292	-3.9
884.458	-0.55
884.623	-0.55
