Data from Apollo_Calib_20240827__AbsoluteIrradiance__587__08-56-01-822.txt Node

Date: Wed Aug 28 08:56:01 BST 2024
User: biology
Spectrometer: FLMT08252
Trigger mode: 0
Integration Time (sec): 5.000000E-1
Scans to average: 5
Electric dark correction enabled: true
Nonlinearity correction enabled: false
Boxcar width: 0
XAxis mode: Wavelengths
Number of Pixels in Spectrum: 3648
>>>>>Begin Spectral Data<<<<<
179.588	-0
179.809	-0
180.03	-0
180.251	-0
180.473	-0
180.694	0
180.915	0
181.136	-0
181.357	0
181.578	0
181.799	-0
182.02	-0
182.241	0
182.462	-0
182.683	0
182.904	0
183.125	0
183.346	0
183.567	0
183.788	0
184.009	-0
184.23	0
184.451	0
184.672	-0
184.892	0
185.113	0
185.334	0
185.555	0
185.776	0
185.996	0
186.217	0
186.438	0
186.659	-0
186.879	0
187.1	0
187.321	-0
187.541	0
187.762	0
187.983	0
188.203	0
188.424	0
188.644	-0
188.865	0
189.086	0
189.306	0
189.527	0
189.747	0
189.968	0
190.188	0
190.409	0
190.629	0
190.849	0
191.07	0
191.29	0
191.511	0
191.731	0
191.951	0
192.172	0
192.392	0
192.612	0
192.833	0
193.053	0
193.273	0
193.493	0
193.714	0
193.934	0
194.154	0
194.374	0
194.594	0
194.815	0
195.035	0
195.255	0
195.475	-0
195.695	0
195.915	0
196.135	0
196.355	0
196.575	0
196.795	0
197.015	-0
197.235	0
197.455	0
197.675	0
197.895	0
198.115	0
198.335	0
198.555	0
198.775	0
198.995	0
199.214	0
199.434	0
199.654	0
199.874	0
200.094	1.65
200.313	0.08
200.533	0.21
200.753	0.02
200.973	1.47
201.192	0.61
201.412	-0.43
201.632	0.12
201.851	1.25
202.071	0.25
202.291	0.41
202.51	-0.02
202.73	0.96
202.95	0.2
203.169	0.48
203.389	0.5
203.608	0.77
203.828	0.25
204.047	0.06
204.267	0.73
204.486	0.33
204.706	0.77
204.925	0.45
205.145	0.43
205.364	0.93
205.583	1.3
205.803	0.08
206.022	0.04
206.242	0.44
206.461	0.84
206.68	0.08
206.9	0.61
207.119	0.92
207.338	0.66
207.557	0.22
207.777	0.18
207.996	0.26
208.215	0.67
208.434	0.27
208.654	-0.1
208.873	0.59
209.092	0.84
209.311	0.3
209.53	0.29
209.749	0.1
209.968	0.14
210.187	0.18
210.407	0.01
210.626	0.26
210.845	0.54
211.064	0.34
211.283	0.12
211.502	0.36
211.721	0.42
211.94	0.2
212.159	0.62
212.377	0.56
212.596	0.59
212.815	0.33
213.034	0.37
213.253	0.38
213.472	0.35
213.691	0.27
213.91	-0.01
214.128	0.11
214.347	0.49
214.566	-0.02
214.785	-0.03
215.003	0.24
215.222	0.19
215.441	0.12
215.66	0.04
215.878	0.15
216.097	0.51
216.316	-0.05
216.534	0.18
216.753	0.32
216.972	0.22
217.19	0.22
217.409	0.04
217.627	0.19
217.846	0.13
218.064	0.12
218.283	0.17
218.501	0.61
218.72	0.43
218.938	0.05
219.157	0.02
219.375	0.28
219.594	0.39
219.812	0.14
220.031	0.08
220.249	0.53
220.467	0.41
220.686	0.14
220.904	0.09
221.122	0.13
221.341	0.43
221.559	0.23
221.777	0.09
221.995	0.39
222.214	0.29
222.432	0.1
222.65	0.3
222.868	0.22
223.086	0.2
223.305	0.3
223.523	0.16
223.741	0.52
223.959	0.03
224.177	-0.05
224.395	0.18
224.613	0.22
224.831	0.19
225.049	-0.02
225.267	0.02
225.485	0.3
225.703	0.03
225.921	0.08
226.139	0.13
226.357	0.28
226.575	0.36
226.793	0.15
227.011	0.68
227.229	0.21
227.447	0.27
227.665	0.12
227.883	-0.09
228.1	0.23
228.318	0.17
228.536	-0.09
228.754	0
228.972	0.17
229.189	0.23
229.407	0.11
229.625	0.13
229.843	0.49
230.06	0.37
230.278	0.06
230.496	0.21
230.713	0.15
230.931	0.19
231.149	0.1
231.366	-0.09
231.584	0.15
231.801	0.4
232.019	0.2
232.236	0.08
232.454	-0.02
232.671	0.1
232.889	0.06
233.106	0.01
233.324	0.15
233.541	0.09
233.759	0.2
233.976	-0.02
234.194	0.13
234.411	0.04
234.628	0.01
234.846	0.08
235.063	0.13
235.28	0.04
235.498	0.17
235.715	0.03
235.932	0.22
236.149	0.08
236.367	0.02
236.584	0.17
236.801	0.19
237.018	0.22
237.236	0.22
237.453	-0.18
237.67	0.28
237.887	0.01
238.104	0.07
238.321	0
238.538	0.12
238.755	0.26
238.973	0
239.19	0.11
239.407	0.08
239.624	0.16
239.841	0.1
240.058	0.06
240.275	0.22
240.492	0.04
240.709	0.13
240.925	0.08
241.142	0.12
241.359	-0
241.576	0
241.793	0.01
242.01	0.14
242.227	0.13
242.444	0.2
242.66	0.23
242.877	0.08
243.094	0.04
243.311	0.1
243.527	0.05
243.744	0.12
243.961	0.1
244.178	0.02
244.394	0.12
244.611	0.27
244.828	0.31
245.044	0.09
245.261	0.05
245.477	0.15
245.694	0.17
245.911	0.01
246.127	0.07
246.344	0.26
246.56	0.21
246.777	0.07
246.993	0.09
247.21	0.25
247.426	0.1
247.643	0.05
247.859	-0.08
248.076	0.06
248.292	0.3
248.508	0.08
248.725	0.13
248.941	0.14
249.157	0.26
249.374	-0.01
249.59	0.11
249.806	0.09
250.023	0.14
250.239	0.08
250.455	0.05
250.671	0.12
250.888	0.22
251.104	0.22
251.32	0.1
251.536	0.11
251.752	0.1
251.969	0.11
252.185	0.13
252.401	0.18
252.617	0.17
252.833	-0
253.049	0.1
253.265	0.1
253.481	0.14
253.697	0.03
253.913	0.04
254.129	0.15
254.345	0.14
254.561	0.09
254.777	-0.01
254.993	0.19
255.209	0.04
255.425	0.04
255.641	0.02
255.857	0.18
256.073	0.11
256.288	0.01
256.504	0.06
256.72	0.18
256.936	0.21
257.152	0.06
257.367	0
257.583	0.15
257.799	0.15
258.015	-0.01
258.23	0.07
258.446	0.26
258.662	0.11
258.877	-0.03
259.093	0.03
259.309	0.11
259.524	0.07
259.74	0.01
259.955	-0.02
260.171	0.16
260.387	0.1
260.602	0.19
260.818	0.08
261.033	0.02
261.249	0.01
261.464	0.07
261.68	0.02
261.895	0.13
262.11	0.13
262.326	0.05
262.541	0.07
262.757	0.1
262.972	0.16
263.187	0.14
263.403	0.07
263.618	0.19
263.833	0.09
264.049	0.02
264.264	0.08
264.479	0.21
264.694	0.2
264.91	0
265.125	0.04
265.34	0.07
265.555	0.18
265.77	0.07
265.986	0.03
266.201	0.14
266.416	0.17
266.631	-0
266.846	0.04
267.061	0.14
267.276	0.12
267.491	-0.03
267.706	0.15
267.921	0.14
268.136	0.18
268.351	0.11
268.566	-0.01
268.781	0.16
268.996	0.14
269.211	0.07
269.426	0.08
269.641	0.03
269.856	0.16
270.071	0
270.285	0.02
270.5	0.11
270.715	0.17
270.93	0.05
271.145	0.05
271.359	0.12
271.574	0.01
271.789	0.06
272.004	0.04
272.218	0.04
272.433	0.17
272.648	0.01
272.862	0.12
273.077	0.09
273.292	0.08
273.506	-0
273.721	0.07
273.936	0.13
274.15	0.16
274.365	0.1
274.579	0.1
274.794	0.08
275.008	0.19
275.223	-0.05
275.437	0.08
275.652	0.17
275.866	0.12
276.081	0.07
276.295	0.14
276.509	0.05
276.724	0.05
276.938	0.09
277.153	0.08
277.367	0.14
277.581	0.03
277.796	0.08
278.01	-0
278.224	0.12
278.438	0.17
278.653	-0.05
278.867	0.04
279.081	-0.12
279.295	0.07
279.51	0.09
279.724	0.03
279.938	0.08
280.152	0.13
280.366	0.03
280.58	0.07
280.794	0.17
281.008	0.1
281.222	0.15
281.437	0.16
281.651	0.12
281.865	0.13
282.079	0.04
282.293	-0.06
282.507	-0.02
282.721	0.07
282.935	0.06
283.148	-0.01
283.362	0.06
283.576	0.01
283.79	0.06
284.004	0.03
284.218	0.13
284.432	0.05
284.646	0.07
284.859	0.08
285.073	0.04
285.287	0.05
285.501	0.09
285.714	0.02
285.928	0.09
286.142	0.03
286.356	0.02
286.569	0.07
286.783	0.16
286.997	0.11
287.21	0.09
287.424	0.07
287.637	0.06
287.851	0.06
288.065	0.1
288.278	0.05
288.492	0.09
288.705	0.03
288.919	0.1
289.132	0.02
289.346	0.09
289.559	0.02
289.773	0.03
289.986	0.04
290.2	0.07
290.413	0.15
290.626	-0
290.84	0.01
291.053	0.05
291.267	0.14
291.48	0.03
291.693	0.08
291.906	0.03
292.12	0.03
292.333	-0
292.546	0.01
292.76	0.13
292.973	0.05
293.186	0.11
293.399	0
293.612	0.08
293.826	0.07
294.039	0.03
294.252	0.06
294.465	0.1
294.678	0.12
294.891	0.09
295.104	0.05
295.317	0.05
295.53	0.07
295.743	0.06
295.956	-0
296.169	0.13
296.382	0.12
296.595	0.05
296.808	0.01
297.021	0.08
297.234	0.08
297.447	0.06
297.66	0.07
297.873	0.12
298.086	0.12
298.299	0.03
298.511	-0.03
298.724	0.05
298.937	-0.02
299.15	0.04
299.363	0.02
299.575	0.06
299.788	0.05
300.001	0.06
300.213	0.05
300.426	0.02
300.639	0.03
300.852	0.05
301.064	0.07
301.277	0.12
301.489	0.09
301.702	0.08
301.915	0.05
302.127	0.06
302.34	0.06
302.552	0.08
302.765	0.01
302.977	0.08
303.19	0.06
303.402	0.06
303.615	0.06
303.827	0.01
304.04	0.03
304.252	0.1
304.464	0.04
304.677	0.15
304.889	0.08
305.102	0.01
305.314	0.06
305.526	0.06
305.739	0.1
305.951	0.07
306.163	0.01
306.375	0.1
306.588	0.01
306.8	-0
307.012	0.01
307.224	0.09
307.436	0.09
307.649	-0.03
307.861	0.05
308.073	0.11
308.285	0.04
308.497	0.01
308.709	0.01
308.921	0.1
309.133	0.11
309.346	0.04
309.558	0.05
309.77	0.11
309.982	0.07
310.194	0.12
310.406	-0
310.617	0.16
310.829	0.06
311.041	0.11
311.253	0.03
311.465	0.06
311.677	0.05
311.889	0.06
312.101	0.02
312.313	0.08
312.524	0.09
312.736	-0
312.948	0.05
313.16	0.12
313.372	0.1
313.583	0.12
313.795	0.07
314.007	0.04
314.218	0.11
314.43	0.04
314.642	0.06
314.853	0.02
315.065	0.09
315.277	0.04
315.488	0.06
315.7	0.08
315.912	0.07
316.123	0.04
316.335	0.07
316.546	0.13
316.758	0.04
316.969	0.01
317.181	0.09
317.392	0.06
317.604	0.14
317.815	-0.01
318.026	0.06
318.238	0.04
318.449	0.08
318.661	-0.03
318.872	-0
319.083	-0.01
319.295	0.08
319.506	0
319.717	0.09
319.929	0.12
320.14	0.05
320.351	0.09
320.562	0.03
320.774	0.08
320.985	0.1
321.196	-0.04
321.407	0
321.618	0.06
321.829	0.08
322.041	0.11
322.252	0.04
322.463	0.09
322.674	0.1
322.885	0.04
323.096	0.02
323.307	0.02
323.518	0.13
323.729	0.03
323.94	0.07
324.151	0.02
324.362	0.03
324.573	0.07
324.784	0.04
324.995	0.07
325.206	0.05
325.417	0.05
325.628	0.05
325.838	0.05
326.049	0.06
326.26	0.1
326.471	0.07
326.682	0.09
326.892	0.05
327.103	0.02
327.314	0.03
327.525	0.09
327.735	0.05
327.946	0.06
328.157	0.07
328.368	0.08
328.578	0.08
328.789	0.05
328.999	0.09
329.21	0.05
329.421	0.09
329.631	0.03
329.842	0.04
330.052	0.07
330.263	0.1
330.473	0.12
330.684	0.03
330.894	0.03
331.105	0.08
331.315	0.05
331.526	-0.03
331.736	0.1
331.947	0.09
332.157	0.05
332.367	0.01
332.578	0.11
332.788	0.11
332.999	0.11
333.209	0.05
333.419	0.04
333.629	0.05
333.84	0.08
334.05	0.08
334.26	0.08
334.47	0.06
334.681	0.08
334.891	0.09
335.101	0.06
335.311	0.14
335.521	0.05
335.732	0.03
335.942	0.08
336.152	0.08
336.362	0.06
336.572	0.08
336.782	0.13
336.992	0.06
337.202	0
337.412	0.02
337.622	0.09
337.832	0.07
338.042	0.06
338.252	0.03
338.462	0.06
338.672	0.08
338.882	0.07
339.092	0.01
339.302	0.13
339.511	0.05
339.721	0.04
339.931	-0.01
340.141	0.1
340.351	0.06
340.561	0.1
340.77	0.05
340.98	0.04
341.19	0.1
341.4	0
341.609	0.01
341.819	0.07
342.029	-0.02
342.238	0.09
342.448	0.05
342.658	0.1
342.867	0.1
343.077	0.06
343.286	0.07
343.496	0.04
343.706	0.11
343.915	-0.03
344.125	0.04
344.334	0.06
344.544	-0.01
344.753	0.01
344.963	0.05
345.172	0.07
345.381	0.01
345.591	0.01
345.8	0.08
346.01	0.1
346.219	0.11
346.428	-0.05
346.638	0.06
346.847	0.04
347.056	0.11
347.266	-0.01
347.475	0.05
347.684	0.09
347.893	0.03
348.103	0.07
348.312	0.02
348.521	0.04
348.73	0.07
348.94	0.06
349.149	0.06
349.358	0
349.567	0.02
349.776	0.03
349.985	0.02
350.194	0.02
350.403	0.1
350.612	0.02
350.821	0.05
351.03	0.06
351.239	0.02
351.448	0.06
351.657	0.03
351.866	0.07
352.075	0.05
352.284	0.07
352.493	-0.01
352.702	0.07
352.911	0.05
353.12	0.05
353.329	0.04
353.538	0.07
353.746	0.07
353.955	0.02
354.164	0.09
354.373	0.04
354.582	0.09
354.79	0.04
354.999	0.07
355.208	0.01
355.416	0.08
355.625	-0
355.834	0.04
356.042	0.05
356.251	0
356.46	0.03
356.668	0.04
356.877	0.12
357.085	0.1
357.294	-0.05
357.503	0.05
357.711	0.05
357.92	0.13
358.128	0.08
358.337	0.04
358.545	0.04
358.754	-0.01
358.962	0.1
359.17	0.01
359.379	0.06
359.587	0.07
359.796	0.02
360.004	0.1
360.212	0.07
360.421	0.09
360.629	0
360.837	0.05
361.046	0.09
361.254	0.12
361.462	0.05
361.67	0.04
361.879	0.05
362.087	0.11
362.295	0.07
362.503	0.04
362.711	0.03
362.92	0.02
363.128	0.02
363.336	0.01
363.544	0.02
363.752	0.01
363.96	0
364.168	0.02
364.376	0.02
364.584	0.05
364.792	0.11
365	0.09
365.208	0.06
365.416	0.04
365.624	0.11
365.832	0.04
366.04	0.1
366.248	0.03
366.456	0.1
366.664	0.06
366.872	0.05
367.079	0.01
367.287	0.05
367.495	0.05
367.703	-0
367.911	0.08
368.118	0.03
368.326	0.03
368.534	0.03
368.742	0.12
368.949	0.02
369.157	0.05
369.365	0.09
369.572	0.05
369.78	0.01
369.988	0.09
370.195	0.04
370.403	0.07
370.61	0.02
370.818	0.05
371.026	0.1
371.233	0.01
371.441	0.06
371.648	-0.03
371.856	0.07
372.063	0.06
372.271	0.02
372.478	0.01
372.685	-0
372.893	0.05
373.1	0.04
373.308	0.07
373.515	0.07
373.722	0.08
373.93	0.01
374.137	0.08
374.344	0.14
374.552	0.11
374.759	0.09
374.966	0.03
375.173	0.04
375.381	0.06
375.588	0.01
375.795	-0
376.002	0.03
376.209	0.02
376.417	0.03
376.624	0.01
376.831	0.05
377.038	0.02
377.245	-0.04
377.452	0.09
377.659	0.05
377.866	0.03
378.073	0.04
378.28	0.03
378.487	0.03
378.694	0.08
378.901	0.02
379.108	0.05
379.315	0.09
379.522	0.1
379.729	0.05
379.936	0.06
380.143	0.08
380.35	0.09
380.557	0.04
380.763	0.07
380.97	0.02
381.177	0.05
381.384	0.06
381.591	0.06
381.797	0.02
382.004	0.09
382.211	0.05
382.418	0.03
382.624	0.1
382.831	0.1
383.038	0.03
383.244	0.01
383.451	0.04
383.658	0.06
383.864	0.04
384.071	0.03
384.277	0.12
384.484	0.02
384.69	0.11
384.897	-0
385.103	0.07
385.31	-0.01
385.516	0.04
385.723	-0.05
385.929	0.07
386.136	0.03
386.342	0.08
386.549	0.01
386.755	0.06
386.961	0.05
387.168	0.03
387.374	0.05
387.58	0.05
387.787	0.02
387.993	0.07
388.199	0.05
388.406	0.05
388.612	-0
388.818	0.04
389.024	0.01
389.231	0.03
389.437	0.08
389.643	0.08
389.849	0.02
390.055	0.05
390.261	0.06
390.467	0.07
390.674	-0.01
390.88	0.01
391.086	0.05
391.292	0.05
391.498	0.06
391.704	0.1
391.91	0.06
392.116	0.04
392.322	-0
392.528	0.1
392.734	0.04
392.94	0.04
393.146	0.06
393.352	0.03
393.557	0.06
393.763	0.05
393.969	0.06
394.175	0
394.381	0.08
394.587	0.02
394.792	0.03
394.998	0.1
395.204	0.08
395.41	0.02
395.615	0.07
395.821	0.04
396.027	0.1
396.233	0.05
396.438	0.08
396.644	0.15
396.85	0.05
397.055	0.01
397.261	0.05
397.466	0.14
397.672	0.04
397.878	0.11
398.083	0.06
398.289	0.04
398.494	0.1
398.7	0.11
398.905	-0.05
399.111	0.08
399.316	0
399.522	0.05
399.727	0.04
399.932	0.03
400.138	0.02
400.343	0.07
400.549	0.07
400.754	0.04
400.959	0.07
401.165	0.05
401.37	0.08
401.575	0.11
401.78	0.05
401.986	0.01
402.191	0.04
402.396	0.04
402.601	0.09
402.807	0.04
403.012	0.03
403.217	0.12
403.422	0.04
403.627	0.03
403.832	-0
404.037	0.08
404.243	0.04
404.448	0.05
404.653	0.03
404.858	0.06
405.063	0.08
405.268	0.03
405.473	0.01
405.678	0.05
405.883	0.18
406.088	0.08
406.293	0.01
406.498	0.01
406.703	0.05
406.907	0.03
407.112	-0.02
407.317	0.06
407.522	0.05
407.727	0.03
407.932	0.08
408.136	0.1
408.341	0.01
408.546	0.03
408.751	0.07
408.956	0.01
409.16	0.07
409.365	0.07
409.57	0.05
409.774	0.04
409.979	0.09
410.184	0.04
410.388	0.01
410.593	0.12
410.798	0.07
411.002	0.05
411.207	0.02
411.411	0.05
411.616	-0.01
411.82	0.04
412.025	0.03
412.229	0.01
412.434	0.11
412.638	0.05
412.843	0.03
413.047	0.04
413.252	-0.01
413.456	0.03
413.66	0.03
413.865	0.03
414.069	0.11
414.273	0.01
414.478	0.05
414.682	0.02
414.886	0
415.091	0
415.295	-0
415.499	0.09
415.703	0.02
415.908	0.06
416.112	-0.02
416.316	0.11
416.52	0.03
416.724	-0.01
416.929	0.01
417.133	0.12
417.337	0.01
417.541	0.02
417.745	0.03
417.949	0.05
418.153	0.1
418.357	0
418.561	0.08
418.765	0.02
418.969	0.15
419.173	0.06
419.377	-0
419.581	0.09
419.785	0.05
419.989	0.01
420.193	0.04
420.397	0.07
420.601	0.09
420.804	0.06
421.008	0.06
421.212	0.08
421.416	0.08
421.62	-0.02
421.823	0.06
422.027	0.14
422.231	0.02
422.435	0.01
422.638	0.1
422.842	0.08
423.046	-0.01
423.249	0.08
423.453	0.06
423.657	0.07
423.86	0.05
424.064	0.02
424.268	0.13
424.471	0.07
424.675	0.13
424.878	0.12
425.082	0.07
425.285	0.11
425.489	0.09
425.692	0.02
425.896	-0.02
426.099	0.06
426.303	-0
426.506	-0.02
426.71	0.08
426.913	0.07
427.116	0.09
427.32	0.09
427.523	0.05
427.726	0.06
427.93	0.01
428.133	0.05
428.336	0.01
428.54	0.01
428.743	0.04
428.946	0.09
429.149	0.01
429.353	0.11
429.556	0.07
429.759	0.02
429.962	0.06
430.165	0.06
430.368	0.07
430.571	0.05
430.775	0.09
430.978	0.04
431.181	0.09
431.384	0.06
431.587	0.04
431.79	0.04
431.993	0.06
432.196	0.07
432.399	0.03
432.602	0.14
432.805	0.04
433.008	0.04
433.211	-0
433.414	0.08
433.616	0.09
433.819	0.01
434.022	-0.05
434.225	0.11
434.428	0.08
434.631	0.13
434.833	0.04
435.036	0.04
435.239	0.12
435.442	0.05
435.645	0.03
435.847	0.03
436.05	0.08
436.253	-0
436.455	-0.02
436.658	0.02
436.861	0.12
437.063	0.07
437.266	0.02
437.468	0.07
437.671	0.15
437.874	0.04
438.076	-0.06
438.279	-0.03
438.481	0.07
438.684	0
438.886	0.06
439.089	-0.03
439.291	0.1
439.494	0.05
439.696	0.02
439.899	0.03
440.101	0.07
440.303	-0.02
440.506	0.09
440.708	0.03
440.91	0.05
441.113	0
441.315	0.09
441.517	0.01
441.72	0.09
441.922	-0.01
442.124	-0
442.326	0.08
442.529	0.11
442.731	0.01
442.933	0.16
443.135	0
443.337	0.02
443.539	0.05
443.742	0.02
443.944	0.06
444.146	0.01
444.348	0.03
444.55	0.02
444.752	0.04
444.954	0.01
445.156	0.06
445.358	0.05
445.56	0.06
445.762	0.05
445.964	0.06
446.166	0.05
446.368	0.06
446.57	0.08
446.772	0.07
446.974	0.02
447.175	0.09
447.377	0.04
447.579	0.01
447.781	-0.04
447.983	0.15
448.184	0.07
448.386	0.03
448.588	0.03
448.79	0.05
448.991	0.01
449.193	0.08
449.395	0.04
449.597	0.1
449.798	0.03
450	0.04
450.202	0.02
450.403	0.07
450.605	0.12
450.806	0.05
451.008	-0.02
451.21	0.07
451.411	0.03
451.613	0.06
451.814	0.08
452.016	0.07
452.217	0.09
452.419	0.05
452.62	0.05
452.821	0.07
453.023	0.1
453.224	0.11
453.426	0.01
453.627	0.04
453.828	0.11
454.03	0.07
454.231	0.03
454.432	0.01
454.634	0.15
454.835	0.02
455.036	-0
455.238	0.09
455.439	0.14
455.64	0.03
455.841	0.03
456.042	0.16
456.244	0.1
456.445	-0.01
456.646	-0.03
456.847	0.02
457.048	0.1
457.249	0.06
457.45	0.21
457.651	-0
457.852	0.1
458.054	0.07
458.255	0.03
458.456	0.09
458.657	0.05
458.858	0.03
459.058	0.05
459.259	0.09
459.46	0.03
459.661	0.06
459.862	0.14
460.063	-0
460.264	0.1
460.465	0
460.666	0.11
460.866	0.07
461.067	0.05
461.268	0.02
461.469	0.03
461.67	0.04
461.87	0
462.071	0.04
462.272	0.04
462.473	0.06
462.673	0.09
462.874	0.04
463.075	0.08
463.275	0.02
463.476	0.06
463.676	0.08
463.877	0.08
464.078	-0.01
464.278	0.12
464.479	0.03
464.679	0.04
464.88	0.03
465.08	0.15
465.281	0.03
465.481	0.02
465.682	0.04
465.882	0.03
466.083	0.09
466.283	0.08
466.483	0.04
466.684	0.01
466.884	0.03
467.085	0.02
467.285	0.12
467.485	-0
467.686	0.04
467.886	-0.01
468.086	0.03
468.286	0.04
468.487	0.07
468.687	0.01
468.887	0.01
469.087	0.12
469.287	0.04
469.488	-0.01
469.688	0.07
469.888	0.12
470.088	0.08
470.288	0.08
470.488	0.08
470.688	0.02
470.888	0.03
471.088	-0.01
471.288	0.03
471.488	0.04
471.688	0.05
471.888	0.02
472.088	0.08
472.288	0.06
472.488	0.01
472.688	-0.01
472.888	0.02
473.088	0.08
473.288	0.05
473.488	0.03
473.688	0.11
473.887	0.02
474.087	0.02
474.287	0.07
474.487	0.02
474.687	0.08
474.886	0.02
475.086	0.03
475.286	0.03
475.486	0.04
475.685	0.04
475.885	0.05
476.085	0.07
476.284	0.06
476.484	0.04
476.684	0.09
476.883	0.08
477.083	0.07
477.282	0.02
477.482	0.08
477.681	0.1
477.881	0.04
478.08	-0
478.28	0.01
478.479	0.06
478.679	0.12
478.878	0.04
479.078	-0
479.277	0.07
479.477	0.03
479.676	0.04
479.875	0.01
480.075	-0.02
480.274	0.06
480.473	0.04
480.673	0.03
480.872	0.07
481.071	0.04
481.271	0.05
481.47	-0.01
481.669	0.02
481.868	-0
482.067	0.03
482.267	0.02
482.466	0.01
482.665	-0.02
482.864	-0
483.063	-0.01
483.262	0.05
483.461	0.07
483.661	0.04
483.86	0.01
484.059	0.04
484.258	0.03
484.457	0.03
484.656	0.03
484.855	0.07
485.054	-0.01
485.253	-0
485.452	-0.01
485.651	0.04
485.849	0.03
486.048	-0.01
486.247	-0.03
486.446	0.02
486.645	0.01
486.844	-0.01
487.043	0.03
487.241	0.06
487.44	-0.02
487.639	0.02
487.838	0.03
488.037	0.04
488.235	0.06
488.434	0.04
488.633	0
488.831	0.05
489.03	0.07
489.229	0.03
489.427	0.04
489.626	0.05
489.825	0.04
490.023	0
490.222	0.01
490.42	0.04
490.619	0.06
490.817	0.04
491.016	0.02
491.214	0.05
491.413	0.03
491.611	0.03
491.81	0.04
492.008	0.04
492.207	0.05
492.405	0.02
492.604	-0.01
492.802	0.02
493	0.03
493.199	0.01
493.397	0.02
493.595	0.02
493.794	0.01
493.992	0.06
494.19	0.02
494.388	0.05
494.587	0.01
494.785	0.05
494.983	-0.01
495.181	0.03
495.379	0.03
495.578	0.01
495.776	0.05
495.974	0.04
496.172	0.02
496.37	0.01
496.568	-0.01
496.766	0.01
496.964	0.08
497.162	0.02
497.36	0.01
497.558	0.03
497.756	0.04
497.954	0.03
498.152	-0
498.35	0.03
498.548	0.01
498.746	0.03
498.944	0
499.142	0.01
499.34	0
499.538	0.01
499.736	-0.01
499.933	0.03
500.131	0.05
500.329	0.03
500.527	0.06
500.725	0.03
500.922	0.05
501.12	0.02
501.318	0.03
501.516	0.01
501.713	0.04
501.911	0.03
502.109	-0.01
502.306	0.01
502.504	0.01
502.701	0.03
502.899	0.01
503.097	0.06
503.294	0.02
503.492	0.02
503.689	0.02
503.887	0.03
504.084	0.06
504.282	0.03
504.479	-0.02
504.677	0.02
504.874	0
505.072	0.05
505.269	0.02
505.466	0.04
505.664	0.02
505.861	-0.02
506.059	-0.03
506.256	0.05
506.453	0.01
506.651	0.07
506.848	0.04
507.045	0.04
507.242	0.04
507.44	0.02
507.637	0.01
507.834	0.03
508.031	0.04
508.229	-0
508.426	0.04
508.623	0.04
508.82	0.02
509.017	-0
509.214	0.02
509.411	0.02
509.608	-0.02
509.805	0.01
510.003	0.01
510.2	0.02
510.397	0.04
510.594	0.02
510.791	-0.01
510.988	0.01
511.184	0.04
511.381	0.03
511.578	0
511.775	0.04
511.972	-0.01
512.169	0.03
512.366	0.02
512.563	0.02
512.76	0.01
512.956	0.05
513.153	-0.02
513.35	0.05
513.547	0.02
513.744	0
513.94	-0
514.137	0.02
514.334	0.03
514.53	0.04
514.727	0.01
514.924	0.07
515.12	0.01
515.317	-0
515.514	0.04
515.71	0
515.907	0.03
516.103	0.02
516.3	0.02
516.497	0.04
516.693	0.04
516.89	0.01
517.086	0
517.283	0.02
517.479	0.04
517.676	0.02
517.872	0.04
518.068	0.02
518.265	0.01
518.461	0.02
518.658	-0.02
518.854	0.02
519.05	0.04
519.247	0
519.443	0.06
519.639	0.04
519.836	0.02
520.032	0.03
520.228	0.01
520.424	0.05
520.621	0.03
520.817	0.03
521.013	0.04
521.209	0.01
521.405	0.07
521.601	0.03
521.798	0.03
521.994	0.04
522.19	0.02
522.386	0.01
522.582	0.01
522.778	0.03
522.974	0.01
523.17	0.02
523.366	0.02
523.562	0.05
523.758	0.01
523.954	0.01
524.15	0.02
524.346	0.03
524.542	0.01
524.738	0.02
524.934	0.03
525.129	-0.04
525.325	0.01
525.521	0.01
525.717	0.06
525.913	0.03
526.109	0.02
526.304	0.01
526.5	0.03
526.696	0.04
526.892	0.01
527.087	0.02
527.283	0.01
527.479	0.03
527.674	0.01
527.87	0.01
528.066	0
528.261	0.04
528.457	0.04
528.653	0.02
528.848	0.02
529.044	0.04
529.239	0.03
529.435	0.05
529.63	0.03
529.826	0.07
530.021	0.03
530.217	0.05
530.412	0.02
530.608	0.02
530.803	0.04
530.999	0.02
531.194	-0.01
531.389	0.04
531.585	-0.01
531.78	0.01
531.975	0.02
532.171	0.04
532.366	-0.01
532.561	0.02
532.757	0.01
532.952	-0
533.147	0.04
533.342	0.03
533.538	0.01
533.733	0.04
533.928	0.02
534.123	0.01
534.318	-0.01
534.513	0.02
534.709	0.03
534.904	-0.01
535.099	0
535.294	0.02
535.489	0.04
535.684	-0.01
535.879	0
536.074	0.03
536.269	0
536.464	0.02
536.659	0.04
536.854	0.03
537.049	0.05
537.244	0.03
537.439	0.02
537.634	0.05
537.828	0.02
538.023	0.02
538.218	-0.01
538.413	0.02
538.608	-0.01
538.803	0.04
538.997	-0.03
539.192	0.04
539.387	0.03
539.582	0.02
539.776	0.03
539.971	0
540.166	0.04
540.36	0.01
540.555	0.04
540.75	0.02
540.944	0.02
541.139	0.01
541.334	0.03
541.528	0.04
541.723	0.04
541.917	0.01
542.112	0
542.306	0.03
542.501	0.02
542.695	0.03
542.89	-0
543.084	0.04
543.279	0.03
543.473	0.04
543.668	0.04
543.862	0.01
544.056	0.07
544.251	0.04
544.445	0.05
544.64	0.02
544.834	-0
545.028	0.05
545.222	0.01
545.417	0.06
545.611	0.03
545.805	0.03
546	0.03
546.194	0.04
546.388	0.02
546.582	0.05
546.776	0.05
546.97	0.03
547.165	0.02
547.359	0.06
547.553	0
547.747	0.03
547.941	0.01
548.135	0.03
548.329	0.04
548.523	0.05
548.717	0.03
548.911	0.01
549.105	0.04
549.299	0.04
549.493	0.04
549.687	0.03
549.881	0.04
550.075	0.04
550.269	-0
550.463	0.05
550.657	0.01
550.85	0.03
551.044	0.03
551.238	0.04
551.432	0.02
551.626	0.01
551.82	0.04
552.013	0.03
552.207	0.03
552.401	0.04
552.594	0.02
552.788	0.02
552.982	0.01
553.176	-0.01
553.369	0.03
553.563	0.04
553.756	-0.01
553.95	0.02
554.144	0.02
554.337	0.07
554.531	0.04
554.724	0.02
554.918	0.03
555.111	0.06
555.305	0.03
555.498	0.07
555.692	0.07
555.885	0.01
556.079	0.03
556.272	0.03
556.466	0.05
556.659	0.04
556.852	0.03
557.046	0.01
557.239	0.05
557.432	0.02
557.626	0.02
557.819	0.03
558.012	0.06
558.206	0.05
558.399	0.03
558.592	0.04
558.785	0.02
558.979	0.05
559.172	0.04
559.365	0.03
559.558	0.03
559.751	0.04
559.944	0.05
560.138	0.03
560.331	0.04
560.524	0.02
560.717	0.04
560.91	0.05
561.103	0.03
561.296	0.04
561.489	0.05
561.682	0.03
561.875	0.08
562.068	0.04
562.261	0.05
562.454	0.07
562.647	0.05
562.84	0.06
563.032	0.02
563.225	0.05
563.418	0.01
563.611	0.01
563.804	0.04
563.997	0
564.19	-0
564.382	0.01
564.575	0.03
564.768	0.05
564.961	0.02
565.153	0.01
565.346	0.04
565.539	0.07
565.731	0.04
565.924	0.07
566.117	0.05
566.309	0.04
566.502	0.05
566.695	0.04
566.887	0.03
567.08	0
567.272	0.04
567.465	0.03
567.657	0.03
567.85	0.05
568.042	0.06
568.235	0.08
568.427	0.02
568.62	0.02
568.812	0.05
569.005	0.05
569.197	0.01
569.389	0.05
569.582	0.06
569.774	0.04
569.966	0.01
570.159	0.01
570.351	0.05
570.543	0.03
570.736	0.05
570.928	0.03
571.12	0.04
571.312	0.04
571.505	0.02
571.697	0.07
571.889	0.03
572.081	0.03
572.273	-0
572.465	0.07
572.658	0.03
572.85	0.05
573.042	0.02
573.234	0.03
573.426	0.08
573.618	-0.01
573.81	0.06
574.002	0.07
574.194	0.08
574.386	-0
574.578	-0.03
574.77	-0.01
574.962	0.04
575.154	-0.02
575.346	0.05
575.538	0.07
575.729	0.02
575.921	0
576.113	0.04
576.305	0.08
576.497	0.03
576.689	0.03
576.88	0.02
577.072	0.07
577.264	0.03
577.456	0.04
577.647	0.01
577.839	0.04
578.031	0.08
578.223	0.01
578.414	0
578.606	0.05
578.798	0.04
578.989	0.02
579.181	0.07
579.372	0.03
579.564	0.03
579.755	0.05
579.947	0.05
580.139	0.07
580.33	0.01
580.522	0.04
580.713	-0.02
580.905	0.04
581.096	0.05
581.287	0.08
581.479	0.05
581.67	0.08
581.862	0.04
582.053	0.01
582.244	0.01
582.436	0.06
582.627	0.06
582.818	0.04
583.01	0.01
583.201	0.09
583.392	0.08
583.583	0.05
583.775	0.04
583.966	0.02
584.157	0.05
584.348	0.04
584.54	0.01
584.731	0.07
584.922	0.02
585.113	0.05
585.304	0.09
585.495	0.08
585.686	0.05
585.877	0.1
586.068	0.04
586.259	0.05
586.45	0.08
586.641	0.05
586.832	0.01
587.023	0.06
587.214	0.08
587.405	0.09
587.596	0.02
587.787	0.11
587.978	0.07
588.169	0.05
588.36	0.03
588.551	0.05
588.742	0.03
588.932	0.1
589.123	0.05
589.314	0.13
589.505	0.07
589.696	0.05
589.886	0.04
590.077	0.02
590.268	0.06
590.458	0.03
590.649	0.02
590.84	0.08
591.03	0.02
591.221	0.03
591.412	0.05
591.602	0.1
591.793	0.08
591.984	0.02
592.174	0.08
592.365	0.1
592.555	0.05
592.746	0.11
592.936	0.1
593.127	0.09
593.317	0.1
593.508	0.07
593.698	0.06
593.889	0.08
594.079	0.06
594.269	0.08
594.46	0.08
594.65	0.08
594.84	0.08
595.031	0.06
595.221	0.05
595.411	0.02
595.602	0.1
595.792	0.08
595.982	0.07
596.172	0.13
596.363	0.13
596.553	0.09
596.743	0.12
596.933	0.1
597.123	0.13
597.314	0.09
597.504	0.09
597.694	0.13
597.884	0.11
598.074	0.09
598.264	0.07
598.454	0.11
598.644	0.11
598.834	0.11
599.024	0.06
599.214	0.09
599.404	0.16
599.594	0.12
599.784	0.08
599.974	0.15
600.164	0.12
600.354	0.08
600.544	0.09
600.734	0.14
600.924	0.14
601.114	0.12
601.303	0.12
601.493	0.15
601.683	0.09
601.873	0.14
602.063	0.11
602.252	0.16
602.442	0.07
602.632	0.08
602.821	0.12
603.011	0.15
603.201	0.14
603.39	0.11
603.58	0.11
603.77	0.18
603.959	0.16
604.149	0.17
604.339	0.17
604.528	0.2
604.718	0.18
604.907	0.17
605.097	0.17
605.286	0.15
605.476	0.18
605.665	0.21
605.855	0.18
606.044	0.21
606.234	0.2
606.423	0.18
606.612	0.16
606.802	0.19
606.991	0.23
607.181	0.18
607.37	0.16
607.559	0.21
607.749	0.16
607.938	0.21
608.127	0.21
608.316	0.21
608.506	0.23
608.695	0.23
608.884	0.23
609.073	0.25
609.263	0.29
609.452	0.26
609.641	0.27
609.83	0.2
610.019	0.23
610.208	0.23
610.397	0.29
610.586	0.28
610.775	0.27
610.965	0.23
611.154	0.29
611.343	0.29
611.532	0.31
611.721	0.31
611.91	0.27
612.099	0.3
612.287	0.31
612.476	0.32
612.665	0.32
612.854	0.3
613.043	0.36
613.232	0.32
613.421	0.33
613.61	0.39
613.798	0.37
613.987	0.42
614.176	0.43
614.365	0.42
614.554	0.4
614.742	0.45
614.931	0.39
615.12	0.46
615.309	0.42
615.497	0.44
615.686	0.42
615.875	0.45
616.063	0.43
616.252	0.47
616.44	0.48
616.629	0.52
616.818	0.49
617.006	0.46
617.195	0.49
617.383	0.51
617.572	0.55
617.76	0.54
617.949	0.57
618.137	0.59
618.326	0.62
618.514	0.52
618.703	0.59
618.891	0.68
619.079	0.58
619.268	0.68
619.456	0.61
619.644	0.71
619.833	0.64
620.021	0.66
620.209	0.64
620.398	0.74
620.586	0.74
620.774	0.8
620.962	0.77
621.151	0.86
621.339	0.79
621.527	0.76
621.715	0.79
621.903	0.79
622.092	0.75
622.28	0.89
622.468	0.86
622.656	0.87
622.844	0.93
623.032	0.93
623.22	0.9
623.408	1.01
623.596	0.99
623.784	1.08
623.972	1
624.16	1.02
624.348	1.1
624.536	1.14
624.724	1.09
624.912	1.18
625.1	1.19
625.288	1.17
625.476	1.15
625.664	1.28
625.851	1.22
626.039	1.25
626.227	1.3
626.415	1.32
626.603	1.28
626.79	1.36
626.978	1.39
627.166	1.43
627.354	1.42
627.541	1.47
627.729	1.41
627.917	1.57
628.104	1.54
628.292	1.58
628.48	1.62
628.667	1.67
628.855	1.72
629.042	1.78
629.23	1.7
629.418	1.75
629.605	1.78
629.793	1.8
629.98	1.82
630.168	1.88
630.355	1.92
630.543	1.98
630.73	1.94
630.917	2.04
631.105	2.14
631.292	2.12
631.48	2.16
631.667	2.25
631.854	2.23
632.042	2.24
632.229	2.23
632.416	2.34
632.604	2.37
632.791	2.35
632.978	2.46
633.165	2.52
633.353	2.56
633.54	2.62
633.727	2.58
633.914	2.62
634.101	2.6
634.289	2.82
634.476	2.73
634.663	2.83
634.85	2.85
635.037	2.9
635.224	2.89
635.411	3.08
635.598	3.04
635.785	3.08
635.972	3.12
636.159	3.22
636.346	3.29
636.533	3.27
636.72	3.37
636.907	3.39
637.094	3.42
637.281	3.45
637.468	3.58
637.655	3.67
637.842	3.72
638.029	3.74
638.215	3.8
638.402	3.92
638.589	3.83
638.776	3.99
638.963	4.02
639.149	4.17
639.336	4.2
639.523	4.26
639.709	4.35
639.896	4.39
640.083	4.38
640.27	4.58
640.456	4.59
640.643	4.61
640.829	4.61
641.016	4.75
641.203	4.78
641.389	4.95
641.576	5.02
641.762	5.1
641.949	5.16
642.135	5.27
642.322	5.41
642.508	5.36
642.695	5.61
642.881	5.59
643.068	5.67
643.254	5.85
643.441	5.9
643.627	6.15
643.813	6.01
644	6.24
644.186	6.22
644.372	6.41
644.559	6.51
644.745	6.55
644.931	6.64
645.118	6.88
645.304	6.93
645.49	7.11
645.676	7.19
645.862	7.26
646.049	7.57
646.235	7.5
646.421	7.86
646.607	7.91
646.793	7.99
646.979	7.96
647.165	8.26
647.352	8.35
647.538	8.45
647.724	8.61
647.91	8.75
648.096	8.92
648.282	9.2
648.468	9.21
648.654	9.43
648.84	9.59
649.026	9.74
649.212	9.75
649.397	9.95
649.583	10.26
649.769	10.37
649.955	10.46
650.141	10.76
650.327	10.77
650.513	11.07
650.698	11.25
650.884	11.21
651.07	11.56
651.256	11.55
651.442	11.86
651.627	11.86
651.813	12.37
651.999	12.25
652.184	12.48
652.37	12.81
652.556	12.97
652.741	13.04
652.927	13.07
653.113	13.5
653.298	13.63
653.484	13.69
653.669	13.95
653.855	14.22
654.04	14.49
654.226	14.51
654.412	14.64
654.597	14.56
654.782	15.02
654.968	15.09
655.153	15.27
655.339	15.47
655.524	15.63
655.71	15.88
655.895	16.1
656.08	16.21
656.266	16.49
656.451	16.3
656.636	16.49
656.822	16.7
657.007	16.91
657.192	17.12
657.378	17.08
657.563	16.96
657.748	17.29
657.933	17.53
658.118	17.04
658.304	17.55
658.489	17.56
658.674	17.52
658.859	17.57
659.044	17.66
659.229	17.58
659.414	17.73
659.599	17.65
659.785	17.54
659.97	17.64
660.155	17.42
660.34	17.49
660.525	17.15
660.71	16.95
660.895	17.01
661.08	16.76
661.264	16.36
661.449	16.31
661.634	15.78
661.819	15.81
662.004	15.29
662.189	15.15
662.374	14.83
662.559	14.5
662.743	14.08
662.928	13.9
663.113	13.41
663.298	13.14
663.483	12.81
663.667	12.46
663.852	12.17
664.037	11.85
664.221	11.49
664.406	11.18
664.591	10.78
664.775	10.43
664.96	10.19
665.145	9.75
665.329	9.51
665.514	9.23
665.698	8.79
665.883	8.5
666.068	8.24
666.252	7.95
666.437	7.64
666.621	7.39
666.806	7.16
666.99	6.83
667.174	6.65
667.359	6.43
667.543	6.15
667.728	6.01
667.912	5.69
668.096	5.5
668.281	5.29
668.465	5.2
668.649	5.07
668.834	4.73
669.018	4.66
669.202	4.52
669.387	4.34
669.571	4.29
669.755	4.01
669.939	3.91
670.124	3.82
670.308	3.64
670.492	3.55
670.676	3.38
670.86	3.27
671.044	3.1
671.228	3.06
671.413	2.92
671.597	2.86
671.781	2.79
671.965	2.72
672.149	2.61
672.333	2.49
672.517	2.39
672.701	2.36
672.885	2.28
673.069	2.14
673.253	2.22
673.437	2.11
673.621	1.96
673.804	1.95
673.988	1.89
674.172	1.8
674.356	1.68
674.54	1.67
674.724	1.69
674.908	1.57
675.091	1.6
675.275	1.53
675.459	1.48
675.643	1.39
675.826	1.38
676.01	1.35
676.194	1.28
676.377	1.31
676.561	1.21
676.745	1.16
676.928	1.17
677.112	1.11
677.296	1.06
677.479	1.05
677.663	0.98
677.846	0.99
678.03	0.92
678.213	0.9
678.397	0.88
678.58	0.83
678.764	0.84
678.947	0.79
679.131	0.76
679.314	0.74
679.498	0.75
679.681	0.75
679.865	0.77
680.048	0.68
680.231	0.66
680.415	0.61
680.598	0.62
680.781	0.56
680.965	0.6
681.148	0.59
681.331	0.59
681.514	0.55
681.698	0.46
681.881	0.56
682.064	0.51
682.247	0.52
682.43	0.45
682.614	0.46
682.797	0.47
682.98	0.48
683.163	0.43
683.346	0.48
683.529	0.37
683.712	0.4
683.895	0.43
684.078	0.33
684.261	0.37
684.444	0.42
684.627	0.44
684.81	0.36
684.993	0.41
685.176	0.38
685.359	0.29
685.542	0.32
685.725	0.38
685.908	0.33
686.091	0.29
686.274	0.35
686.457	0.31
686.639	0.31
686.822	0.31
687.005	0.29
687.188	0.26
687.371	0.42
687.553	0.3
687.736	0.29
687.919	0.29
688.102	0.33
688.284	0.24
688.467	0.23
688.65	0.17
688.832	0.19
689.015	0.27
689.197	0.15
689.38	0.32
689.563	0.26
689.745	0.2
689.928	0.17
690.11	0.21
690.293	0.25
690.475	0.15
690.658	0.22
690.84	0.16
691.023	0.18
691.205	0.19
691.388	0.22
691.57	0.26
691.752	0.23
691.935	0.12
692.117	0.19
692.3	0.21
692.482	0.19
692.664	0.13
692.847	0.17
693.029	0.22
693.211	0.22
693.393	0.18
693.576	0.15
693.758	0.19
693.94	0.15
694.122	0.12
694.304	0.18
694.487	0.18
694.669	0.21
694.851	0.13
695.033	0.16
695.215	0.06
695.397	0.13
695.579	0.2
695.761	0.12
695.943	0.07
696.125	0.22
696.308	0.17
696.49	0.04
696.671	0.26
696.853	0.15
697.035	0.28
697.217	0.11
697.399	0.19
697.581	0.06
697.763	0.11
697.945	0.1
698.127	0.1
698.309	0.17
698.491	0.1
698.672	0.16
698.854	0.15
699.036	0.22
699.218	0.1
699.399	0.15
699.581	0.2
699.763	0.12
699.945	0.13
700.126	0.1
700.308	0.15
700.49	0.13
700.671	0.04
700.853	0.07
701.035	0.11
701.216	0.14
701.398	0.1
701.579	0.15
701.761	0.18
701.943	0.04
702.124	0.06
702.306	0.14
702.487	0.23
702.669	0.07
702.85	0.09
703.031	0.04
703.213	0.18
703.394	0.17
703.576	0.08
703.757	0.15
703.938	0.18
704.12	0.26
704.301	0.15
704.483	0.11
704.664	0.14
704.845	0.22
705.026	0.12
705.208	0.12
705.389	0.12
705.57	0.1
705.751	0.1
705.933	0.13
706.114	0.17
706.295	0.08
706.476	0.06
706.657	0.23
706.838	0.11
707.02	0.12
707.201	0.08
707.382	0.07
707.563	0.09
707.744	0.06
707.925	0.02
708.106	0.05
708.287	0.16
708.468	0.24
708.649	0.09
708.83	0.11
709.011	0.1
709.192	0.16
709.373	0.05
709.554	0.12
709.734	0.06
709.915	0.11
710.096	0.08
710.277	-0.03
710.458	0.07
710.639	0.14
710.819	0.01
711	0.08
711.181	0.13
711.362	0.2
711.542	0.11
711.723	0.13
711.904	0.12
712.085	0.12
712.265	0.12
712.446	0.03
712.627	0.11
712.807	0.09
712.988	0.1
713.168	0.01
713.349	0.11
713.53	-0
713.71	0.04
713.891	0.04
714.071	0.07
714.252	0.07
714.432	0.07
714.613	-0.07
714.793	0.09
714.974	0.15
715.154	0.11
715.334	0.17
715.515	0.16
715.695	0.04
715.876	0.04
716.056	0.09
716.236	0.07
716.417	0.06
716.597	0.1
716.777	0.15
716.957	0.07
717.138	0.08
717.318	0.08
717.498	0.01
717.678	0.07
717.859	0.08
718.039	-0.01
718.219	0.08
718.399	0.18
718.579	0.04
718.759	0.1
718.939	0.09
719.12	0.11
719.3	0.15
719.48	0.03
719.66	-0.04
719.84	0.14
720.02	0.12
720.2	0.08
720.38	0.13
720.56	0.15
720.74	0.09
720.92	0.18
721.1	0.15
721.279	0.21
721.459	0.06
721.639	0.01
721.819	0.12
721.999	0.02
722.179	0.17
722.359	0.01
722.538	0.08
722.718	0.12
722.898	0.09
723.078	0.05
723.257	0.04
723.437	0.07
723.617	0.11
723.797	0.05
723.976	0.16
724.156	0.17
724.336	0.13
724.515	0.18
724.695	0.03
724.874	0.09
725.054	0.14
725.234	0.04
725.413	0.12
725.593	0.09
725.772	0.03
725.952	0.03
726.131	0.1
726.311	0.09
726.49	0.15
726.67	-0.05
726.849	0.06
727.028	0.1
727.208	0.07
727.387	0.13
727.567	-0.01
727.746	0.04
727.925	0.03
728.105	0
728.284	0.1
728.463	-0.15
728.643	0.12
728.822	0.02
729.001	0.03
729.18	0.12
729.359	0.04
729.539	0.02
729.718	0.18
729.897	0.12
730.076	0.13
730.255	-0.01
730.434	0.14
730.614	0.13
730.793	0.12
730.972	0.09
731.151	-0
731.33	0.17
731.509	0.18
731.688	0.14
731.867	0.08
732.046	-0.03
732.225	0.37
732.404	0.04
732.583	0.01
732.762	0.07
732.941	0.21
733.12	0.12
733.298	0.08
733.477	0.19
733.656	0.06
733.835	0.05
734.014	0.19
734.193	0.03
734.371	0.04
734.55	0.13
734.729	-0.07
734.908	0.15
735.086	0.17
735.265	0.1
735.444	-0.11
735.623	0.07
735.801	0.04
735.98	0.08
736.159	-0
736.337	0.18
736.516	0.12
736.694	-0.02
736.873	-0.02
737.052	0.23
737.23	0.08
737.409	0.07
737.587	0.33
737.766	-0.04
737.944	0.02
738.123	0.21
738.301	0.15
738.479	-0.03
738.658	0.16
738.836	-0.16
739.015	0.15
739.193	0.16
739.371	-0.01
739.55	0.15
739.728	0.01
739.906	0.19
740.085	0.17
740.263	0
740.441	-0.03
740.62	0.29
740.798	0.14
740.976	0.06
741.154	0.13
741.332	0.2
741.511	0.01
741.689	0.18
741.867	0.18
742.045	0.22
742.223	0.03
742.401	0.02
742.579	0.05
742.757	0.14
742.935	0.03
743.114	0.1
743.292	0.06
743.47	0.06
743.648	0.03
743.826	0.13
744.004	0.19
744.181	0.2
744.359	0.1
744.537	0.11
744.715	0.05
744.893	0.07
745.071	0.12
745.249	0.04
745.427	0.07
745.605	0.15
745.782	0.16
745.96	0.15
746.138	0.15
746.316	0.14
746.493	0.06
746.671	0.05
746.849	0.17
747.027	0.29
747.204	0.02
747.382	0.3
747.56	0.04
747.737	0.16
747.915	0.01
748.093	0.13
748.27	0.02
748.448	0.07
748.625	0.01
748.803	0.05
748.98	-0.02
749.158	0.05
749.335	0.05
749.513	0.01
749.69	0.12
749.868	0.13
750.045	0.14
750.223	-0.08
750.4	-0.09
750.578	0.31
750.755	0.2
750.932	-0.09
751.11	0.09
751.287	-0.06
751.464	0.15
751.642	-0.01
751.819	0.12
751.996	0.07
752.173	0.05
752.351	-0.05
752.528	0.07
752.705	0.04
752.882	0.11
753.06	0.17
753.237	0.17
753.414	0.26
753.591	0.07
753.768	0.13
753.945	0.05
754.122	-0.05
754.299	0.23
754.476	-0.04
754.654	0.11
754.831	0.15
755.008	0.12
755.185	0.08
755.362	-0.05
755.539	0.11
755.716	-0.02
755.892	0.08
756.069	-0.01
756.246	0.08
756.423	0.06
756.6	0.25
756.777	0.05
756.954	0.17
757.131	0.05
757.307	-0.02
757.484	-0.01
757.661	0.02
757.838	-0.01
758.015	-0.05
758.191	0.1
758.368	0.17
758.545	0.28
758.721	0.14
758.898	0.08
759.075	0.2
759.251	0.07
759.428	0.09
759.605	-0.01
759.781	0.03
759.958	0.12
760.134	0.08
760.311	0.02
760.488	0.2
760.664	0.24
760.841	0.11
761.017	-0.04
761.194	0.13
761.37	0.11
761.547	-0.06
761.723	0.16
761.899	0.28
762.076	0.05
762.252	-0.06
762.429	0.06
762.605	0.19
762.781	0.06
762.958	0.25
763.134	0.04
763.31	0.1
763.486	0.21
763.663	-0.08
763.839	0.08
764.015	-0.12
764.191	0.02
764.368	0.06
764.544	0.07
764.72	0.12
764.896	0.1
765.072	0.2
765.248	-0.01
765.425	0.1
765.601	0.07
765.777	0.03
765.953	-0.05
766.129	-0.02
766.305	-0
766.481	0.22
766.657	0.07
766.833	0.14
767.009	-0.12
767.185	0.06
767.361	0.13
767.537	0.03
767.713	0.23
767.889	0.07
768.065	0.05
768.24	-0.08
768.416	0.16
768.592	0.08
768.768	0.09
768.944	0.2
769.12	0.07
769.295	0.07
769.471	0.12
769.647	0.02
769.823	0.27
769.998	-0.05
770.174	-0.04
770.35	0.33
770.525	0.41
770.701	0.1
770.877	0.1
771.052	0
771.228	0.24
771.403	0.1
771.579	0.16
771.755	0.37
771.93	0.05
772.106	-0.02
772.281	-0.08
772.457	0.12
772.632	0.14
772.808	-0.05
772.983	0.06
773.159	-0.03
773.334	0.07
773.509	0.03
773.685	0.03
773.86	0.33
774.036	0.3
774.211	0.35
774.386	0.13
774.562	0.09
774.737	0.23
774.912	-0.02
775.087	0.14
775.263	0.07
775.438	0.04
775.613	-0
775.788	0.12
775.964	0.25
776.139	0.41
776.314	-0
776.489	0.13
776.664	0.17
776.839	0.03
777.014	0.3
777.19	0.37
777.365	0.32
777.54	0.24
777.715	-0.02
777.89	0.1
778.065	0.05
778.24	0.14
778.415	0.33
778.59	-0.03
778.765	0.01
778.94	0.19
779.115	0.12
779.289	0.15
779.464	-0.1
779.639	0.12
779.814	0
779.989	-0.16
780.164	0.16
780.339	0.07
780.513	0.17
780.688	-0.03
780.863	0.13
781.038	0.25
781.212	0.05
781.387	-0.03
781.562	0.37
781.737	0.2
781.911	0.41
782.086	0.06
782.261	0.2
782.435	0.37
782.61	0.03
782.784	-0.07
782.959	0.19
783.134	0.11
783.308	-0.16
783.483	0.12
783.657	0.5
783.832	0.34
784.006	-0.1
784.181	0.13
784.355	0.24
784.53	-0
784.704	0.05
784.878	0.2
785.053	0.15
785.227	0.12
785.402	0.64
785.576	-0.08
785.75	-0.04
785.925	0.04
786.099	0.1
786.273	0.14
786.448	0.19
786.622	0.09
786.796	0.05
786.97	0.17
787.145	0.63
787.319	-0.19
787.493	0
787.667	-0.14
787.841	0.13
788.015	0.36
788.19	0.07
788.364	-0.04
788.538	0.08
788.712	0.39
788.886	-0.06
789.06	0.18
789.234	0.07
789.408	-0.21
789.582	-0.02
789.756	0.25
789.93	-0.06
790.104	0.03
790.278	0.07
790.452	-0.09
790.626	0.37
790.8	-0.15
790.973	0.41
791.147	0.21
791.321	0.35
791.495	0.42
791.669	0.09
791.843	0.12
792.016	0.11
792.19	0.53
792.364	-0.09
792.538	0.56
792.711	0.16
792.885	-0.1
793.059	-0.18
793.233	-0.38
793.406	0.33
793.58	0.12
793.754	0.16
793.927	-0.05
794.101	0.54
794.274	0.12
794.448	0.36
794.622	-0.09
794.795	0.54
794.969	0.02
795.142	0.54
795.316	-0.19
795.489	0.34
795.663	0.41
795.836	0.11
796.009	-0.12
796.183	0.73
796.356	0.39
796.53	0.25
796.703	0.06
796.876	0.67
797.05	-0.05
797.223	0.06
797.396	0.11
797.57	0.18
797.743	0.31
797.916	0.13
798.09	0.23
798.263	0.36
798.436	0.17
798.609	0.16
798.782	0.04
798.956	0.27
799.129	0.11
799.302	0.11
799.475	-0.01
799.648	-0.06
799.821	0.03
799.994	0.21
800.167	-0.22
800.34	0.14
800.514	0.25
800.687	-0.02
800.86	0.14
801.033	-0.07
801.206	0.32
801.379	-0.08
801.551	0.49
801.724	0.34
801.897	0.35
802.07	0.06
802.243	-0.35
802.416	-0.18
802.589	-0.17
802.762	0.28
802.935	0.3
803.107	0.08
803.28	0.24
803.453	0.64
803.626	0.03
803.798	0.5
803.971	-0.17
804.144	0.26
804.317	0.31
804.489	0.48
804.662	0.21
804.835	0.14
805.007	-0.08
805.18	0.62
805.353	0.36
805.525	-0.24
805.698	0.3
805.87	0.48
806.043	0.33
806.215	-0.23
806.388	-0.01
806.56	0.31
806.733	0.49
806.905	0.2
807.078	0.11
807.25	-0.03
807.423	0.47
807.595	0.54
807.768	0.12
807.94	0.52
808.112	0.59
808.285	0.23
808.457	-0.03
808.629	0.2
808.802	0.35
808.974	0.2
809.146	-0.05
809.318	0.04
809.491	0.17
809.663	0.39
809.835	-0.27
810.007	0.14
810.18	-0.03
810.352	0.03
810.524	-0.02
810.696	0.2
810.868	0.58
811.04	0.05
811.212	0.36
811.384	0.15
811.556	0.39
811.728	0.16
811.901	0.75
812.073	0.13
812.245	0.27
812.417	0.39
812.589	-0.56
812.76	0.5
812.932	0.36
813.104	0.42
813.276	0.36
813.448	0.41
813.62	-0.02
813.792	0.13
813.964	0.19
814.136	0.33
814.307	0.34
814.479	-0.28
814.651	-0.23
814.823	1.24
814.995	0.02
815.166	0.65
815.338	-0.2
815.51	-0.11
815.681	1
815.853	0.29
816.025	0.12
816.196	0.58
816.368	0.66
816.54	-0.17
816.711	-0.43
816.883	0.44
817.054	0.64
817.226	-0.48
817.398	-0.09
817.569	0.11
817.741	0.11
817.912	0.2
818.084	0.09
818.255	0.38
818.426	0.08
818.598	0.38
818.769	0.02
818.941	0.56
819.112	0.78
819.283	0.4
819.455	-0.1
819.626	0.25
819.798	0.79
819.969	0.28
820.14	-0.21
820.311	0.09
820.483	-0.03
820.654	0.92
820.825	0.39
820.996	-0
821.168	-0.12
821.339	-0.02
821.51	-0.29
821.681	-0.21
821.852	-0.39
822.023	-0.53
822.195	-0.03
822.366	0.97
822.537	0.52
822.708	0.05
822.879	-0.3
823.05	1.04
823.221	0.11
823.392	0.51
823.563	0.33
823.734	0.36
823.905	0.28
824.076	-0.11
824.247	-0.38
824.418	0.09
824.589	0.58
824.759	-0.06
824.93	0.51
825.101	-0.03
825.272	0.32
825.443	0.91
825.614	0.75
825.784	-0.82
825.955	1.5
826.126	0.71
826.297	0.38
826.467	1.15
826.638	0.5
826.809	-0.56
826.98	0.12
827.15	0.71
827.321	0.28
827.492	1.05
827.662	-0.09
827.833	0.94
828.003	0.75
828.174	-0.24
828.345	-0.01
828.515	0.42
828.686	0.58
828.856	0.19
829.027	0.37
829.197	-0.05
829.368	0.69
829.538	-0.18
829.709	-0.43
829.879	-0.05
830.049	0.55
830.22	0.66
830.39	0.38
830.56	1.03
830.731	0.43
830.901	0.2
831.072	0.48
831.242	0.63
831.412	0.71
831.582	0.26
831.753	0.28
831.923	1.17
832.093	-0.11
832.263	0.11
832.434	-0.2
832.604	-0.05
832.774	1.09
832.944	0.18
833.114	0.07
833.284	0.99
833.454	-0.24
833.624	-0.54
833.795	-0.15
833.965	0.66
834.135	0.56
834.305	-0.48
834.475	0.04
834.645	0.63
834.815	0.06
834.985	-0.35
835.155	0.12
835.325	0.73
835.494	0.34
835.664	0.59
835.834	-0.06
836.004	0.04
836.174	0.11
836.344	0.28
836.514	0.23
836.684	-0.18
836.853	0.35
837.023	0.59
837.193	0.74
837.363	0.79
837.532	1.29
837.702	0.41
837.872	-0.45
838.041	1.23
838.211	0.91
838.381	-0.06
838.55	0.44
838.72	2.27
838.89	1.82
839.059	0.19
839.229	-0.37
839.398	1.61
839.568	0.32
839.738	-0.18
839.907	1.41
840.077	0.97
840.246	0.29
840.416	0.09
840.585	-0.55
840.755	1.75
840.924	1.69
841.093	-0.52
841.263	-0.01
841.432	1.08
841.602	0.27
841.771	-0.24
841.94	1.41
842.11	2.58
842.279	1.49
842.448	0.11
842.617	0.16
842.787	0.94
842.956	-0.14
843.125	0.06
843.294	0.94
843.464	1.69
843.633	0.25
843.802	-0.2
843.971	-0.17
844.14	1.18
844.309	0.34
844.479	0.43
844.648	-0.06
844.817	-0.07
844.986	0.32
845.155	-0.01
845.324	0.24
845.493	0.61
845.662	-0.18
845.831	0.9
846	0.96
846.169	0.45
846.338	2.59
846.507	1.1
846.676	0.91
846.844	-0.43
847.013	1.73
847.182	0.52
847.351	0.43
847.52	0.63
847.689	1.55
847.858	0.39
848.026	-0.29
848.195	0.23
848.364	0.99
848.533	0.39
848.701	-0.05
848.87	0.83
849.039	1.7
849.207	1.74
849.376	2.02
849.545	1.45
849.713	0.2
849.882	0.28
850.051	0.87
850.219	0.14
850.388	0.67
850.556	-0.76
850.725	0.53
850.893	0.83
851.062	-0.31
851.23	2
851.399	-0.7
851.567	0.75
851.736	-0.31
851.904	-0.59
852.073	0.76
852.241	1.86
852.41	0.82
852.578	1.11
852.746	-0.83
852.915	1.99
853.083	-0.23
853.251	0.03
853.42	0.42
853.588	0.57
853.756	0.77
853.924	-0.16
854.093	-0.19
854.261	-0.48
854.429	-0.51
854.597	1.65
854.765	0.1
854.934	0.79
855.102	1.22
855.27	0.18
855.438	0.75
855.606	2.09
855.774	2.06
855.942	0.7
856.11	-0.53
856.278	0.62
856.446	1.46
856.614	0.26
856.782	0.42
856.95	1.62
857.118	1.92
857.286	1.03
857.454	1.06
857.622	1.51
857.79	1.22
857.958	0.78
858.126	0.81
858.294	-1.02
858.462	0.37
858.629	-0.93
858.797	-0.44
858.965	0.73
859.133	1.24
859.301	0.51
859.468	1.17
859.636	-0.36
859.804	2.32
859.971	1.99
860.139	0.48
860.307	2.24
860.474	1.18
860.642	0.4
860.81	-0.11
860.977	-0.33
861.145	2
861.313	-0.54
861.48	1.6
861.648	0.98
861.815	0.89
861.983	-0.69
862.15	0.79
862.318	1.38
862.485	2.69
862.653	0.75
862.82	-0.96
862.988	2.79
863.155	1.38
863.322	0.76
863.49	-0.81
863.657	-0.91
863.824	3.25
863.992	1.36
864.159	1.73
864.326	1.19
864.494	-0.73
864.661	2.49
864.828	-0.36
864.996	3.05
865.163	2.99
865.33	0.49
865.497	-1.07
865.664	-0.17
865.832	-0.53
865.999	0.3
866.166	-0.57
866.333	0.78
866.5	-0.19
866.667	0.63
866.834	0.89
867.001	2.36
867.168	-0.64
867.335	1.86
867.502	-0.25
867.669	1.23
867.836	4.44
868.003	0.58
868.17	1.61
868.337	2.49
868.504	2.85
868.671	-0.33
868.838	-0.04
869.005	2.06
869.172	1.37
869.339	1.84
869.505	0.67
869.672	0.6
869.839	1.04
870.006	0.35
870.173	-1.07
870.339	1.86
870.506	3.16
870.673	0.38
870.84	1.39
871.006	0.27
871.173	0
871.34	1.55
871.506	0.47
871.673	1.81
871.839	-0.81
872.006	1.44
872.173	1.37
872.339	0.94
872.506	2.75
872.672	1.75
872.839	-0.88
873.005	1.49
873.172	1.87
873.338	2.92
873.505	1.48
873.671	-0.42
873.838	1.78
874.004	-0.59
874.171	-1.93
874.337	0.81
874.503	1.29
874.67	1.28
874.836	-0.19
875.002	3.25
875.169	2
875.335	1.43
875.501	0.64
875.668	-1.19
875.834	1.86
876	0.25
876.166	1.74
876.332	2.5
876.499	4.43
876.665	0
876.831	-0.14
876.997	2.77
877.163	-0.62
877.329	2.57
877.495	2.22
877.662	2.02
877.828	1.63
877.994	-0.49
878.16	-1.53
878.326	0.48
878.492	1.13
878.658	1.41
878.824	2.57
878.99	1.53
879.156	-0.05
879.322	3.66
879.487	1.61
879.653	2.83
879.819	2.8
879.985	-0.39
880.151	1.57
880.317	1.57
880.483	0.83
880.648	1.59
880.814	-2.48
880.98	2.39
881.146	-1.22
881.312	1.26
881.477	0.57
881.643	1.3
881.809	5.13
881.974	3.8
882.14	-0.54
882.306	-1.2
882.471	4.17
882.637	-0.63
882.803	1.62
882.968	2.27
883.134	2.83
883.299	0.43
883.465	1.37
883.63	2.54
883.796	1.76
883.961	2.36
884.127	2.83
884.292	-2.7
884.458	-1.14
884.623	-1.14
