Data from Apollo_Calib_20240827__AbsoluteIrradiance__500__07-29-02-839.txt Node

Date: Wed Aug 28 07:29:02 BST 2024
User: biology
Spectrometer: FLMT08252
Trigger mode: 0
Integration Time (sec): 5.000000E-1
Scans to average: 5
Electric dark correction enabled: true
Nonlinearity correction enabled: false
Boxcar width: 0
XAxis mode: Wavelengths
Number of Pixels in Spectrum: 3648
>>>>>Begin Spectral Data<<<<<
179.588	-0
179.809	-0
180.03	-0
180.251	-0
180.473	-0
180.694	0
180.915	0
181.136	-0
181.357	0
181.578	-0
181.799	-0
182.02	-0
182.241	0
182.462	-0
182.683	0
182.904	-0
183.125	-0
183.346	0
183.567	0
183.788	-0
184.009	-0
184.23	0
184.451	0
184.672	-0
184.892	-0
185.113	0
185.334	0
185.555	-0
185.776	-0
185.996	0
186.217	0
186.438	0
186.659	-0
186.879	0
187.1	0
187.321	-0
187.541	-0
187.762	0
187.983	0
188.203	0
188.424	0
188.644	-0
188.865	-0
189.086	-0
189.306	-0
189.527	-0
189.747	0
189.968	-0
190.188	0
190.409	0
190.629	0
190.849	-0
191.07	0
191.29	0
191.511	0
191.731	-0
191.951	-0
192.172	0
192.392	-0
192.612	-0
192.833	-0
193.053	0
193.273	0
193.493	-0
193.714	0
193.934	0
194.154	0
194.374	0
194.594	0
194.815	0
195.035	0
195.255	-0
195.475	-0
195.695	0
195.915	0
196.135	0
196.355	0
196.575	0
196.795	0
197.015	-0
197.235	0
197.455	-0
197.675	0
197.895	-0
198.115	-0
198.335	0
198.555	-0
198.775	0
198.995	0
199.214	0
199.434	0
199.654	-0
199.874	0
200.094	-1.64
200.313	0.04
200.533	-0.72
200.753	-0.93
200.973	0.76
201.192	0.8
201.412	-0.44
201.632	-0.31
201.851	0.97
202.071	-0.09
202.291	-0.32
202.51	-0.17
202.73	0.39
202.95	0.27
203.169	-0.38
203.389	-0.14
203.608	0.73
203.828	-0.04
204.047	-0.37
204.267	0.38
204.486	0.59
204.706	0.36
204.925	-0.1
205.145	-0.22
205.364	0.51
205.583	0.87
205.803	0.26
206.022	-0.65
206.242	0.16
206.461	0.36
206.68	-0.25
206.9	0.05
207.119	0.46
207.338	0.58
207.557	-0.31
207.777	-0.01
207.996	0.07
208.215	0.42
208.434	-0.13
208.654	-0.15
208.873	0.13
209.092	0.49
209.311	0.13
209.53	-0.09
209.749	0.06
209.968	-0.16
210.187	-0.13
210.407	-0.5
210.626	0
210.845	0.29
211.064	0.13
211.283	-0.2
211.502	0.23
211.721	0.3
211.94	-0.13
212.159	0.07
212.377	0.36
212.596	0.6
212.815	0.09
213.034	0.29
213.253	0.34
213.472	0.49
213.691	-0.06
213.91	-0.23
214.128	0.06
214.347	0.41
214.566	-0.24
214.785	-0.03
215.003	0.23
215.222	0.16
215.441	-0.03
215.66	-0.11
215.878	0.08
216.097	0.21
216.316	-0.15
216.534	-0.21
216.753	0
216.972	0.1
217.19	0.04
217.409	0.02
217.627	-0.1
217.846	0.08
218.064	0.08
218.283	-0.16
218.501	0.5
218.72	0.39
218.938	-0.18
219.157	-0.03
219.375	0.26
219.594	0
219.812	-0.22
220.031	-0.12
220.249	0.35
220.467	0.29
220.686	-0.05
220.904	-0.04
221.122	-0.16
221.341	0.33
221.559	-0.01
221.777	-0.25
221.995	0.01
222.214	0.09
222.432	-0.16
222.65	0.22
222.868	0.01
223.086	0.07
223.305	0.06
223.523	0.13
223.741	0.31
223.959	-0.07
224.177	-0.24
224.395	-0.22
224.613	-0.04
224.831	0.22
225.049	-0.08
225.267	-0.03
225.485	0.13
225.703	0.02
225.921	-0
226.139	-0.07
226.357	0.09
226.575	0.13
226.793	-0.06
227.011	0.65
227.229	0.17
227.447	0.15
227.665	-0.05
227.883	-0.24
228.1	0.01
228.318	0.02
228.536	-0.24
228.754	0.07
228.972	0.16
229.189	0.13
229.407	-0.06
229.625	-0.11
229.843	0.21
230.06	0.13
230.278	-0.05
230.496	0.04
230.713	0.05
230.931	0.23
231.149	-0.13
231.366	-0.22
231.584	-0.03
231.801	0.35
232.019	-0.14
232.236	-0.01
232.454	-0.07
232.671	0.15
232.889	-0.01
233.106	0.03
233.324	-0
233.541	0.02
233.759	0.04
233.976	-0.06
234.194	-0.01
234.411	-0.02
234.628	0.02
234.846	-0.01
235.063	0.06
235.28	0.02
235.498	-0.02
235.715	-0.07
235.932	0.09
236.149	-0.08
236.367	0.01
236.584	0.07
236.801	-0.04
237.018	-0.08
237.236	-0.03
237.453	-0.16
237.67	0.07
237.887	0.09
238.104	-0.13
238.321	-0.04
238.538	0
238.755	0.13
238.973	-0.1
239.19	-0.02
239.407	0.06
239.624	-0
239.841	-0.14
240.058	-0.01
240.275	-0.01
240.492	-0.04
240.709	0.09
240.925	-0.01
241.142	-0.03
241.359	-0.16
241.576	-0.06
241.793	-0.09
242.01	0.02
242.227	0.09
242.444	0.12
242.66	0.09
242.877	0.07
243.094	-0.07
243.311	0.07
243.527	-0.02
243.744	0.03
243.961	0.17
244.178	-0.01
244.394	-0.05
244.611	0.1
244.828	0.17
245.044	-0.07
245.261	-0.04
245.477	0.02
245.694	0.08
245.911	-0.08
246.127	0.09
246.344	0.14
246.56	0.07
246.777	-0.04
246.993	0.03
247.21	-0
247.426	0.05
247.643	-0.02
247.859	-0.08
248.076	-0.09
248.292	0.2
248.508	0.04
248.725	0.06
248.941	0.12
249.157	0.07
249.374	-0.02
249.59	-0.01
249.806	0.01
250.023	0.08
250.239	0
250.455	-0.07
250.671	0.04
250.888	0.06
251.104	0.05
251.32	-0.01
251.536	0.02
251.752	0.05
251.969	0.07
252.185	0.03
252.401	0.14
252.617	0.18
252.833	-0.03
253.049	-0.01
253.265	-0.04
253.481	-0
253.697	-0.03
253.913	-0.1
254.129	0.02
254.345	0
254.561	0.04
254.777	0.05
254.993	0.08
255.209	0.02
255.425	0.04
255.641	0.01
255.857	0.08
256.073	-0.04
256.288	-0.12
256.504	-0.07
256.72	0.02
256.936	0.15
257.152	-0.02
257.367	-0.02
257.583	0.02
257.799	0.08
258.015	-0.01
258.23	-0.03
258.446	0.12
258.662	0
258.877	-0.06
259.093	-0.08
259.309	-0.02
259.524	0.03
259.74	-0.03
259.955	-0.06
260.171	0.06
260.387	0.06
260.602	0.09
260.818	0.06
261.033	0.03
261.249	-0.02
261.464	0.02
261.68	-0.04
261.895	0.04
262.11	0.09
262.326	-0.02
262.541	-0.1
262.757	0.04
262.972	0.06
263.187	-0.03
263.403	-0.01
263.618	0.06
263.833	0.01
264.049	-0
264.264	0.02
264.479	0.1
264.694	0.16
264.91	-0.02
265.125	-0.07
265.34	0.03
265.555	0.12
265.77	0.07
265.986	0.04
266.201	0.05
266.416	0.07
266.631	-0.01
266.846	0.07
267.061	-0.01
267.276	0.06
267.491	-0.12
267.706	0.06
267.921	0.1
268.136	0.03
268.351	-0.04
268.566	-0.04
268.781	0.09
268.996	0.04
269.211	0.03
269.426	-0.09
269.641	-0.01
269.856	0.08
270.071	-0.05
270.285	-0.07
270.5	0.08
270.715	0.08
270.93	0
271.145	0.02
271.359	0.01
271.574	-0.04
271.789	-0.02
272.004	0.01
272.218	-0.02
272.433	0.05
272.648	-0.02
272.862	0.1
273.077	-0.01
273.292	0.05
273.506	-0.04
273.721	0.03
273.936	0
274.15	0.03
274.365	-0.02
274.579	0.05
274.794	0.05
275.008	0.07
275.223	-0.07
275.437	0.01
275.652	0.04
275.866	0.01
276.081	-0.05
276.295	0.04
276.509	-0.02
276.724	0.07
276.938	0.02
277.153	0.05
277.367	0.11
277.581	0
277.796	-0.03
278.01	-0.05
278.224	-0.01
278.438	0.13
278.653	0
278.867	-0.06
279.081	0.01
279.295	-0.03
279.51	0.08
279.724	-0.06
279.938	0.04
280.152	-0.01
280.366	0.01
280.58	0.03
280.794	0.1
281.008	0.06
281.222	0.1
281.437	0.12
281.651	0.04
281.865	0.07
282.079	-0.07
282.293	-0.03
282.507	-0.02
282.721	0.02
282.935	-0
283.148	0
283.362	0
283.576	-0.05
283.79	-0.01
284.004	0
284.218	0.02
284.432	0.03
284.646	-0
284.859	-0.01
285.073	0.01
285.287	0.1
285.501	0
285.714	-0.01
285.928	0.04
286.142	-0.01
286.356	-0.02
286.569	0
286.783	0.07
286.997	-0
287.21	0.05
287.424	0.05
287.637	0.02
287.851	-0.03
288.065	0.04
288.278	-0
288.492	0.03
288.705	0.06
288.919	0.08
289.132	-0.04
289.346	0.04
289.559	-0.07
289.773	-0.04
289.986	-0.02
290.2	0
290.413	0.06
290.626	-0.04
290.84	0.03
291.053	-0
291.267	0.08
291.48	0.01
291.693	0.01
291.906	-0.03
292.12	0.04
292.333	-0.03
292.546	-0
292.76	0.1
292.973	0.02
293.186	0.06
293.399	-0.03
293.612	0.08
293.826	0.02
294.039	0.01
294.252	-0.02
294.465	0.05
294.678	0.06
294.891	0.05
295.104	-0.02
295.317	0.01
295.53	0.02
295.743	-0.02
295.956	-0.04
296.169	0.07
296.382	0.05
296.595	0
296.808	-0.03
297.021	0.02
297.234	0.06
297.447	-0.02
297.66	0.04
297.873	0.11
298.086	0.04
298.299	-0.04
298.511	-0.04
298.724	-0
298.937	-0.03
299.15	0.01
299.363	0.02
299.575	0.07
299.788	0.03
300.001	0.02
300.213	0.02
300.426	-0.04
300.639	-0
300.852	0
301.064	0.07
301.277	0.11
301.489	0.07
301.702	0.06
301.915	0.02
302.127	0.02
302.34	0.01
302.552	0.09
302.765	-0.04
302.977	0.03
303.19	0.02
303.402	0.01
303.615	-0.02
303.827	-0.03
304.04	0.01
304.252	0.02
304.464	-0.01
304.677	0.09
304.889	0.06
305.102	-0.03
305.314	-0
305.526	0.06
305.739	0.03
305.951	-0.02
306.163	0.02
306.375	0.1
306.588	-0.02
306.8	-0.02
307.012	-0.09
307.224	0.03
307.436	0.14
307.649	-0.06
307.861	0.05
308.073	0.03
308.285	-0.01
308.497	-0.01
308.709	-0
308.921	0.04
309.133	0.06
309.346	0.01
309.558	0.02
309.77	0.02
309.982	0.06
310.194	0.06
310.406	-0.05
310.617	0.09
310.829	0.02
311.041	0.05
311.253	-0.04
311.465	-0
311.677	0.02
311.889	0.02
312.101	0.02
312.313	0.08
312.524	0.09
312.736	-0.05
312.948	0.01
313.16	0.09
313.372	0.05
313.583	0.01
313.795	0.01
314.007	-0.03
314.218	0.03
314.43	0.01
314.642	-0.02
314.853	-0.04
315.065	0.05
315.277	-0
315.488	0.05
315.7	0.06
315.912	0.01
316.123	-0.02
316.335	0
316.546	0.11
316.758	0.05
316.969	-0.01
317.181	0.03
317.392	0.02
317.604	0.02
317.815	-0.06
318.026	0.03
318.238	-0.01
318.449	0.03
318.661	-0.09
318.872	-0.02
319.083	-0.01
319.295	0.06
319.506	-0.01
319.717	0.01
319.929	0.02
320.14	-0.04
320.351	0.04
320.562	0.01
320.774	-0
320.985	0.03
321.196	-0.05
321.407	-0.05
321.618	0.04
321.829	0.03
322.041	0.02
322.252	0
322.463	0.03
322.674	-0.01
322.885	-0.03
323.096	0.01
323.307	0.01
323.518	0.03
323.729	-0.01
323.94	0.02
324.151	0.01
324.362	0.06
324.573	0.09
324.784	-0.05
324.995	0.01
325.206	0.02
325.417	0
325.628	0.01
325.838	0.05
326.049	-0.02
326.26	0.09
326.471	-0.01
326.682	0.01
326.892	0.02
327.103	-0.04
327.314	-0.04
327.525	0.07
327.735	0.07
327.946	-0
328.157	-0.01
328.368	0.08
328.578	0.01
328.789	0.05
328.999	0.01
329.21	0
329.421	0.03
329.631	-0.04
329.842	-0.02
330.052	0
330.263	0.07
330.473	0.08
330.684	0.02
330.894	-0.01
331.105	-0.01
331.315	-0
331.526	-0.05
331.736	0.1
331.947	0.03
332.157	0.08
332.367	-0.01
332.578	0.03
332.788	0.05
332.999	0.03
333.209	0.01
333.419	-0.02
333.629	0.03
333.84	0
334.05	0.01
334.26	0.07
334.47	0.03
334.681	0.09
334.891	0
335.101	0.05
335.311	0.12
335.521	0.03
335.732	-0.01
335.942	0.07
336.152	0.01
336.362	0.02
336.572	0.04
336.782	0.05
336.992	-0
337.202	-0.03
337.412	-0.01
337.622	0.02
337.832	0.05
338.042	0.05
338.252	-0.02
338.462	-0.02
338.672	0
338.882	0.04
339.092	0.01
339.302	0.09
339.511	0.04
339.721	-0.04
339.931	-0.01
340.141	0.1
340.351	0.04
340.561	0.07
340.77	0.01
340.98	0.04
341.19	0.07
341.4	-0
341.609	-0.01
341.819	-0.03
342.029	-0.04
342.238	0.04
342.448	0.01
342.658	-0.01
342.867	0.02
343.077	0.03
343.286	0.04
343.496	0.05
343.706	0.07
343.915	-0.03
344.125	0.01
344.334	0.07
344.544	-0.05
344.753	-0.02
344.963	-0.01
345.172	-0.01
345.381	-0.01
345.591	0.02
345.8	0.03
346.01	0.03
346.219	0.09
346.428	-0.12
346.638	-0.01
346.847	0.04
347.056	0.07
347.266	-0.01
347.475	0.01
347.684	0.03
347.893	0.04
348.103	0.08
348.312	-0
348.521	-0.02
348.73	0
348.94	0.03
349.149	0.02
349.358	0.03
349.567	-0.01
349.776	-0.02
349.985	-0
350.194	0.03
350.403	0.02
350.612	-0.01
350.821	0
351.03	-0.01
351.239	-0.05
351.448	0
351.657	-0
351.866	0.08
352.075	0.04
352.284	0.07
352.493	-0.01
352.702	0.07
352.911	0.02
353.12	0.03
353.329	-0.02
353.538	0.03
353.746	0.01
353.955	0.02
354.164	0.04
354.373	-0.02
354.582	0.04
354.79	0.02
354.999	0.06
355.208	0.06
355.416	0.06
355.625	-0.05
355.834	-0.02
356.042	0.03
356.251	-0.01
356.46	-0
356.668	0.04
356.877	0.07
357.085	0.05
357.294	-0.04
357.503	0.03
357.711	-0
357.92	0.16
358.128	0.02
358.337	0.03
358.545	0.01
358.754	0.01
358.962	0.06
359.17	0
359.379	-0
359.587	0.06
359.796	0.01
360.004	0.07
360.212	0.04
360.421	0.1
360.629	0.02
360.837	0.02
361.046	0.01
361.254	0.09
361.462	0
361.67	0.02
361.879	-0.02
362.087	0.06
362.295	-0.01
362.503	-0.04
362.711	-0.04
362.92	-0.03
363.128	0
363.336	-0.04
363.544	0
363.752	-0.02
363.96	-0.01
364.168	-0
364.376	0.05
364.584	0.02
364.792	0.1
365	0.03
365.208	-0.01
365.416	0.06
365.624	0.04
365.832	-0.04
366.04	0.06
366.248	-0
366.456	0.02
366.664	0.01
366.872	0.02
367.079	-0.03
367.287	-0.02
367.495	0.02
367.703	-0.01
367.911	-0.01
368.118	0
368.326	0.03
368.534	-0.02
368.742	0.09
368.949	-0.06
369.157	-0.02
369.365	0.05
369.572	0.01
369.78	-0.03
369.988	0.06
370.195	0.05
370.403	0.03
370.61	0
370.818	0.04
371.026	0.05
371.233	-0
371.441	0.07
371.648	-0.04
371.856	0.02
372.063	0.02
372.271	-0.04
372.478	-0.02
372.685	-0.03
372.893	0.05
373.1	-0.01
373.308	-0.01
373.515	0.1
373.722	0.06
373.93	0.02
374.137	0.07
374.344	0.1
374.552	0.07
374.759	0.04
374.966	0.03
375.173	0.01
375.381	0.05
375.588	0.01
375.795	-0.07
376.002	0.01
376.209	0.01
376.417	-0.01
376.624	0.04
376.831	0.04
377.038	0.04
377.245	-0.06
377.452	-0.02
377.659	0.01
377.866	-0.03
378.073	0.03
378.28	0.01
378.487	0.03
378.694	0.03
378.901	-0
379.108	0.04
379.315	0.08
379.522	0.1
379.729	0.04
379.936	0
380.143	0
380.35	0.02
380.557	-0.01
380.763	0.03
380.97	0.06
381.177	0.02
381.384	0.06
381.591	0.01
381.797	-0.03
382.004	0.03
382.211	0.04
382.418	0.02
382.624	0.06
382.831	0
383.038	0.03
383.244	0.02
383.451	-0.02
383.658	0.01
383.864	0.02
384.071	-0.04
384.277	0.09
384.484	-0.01
384.69	0.04
384.897	-0.01
385.103	0.02
385.31	-0.04
385.516	0
385.723	-0.02
385.929	-0.01
386.136	-0.01
386.342	0.04
386.549	-0.05
386.755	0.08
386.961	0.08
387.168	-0.01
387.374	0.03
387.58	0.03
387.787	-0.01
387.993	0.03
388.199	0
388.406	0.01
388.612	-0.02
388.818	-0.01
389.024	-0.05
389.231	-0.02
389.437	0.07
389.643	0.04
389.849	0.02
390.055	-0.01
390.261	-0
390.467	-0.01
390.674	-0.05
390.88	0.01
391.086	0.03
391.292	-0.02
391.498	0.02
391.704	-0.01
391.91	0
392.116	-0.01
392.322	-0.04
392.528	0.07
392.734	-0.04
392.94	0.01
393.146	-0.01
393.352	0.01
393.557	0.01
393.763	0.02
393.969	0.05
394.175	0.03
394.381	-0.01
394.587	-0.03
394.792	-0.01
394.998	0.04
395.204	0.12
395.41	0.02
395.615	0.02
395.821	0.04
396.027	0.02
396.233	-0.03
396.438	-0.03
396.644	0.11
396.85	0.06
397.055	0.04
397.261	0.03
397.466	0.11
397.672	-0.03
397.878	0.03
398.083	0.03
398.289	-0
398.494	0.05
398.7	0.03
398.905	-0.03
399.111	0.1
399.316	-0.02
399.522	0
399.727	0.03
399.932	-0.02
400.138	-0.03
400.343	0.05
400.549	0.02
400.754	0.02
400.959	0.04
401.165	0.03
401.37	0
401.575	-0.03
401.78	0.03
401.986	-0.02
402.191	-0.02
402.396	0
402.601	0.03
402.807	0.05
403.012	0.01
403.217	0.04
403.422	0.03
403.627	-0
403.832	-0.01
404.037	0.05
404.243	0.03
404.448	0.01
404.653	0
404.858	-0
405.063	0.04
405.268	-0.01
405.473	-0.03
405.678	-0.03
405.883	0.13
406.088	0.02
406.293	-0.04
406.498	-0.01
406.703	0.03
406.907	-0
407.112	-0.05
407.317	-0.04
407.522	0.08
407.727	-0.06
407.932	-0.03
408.136	0.08
408.341	0.02
408.546	0.02
408.751	0.05
408.956	-0
409.16	0.07
409.365	-0.01
409.57	0.01
409.774	0.03
409.979	0.06
410.184	-0
410.388	-0.01
410.593	0.07
410.798	0.04
411.002	0.05
411.207	0
411.411	0.02
411.616	-0.04
411.82	-0.02
412.025	0
412.229	-0.03
412.434	0.07
412.638	0.02
412.843	0.02
413.047	0.01
413.252	-0.03
413.456	-0.02
413.66	0.06
413.865	0.01
414.069	0.06
414.273	-0.01
414.478	-0.05
414.682	0.03
414.886	-0.04
415.091	-0.02
415.295	-0.04
415.499	0.03
415.703	-0
415.908	0.02
416.112	-0.1
416.316	0.04
416.52	0.04
416.724	-0.02
416.929	-0.02
417.133	0.08
417.337	-0.04
417.541	-0.03
417.745	0.03
417.949	0.02
418.153	0.05
418.357	-0.07
418.561	0.06
418.765	0.04
418.969	0.08
419.173	0.03
419.377	-0.03
419.581	0.08
419.785	-0.03
419.989	-0.05
420.193	-0
420.397	-0.02
420.601	0.04
420.804	0.05
421.008	0.02
421.212	0.02
421.416	0.06
421.62	-0
421.823	-0.01
422.027	0.12
422.231	0.02
422.435	-0.02
422.638	0.05
422.842	-0.02
423.046	-0.02
423.249	0.08
423.453	0.04
423.657	0.04
423.86	0.01
424.064	0.02
424.268	0.01
424.471	-0.01
424.675	0.06
424.878	0.05
425.082	0.02
425.285	0.03
425.489	0.04
425.692	0
425.896	-0.04
426.099	0.08
426.303	-0.04
426.506	-0.05
426.71	0
426.913	0.08
427.116	0.07
427.32	0.03
427.523	0.01
427.726	0.1
427.93	-0.05
428.133	0.01
428.336	-0.05
428.54	-0.06
428.743	0.04
428.946	0.05
429.149	0.01
429.353	0.03
429.556	0.01
429.759	0.04
429.962	-0.03
430.165	0.02
430.368	0.01
430.571	-0.01
430.775	0.09
430.978	0.02
431.181	0.04
431.384	0.04
431.587	-0.03
431.79	-0.01
431.993	0.02
432.196	-0.01
432.399	0.01
432.602	0.05
432.805	-0.01
433.008	0.02
433.211	-0.07
433.414	0.07
433.616	0.04
433.819	0.02
434.022	-0.05
434.225	0.08
434.428	0.01
434.631	0.1
434.833	-0
435.036	0
435.239	0.04
435.442	0.04
435.645	-0.04
435.847	-0.02
436.05	0.03
436.253	0.03
436.455	-0.05
436.658	0.02
436.861	0.06
437.063	-0.01
437.266	-0.01
437.468	0.06
437.671	0.14
437.874	0.01
438.076	-0.06
438.279	-0.07
438.481	-0.01
438.684	-0.02
438.886	0.08
439.089	-0.05
439.291	-0
439.494	0.02
439.696	-0.03
439.899	-0
440.101	0.04
440.303	-0.05
440.506	0.07
440.708	0.01
440.91	0.03
441.113	-0.01
441.315	0.05
441.517	-0.04
441.72	-0
441.922	-0
442.124	-0.02
442.326	0.01
442.529	0.08
442.731	-0.04
442.933	0.1
443.135	-0.02
443.337	-0.01
443.539	-0.01
443.742	-0.05
443.944	-0.01
444.146	-0
444.348	-0
444.55	-0.02
444.752	-0
444.954	-0.03
445.156	-0.01
445.358	0.04
445.56	0.07
445.762	0.03
445.964	0.02
446.166	-0.03
446.368	-0.06
446.57	0.04
446.772	0.01
446.974	-0.03
447.175	0.03
447.377	-0.03
447.579	-0.04
447.781	-0.04
447.983	0.08
448.184	0.03
448.386	0.02
448.588	-0.06
448.79	-0.02
448.991	-0
449.193	0
449.395	-0.01
449.597	0.02
449.798	0.05
450	0.01
450.202	0.04
450.403	0.01
450.605	0.03
450.806	0.03
451.008	-0.05
451.21	-0
451.411	0.04
451.613	-0.01
451.814	0.04
452.016	0.03
452.217	0.04
452.419	0.02
452.62	0.04
452.821	0.05
453.023	0.05
453.224	0.06
453.426	0.03
453.627	0.04
453.828	0.05
454.03	-0.02
454.231	0.02
454.432	-0
454.634	0.08
454.835	-0.02
455.036	-0.06
455.238	0.03
455.439	0.1
455.64	-0.07
455.841	0
456.042	0.14
456.244	-0.01
456.445	-0.02
456.646	-0.03
456.847	-0.01
457.048	0.06
457.249	0.09
457.45	0.2
457.651	-0.07
457.852	0.09
458.054	0.01
458.255	0.03
458.456	0.06
458.657	0.04
458.858	-0.03
459.058	0.04
459.259	0.07
459.46	-0.03
459.661	-0.02
459.862	0.13
460.063	-0
460.264	0
460.465	-0.07
460.666	0.11
460.866	-0.04
461.067	0.02
461.268	-0.01
461.469	-0.03
461.67	0.03
461.87	0.02
462.071	-0.06
462.272	-0.02
462.473	-0.01
462.673	0.05
462.874	-0.04
463.075	0.05
463.275	-0.03
463.476	0.02
463.676	0.01
463.877	0.02
464.078	0.02
464.278	0.05
464.479	-0.03
464.679	-0.01
464.88	0.01
465.08	0.07
465.281	-0.03
465.481	0
465.682	-0.03
465.882	0.04
466.083	0.02
466.283	0
466.483	0
466.684	-0.03
466.884	-0.01
467.085	0.02
467.285	0.07
467.485	0.02
467.686	0.02
467.886	-0.07
468.086	-0.02
468.286	0.03
468.487	0.02
468.687	-0.03
468.887	-0.03
469.087	0.07
469.287	-0.01
469.488	-0.05
469.688	0.01
469.888	0.04
470.088	0.05
470.288	0.05
470.488	0.06
470.688	-0.04
470.888	0.03
471.088	0.01
471.288	0.04
471.488	0.04
471.688	0.04
471.888	-0
472.088	0.05
472.288	0.03
472.488	-0.02
472.688	0.01
472.888	0.03
473.088	-0.02
473.288	0.01
473.488	0.05
473.688	0.07
473.887	-0.02
474.087	0.01
474.287	0.02
474.487	-0.02
474.687	0.03
474.886	0.03
475.086	-0.01
475.286	0.03
475.486	0.04
475.685	0.01
475.885	-0.02
476.085	-0.03
476.284	0.01
476.484	-0
476.684	0.06
476.883	0.05
477.083	0.02
477.282	-0.01
477.482	0.09
477.681	0.09
477.881	0.05
478.08	-0.02
478.28	-0.01
478.479	0.01
478.679	0.09
478.878	-0.02
479.078	-0.03
479.277	0
479.477	0.01
479.676	0.03
479.875	-0
480.075	-0.04
480.274	0.05
480.473	0.03
480.673	0.01
480.872	0.06
481.071	-0.01
481.271	0.05
481.47	-0.01
481.669	0.02
481.868	-0.02
482.067	-0.01
482.267	0.01
482.466	0.01
482.665	-0.03
482.864	-0.01
483.063	-0.01
483.262	0.01
483.461	0.06
483.661	0.05
483.86	0
484.059	-0.01
484.258	0.02
484.457	-0.02
484.656	0
484.855	0.05
485.054	-0.05
485.253	-0.01
485.452	-0.02
485.651	-0
485.849	-0.02
486.048	0
486.247	-0.02
486.446	-0
486.645	-0
486.844	-0.04
487.043	0
487.241	0
487.44	0
487.639	-0
487.838	0.02
488.037	0.01
488.235	0.06
488.434	0.02
488.633	0.01
488.831	0.01
489.03	0.04
489.229	0.01
489.427	0.03
489.626	0.05
489.825	0.06
490.023	0.01
490.222	-0.02
490.42	0.03
490.619	0.05
490.817	0
491.016	0
491.214	0.04
491.413	0
491.611	-0.01
491.81	0.01
492.008	0.03
492.207	-0
492.405	0.01
492.604	-0.04
492.802	0.01
493	0.01
493.199	-0.02
493.397	0.01
493.595	-0
493.794	-0.01
493.992	0.03
494.19	0
494.388	0
494.587	-0.02
494.785	0.01
494.983	-0.01
495.181	0.01
495.379	0.01
495.578	-0.01
495.776	0.02
495.974	-0
496.172	-0
496.37	-0.01
496.568	-0.03
496.766	0.01
496.964	0.05
497.162	0
497.36	-0.02
497.558	0.04
497.756	0.02
497.954	0.01
498.152	-0.04
498.35	-0
498.548	-0
498.746	0.03
498.944	-0.02
499.142	-0.02
499.34	-0.02
499.538	-0.01
499.736	-0.01
499.933	0.03
500.131	0.04
500.329	0
500.527	0.03
500.725	0.02
500.922	0.02
501.12	0.01
501.318	0.01
501.516	-0
501.713	0.03
501.911	-0.01
502.109	-0.01
502.306	0.01
502.504	-0
502.701	0
502.899	-0.02
503.097	0.04
503.294	0.03
503.492	-0.01
503.689	0.03
503.887	0.03
504.084	0.07
504.282	0.02
504.479	-0.02
504.677	0.01
504.874	-0.02
505.072	-0
505.269	-0
505.466	-0.01
505.664	-0
505.861	-0.02
506.059	-0.02
506.256	0.01
506.453	-0
506.651	0.04
506.848	0.02
507.045	0.02
507.242	0.01
507.44	0.02
507.637	-0.02
507.834	-0
508.031	0.04
508.229	0
508.426	0.02
508.623	0.03
508.82	-0.02
509.017	-0.02
509.214	-0.01
509.411	0.02
509.608	-0.02
509.805	0
510.003	-0.01
510.2	0.01
510.397	0.03
510.594	-0.01
510.791	-0
510.988	0
511.184	0.02
511.381	0
511.578	0
511.775	0.04
511.972	-0.01
512.169	0.01
512.366	-0.01
512.563	0.01
512.76	-0.01
512.956	0.01
513.153	-0.01
513.35	0.01
513.547	-0
513.744	-0.02
513.94	-0.03
514.137	0.03
514.334	0
514.53	0.01
514.727	0.02
514.924	0.03
515.12	-0.01
515.317	-0.02
515.514	-0.01
515.71	-0.03
515.907	0.01
516.103	0
516.3	0.03
516.497	0.01
516.693	0.04
516.89	0.01
517.086	-0.01
517.283	0.05
517.479	0
517.676	-0.01
517.872	0.01
518.068	0
518.265	-0.01
518.461	0
518.658	-0.01
518.854	0.02
519.05	0
519.247	0.01
519.443	0.03
519.639	0.01
519.836	0.01
520.032	-0
520.228	0.02
520.424	0.03
520.621	0.03
520.817	-0.01
521.013	0.03
521.209	0.03
521.405	0.05
521.601	-0
521.798	0.02
521.994	0.02
522.19	-0
522.386	-0.02
522.582	-0.01
522.778	0.01
522.974	-0.01
523.17	-0
523.366	-0.01
523.562	0.04
523.758	0.01
523.954	-0
524.15	-0
524.346	0.02
524.542	-0
524.738	-0.02
524.934	-0.02
525.129	0.01
525.325	0
525.521	0
525.717	0.02
525.913	0.01
526.109	-0.02
526.304	0.03
526.5	0.03
526.696	0.03
526.892	0.01
527.087	-0.01
527.283	-0.03
527.479	0.02
527.674	-0.01
527.87	0
528.066	0.01
528.261	0.02
528.457	0.01
528.653	-0.02
528.848	0.01
529.044	0.01
529.239	0.01
529.435	0.05
529.63	0.01
529.826	0.05
530.021	0.02
530.217	0.01
530.412	-0.01
530.608	-0.03
530.803	0.01
530.999	0.01
531.194	-0.03
531.389	0.01
531.585	-0.04
531.78	0.01
531.975	-0
532.171	0.04
532.366	-0
532.561	-0.01
532.757	0
532.952	-0
533.147	0.02
533.342	0.01
533.538	-0.02
533.733	0.03
533.928	-0.01
534.123	-0.01
534.318	-0.02
534.513	-0
534.709	0.01
534.904	-0.02
535.099	-0.01
535.294	0
535.489	0.02
535.684	-0.01
535.879	-0.01
536.074	-0
536.269	-0.01
536.464	0.02
536.659	0
536.854	-0
537.049	0.01
537.244	0.02
537.439	-0
537.634	0.02
537.828	-0
538.023	-0.01
538.218	-0.03
538.413	0.02
538.608	-0.02
538.803	0.02
538.997	-0.02
539.192	0.02
539.387	0.02
539.582	0.02
539.776	0.02
539.971	-0.02
540.166	0.02
540.36	-0.01
540.555	0.01
540.75	-0.02
540.944	0
541.139	-0.03
541.334	0.02
541.528	0.02
541.723	0.04
541.917	-0.02
542.112	-0.02
542.306	0.01
542.501	0.01
542.695	0.02
542.89	-0
543.084	0.01
543.279	-0
543.473	0
543.668	-0
543.862	0
544.056	0.02
544.251	0.01
544.445	0.02
544.64	-0
544.834	-0.01
545.028	-0
545.222	0.01
545.417	0.04
545.611	0.01
545.805	0
546	-0.01
546.194	0.01
546.388	-0
546.582	-0
546.776	0.02
546.97	0
547.165	0.03
547.359	0.01
547.553	-0.01
547.747	-0
547.941	0.03
548.135	0.02
548.329	0.03
548.523	0.02
548.717	-0.01
548.911	0.01
549.105	0.01
549.299	0.03
549.493	0.03
549.687	0.02
549.881	0.03
550.075	0.01
550.269	-0.01
550.463	0.05
550.657	-0.01
550.85	0
551.044	-0
551.238	-0
551.432	-0.01
551.626	-0.02
551.82	0.03
552.013	0.01
552.207	0.02
552.401	0.03
552.594	-0.01
552.788	0
552.982	0.03
553.176	-0.01
553.369	0.02
553.563	0.01
553.756	-0.02
553.95	0
554.144	0.01
554.337	0.03
554.531	0.02
554.724	0.03
554.918	0.01
555.111	0.01
555.305	0.03
555.498	0.06
555.692	0.04
555.885	-0.01
556.079	0.01
556.272	-0.01
556.466	0.04
556.659	0.02
556.852	0.03
557.046	0.02
557.239	0.03
557.432	-0
557.626	-0.01
557.819	0.02
558.012	0.04
558.206	0.02
558.399	0.01
558.592	0.03
558.785	0
558.979	0.02
559.172	0.01
559.365	0.03
559.558	0
559.751	0
559.944	0.02
560.138	0.01
560.331	0.03
560.524	-0.02
560.717	0.02
560.91	0.01
561.103	0.04
561.296	0.02
561.489	0.03
561.682	0.01
561.875	0.05
562.068	0.03
562.261	0.01
562.454	0.06
562.647	0.04
562.84	0.04
563.032	-0.01
563.225	0.04
563.418	0.01
563.611	0
563.804	-0
563.997	-0.02
564.19	-0.01
564.382	-0.04
564.575	-0
564.768	0.01
564.961	0.01
565.153	0
565.346	0.04
565.539	0.03
565.731	0.03
565.924	0.05
566.117	0.03
566.309	0.03
566.502	-0.01
566.695	0.01
566.887	0.04
567.08	-0
567.272	-0
567.465	0.01
567.657	0.02
567.85	0.02
568.042	0.03
568.235	0.04
568.427	0.01
568.62	0.01
568.812	0.02
569.005	0.03
569.197	-0.03
569.389	0.01
569.582	0.02
569.774	0.03
569.966	-0.01
570.159	-0.01
570.351	0.03
570.543	0.01
570.736	0.01
570.928	0.01
571.12	0.03
571.312	0.02
571.505	0
571.697	0.04
571.889	0.02
572.081	0.02
572.273	0
572.465	0.08
572.658	0.03
572.85	0.05
573.042	0.03
573.234	0.04
573.426	0.06
573.618	0.02
573.81	0.04
574.002	0.08
574.194	0.07
574.386	-0.01
574.578	-0.03
574.77	0.02
574.962	0.04
575.154	0.02
575.346	0.04
575.538	0.03
575.729	0.02
575.921	0
576.113	0.03
576.305	0.07
576.497	0.04
576.689	0.02
576.88	0.03
577.072	0.06
577.264	0.03
577.456	0.04
577.647	-0.01
577.839	0.06
578.031	0.09
578.223	0.02
578.414	0.03
578.606	0.07
578.798	0.04
578.989	0.02
579.181	0.04
579.372	0.08
579.564	0.06
579.755	0.06
579.947	0.07
580.139	0.11
580.33	0.03
580.522	0.04
580.713	-0.01
580.905	0.05
581.096	0.07
581.287	0.05
581.479	0.07
581.67	0.07
581.862	0.08
582.053	0.05
582.244	0.02
582.436	0.09
582.627	0.1
582.818	0.05
583.01	0.06
583.201	0.09
583.392	0.11
583.583	0.1
583.775	0.07
583.966	0.08
584.157	0.11
584.348	0.08
584.54	0.06
584.731	0.12
584.922	0.12
585.113	0.09
585.304	0.12
585.495	0.14
585.686	0.12
585.877	0.12
586.068	0.12
586.259	0.14
586.45	0.11
586.641	0.12
586.832	0.07
587.023	0.13
587.214	0.15
587.405	0.13
587.596	0.12
587.787	0.17
587.978	0.17
588.169	0.13
588.36	0.13
588.551	0.18
588.742	0.14
588.932	0.2
589.123	0.16
589.314	0.22
589.505	0.18
589.696	0.19
589.886	0.17
590.077	0.15
590.268	0.2
590.458	0.17
590.649	0.17
590.84	0.24
591.03	0.17
591.221	0.19
591.412	0.21
591.602	0.24
591.793	0.25
591.984	0.23
592.174	0.23
592.365	0.32
592.555	0.22
592.746	0.26
592.936	0.28
593.127	0.27
593.317	0.28
593.508	0.27
593.698	0.28
593.889	0.28
594.079	0.27
594.269	0.28
594.46	0.29
594.65	0.3
594.84	0.33
595.031	0.28
595.221	0.34
595.411	0.3
595.602	0.34
595.792	0.36
595.982	0.34
596.172	0.45
596.363	0.38
596.553	0.39
596.743	0.41
596.933	0.39
597.123	0.42
597.314	0.37
597.504	0.39
597.694	0.48
597.884	0.47
598.074	0.44
598.264	0.46
598.454	0.49
598.644	0.44
598.834	0.46
599.024	0.43
599.214	0.5
599.404	0.56
599.594	0.49
599.784	0.48
599.974	0.58
600.164	0.57
600.354	0.53
600.544	0.54
600.734	0.61
600.924	0.59
601.114	0.57
601.303	0.6
601.493	0.64
601.683	0.6
601.873	0.65
602.063	0.62
602.252	0.67
602.442	0.63
602.632	0.66
602.821	0.69
603.011	0.73
603.201	0.72
603.39	0.7
603.58	0.75
603.77	0.76
603.959	0.8
604.149	0.8
604.339	0.81
604.528	0.87
604.718	0.89
604.907	0.87
605.097	0.88
605.286	0.86
605.476	0.92
605.665	0.94
605.855	0.92
606.044	1.01
606.234	0.98
606.423	0.99
606.612	1.01
606.802	1.01
606.991	1.05
607.181	1.05
607.37	1.07
607.559	1.07
607.749	1.09
607.938	1.11
608.127	1.17
608.316	1.16
608.506	1.2
608.695	1.25
608.884	1.22
609.073	1.24
609.263	1.35
609.452	1.36
609.641	1.36
609.83	1.34
610.019	1.39
610.208	1.43
610.397	1.46
610.586	1.53
610.775	1.47
610.965	1.54
611.154	1.54
611.343	1.6
611.532	1.59
611.721	1.67
611.91	1.7
612.099	1.76
612.287	1.7
612.476	1.78
612.665	1.88
612.854	1.83
613.043	1.94
613.232	1.96
613.421	1.97
613.61	2.01
613.798	2.02
613.987	2.12
614.176	2.15
614.365	2.18
614.554	2.24
614.742	2.32
614.931	2.25
615.12	2.41
615.309	2.39
615.497	2.44
615.686	2.45
615.875	2.55
616.063	2.56
616.252	2.67
616.44	2.66
616.629	2.73
616.818	2.8
617.006	2.85
617.195	2.86
617.383	2.94
617.572	2.96
617.76	3.04
617.949	3.1
618.137	3.19
618.326	3.2
618.514	3.18
618.703	3.2
618.891	3.39
619.079	3.41
619.268	3.55
619.456	3.43
619.644	3.59
619.833	3.57
620.021	3.63
620.209	3.61
620.398	3.73
620.586	3.75
620.774	3.84
620.962	3.88
621.151	4.02
621.339	3.96
621.527	3.98
621.715	4.09
621.903	4.18
622.092	4.12
622.28	4.27
622.468	4.17
622.656	4.31
622.844	4.26
623.032	4.39
623.22	4.31
623.408	4.48
623.596	4.47
623.784	4.55
623.972	4.43
624.16	4.53
624.348	4.63
624.536	4.6
624.724	4.56
624.912	4.56
625.1	4.66
625.288	4.66
625.476	4.51
625.664	4.65
625.851	4.56
626.039	4.59
626.227	4.56
626.415	4.57
626.603	4.39
626.79	4.49
626.978	4.43
627.166	4.47
627.354	4.35
627.541	4.27
627.729	4.16
627.917	4.33
628.104	4.2
628.292	4.11
628.48	4.09
628.667	3.95
628.855	3.97
629.042	3.92
629.23	3.76
629.418	3.69
629.605	3.7
629.793	3.45
629.98	3.45
630.168	3.37
630.355	3.36
630.543	3.21
630.73	3.1
630.917	3.04
631.105	3.05
631.292	2.83
631.48	2.76
631.667	2.74
631.854	2.55
632.042	2.55
632.229	2.36
632.416	2.37
632.604	2.26
632.791	2.14
632.978	2.14
633.165	2.06
633.353	2
633.54	1.97
633.727	1.74
633.914	1.78
634.101	1.71
634.289	1.71
634.476	1.55
634.663	1.53
634.85	1.46
635.037	1.44
635.224	1.29
635.411	1.35
635.598	1.3
635.785	1.24
635.972	1.2
636.159	1.15
636.346	1.11
636.533	1.04
636.72	1.04
636.907	0.98
637.094	0.94
637.281	0.88
637.468	0.95
637.655	0.83
637.842	0.83
638.029	0.74
638.215	0.79
638.402	0.74
638.589	0.68
638.776	0.66
638.963	0.62
639.149	0.66
639.336	0.72
639.523	0.58
639.709	0.6
639.896	0.59
640.083	0.6
640.27	0.57
640.456	0.51
640.643	0.49
640.829	0.44
641.016	0.47
641.203	0.43
641.389	0.45
641.576	0.42
641.762	0.38
641.949	0.36
642.135	0.41
642.322	0.42
642.508	0.3
642.695	0.37
642.881	0.32
643.068	0.32
643.254	0.33
643.441	0.37
643.627	0.29
643.813	0.25
644	0.31
644.186	0.25
644.372	0.25
644.559	0.28
644.745	0.24
644.931	0.17
645.118	0.22
645.304	0.21
645.49	0.21
645.676	0.18
645.862	0.22
646.049	0.24
646.235	0.2
646.421	0.26
646.607	0.21
646.793	0.15
646.979	0.14
647.165	0.19
647.352	0.15
647.538	0.18
647.724	0.15
647.91	0.15
648.096	0.17
648.282	0.2
648.468	0.15
648.654	0.15
648.84	0.15
649.026	0.11
649.212	0.11
649.397	0.1
649.583	0.06
649.769	0.16
649.955	0.12
650.141	0.14
650.327	0.1
650.513	0.1
650.698	0.11
650.884	0.05
651.07	0.11
651.256	0.07
651.442	0.09
651.627	0.11
651.813	0.14
651.999	0.08
652.184	0.09
652.37	0.06
652.556	0.05
652.741	0.11
652.927	0.01
653.113	0.09
653.298	0.07
653.484	0.04
653.669	0.01
653.855	0.05
654.04	0.05
654.226	0.08
654.412	0.03
654.597	0.02
654.782	0.07
654.968	0.08
655.153	0.1
655.339	0.03
655.524	0.05
655.71	0.08
655.895	0.07
656.08	0.05
656.266	0.1
656.451	0.06
656.636	0.04
656.822	0.05
657.007	0.02
657.192	-0.01
657.378	0.01
657.563	0.05
657.748	0.08
657.933	0.08
658.118	0.05
658.304	0.04
658.489	0.03
658.674	0.09
658.859	-0
659.044	0.01
659.229	0.06
659.414	-0.01
659.599	0.02
659.785	-0.01
659.97	0.04
660.155	0.05
660.34	0.05
660.525	0.02
660.71	0.03
660.895	0.07
661.08	-0.01
661.264	0.02
661.449	0.08
661.634	0.07
661.819	0.03
662.004	0.07
662.189	-0.04
662.374	0.01
662.559	0
662.743	0.01
662.928	0
663.113	0.01
663.298	-0.03
663.483	0.02
663.667	0.05
663.852	-0.05
664.037	0.05
664.221	0.03
664.406	0.02
664.591	0.03
664.775	0.01
664.96	-0.04
665.145	0.05
665.329	0.03
665.514	0.03
665.698	0.01
665.883	-0.07
666.068	0.09
666.252	0.02
666.437	-0.02
666.621	0.01
666.806	0.06
666.99	0.06
667.174	-0.01
667.359	0.05
667.543	0.04
667.728	0
667.912	-0.04
668.096	0.06
668.281	-0.01
668.465	0.01
668.649	0.01
668.834	-0.01
669.018	-0.02
669.202	0.01
669.387	-0.01
669.571	0.05
669.755	0
669.939	0.01
670.124	-0
670.308	0.09
670.492	0.05
670.676	0.03
670.86	0.03
671.044	-0.04
671.228	0.06
671.413	-0.04
671.597	0
671.781	-0.03
671.965	0.03
672.149	0.05
672.333	0.01
672.517	-0
672.701	0.04
672.885	0
673.069	-0.04
673.253	0.06
673.437	-0.01
673.621	-0.02
673.804	0.02
673.988	-0.01
674.172	-0
674.356	0.01
674.54	-0.01
674.724	0.1
674.908	-0.05
675.091	0.08
675.275	0.01
675.459	0.07
675.643	0.06
675.826	0.04
676.01	0.02
676.194	-0.02
676.377	0.04
676.561	0.05
676.745	0.03
676.928	0.06
677.112	0.1
677.296	-0.06
677.479	-0.02
677.663	-0.04
677.846	0.03
678.03	0.01
678.213	-0.01
678.397	0.03
678.58	0.01
678.764	-0
678.947	-0.01
679.131	-0.05
679.314	0.02
679.498	0.01
679.681	0.04
679.865	0.12
680.048	0
680.231	0.01
680.415	-0.03
680.598	-0.01
680.781	-0.02
680.965	-0.01
681.148	0.05
681.331	0.03
681.514	0.08
681.698	0.01
681.881	0.02
682.064	0.02
682.247	-0.02
682.43	-0.08
682.614	0.05
682.797	0.11
682.98	0.05
683.163	-0.03
683.346	0.02
683.529	-0.01
683.712	-0.04
683.895	0.03
684.078	-0.03
684.261	-0
684.444	-0
684.627	0.03
684.81	-0.04
684.993	0
685.176	0.03
685.359	-0.03
685.542	-0
685.725	0.1
685.908	0.04
686.091	-0.02
686.274	0.09
686.457	0.03
686.639	0.02
686.822	0.09
687.005	0.04
687.188	0.02
687.371	0.1
687.553	-0.03
687.736	0.06
687.919	0.07
688.102	0.12
688.284	-0.03
688.467	0.01
688.65	0.04
688.832	-0.02
689.015	0.03
689.197	-0.06
689.38	0.08
689.563	0.07
689.745	0.01
689.928	0.02
690.11	-0.02
690.293	0.03
690.475	-0.02
690.658	0.01
690.84	-0.01
691.023	-0.04
691.205	-0.02
691.388	0
691.57	0.04
691.752	0.07
691.935	-0.03
692.117	-0
692.3	0.04
692.482	0.07
692.664	-0.01
692.847	0.02
693.029	0.02
693.211	0.07
693.393	-0
693.576	-0.02
693.758	-0.05
693.94	0.01
694.122	0.03
694.304	-0.01
694.487	-0.01
694.669	0.07
694.851	0
695.033	0.02
695.215	-0.03
695.397	0.01
695.579	0.01
695.761	-0.04
695.943	-0.08
696.125	0.08
696.308	0.08
696.49	-0.06
696.671	0.08
696.853	0.01
697.035	0.17
697.217	0.03
697.399	0.01
697.581	-0.05
697.763	0.02
697.945	-0.05
698.127	0.03
698.309	0.06
698.491	0.05
698.672	0.08
698.854	0.07
699.036	0.08
699.218	0.01
699.399	0.02
699.581	0.08
699.763	-0.01
699.945	0.01
700.126	-0.05
700.308	0.01
700.49	0.05
700.671	-0.04
700.853	-0.01
701.035	-0.03
701.216	0.02
701.398	-0.04
701.579	0
701.761	0.07
701.943	0
702.124	-0.04
702.306	0.02
702.487	0.1
702.669	0.02
702.85	-0.03
703.031	-0.05
703.213	0.11
703.394	0.05
703.576	-0.04
703.757	0.1
703.938	-0.02
704.12	0.18
704.301	0.01
704.483	-0
704.664	0.03
704.845	0.13
705.026	0.05
705.208	-0.02
705.389	0.09
705.57	0.04
705.751	-0.01
705.933	0.05
706.114	0.04
706.295	0.04
706.476	-0.05
706.657	0.08
706.838	0.04
707.02	0.08
707.201	-0.02
707.382	0.01
707.563	0.04
707.744	-0.01
707.925	-0.02
708.106	-0.07
708.287	-0.02
708.468	0.09
708.649	0.02
708.83	0.1
709.011	0.04
709.192	0.02
709.373	0.03
709.554	0.03
709.734	0.06
709.915	0.02
710.096	0.02
710.277	-0.08
710.458	0.02
710.639	0.05
710.819	-0.07
711	0.02
711.181	0.12
711.362	0.04
711.542	0.05
711.723	0.01
711.904	0.09
712.085	0.05
712.265	0.07
712.446	-0.05
712.627	-0.04
712.807	0.03
712.988	-0.04
713.168	-0.11
713.349	-0
713.53	-0.09
713.71	-0.03
713.891	-0.08
714.071	-0.01
714.252	0.01
714.432	-0.07
714.613	-0.12
714.793	0.04
714.974	0.07
715.154	0.1
715.334	0.04
715.515	0.06
715.695	-0.07
715.876	0.01
716.056	0.03
716.236	0.02
716.417	0.04
716.597	0.03
716.777	0.15
716.957	0.05
717.138	0.03
717.318	0.04
717.498	-0.01
717.678	0.02
717.859	0.06
718.039	-0.05
718.219	0.01
718.399	0.08
718.579	-0.03
718.759	-0.02
718.939	0.05
719.12	0.01
719.3	-0.02
719.48	-0.09
719.66	-0.04
719.84	0.1
720.02	0.04
720.2	0.02
720.38	0.02
720.56	0.12
720.74	-0.04
720.92	0.04
721.1	0.08
721.279	0.06
721.459	0.12
721.639	-0.07
721.819	-0
721.999	-0.03
722.179	0.03
722.359	-0.06
722.538	0.07
722.718	0.08
722.898	0.03
723.078	-0.06
723.257	-0.02
723.437	-0
723.617	0.02
723.797	-0.04
723.976	0.02
724.156	0.01
724.336	0.07
724.515	0.16
724.695	-0.04
724.874	-0.03
725.054	0.01
725.234	-0.07
725.413	-0
725.593	-0.05
725.772	-0.02
725.952	-0.04
726.131	0.01
726.311	0.08
726.49	0.09
726.67	-0.1
726.849	-0.08
727.028	0.06
727.208	-0
727.387	0.04
727.567	-0.09
727.746	-0.03
727.925	-0.03
728.105	-0.06
728.284	-0.07
728.463	-0.02
728.643	0.03
728.822	-0.01
729.001	-0.08
729.18	-0.01
729.359	0.09
729.539	0.01
729.718	0.1
729.897	0.06
730.076	0.01
730.255	-0.1
730.434	0.02
730.614	0.07
730.793	0.03
730.972	0.05
731.151	0.07
731.33	0.16
731.509	-0
731.688	0.04
731.867	0.03
732.046	-0.05
732.225	0.16
732.404	0.02
732.583	-0.11
732.762	0.02
732.941	0.09
733.12	0.02
733.298	-0.05
733.477	0.03
733.656	-0.02
733.835	-0.08
734.014	0.07
734.193	-0.01
734.371	0.12
734.55	0.07
734.729	-0.14
734.908	-0.05
735.086	0.03
735.265	0.1
735.444	-0.11
735.623	-0.12
735.801	-0.12
735.98	0.08
736.159	0.01
736.337	0.09
736.516	0.02
736.694	0.03
736.873	0
737.052	0.16
737.23	0.08
737.409	0.02
737.587	0.19
737.766	-0.14
737.944	-0.09
738.123	0.02
738.301	0.14
738.479	-0.05
738.658	0.04
738.836	-0.21
739.015	0.05
739.193	0.06
739.371	-0.12
739.55	-0.03
739.728	-0.07
739.906	0.18
740.085	0.22
740.263	0
740.441	-0.17
740.62	0.13
740.798	0.01
740.976	-0.11
741.154	-0.03
741.332	0.18
741.511	-0.05
741.689	-0.09
741.867	0.03
742.045	0.06
742.223	-0.02
742.401	-0.1
742.579	-0.11
742.757	0.02
742.935	-0.02
743.114	-0.04
743.292	-0.04
743.47	-0.04
743.648	0.01
743.826	-0.08
744.004	0.11
744.181	0.04
744.359	-0.08
744.537	0.08
744.715	-0.05
744.893	-0.04
745.071	-0.02
745.249	-0.01
745.427	-0.08
745.605	0
745.782	0.03
745.96	-0
746.138	0.03
746.316	0.07
746.493	-0.09
746.671	-0.05
746.849	-0.06
747.027	0.12
747.204	-0.08
747.382	0.05
747.56	-0.06
747.737	0.08
747.915	-0.03
748.093	0.07
748.27	0.02
748.448	-0.07
748.625	0.03
748.803	-0.11
748.98	-0.07
749.158	0.09
749.335	0.08
749.513	-0
749.69	0.02
749.868	-0.02
750.045	0.06
750.223	-0.05
750.4	-0.15
750.578	0.22
750.755	0.01
750.932	-0.17
751.11	0.18
751.287	-0.18
751.464	0.07
751.642	-0.08
751.819	0.01
751.996	-0.05
752.173	-0.03
752.351	-0.04
752.528	-0.02
752.705	0.04
752.882	-0.03
753.06	0.06
753.237	0.19
753.414	0.23
753.591	0.12
753.768	-0.01
753.945	0.01
754.122	-0.1
754.299	0.07
754.476	-0.04
754.654	-0
754.831	0.05
755.008	0.03
755.185	-0.05
755.362	-0.11
755.539	0
755.716	-0.06
755.892	-0.03
756.069	-0
756.246	0.06
756.423	-0.07
756.6	0.02
756.777	-0.01
756.954	0.12
757.131	-0
757.307	-0.19
757.484	-0.04
757.661	0.02
757.838	0.07
758.015	-0.08
758.191	0.12
758.368	0.05
758.545	0.05
758.721	0.07
758.898	-0.09
759.075	0.07
759.251	0.15
759.428	0.16
759.605	-0.21
759.781	-0.03
759.958	0.12
760.134	-0.01
760.311	-0.08
760.488	0.13
760.664	0.05
760.841	0.06
761.017	-0.13
761.194	0.08
761.37	-0
761.547	0.03
761.723	-0.06
761.899	0.09
762.076	-0.14
762.252	-0.05
762.429	0.04
762.605	0.02
762.781	0.03
762.958	0.13
763.134	-0.09
763.31	-0.02
763.486	0.1
763.663	-0.2
763.839	-0.06
764.015	-0.14
764.191	-0.11
764.368	-0.12
764.544	-0.09
764.72	0.09
764.896	0.1
765.072	-0.02
765.248	-0.06
765.425	-0.04
765.601	-0
765.777	0
765.953	-0.17
766.129	0
766.305	-0.14
766.481	0.1
766.657	0.13
766.833	0.05
767.009	0.01
767.185	-0.12
767.361	0.04
767.537	-0.08
767.713	0.17
767.889	0.07
768.065	0.09
768.24	-0.15
768.416	0.05
768.592	0.01
768.768	0.12
768.944	-0.01
769.12	-0.13
769.295	-0.13
769.471	-0.1
769.647	-0.02
769.823	0.11
769.998	-0.05
770.174	-0.02
770.35	0.42
770.525	0.26
770.701	0.1
770.877	0.09
771.052	-0.02
771.228	0.06
771.403	0.19
771.579	0.09
771.755	0.21
771.93	-0.13
772.106	-0.22
772.281	-0.15
772.457	0
772.632	0.1
772.808	-0.16
772.983	-0.12
773.159	-0.11
773.334	0.22
773.509	0.04
773.685	-0.09
773.86	0.25
774.036	0.15
774.211	0.01
774.386	-0.12
774.562	-0.06
774.737	0.18
774.912	-0.12
775.087	0.14
775.263	0.05
775.438	0.01
775.613	-0.04
775.788	-0.11
775.964	0.31
776.139	0.35
776.314	-0.09
776.489	0.11
776.664	0.07
776.839	-0.04
777.014	0.18
777.19	0.17
777.365	0.14
777.54	0.15
777.715	-0.03
777.89	0.06
778.065	-0.14
778.24	-0.04
778.415	0.14
778.59	-0.07
778.765	-0.14
778.94	0.09
779.115	-0.15
779.289	-0.06
779.464	0.16
779.639	0.06
779.814	-0.01
779.989	-0.14
780.164	0.19
780.339	0.2
780.513	0.01
780.688	-0.02
780.863	0.01
781.038	0.07
781.212	-0.2
781.387	0.05
781.562	0.21
781.737	-0.05
781.911	0.16
782.086	-0.15
782.261	0.07
782.435	0.31
782.61	-0.15
782.784	0.06
782.959	0.24
783.134	-0.02
783.308	-0.12
783.483	-0.07
783.657	0.35
783.832	0.19
784.006	-0.15
784.181	-0.03
784.355	0.34
784.53	-0.17
784.704	-0.1
784.878	0.22
785.053	-0.06
785.227	0.45
785.402	0.38
785.576	-0.38
785.75	-0.28
785.925	-0.05
786.099	0.17
786.273	0.05
786.448	-0
786.622	0.4
786.796	0.15
786.97	0.14
787.145	0.27
787.319	-0.29
787.493	-0.05
787.667	-0.46
787.841	0.07
788.015	0.28
788.19	-0.19
788.364	0.11
788.538	0.43
788.712	0.19
788.886	-0.03
789.06	0.22
789.234	0.19
789.408	-0.2
789.582	0.04
789.756	0.08
789.93	0.02
790.104	-0.02
790.278	-0.09
790.452	-0.27
790.626	0.23
790.8	-0.11
790.973	0.08
791.147	0.24
791.321	0.17
791.495	0.21
791.669	0.17
791.843	0.18
792.016	-0
792.19	0.33
792.364	-0.16
792.538	0.5
792.711	0.33
792.885	0.07
793.059	-0.26
793.233	-0.52
793.406	0.21
793.58	0.16
793.754	0.16
793.927	0.2
794.101	0.18
794.274	0.27
794.448	0.25
794.622	0
794.795	0.22
794.969	0.04
795.142	0.25
795.316	-0.08
795.489	-0.06
795.663	0.41
795.836	0.23
796.009	-0.13
796.183	0.3
796.356	0.07
796.53	-0.09
796.703	0.02
796.876	0.58
797.05	0.05
797.223	-0.1
797.396	0.05
797.57	-0.16
797.743	0.27
797.916	0.14
798.09	0.09
798.263	0.22
798.436	0.17
798.609	-0.03
798.782	0.02
798.956	0.43
799.129	0.02
799.302	-0.05
799.475	0
799.648	-0.14
799.821	-0.28
799.994	-0.11
800.167	-0.31
800.34	0.02
800.514	0.18
800.687	0.13
800.86	-0.18
801.033	-0.16
801.206	-0.06
801.379	-0.24
801.551	0.27
801.724	0.36
801.897	0.32
802.07	0.06
802.243	-0.25
802.416	0.14
802.589	0.1
802.762	0.31
802.935	-0.07
803.107	-0.02
803.28	0.14
803.453	0.17
803.626	0.06
803.798	0.2
803.971	-0.05
804.144	0.14
804.317	0.03
804.489	0.38
804.662	0.09
804.835	0.08
805.007	-0.23
805.18	0.21
805.353	0.25
805.525	-0.2
805.698	-0.36
805.87	0.21
806.043	0.21
806.215	-0.27
806.388	-0.14
806.56	0.31
806.733	0.48
806.905	0.29
807.078	-0.25
807.25	-0.31
807.423	-0.04
807.595	-0.08
807.768	0.35
807.94	0.35
808.112	0.24
808.285	0.2
808.457	-0.13
808.629	0.13
808.802	0.28
808.974	-0.13
809.146	-0.03
809.318	0.01
809.491	0.23
809.663	0.52
809.835	-0.08
810.007	0.03
810.18	-0.21
810.352	-0.35
810.524	0.02
810.696	0.05
810.868	0.34
811.04	-0.06
811.212	-0.44
811.384	0.29
811.556	0.43
811.728	0.2
811.901	0.82
812.073	0.01
812.245	0.25
812.417	0.43
812.589	-0.37
812.76	-0
812.932	0.29
813.104	0.45
813.276	0.3
813.448	0.47
813.62	-0.32
813.792	0.15
813.964	0.05
814.136	0.14
814.307	0.3
814.479	0.07
814.651	0.04
814.823	0.67
814.995	-0.25
815.166	0.18
815.338	-0.15
815.51	-0.37
815.681	0.84
815.853	0.11
816.025	0.03
816.196	0.42
816.368	0.13
816.54	-0.4
816.711	-0.11
816.883	0.05
817.054	0.62
817.226	-0.62
817.398	0.24
817.569	0.1
817.741	0.36
817.912	0.39
818.084	-0.25
818.255	0.4
818.426	-0.07
818.598	-0.29
818.769	-0.15
818.941	0.39
819.112	0.21
819.283	0.2
819.455	-0.04
819.626	0.58
819.798	0.23
819.969	-0.11
820.14	0.07
820.311	-0.02
820.483	0.21
820.654	-0.13
820.825	0.04
820.996	-0.23
821.168	-0.12
821.339	0.03
821.51	-0.48
821.681	-0.08
821.852	-0.06
822.023	-0.59
822.195	-0.15
822.366	0.37
822.537	0.13
822.708	0.07
822.879	-0.22
823.05	0.77
823.221	-0.13
823.392	0.29
823.563	0.15
823.734	0.23
823.905	-0.41
824.076	0.27
824.247	0.11
824.418	0.08
824.589	0.7
824.759	0.02
824.93	0.08
825.101	-0.25
825.272	0.52
825.443	0.74
825.614	0.48
825.784	-0.98
825.955	0.92
826.126	0.19
826.297	0.08
826.467	0.5
826.638	0.8
826.809	-0.59
826.98	0.05
827.15	0.05
827.321	-0.08
827.492	1.27
827.662	0.14
827.833	1.08
828.003	0.36
828.174	-0.8
828.345	-0.59
828.515	0.92
828.686	0.35
828.856	0.3
829.027	0.26
829.197	0.55
829.368	0.24
829.538	0.14
829.709	-0.15
829.879	0.13
830.049	-0.12
830.22	-0.35
830.39	-0.27
830.56	0.5
830.731	0.09
830.901	-0.52
831.072	0.08
831.242	0.25
831.412	0.45
831.582	-0.02
831.753	-0.11
831.923	0.42
832.093	0.53
832.263	0.22
832.434	-0.5
832.604	0.61
832.774	0.31
832.944	0.13
833.114	-0.03
833.284	0.54
833.454	0.05
833.624	0.12
833.795	-0.37
833.965	0.63
834.135	0.55
834.305	-0.76
834.475	-0.18
834.645	0.18
834.815	-0.22
834.985	-0.39
835.155	-0.34
835.325	0.64
835.494	0.28
835.664	-0.02
835.834	-0.65
836.004	0.16
836.174	0.01
836.344	-0.16
836.514	-0.58
836.684	-0.16
836.853	0.47
837.023	0.24
837.193	-0.22
837.363	0.63
837.532	0.71
837.702	-0
837.872	-0.52
838.041	0.88
838.211	1.37
838.381	-0.74
838.55	0.19
838.72	2.11
838.89	0.74
839.059	-0.05
839.229	-0.35
839.398	0.75
839.568	0.16
839.738	-0.1
839.907	1.25
840.077	1.1
840.246	-0.46
840.416	-0.17
840.585	-0.15
840.755	1.22
840.924	0.61
841.093	-0.1
841.263	0.4
841.432	0.4
841.602	-0.05
841.771	-0.6
841.94	-0.62
842.11	1.53
842.279	1.1
842.448	-1.07
842.617	-0.63
842.787	0.9
842.956	-0.54
843.125	-0.07
843.294	0.59
843.464	0.83
843.633	0.29
843.802	-0.68
843.971	0.57
844.14	0.38
844.309	0.7
844.479	0.28
844.648	0.06
844.817	-0.22
844.986	0.33
845.155	-0.24
845.324	-0.32
845.493	-0.27
845.662	-0.34
845.831	-0.12
846	0.83
846.169	1.05
846.338	1.04
846.507	1.1
846.676	0.29
846.844	-0.15
847.013	-0.16
847.182	-0.1
847.351	0.12
847.52	-0.22
847.689	0.39
847.858	0.32
848.026	-0.51
848.195	0.13
848.364	0.14
848.533	0.2
848.701	-0.32
848.87	0.02
849.039	1.03
849.207	1.64
849.376	0.47
849.545	1.38
849.713	-0.86
849.882	0.41
850.051	-0.45
850.219	0.44
850.388	0.6
850.556	-0.07
850.725	-0.08
850.893	0.81
851.062	0.44
851.23	0.9
851.399	-1.23
851.567	-1.11
851.736	-0.27
851.904	-0.41
852.073	0.09
852.241	1.46
852.41	0.59
852.578	-0.44
852.746	-0.19
852.915	0.24
853.083	0.31
853.251	-0.66
853.42	0.1
853.588	1.65
853.756	1.96
853.924	0.68
854.093	-0.36
854.261	-0.07
854.429	-0.79
854.597	0.36
854.765	-0.51
854.934	0.33
855.102	1.07
855.27	-0.15
855.438	-0.04
855.606	0.85
855.774	1.18
855.942	-1.16
856.11	-1.73
856.278	-0.23
856.446	1.71
856.614	0.78
856.782	-0.86
856.95	1.5
857.118	1.07
857.286	1.1
857.454	-0.23
857.622	0.76
857.79	0.82
857.958	-0.64
858.126	-0.25
858.294	-2.67
858.462	0.44
858.629	-1.27
858.797	-1.57
858.965	-0.92
859.133	0.1
859.301	0.3
859.468	0.77
859.636	-1.22
859.804	1.41
859.971	2.01
860.139	0.11
860.307	0.86
860.474	-0.1
860.642	-0.9
860.81	-0.07
860.977	-0.18
861.145	1.21
861.313	-0.53
861.48	-0.04
861.648	-0.28
861.815	-1.19
861.983	-0.68
862.15	-0.99
862.318	1.46
862.485	0.4
862.653	0.32
862.82	-0.04
862.988	1.47
863.155	0.97
863.322	-2.29
863.49	-1.89
863.657	-0.59
863.824	2.33
863.992	1.68
864.159	0.41
864.326	1.49
864.494	-1.19
864.661	3.81
864.828	-1.05
864.996	1.69
865.163	2.66
865.33	-0.46
865.497	-1.72
865.664	0.31
865.832	-0.95
865.999	-0.15
866.166	-0.71
866.333	-0.09
866.5	-0.29
866.667	0.93
866.834	-1.44
867.001	0.73
867.168	-2.12
867.335	0.59
867.502	-1.22
867.669	1.76
867.836	2.59
868.003	0.53
868.17	0.65
868.337	-0.12
868.504	2.33
868.671	-0.87
868.838	-0.81
869.005	-0.02
869.172	-1.17
869.339	0.36
869.505	0.58
869.672	-0.04
869.839	2.17
870.006	1.11
870.173	-1.88
870.339	0.91
870.506	2.49
870.673	-1.71
870.84	-0.45
871.006	1.33
871.173	0.07
871.34	-0.6
871.506	-2.01
871.673	0.87
871.839	-2.44
872.006	-0.15
872.173	0.5
872.339	1.13
872.506	1.3
872.672	0.96
872.839	-1.2
873.005	0.63
873.172	2.93
873.338	2.18
873.505	-0.59
873.671	0.73
873.838	1.5
874.004	-1.67
874.171	-1.59
874.337	1.59
874.503	2.95
874.67	0.44
874.836	-0.82
875.002	2.26
875.169	-0.2
875.335	1.86
875.501	-0.74
875.668	1.54
875.834	-0.13
876	-0.25
876.166	2.28
876.332	1.63
876.499	2.25
876.665	-1.4
876.831	-0.48
876.997	3.05
877.163	2.69
877.329	0.14
877.495	1.49
877.662	1.84
877.828	1.04
877.994	1.06
878.16	-2.7
878.326	1.82
878.492	0.81
878.658	-1.8
878.824	0.94
878.99	0.48
879.156	-1.55
879.322	1.54
879.487	-1.2
879.653	1.41
879.819	0.81
879.985	-1.38
880.151	-0.36
880.317	0.57
880.483	0.8
880.648	0.44
880.814	-2.02
880.98	0.63
881.146	-2.28
881.312	-0.79
881.477	-0.4
881.643	0.63
881.809	1.37
881.974	2.63
882.14	-2.45
882.306	-0.74
882.471	3.99
882.637	-0.72
882.803	1.12
882.968	4.48
883.134	2.31
883.299	-0.66
883.465	0.42
883.63	0.67
883.796	0.46
883.961	-0.25
884.127	-0.02
884.292	-3.81
884.458	-2.61
884.623	-2.61
