Data from Apollo_Calib_20240827__AbsoluteIrradiance__514__07-43-01-191.txt Node

Date: Wed Aug 28 07:43:01 BST 2024
User: biology
Spectrometer: FLMT08252
Trigger mode: 0
Integration Time (sec): 5.000000E-1
Scans to average: 5
Electric dark correction enabled: true
Nonlinearity correction enabled: false
Boxcar width: 0
XAxis mode: Wavelengths
Number of Pixels in Spectrum: 3648
>>>>>Begin Spectral Data<<<<<
179.588	-0
179.809	-0
180.03	-0
180.251	-0
180.473	-0
180.694	0
180.915	0
181.136	-0
181.357	0
181.578	0
181.799	-0
182.02	-0
182.241	0
182.462	-0
182.683	0
182.904	-0
183.125	-0
183.346	0
183.567	0
183.788	-0
184.009	-0
184.23	0
184.451	0
184.672	-0
184.892	-0
185.113	-0
185.334	0
185.555	-0
185.776	-0
185.996	0
186.217	-0
186.438	-0
186.659	-0
186.879	0
187.1	-0
187.321	-0
187.541	-0
187.762	0
187.983	-0
188.203	-0
188.424	-0
188.644	-0
188.865	-0
189.086	-0
189.306	0
189.527	-0
189.747	0
189.968	-0
190.188	0
190.409	-0
190.629	0
190.849	-0
191.07	-0
191.29	0
191.511	-0
191.731	-0
191.951	-0
192.172	-0
192.392	-0
192.612	-0
192.833	-0
193.053	0
193.273	0
193.493	-0
193.714	-0
193.934	0
194.154	0
194.374	-0
194.594	0
194.815	-0
195.035	0
195.255	-0
195.475	-0
195.695	0
195.915	-0
196.135	-0
196.355	0
196.575	0
196.795	-0
197.015	-0
197.235	-0
197.455	-0
197.675	0
197.895	-0
198.115	-0
198.335	0
198.555	-0
198.775	-0
198.995	0
199.214	0
199.434	-0
199.654	-0
199.874	-0
200.094	0.3
200.313	-0.22
200.533	-0.46
200.753	-0.76
200.973	0.48
201.192	0.28
201.412	-1.13
201.632	-0.74
201.851	0.55
202.071	-0.44
202.291	-0.84
202.51	-0.82
202.73	0.62
202.95	-0.15
203.169	0.05
203.389	0.08
203.608	0.14
203.828	-0.6
204.047	-0.34
204.267	0.12
204.486	-0.27
204.706	0.16
204.925	-0.26
205.145	-0.19
205.364	0.58
205.583	0.13
205.803	-0.34
206.022	-0.57
206.242	-0.07
206.461	0.07
206.68	-0.17
206.9	0.02
207.119	0.4
207.338	0.47
207.557	-0.15
207.777	-0.43
207.996	-0.16
208.215	0.35
208.434	-0.37
208.654	-0.52
208.873	0.1
209.092	0.31
209.311	-0.01
209.53	-0.4
209.749	-0.2
209.968	-0.28
210.187	-0.23
210.407	-0.42
210.626	-0.01
210.845	0.15
211.064	0.15
211.283	-0.18
211.502	0.22
211.721	-0.02
211.94	-0.23
212.159	0.17
212.377	0.01
212.596	0.15
212.815	-0.22
213.034	0.17
213.253	0
213.472	0.01
213.691	-0.27
213.91	-0.38
214.128	-0.17
214.347	0.12
214.566	-0.55
214.785	-0.36
215.003	0.22
215.222	0.03
215.441	0.14
215.66	-0.26
215.878	-0.09
216.097	-0.06
216.316	-0.24
216.534	-0.14
216.753	-0.12
216.972	-0.23
217.19	0.08
217.409	-0.18
217.627	-0.2
217.846	-0.24
218.064	-0.15
218.283	-0.1
218.501	0.4
218.72	-0
218.938	-0.18
219.157	-0.21
219.375	0.12
219.594	-0.04
219.812	-0.29
220.031	-0.25
220.249	0.28
220.467	0.21
220.686	-0.1
220.904	-0.24
221.122	-0.17
221.341	0.27
221.559	0.1
221.777	-0.06
221.995	-0.03
222.214	0.25
222.432	-0.11
222.65	0.1
222.868	-0.09
223.086	0.09
223.305	0.07
223.523	-0.08
223.741	0.08
223.959	-0.23
224.177	-0.19
224.395	-0.18
224.613	-0.06
224.831	0.16
225.049	-0.18
225.267	-0.09
225.485	-0.05
225.703	0.02
225.921	0.02
226.139	-0.1
226.357	0.1
226.575	0.03
226.793	-0
227.011	0.46
227.229	-0.05
227.447	0.12
227.665	-0.08
227.883	-0.29
228.1	-0.09
228.318	-0.03
228.536	-0.14
228.754	-0.16
228.972	0.05
229.189	0.18
229.407	-0.09
229.625	-0.08
229.843	0.13
230.06	-0
230.278	-0.2
230.496	0.02
230.713	0.06
230.931	0.14
231.149	-0.18
231.366	-0.2
231.584	-0.08
231.801	0.19
232.019	-0.08
232.236	-0.12
232.454	-0.22
232.671	0.1
232.889	-0.11
233.106	-0.11
233.324	-0.1
233.541	-0.2
233.759	0.04
233.976	-0.11
234.194	-0
234.411	-0.07
234.628	-0.05
234.846	-0.1
235.063	-0.1
235.28	-0.06
235.498	-0.05
235.715	-0.25
235.932	0.04
236.149	-0.06
236.367	-0.16
236.584	-0.04
236.801	-0.08
237.018	0.06
237.236	0.02
237.453	-0.11
237.67	0.06
237.887	-0.08
238.104	0.09
238.321	-0.21
238.538	-0.15
238.755	0.15
238.973	-0.19
239.19	-0.04
239.407	-0.01
239.624	0
239.841	-0.12
240.058	-0.18
240.275	0.04
240.492	-0.08
240.709	-0.06
240.925	0.03
241.142	-0
241.359	-0.01
241.576	-0.15
241.793	-0
242.01	0.09
242.227	0.05
242.444	0.03
242.66	0.07
242.877	-0.07
243.094	-0.01
243.311	-0.02
243.527	-0.06
243.744	0.02
243.961	0.05
244.178	-0.09
244.394	-0.02
244.611	0.14
244.828	0.09
245.044	-0.14
245.261	-0.03
245.477	-0.09
245.694	0.02
245.911	-0.12
246.127	-0.03
246.344	0.09
246.56	0.05
246.777	-0.04
246.993	-0.02
247.21	-0.03
247.426	0.12
247.643	-0.1
247.859	-0.12
248.076	-0.03
248.292	0.16
248.508	-0.15
248.725	0.06
248.941	0.04
249.157	0.06
249.374	-0.12
249.59	-0.04
249.806	0.01
250.023	0.02
250.239	-0.04
250.455	-0.04
250.671	0.05
250.888	0.02
251.104	0
251.32	-0.02
251.536	-0.1
251.752	-0.08
251.969	0.01
252.185	-0.04
252.401	0.1
252.617	0.07
252.833	-0.05
253.049	-0.01
253.265	-0.04
253.481	0.01
253.697	-0.05
253.913	-0.08
254.129	0
254.345	0.02
254.561	-0.03
254.777	-0.06
254.993	-0
255.209	0.01
255.425	-0.05
255.641	-0.03
255.857	0.04
256.073	-0.03
256.288	-0.15
256.504	-0.05
256.72	0.04
256.936	0.09
257.152	-0.04
257.367	-0.06
257.583	-0.06
257.799	0.06
258.015	-0.09
258.23	-0.03
258.446	0.08
258.662	0.05
258.877	-0.04
259.093	-0.01
259.309	0
259.524	-0.01
259.74	-0.06
259.955	-0.06
260.171	0.02
260.387	-0.06
260.602	0.03
260.818	-0.01
261.033	-0.12
261.249	-0.05
261.464	-0.06
261.68	-0.1
261.895	0.07
262.11	-0.01
262.326	-0.04
262.541	-0.09
262.757	0.02
262.972	0.04
263.187	-0.04
263.403	-0.1
263.618	0.04
263.833	-0.05
264.049	-0.05
264.264	-0.04
264.479	0
264.694	0.08
264.91	-0.09
265.125	-0.04
265.34	0.04
265.555	0.11
265.77	0.01
265.986	-0.05
266.201	0.05
266.416	0.07
266.631	-0.04
266.846	0.02
267.061	0.05
267.276	-0.01
267.491	-0.14
267.706	0.04
267.921	-0.02
268.136	0.01
268.351	-0.03
268.566	-0.09
268.781	0.02
268.996	0.04
269.211	0.02
269.426	-0.11
269.641	-0.1
269.856	0.03
270.071	-0.07
270.285	-0.07
270.5	0.06
270.715	0.07
270.93	-0.01
271.145	-0.02
271.359	-0
271.574	-0.09
271.789	-0.04
272.004	-0.04
272.218	-0.06
272.433	-0.03
272.648	-0.07
272.862	0.02
273.077	0.01
273.292	-0
273.506	-0.03
273.721	-0.05
273.936	0
274.15	0.07
274.365	0.01
274.579	0.06
274.794	0.07
275.008	0.08
275.223	-0.12
275.437	-0.04
275.652	0.01
275.866	0.04
276.081	0.02
276.295	0.01
276.509	0.02
276.724	-0.01
276.938	0.02
277.153	0.03
277.367	0.07
277.581	-0.04
277.796	-0.06
278.01	-0.05
278.224	0.01
278.438	0.06
278.653	-0.04
278.867	-0.06
279.081	-0.22
279.295	-0.04
279.51	0.05
279.724	-0.07
279.938	-0.02
280.152	0
280.366	-0.04
280.58	-0.02
280.794	0.04
281.008	0.01
281.222	0.04
281.437	0.09
281.651	-0.01
281.865	0.09
282.079	-0.02
282.293	-0.06
282.507	-0.02
282.721	-0.01
282.935	0.02
283.148	-0.06
283.362	-0.05
283.576	-0.05
283.79	-0.03
284.004	-0.05
284.218	0.04
284.432	-0.04
284.646	-0.03
284.859	-0.02
285.073	-0.05
285.287	-0.03
285.501	-0.03
285.714	-0.04
285.928	0.03
286.142	-0.02
286.356	-0.06
286.569	-0.02
286.783	0.07
286.997	0.01
287.21	0.07
287.424	-0.01
287.637	-0.01
287.851	0.01
288.065	0.02
288.278	-0.02
288.492	0.05
288.705	-0.05
288.919	0.02
289.132	-0.07
289.346	0.05
289.559	-0.09
289.773	-0.07
289.986	-0.04
290.2	0
290.413	0.02
290.626	-0.03
290.84	-0.01
291.053	0.01
291.267	0.07
291.48	0.01
291.693	-0.01
291.906	-0.05
292.12	-0.02
292.333	-0.08
292.546	-0.04
292.76	0.08
292.973	0.01
293.186	0
293.399	-0.04
293.612	0.06
293.826	-0.01
294.039	0
294.252	-0.01
294.465	0.05
294.678	0.05
294.891	0.01
295.104	-0.07
295.317	-0
295.53	-0.01
295.743	-0.04
295.956	-0.01
296.169	0.09
296.382	0.06
296.595	-0.02
296.808	-0.07
297.021	0.04
297.234	0.03
297.447	0.02
297.66	-0.03
297.873	0.06
298.086	0.01
298.299	-0.07
298.511	-0.05
298.724	-0.06
298.937	-0.05
299.15	-0.04
299.363	0.02
299.575	0.03
299.788	0.02
300.001	-0.02
300.213	-0.05
300.426	-0
300.639	-0.06
300.852	0.01
301.064	0.06
301.277	0.08
301.489	-0.01
301.702	0.06
301.915	-0
302.127	0.03
302.34	0
302.552	0.01
302.765	-0.03
302.977	0.05
303.19	-0.02
303.402	-0.02
303.615	-0.01
303.827	-0.02
304.04	0.01
304.252	0
304.464	-0.01
304.677	0.1
304.889	0
305.102	-0.02
305.314	-0.05
305.526	0.01
305.739	-0.02
305.951	-0.04
306.163	-0.03
306.375	0.05
306.588	0.01
306.8	-0.04
307.012	-0.06
307.224	0.01
307.436	0.06
307.649	-0.05
307.861	0.03
308.073	0.01
308.285	-0.05
308.497	-0.04
308.709	-0.01
308.921	-0.03
309.133	0.01
309.346	0.03
309.558	0.02
309.77	0.02
309.982	0.02
310.194	0.01
310.406	-0.03
310.617	0.04
310.829	0.01
311.041	0.05
311.253	-0.07
311.465	-0.05
311.677	0
311.889	-0.01
312.101	-0.07
312.313	0.03
312.524	0.04
312.736	-0.06
312.948	-0.04
313.16	0.05
313.372	0.03
313.583	-0.01
313.795	-0.03
314.007	-0.06
314.218	-0.01
314.43	-0.04
314.642	-0.03
314.853	-0.02
315.065	0.05
315.277	0.04
315.488	0.03
315.7	0.03
315.912	-0.01
316.123	-0.02
316.335	0.02
316.546	0.09
316.758	-0.01
316.969	-0.05
317.181	-0.01
317.392	0.03
317.604	0.05
317.815	-0.05
318.026	-0.02
318.238	-0.05
318.449	0
318.661	-0.09
318.872	-0.05
319.083	-0.07
319.295	0.02
319.506	-0.01
319.717	0.01
319.929	-0.02
320.14	-0.01
320.351	-0.02
320.562	-0.06
320.774	-0.02
320.985	0
321.196	-0.05
321.407	-0.06
321.618	0.01
321.829	0.01
322.041	0.01
322.252	0.02
322.463	0.04
322.674	0.01
322.885	-0.01
323.096	-0.02
323.307	-0.01
323.518	-0
323.729	-0.03
323.94	-0.04
324.151	-0.03
324.362	-0.01
324.573	-0
324.784	-0.06
324.995	0.01
325.206	0.02
325.417	-0.05
325.628	-0
325.838	-0.03
326.049	-0.02
326.26	-0
326.471	-0
326.682	0.03
326.892	-0
327.103	-0.04
327.314	-0.11
327.525	0.03
327.735	-0.03
327.946	-0.01
328.157	-0.04
328.368	0.01
328.578	0.02
328.789	0.01
328.999	0
329.21	-0.01
329.421	0.02
329.631	-0.04
329.842	-0.07
330.052	0.01
330.263	0.04
330.473	0.01
330.684	-0.01
330.894	-0.05
331.105	0.02
331.315	-0.06
331.526	-0.03
331.736	0.03
331.947	0
332.157	0.01
332.367	-0.04
332.578	0.06
332.788	0.07
332.999	0.01
333.209	0.01
333.419	-0.06
333.629	0
333.84	0.02
334.05	-0.01
334.26	0.04
334.47	0.03
334.681	0.05
334.891	-0.02
335.101	0.03
335.311	0.09
335.521	0.02
335.732	-0.05
335.942	0.08
336.152	0.05
336.362	-0.03
336.572	0.01
336.782	0.01
336.992	-0.04
337.202	-0.01
337.412	-0.04
337.622	-0.05
337.832	0.02
338.042	-0.01
338.252	-0.03
338.462	-0.01
338.672	0
338.882	-0.07
339.092	-0.06
339.302	0.07
339.511	-0.01
339.721	-0.05
339.931	-0.03
340.141	0.04
340.351	0.05
340.561	0.05
340.77	0
340.98	-0.04
341.19	0
341.4	-0.02
341.609	-0.04
341.819	-0.02
342.029	-0.07
342.238	-0.03
342.448	-0.02
342.658	-0
342.867	-0.01
343.077	-0
343.286	-0.01
343.496	0
343.706	0.03
343.915	-0.07
344.125	0.01
344.334	0.04
344.544	-0.08
344.753	0.01
344.963	-0.02
345.172	-0.03
345.381	-0.01
345.591	-0.05
345.8	-0.04
346.01	0.08
346.219	0.02
346.428	-0.13
346.638	0.01
346.847	-0.02
347.056	0.05
347.266	-0.06
347.475	-0.03
347.684	0.01
347.893	-0.01
348.103	0.01
348.312	-0.04
348.521	-0.01
348.73	-0.03
348.94	-0.02
349.149	0
349.358	-0.05
349.567	-0.02
349.776	-0.06
349.985	-0.05
350.194	0.05
350.403	0.01
350.612	-0.07
350.821	-0
351.03	-0.03
351.239	-0.04
351.448	0.02
351.657	-0.03
351.866	0.05
352.075	-0.01
352.284	0.04
352.493	-0.05
352.702	0.03
352.911	-0.01
353.12	-0.01
353.329	0
353.538	0.02
353.746	0.02
353.955	-0.01
354.164	0.04
354.373	-0.03
354.582	0.01
354.79	0.03
354.999	0.05
355.208	-0.03
355.416	0.04
355.625	-0.03
355.834	-0.06
356.042	0.04
356.251	-0.05
356.46	-0.09
356.668	0.02
356.877	0.09
357.085	0.03
357.294	-0.06
357.503	0.01
357.711	-0.03
357.92	0.13
358.128	0
358.337	-0.05
358.545	0.02
358.754	-0.03
358.962	-0.01
359.17	-0.02
359.379	-0.02
359.587	0.01
359.796	-0
360.004	0.03
360.212	0.01
360.421	0.02
360.629	-0.02
360.837	-0.07
361.046	-0
361.254	0.08
361.462	-0
361.67	0.01
361.879	0
362.087	0.06
362.295	-0.03
362.503	-0.02
362.711	-0.02
362.92	-0.04
363.128	-0
363.336	-0.04
363.544	-0.05
363.752	-0.01
363.96	-0.05
364.168	-0.02
364.376	0.02
364.584	0.01
364.792	0.03
365	0.02
365.208	-0.03
365.416	0
365.624	0.04
365.832	-0.05
366.04	0.04
366.248	0.01
366.456	0.02
366.664	-0
366.872	-0.01
367.079	-0
367.287	0.05
367.495	0.01
367.703	0.01
367.911	-0.01
368.118	-0.04
368.326	0.02
368.534	-0.04
368.742	0.02
368.949	-0.06
369.157	-0.06
369.365	0.02
369.572	0
369.78	-0.03
369.988	0.03
370.195	0.07
370.403	0.02
370.61	-0.05
370.818	-0.02
371.026	0.01
371.233	-0.04
371.441	0.01
371.648	-0.03
371.856	-0.01
372.063	-0.01
372.271	-0.03
372.478	-0.06
372.685	-0.05
372.893	0.07
373.1	-0.01
373.308	-0.06
373.515	0.03
373.722	0.02
373.93	-0.02
374.137	0.03
374.344	0.04
374.552	0.02
374.759	0.03
374.966	-0.01
375.173	-0.03
375.381	0.03
375.588	-0.02
375.795	-0.06
376.002	-0.04
376.209	-0.02
376.417	-0.04
376.624	0
376.831	0.01
377.038	-0.01
377.245	-0.09
377.452	-0.02
377.659	-0.04
377.866	-0.03
378.073	-0
378.28	-0
378.487	-0.02
378.694	0.02
378.901	-0.06
379.108	0
379.315	0.01
379.522	0.02
379.729	-0.02
379.936	-0.04
380.143	0.01
380.35	0.03
380.557	0.01
380.763	0.02
380.97	-0.01
381.177	0.07
381.384	0.03
381.591	0.01
381.797	-0.03
382.004	0.04
382.211	0.04
382.418	-0.03
382.624	-0
382.831	-0.01
383.038	-0.02
383.244	-0.01
383.451	-0.02
383.658	-0.02
383.864	-0.02
384.071	-0.06
384.277	0.05
384.484	-0.05
384.69	0.03
384.897	0
385.103	-0.03
385.31	-0.05
385.516	-0.04
385.723	-0.02
385.929	-0
386.136	-0.05
386.342	0.01
386.549	-0.02
386.755	0.05
386.961	0.02
387.168	-0.04
387.374	0.01
387.58	0
387.787	0.01
387.993	0.01
388.199	-0
388.406	-0.04
388.612	0.02
388.818	-0.03
389.024	-0.03
389.231	-0
389.437	0.08
389.643	0.02
389.849	-0.02
390.055	0.04
390.261	-0.02
390.467	-0
390.674	-0.05
390.88	-0.04
391.086	0.01
391.292	-0.07
391.498	0.02
391.704	-0.01
391.91	0.01
392.116	-0.01
392.322	-0.06
392.528	-0.01
392.734	-0.04
392.94	0.02
393.146	-0.03
393.352	-0.02
393.557	0.01
393.763	0
393.969	-0
394.175	-0.02
394.381	0.02
394.587	-0.07
394.792	-0.03
394.998	0.04
395.204	0.01
395.41	-0.04
395.615	0.01
395.821	-0.03
396.027	0.02
396.233	-0.06
396.438	0.01
396.644	0.05
396.85	0.01
397.055	-0.06
397.261	0.03
397.466	-0
397.672	-0.03
397.878	0.01
398.083	0.03
398.289	-0.03
398.494	0.05
398.7	0.02
398.905	-0.03
399.111	0.06
399.316	-0.04
399.522	-0.02
399.727	0.01
399.932	-0.01
400.138	-0.03
400.343	0.04
400.549	-0.01
400.754	-0
400.959	0.06
401.165	0.01
401.37	-0
401.575	0.03
401.78	0.01
401.986	0.01
402.191	0
402.396	-0.05
402.601	0.01
402.807	-0.01
403.012	0.01
403.217	0.01
403.422	0.02
403.627	-0.02
403.832	-0.05
404.037	0.01
404.243	0.01
404.448	-0.01
404.653	-0.03
404.858	-0.03
405.063	0.03
405.268	-0.06
405.473	-0.04
405.678	-0.03
405.883	0.11
406.088	0.03
406.293	-0.01
406.498	-0.03
406.703	-0.03
406.907	-0.01
407.112	-0.03
407.317	-0.01
407.522	-0.04
407.727	-0.11
407.932	-0
408.136	0.05
408.341	0.04
408.546	-0.02
408.751	-0.03
408.956	-0.05
409.16	0.02
409.365	-0.02
409.57	0.01
409.774	-0.01
409.979	0.03
410.184	0.01
410.388	-0.05
410.593	0.05
410.798	0.02
411.002	-0.03
411.207	-0.01
411.411	0.01
411.616	-0.04
411.82	-0.03
412.025	-0.01
412.229	-0.02
412.434	0.05
412.638	0.02
412.843	-0.03
413.047	-0.01
413.252	-0.08
413.456	-0.02
413.66	-0
413.865	-0.02
414.069	0.06
414.273	-0.04
414.478	-0.04
414.682	-0.06
414.886	-0.01
415.091	-0.04
415.295	-0.04
415.499	-0
415.703	-0.05
415.908	0.01
416.112	-0.08
416.316	0.01
416.52	-0.05
416.724	-0.08
416.929	-0.05
417.133	0.04
417.337	-0.01
417.541	-0.09
417.745	-0.01
417.949	-0.02
418.153	-0.02
418.357	-0.08
418.561	0.05
418.765	-0.01
418.969	0.07
419.173	0.02
419.377	-0.07
419.581	0.06
419.785	-0.06
419.989	-0.1
420.193	-0.03
420.397	-0.07
420.601	0.02
420.804	0.04
421.008	-0
421.212	0.03
421.416	-0.03
421.62	-0.03
421.823	0.01
422.027	0.09
422.231	0.03
422.435	-0.04
422.638	0.05
422.842	-0.02
423.046	-0.01
423.249	0.05
423.453	0.03
423.657	-0.02
423.86	-0.05
424.064	-0.01
424.268	0.02
424.471	-0.03
424.675	0.03
424.878	0.07
425.082	0
425.285	0.06
425.489	-0.01
425.692	0.03
425.896	-0.07
426.099	0.07
426.303	-0.04
426.506	-0.09
426.71	-0
426.913	0.02
427.116	0.09
427.32	-0.02
427.523	0.01
427.726	0.02
427.93	-0.06
428.133	-0.05
428.336	-0.05
428.54	-0.05
428.743	0
428.946	0
429.149	-0.05
429.353	0.01
429.556	-0.03
429.759	-0.03
429.962	-0.05
430.165	-0
430.368	-0.06
430.571	-0.01
430.775	0.01
430.978	-0.04
431.181	-0
431.384	-0.01
431.587	-0.08
431.79	-0.01
431.993	-0.07
432.196	-0.01
432.399	-0.03
432.602	0.05
432.805	-0.04
433.008	-0.03
433.211	-0.07
433.414	0.02
433.616	-0.02
433.819	-0.03
434.022	-0.08
434.225	0.04
434.428	0.03
434.631	0.09
434.833	0.03
435.036	-0.01
435.239	0.03
435.442	0
435.645	-0.03
435.847	-0.06
436.05	0.05
436.253	-0.02
436.455	-0.07
436.658	-0.01
436.861	0.07
437.063	-0.05
437.266	-0.03
437.468	0.01
437.671	0.11
437.874	-0.01
438.076	-0.1
438.279	-0.09
438.481	-0.01
438.684	-0.08
438.886	-0
439.089	-0.09
439.291	-0.07
439.494	-0.01
439.696	-0.07
439.899	-0.05
440.101	-0.06
440.303	-0.07
440.506	0.01
440.708	-0.05
440.91	0.02
441.113	-0.04
441.315	0.04
441.517	-0.09
441.72	0.03
441.922	-0.04
442.124	-0.07
442.326	0.02
442.529	0.06
442.731	-0.02
442.933	0.08
443.135	-0.05
443.337	-0.03
443.539	-0.02
443.742	-0.01
443.944	-0.01
444.146	-0.06
444.348	-0.05
444.55	-0.06
444.752	0.01
444.954	-0.07
445.156	0.06
445.358	-0.06
445.56	0.06
445.762	-0
445.964	-0.01
446.166	-0.05
446.368	-0.02
446.57	0.03
446.772	-0.04
446.974	-0.05
447.175	-0.02
447.377	-0.07
447.579	-0.03
447.781	-0.08
447.983	0.04
448.184	-0.04
448.386	-0.04
448.588	-0.1
448.79	-0.02
448.991	-0.04
449.193	-0.08
449.395	0
449.597	0.02
449.798	-0.02
450	0.04
450.202	-0.01
450.403	0.02
450.605	0.07
450.806	0.01
451.008	-0.08
451.21	-0.05
451.411	-0.02
451.613	-0.02
451.814	-0.01
452.016	0
452.217	-0.05
452.419	0
452.62	-0.02
452.821	0.01
453.023	0.03
453.224	0.02
453.426	-0.01
453.627	-0.03
453.828	0.04
454.03	0.03
454.231	-0.02
454.432	-0.07
454.634	0.05
454.835	0.01
455.036	-0.06
455.238	0.04
455.439	0.06
455.64	-0.05
455.841	-0.06
456.042	0.08
456.244	0.03
456.445	-0.07
456.646	-0.08
456.847	-0.06
457.048	0
457.249	0.01
457.45	0.16
457.651	-0.07
457.852	0.03
458.054	-0.03
458.255	-0.05
458.456	0.04
458.657	-0.02
458.858	-0.04
459.058	-0.04
459.259	0.02
459.46	-0.03
459.661	-0.04
459.862	0.09
460.063	-0.05
460.264	0
460.465	-0.04
460.666	0.1
460.866	-0.03
461.067	-0.01
461.268	-0.04
461.469	-0.02
461.67	0
461.87	-0.05
462.071	-0.04
462.272	-0.06
462.473	-0.01
462.673	0.06
462.874	-0.07
463.075	0
463.275	-0.06
463.476	-0
463.676	-0.01
463.877	0.03
464.078	-0.04
464.278	0
464.479	-0.03
464.679	-0
464.88	-0.04
465.08	0.08
465.281	-0.06
465.481	0
465.682	-0.03
465.882	0.07
466.083	0.02
466.283	0.04
466.483	-0.04
466.684	-0.08
466.884	-0.05
467.085	-0.02
467.285	0.04
467.485	-0.05
467.686	-0.03
467.886	-0.03
468.086	-0.01
468.286	0.01
468.487	-0.01
468.687	-0.08
468.887	-0.04
469.087	0.03
469.287	-0.03
469.488	-0.06
469.688	0.03
469.888	0.02
470.088	-0
470.288	0.05
470.488	-0.01
470.688	-0.04
470.888	-0
471.088	-0.04
471.288	0
471.488	-0
471.688	-0.01
471.888	-0.07
472.088	0.08
472.288	0
472.488	-0.04
472.688	-0.05
472.888	0.01
473.088	-0.01
473.288	-0.01
473.488	-0.01
473.688	0.06
473.887	-0.01
474.087	-0.01
474.287	0.01
474.487	-0.03
474.687	0.05
474.886	0
475.086	-0.02
475.286	-0.01
475.486	-0
475.685	0
475.885	-0.03
476.085	-0.04
476.284	-0.02
476.484	-0.02
476.684	0.01
476.883	0.05
477.083	0.01
477.282	-0.02
477.482	0.03
477.681	0.05
477.881	0.01
478.08	-0.04
478.28	-0.01
478.479	-0.01
478.679	0.06
478.878	-0.03
479.078	-0.04
479.277	-0.04
479.477	-0.05
479.676	0.05
479.875	-0.01
480.075	-0.05
480.274	0.02
480.473	0.01
480.673	-0.05
480.872	0.03
481.071	0.01
481.271	0
481.47	-0.02
481.669	-0.02
481.868	-0.03
482.067	-0.04
482.267	-0.05
482.466	-0.01
482.665	-0.05
482.864	-0.04
483.063	-0.02
483.262	0.02
483.461	0.03
483.661	0.01
483.86	0
484.059	-0
484.258	0
484.457	-0
484.656	0.01
484.855	0.05
485.054	-0.03
485.253	-0.04
485.452	-0.04
485.651	-0.01
485.849	-0.03
486.048	-0.04
486.247	-0.04
486.446	-0
486.645	-0.03
486.844	-0.02
487.043	-0
487.241	0.02
487.44	-0.04
487.639	0
487.838	-0
488.037	0.02
488.235	0.03
488.434	0
488.633	-0.03
488.831	0
489.03	0.03
489.229	-0.03
489.427	-0.02
489.626	-0
489.825	0.05
490.023	-0.02
490.222	-0.01
490.42	-0.01
490.619	0.02
490.817	0.01
491.016	0.01
491.214	0.03
491.413	-0.03
491.611	-0.04
491.81	-0.02
492.008	-0
492.207	-0.03
492.405	-0.01
492.604	-0.04
492.802	-0.02
493	-0.01
493.199	-0.03
493.397	0
493.595	-0.03
493.794	-0.03
493.992	0.04
494.19	-0.01
494.388	0
494.587	-0.01
494.785	-0
494.983	-0.02
495.181	-0.02
495.379	0.01
495.578	-0.03
495.776	0.02
495.974	-0.01
496.172	-0.01
496.37	-0.01
496.568	-0.03
496.766	-0.01
496.964	0.01
497.162	0
497.36	-0.05
497.558	0
497.756	0.01
497.954	-0.01
498.152	-0.02
498.35	0.01
498.548	-0
498.746	0.03
498.944	-0.02
499.142	-0.03
499.34	-0.05
499.538	-0.01
499.736	-0.05
499.933	0.02
500.131	0.04
500.329	0.01
500.527	0.02
500.725	0.02
500.922	0
501.12	0.01
501.318	-0
501.516	-0.03
501.713	-0.01
501.911	0
502.109	-0.03
502.306	0
502.504	-0.02
502.701	-0.03
502.899	-0.01
503.097	0.03
503.294	0.01
503.492	0
503.689	0
503.887	0.01
504.084	0.03
504.282	-0.01
504.479	-0.03
504.677	0.01
504.874	-0.03
505.072	0.01
505.269	-0.02
505.466	0
505.664	0.02
505.861	-0.04
506.059	-0.03
506.256	-0.01
506.453	-0.03
506.651	0.04
506.848	0.02
507.045	0.01
507.242	0.01
507.44	-0.02
507.637	-0.01
507.834	-0.02
508.031	0.03
508.229	-0.01
508.426	0
508.623	0.01
508.82	-0.02
509.017	-0.05
509.214	-0.02
509.411	0.01
509.608	-0.04
509.805	-0.01
510.003	-0.04
510.2	0
510.397	0.04
510.594	-0.01
510.791	-0.02
510.988	-0.02
511.184	0.02
511.381	0.02
511.578	-0.03
511.775	0.01
511.972	-0.02
512.169	-0.02
512.366	-0.01
512.563	0.02
512.76	-0.01
512.956	-0.02
513.153	-0.03
513.35	-0.01
513.547	-0.01
513.744	-0.02
513.94	-0.03
514.137	-0
514.334	0.01
514.53	-0.01
514.727	0
514.924	0.05
515.12	-0.01
515.317	-0.04
515.514	-0.02
515.71	-0.05
515.907	0
516.103	0.02
516.3	0.02
516.497	0.01
516.693	0.03
516.89	-0.02
517.086	-0.02
517.283	0.01
517.479	-0.02
517.676	-0.01
517.872	-0.01
518.068	-0.02
518.265	-0.02
518.461	-0.03
518.658	-0.01
518.854	0.01
519.05	-0.02
519.247	-0.03
519.443	-0
519.639	0.01
519.836	-0
520.032	-0
520.228	0.01
520.424	0.04
520.621	0.01
520.817	-0.01
521.013	0
521.209	-0
521.405	0.03
521.601	0
521.798	-0.01
521.994	0.03
522.19	-0
522.386	-0.04
522.582	0
522.778	-0.01
522.974	-0.01
523.17	-0.01
523.366	-0.02
523.562	0.02
523.758	-0.01
523.954	-0.01
524.15	-0.02
524.346	0
524.542	-0.03
524.738	-0.01
524.934	-0
525.129	-0
525.325	0.02
525.521	-0.01
525.717	0.02
525.913	0.02
526.109	-0.01
526.304	-0.01
526.5	0.01
526.696	0.02
526.892	-0
527.087	-0.01
527.283	-0.02
527.479	0.01
527.674	-0.02
527.87	0
528.066	-0.01
528.261	0.03
528.457	0.01
528.653	-0.03
528.848	-0.01
529.044	-0.01
529.239	0
529.435	0.03
529.63	0.01
529.826	0.03
530.021	0
530.217	0.01
530.412	-0.02
530.608	-0.02
530.803	-0
530.999	-0
531.194	-0.03
531.389	-0.01
531.585	-0.05
531.78	-0
531.975	-0.01
532.171	0.01
532.366	0
532.561	-0
532.757	-0.03
532.952	-0.01
533.147	-0.01
533.342	-0.02
533.538	-0.01
533.733	0.02
533.928	-0.01
534.123	-0
534.318	-0.04
534.513	0.01
534.709	-0.02
534.904	-0.02
535.099	-0.03
535.294	-0.01
535.489	0.01
535.684	-0.02
535.879	-0.04
536.074	0
536.269	-0.03
536.464	-0.01
536.659	-0.01
536.854	-0
537.049	0.02
537.244	0.02
537.439	-0.01
537.634	0.02
537.828	-0
538.023	-0.01
538.218	-0.03
538.413	-0
538.608	-0.05
538.803	-0
538.997	-0.04
539.192	0.03
539.387	0
539.582	0
539.776	0.02
539.971	-0.01
540.166	-0.01
540.36	-0.04
540.555	-0.01
540.75	-0.01
540.944	0.01
541.139	-0.03
541.334	-0.03
541.528	0
541.723	0.02
541.917	-0.01
542.112	-0.05
542.306	-0.01
542.501	-0.03
542.695	-0
542.89	-0
543.084	0
543.279	-0.02
543.473	-0.01
543.668	0
543.862	0.01
544.056	-0
544.251	-0.01
544.445	-0
544.64	-0
544.834	-0.02
545.028	0.01
545.222	0.01
545.417	0.03
545.611	0.01
545.805	0
546	0.02
546.194	0.01
546.388	-0.03
546.582	0
546.776	-0.01
546.97	0
547.165	0.01
547.359	0.03
547.553	-0.04
547.747	-0
547.941	0
548.135	0.01
548.329	0.01
548.523	0.01
548.717	-0.02
548.911	-0.01
549.105	-0
549.299	0
549.493	0.02
549.687	0.01
549.881	-0.01
550.075	-0
550.269	-0.01
550.463	0.02
550.657	-0.02
550.85	0.01
551.044	-0.02
551.238	0.03
551.432	-0.03
551.626	-0.03
551.82	0.01
552.013	-0
552.207	0.02
552.401	0.03
552.594	0
552.788	-0
552.982	-0
553.176	-0.02
553.369	0.03
553.563	0.01
553.756	-0.06
553.95	-0.02
554.144	-0.02
554.337	0.02
554.531	0.01
554.724	0
554.918	-0.01
555.111	0.03
555.305	-0.02
555.498	0.05
555.692	0.01
555.885	-0.01
556.079	-0.03
556.272	-0.01
556.466	0.02
556.659	-0.01
556.852	0
557.046	-0.02
557.239	-0.01
557.432	-0.02
557.626	-0.02
557.819	0.01
558.012	0.02
558.206	0.01
558.399	-0.02
558.592	0.01
558.785	-0.02
558.979	0.03
559.172	-0.01
559.365	0.02
559.558	-0
559.751	-0
559.944	0
560.138	-0.02
560.331	-0.02
560.524	-0.02
560.717	0
560.91	0
561.103	0.02
561.296	0
561.489	0.02
561.682	0.02
561.875	0.02
562.068	0.02
562.261	0.01
562.454	0.03
562.647	0.01
562.84	0.01
563.032	-0.01
563.225	0.02
563.418	-0.02
563.611	-0.01
563.804	0.01
563.997	-0.01
564.19	-0.02
564.382	-0.04
564.575	-0.01
564.768	-0.02
564.961	-0
565.153	-0.03
565.346	0.02
565.539	0.03
565.731	0.02
565.924	0.05
566.117	0.03
566.309	0.03
566.502	-0.02
566.695	0.01
566.887	0.01
567.08	-0.02
567.272	0
567.465	0.01
567.657	0.01
567.85	0
568.042	0.05
568.235	0.06
568.427	0.02
568.62	0.01
568.812	0.04
569.005	0.02
569.197	-0.02
569.389	0.01
569.582	0.03
569.774	0.02
569.966	-0.02
570.159	-0.02
570.351	0.02
570.543	-0.01
570.736	0
570.928	-0.03
571.12	0.03
571.312	0.03
571.505	0
571.697	0.07
571.889	-0.02
572.081	0.02
572.273	0
572.465	0.06
572.658	0
572.85	0.04
573.042	0.04
573.234	0.01
573.426	0.06
573.618	-0.01
573.81	0.04
574.002	0.05
574.194	0.07
574.386	-0.01
574.578	-0.03
574.77	0.01
574.962	0.02
575.154	-0.01
575.346	0.02
575.538	0.03
575.729	-0.01
575.921	0.02
576.113	0.02
576.305	0.06
576.497	0.04
576.689	0.05
576.88	0.02
577.072	0.06
577.264	0.02
577.456	0.04
577.647	-0.04
577.839	0.06
578.031	0.08
578.223	0.04
578.414	0.03
578.606	0.05
578.798	0.05
578.989	0.04
579.181	0.05
579.372	0.04
579.564	0.03
579.755	0.06
579.947	0.07
580.139	0.08
580.33	0.01
580.522	0.03
580.713	0
580.905	0.06
581.096	0.05
581.287	0.08
581.479	0.04
581.67	0.1
581.862	0.06
582.053	0.05
582.244	0.03
582.436	0.06
582.627	0.05
582.818	0.06
583.01	0.04
583.201	0.11
583.392	0.11
583.583	0.08
583.775	0.08
583.966	0.1
584.157	0.09
584.348	0.08
584.54	0.08
584.731	0.09
584.922	0.1
585.113	0.09
585.304	0.12
585.495	0.14
585.686	0.12
585.877	0.13
586.068	0.15
586.259	0.15
586.45	0.15
586.641	0.12
586.832	0.09
587.023	0.14
587.214	0.15
587.405	0.16
587.596	0.13
587.787	0.19
587.978	0.18
588.169	0.12
588.36	0.14
588.551	0.16
588.742	0.15
588.932	0.18
589.123	0.16
589.314	0.2
589.505	0.2
589.696	0.21
589.886	0.16
590.077	0.16
590.268	0.23
590.458	0.18
590.649	0.17
590.84	0.25
591.03	0.17
591.221	0.21
591.412	0.18
591.602	0.26
591.793	0.27
591.984	0.21
592.174	0.23
592.365	0.32
592.555	0.22
592.746	0.3
592.936	0.3
593.127	0.3
593.317	0.31
593.508	0.26
593.698	0.28
593.889	0.3
594.079	0.32
594.269	0.31
594.46	0.34
594.65	0.32
594.84	0.35
595.031	0.31
595.221	0.33
595.411	0.31
595.602	0.42
595.792	0.39
595.982	0.39
596.172	0.43
596.363	0.39
596.553	0.42
596.743	0.4
596.933	0.42
597.123	0.43
597.314	0.36
597.504	0.43
597.694	0.48
597.884	0.48
598.074	0.45
598.264	0.44
598.454	0.51
598.644	0.49
598.834	0.5
599.024	0.44
599.214	0.53
599.404	0.55
599.594	0.5
599.784	0.56
599.974	0.62
600.164	0.58
600.354	0.56
600.544	0.56
600.734	0.62
600.924	0.66
601.114	0.65
601.303	0.65
601.493	0.65
601.683	0.66
601.873	0.71
602.063	0.69
602.252	0.75
602.442	0.67
602.632	0.7
602.821	0.72
603.011	0.76
603.201	0.76
603.39	0.78
603.58	0.78
603.77	0.84
603.959	0.87
604.149	0.85
604.339	0.83
604.528	0.89
604.718	0.91
604.907	0.88
605.097	0.91
605.286	0.9
605.476	0.96
605.665	0.98
605.855	0.97
606.044	1.05
606.234	1.04
606.423	1.03
606.612	1.05
606.802	1.08
606.991	1.12
607.181	1.15
607.37	1.16
607.559	1.09
607.749	1.15
607.938	1.14
608.127	1.19
608.316	1.22
608.506	1.23
608.695	1.31
608.884	1.25
609.073	1.3
609.263	1.36
609.452	1.38
609.641	1.37
609.83	1.33
610.019	1.41
610.208	1.41
610.397	1.41
610.586	1.5
610.775	1.49
610.965	1.56
611.154	1.52
611.343	1.59
611.532	1.6
611.721	1.66
611.91	1.67
612.099	1.74
612.287	1.66
612.476	1.7
612.665	1.82
612.854	1.8
613.043	1.87
613.232	1.87
613.421	1.89
613.61	1.93
613.798	1.99
613.987	2.04
614.176	2.04
614.365	2.1
614.554	2.14
614.742	2.23
614.931	2.16
615.12	2.29
615.309	2.3
615.497	2.31
615.686	2.36
615.875	2.4
616.063	2.39
616.252	2.46
616.44	2.54
616.629	2.62
616.818	2.62
617.006	2.69
617.195	2.68
617.383	2.77
617.572	2.76
617.76	2.89
617.949	2.91
618.137	3.01
618.326	3.04
618.514	3.01
618.703	3.02
618.891	3.2
619.079	3.18
619.268	3.3
619.456	3.29
619.644	3.45
619.833	3.42
620.021	3.46
620.209	3.42
620.398	3.61
620.586	3.61
620.774	3.71
620.962	3.66
621.151	3.83
621.339	3.82
621.527	3.89
621.715	3.9
621.903	4
622.092	4.01
622.28	4.18
622.468	4.08
622.656	4.25
622.844	4.17
623.032	4.36
623.22	4.34
623.408	4.48
623.596	4.51
623.784	4.52
623.972	4.57
624.16	4.66
624.348	4.74
624.536	4.78
624.724	4.68
624.912	4.76
625.1	4.86
625.288	4.87
625.476	4.85
625.664	4.98
625.851	4.91
626.039	5.03
626.227	5.04
626.415	5.02
626.603	5.04
626.79	5.11
626.978	5.1
627.166	5.11
627.354	5.04
627.541	5.04
627.729	5.02
627.917	5.19
628.104	5.16
628.292	5.07
628.48	5.13
628.667	5.07
628.855	5.15
629.042	5.11
629.23	4.99
629.418	4.97
629.605	4.98
629.793	4.79
629.98	4.86
630.168	4.78
630.355	4.81
630.543	4.69
630.73	4.61
630.917	4.59
631.105	4.67
631.292	4.5
631.48	4.43
631.667	4.42
631.854	4.24
632.042	4.17
632.229	4.01
632.416	4.01
632.604	3.92
632.791	3.77
632.978	3.8
633.165	3.62
633.353	3.63
633.54	3.52
633.727	3.31
633.914	3.22
634.101	3.12
634.289	3.15
634.476	2.99
634.663	2.93
634.85	2.82
635.037	2.73
635.224	2.61
635.411	2.66
635.598	2.49
635.785	2.43
635.972	2.37
636.159	2.31
636.346	2.17
636.533	2.1
636.72	2.06
636.907	1.98
637.094	1.93
637.281	1.8
637.468	1.8
637.655	1.75
637.842	1.66
638.029	1.6
638.215	1.59
638.402	1.48
638.589	1.42
638.776	1.37
638.963	1.35
639.149	1.38
639.336	1.35
639.523	1.21
639.709	1.14
639.896	1.18
640.083	1.11
640.27	1.12
640.456	1
640.643	0.99
640.829	0.92
641.016	0.9
641.203	0.86
641.389	0.9
641.576	0.84
641.762	0.83
641.949	0.77
642.135	0.71
642.322	0.73
642.508	0.66
642.695	0.71
642.881	0.62
643.068	0.63
643.254	0.61
643.441	0.66
643.627	0.6
643.813	0.49
644	0.61
644.186	0.47
644.372	0.49
644.559	0.58
644.745	0.49
644.931	0.42
645.118	0.41
645.304	0.43
645.49	0.42
645.676	0.38
645.862	0.38
646.049	0.44
646.235	0.35
646.421	0.45
646.607	0.42
646.793	0.32
646.979	0.28
647.165	0.32
647.352	0.31
647.538	0.31
647.724	0.25
647.91	0.29
648.096	0.26
648.282	0.29
648.468	0.23
648.654	0.25
648.84	0.23
649.026	0.22
649.212	0.23
649.397	0.21
649.583	0.16
649.769	0.18
649.955	0.21
650.141	0.2
650.327	0.22
650.513	0.16
650.698	0.2
650.884	0.1
651.07	0.16
651.256	0.19
651.442	0.17
651.627	0.13
651.813	0.17
651.999	0.13
652.184	0.16
652.37	0.1
652.556	0.1
652.741	0.14
652.927	0.07
653.113	0.13
653.298	0.11
653.484	0.1
653.669	0.06
653.855	0.12
654.04	0.11
654.226	0.11
654.412	0.05
654.597	0.07
654.782	0.11
654.968	0.09
655.153	0.1
655.339	0.06
655.524	0.06
655.71	0.12
655.895	0.09
656.08	0.06
656.266	0.11
656.451	0.06
656.636	0.06
656.822	0.09
657.007	0.05
657.192	0.07
657.378	0.02
657.563	0.08
657.748	0.08
657.933	0.07
658.118	0.02
658.304	-0.01
658.489	0.07
658.674	0.04
658.859	0
659.044	0.05
659.229	0.01
659.414	0.05
659.599	0.03
659.785	0.01
659.97	0.02
660.155	0.05
660.34	0.02
660.525	0.03
660.71	0.05
660.895	0.04
661.08	0.01
661.264	0.03
661.449	0.06
661.634	0.09
661.819	0.02
662.004	0.08
662.189	-0.01
662.374	-0.02
662.559	0.02
662.743	-0.05
662.928	0.01
663.113	0.01
663.298	-0.02
663.483	0.01
663.667	0.04
663.852	-0.01
664.037	0.07
664.221	-0.01
664.406	0.03
664.591	0.03
664.775	0.02
664.96	0.03
665.145	0.02
665.329	0.02
665.514	-0.03
665.698	0.02
665.883	-0.07
666.068	0.07
666.252	-0
666.437	0
666.621	0.01
666.806	0.04
666.99	0.01
667.174	-0.03
667.359	0.1
667.543	-0.02
667.728	0.02
667.912	-0.08
668.096	0.05
668.281	-0.03
668.465	-0.01
668.649	0.01
668.834	-0.01
669.018	-0
669.202	-0.02
669.387	-0.03
669.571	0.04
669.755	-0.01
669.939	-0.01
670.124	0
670.308	0.05
670.492	0.04
670.676	0.02
670.86	-0.02
671.044	-0.02
671.228	0.04
671.413	-0.01
671.597	-0.03
671.781	-0.02
671.965	0.04
672.149	-0
672.333	-0
672.517	-0.01
672.701	0.02
672.885	-0.03
673.069	-0.07
673.253	0.02
673.437	-0.04
673.621	-0.01
673.804	-0.01
673.988	-0.02
674.172	0.01
674.356	-0.09
674.54	-0.01
674.724	0.06
674.908	0.02
675.091	0.04
675.275	0.02
675.459	0.04
675.643	0.07
675.826	0.02
676.01	-0.02
676.194	-0.03
676.377	0.04
676.561	0.04
676.745	-0
676.928	0.01
677.112	0.03
677.296	0.04
677.479	0
677.663	-0.03
677.846	0.01
678.03	-0.01
678.213	0
678.397	0.01
678.58	-0.02
678.764	-0.03
678.947	-0.05
679.131	-0.06
679.314	0.01
679.498	-0.02
679.681	-0.01
679.865	0.08
680.048	0
680.231	-0
680.415	-0.01
680.598	-0.03
680.781	-0.05
680.965	-0.03
681.148	0.02
681.331	-0.02
681.514	0.03
681.698	-0.01
681.881	0.01
682.064	-0.03
682.247	0.03
682.43	-0.06
682.614	0.02
682.797	0.03
682.98	0.05
683.163	-0.07
683.346	0.05
683.529	-0.04
683.712	-0.02
683.895	0.04
684.078	-0.01
684.261	-0.04
684.444	0.01
684.627	0.04
684.81	-0.02
684.993	-0.08
685.176	0.02
685.359	-0.03
685.542	-0
685.725	0.05
685.908	-0.01
686.091	-0.03
686.274	0.04
686.457	-0.02
686.639	-0.03
686.822	0.03
687.005	-0.02
687.188	0.02
687.371	0.07
687.553	-0.04
687.736	-0
687.919	0.05
688.102	0.06
688.284	0.02
688.467	-0.01
688.65	-0.02
688.832	-0.04
689.015	-0.06
689.197	-0.02
689.38	0.06
689.563	0.08
689.745	-0.06
689.928	-0.1
690.11	-0.05
690.293	0.03
690.475	-0.05
690.658	-0.01
690.84	-0.04
691.023	-0.08
691.205	-0.06
691.388	-0.02
691.57	0.08
691.752	0.02
691.935	-0.09
692.117	-0.07
692.3	0.03
692.482	0.02
692.664	0
692.847	0.03
693.029	0.06
693.211	0.05
693.393	-0.03
693.576	-0.06
693.758	0.04
693.94	-0.03
694.122	-0.04
694.304	0
694.487	0
694.669	0.07
694.851	-0.04
695.033	-0.01
695.215	-0.01
695.397	-0.05
695.579	-0.01
695.761	-0.06
695.943	-0.09
696.125	0.02
696.308	-0.03
696.49	-0.07
696.671	0.1
696.853	-0.02
697.035	0.14
697.217	-0.02
697.399	0
697.581	-0.06
697.763	-0.01
697.945	-0.08
698.127	-0.04
698.309	0.03
698.491	0.04
698.672	0.01
698.854	0.02
699.036	0.02
699.218	-0.03
699.399	0.03
699.581	0.03
699.763	-0
699.945	-0.03
700.126	-0.04
700.308	-0.05
700.49	-0.01
700.671	-0.07
700.853	-0.08
701.035	-0.08
701.216	-0.02
701.398	-0.04
701.579	-0.01
701.761	0.11
701.943	0.01
702.124	-0.04
702.306	-0.01
702.487	0.11
702.669	-0.02
702.85	-0.09
703.031	-0.07
703.213	0.06
703.394	0
703.576	-0.07
703.757	0
703.938	-0
704.12	0.12
704.301	-0.04
704.483	-0.01
704.664	0.02
704.845	0.11
705.026	-0.03
705.208	-0.01
705.389	-0.01
705.57	-0.02
705.751	0.05
705.933	-0.05
706.114	-0.01
706.295	-0.03
706.476	-0.04
706.657	0.09
706.838	0.04
707.02	0.06
707.201	-0.02
707.382	-0.03
707.563	-0.01
707.744	0
707.925	-0.06
708.106	-0.02
708.287	0.03
708.468	0.08
708.649	-0.06
708.83	0.01
709.011	-0.03
709.192	-0.02
709.373	-0.06
709.554	0.03
709.734	0.07
709.915	0.05
710.096	-0
710.277	-0.11
710.458	-0.03
710.639	-0
710.819	-0.11
711	0.02
711.181	0.04
711.362	0.03
711.542	-0.02
711.723	-0.04
711.904	0.02
712.085	-0.04
712.265	0.02
712.446	-0.09
712.627	-0.05
712.807	-0
712.988	-0.03
713.168	-0.11
713.349	0.02
713.53	-0.1
713.71	-0.08
713.891	-0.09
714.071	-0.07
714.252	-0.06
714.432	-0.07
714.613	-0.08
714.793	-0.07
714.974	0.11
715.154	0.04
715.334	0.08
715.515	0.08
715.695	-0.2
715.876	-0.01
716.056	-0
716.236	-0.07
716.417	0.01
716.597	0.01
716.777	0.1
716.957	-0.03
717.138	-0
717.318	-0.04
717.498	-0.08
717.678	0.01
717.859	0.01
718.039	-0.12
718.219	-0.01
718.399	0.03
718.579	-0.06
718.759	-0.07
718.939	-0.03
719.12	-0.05
719.3	-0.04
719.48	-0.16
719.66	-0.13
719.84	0.06
720.02	0.02
720.2	-0.08
720.38	-0.03
720.56	0.06
720.74	-0.01
720.92	-0.01
721.1	0.08
721.279	0.05
721.459	0.04
721.639	-0.12
721.819	0
721.999	0.01
722.179	0.02
722.359	-0.11
722.538	0.07
722.718	-0.04
722.898	-0.04
723.078	-0.03
723.257	-0.03
723.437	-0.04
723.617	-0.02
723.797	-0.07
723.976	-0.03
724.156	-0.01
724.336	0.06
724.515	0.15
724.695	-0.12
724.874	-0.11
725.054	0.08
725.234	-0.03
725.413	-0.01
725.593	0.02
725.772	-0.07
725.952	-0.04
726.131	-0.03
726.311	-0.01
726.49	0.01
726.67	-0.08
726.849	-0.13
727.028	0.04
727.208	-0.1
727.387	0.02
727.567	-0.07
727.746	0.02
727.925	-0.06
728.105	-0.05
728.284	-0.07
728.463	-0.06
728.643	0.06
728.822	-0.12
729.001	-0.11
729.18	-0.06
729.359	0.12
729.539	-0.01
729.718	-0.04
729.897	-0
730.076	-0
730.255	-0.11
730.434	-0
730.614	0.01
730.793	0
730.972	-0.04
731.151	-0.05
731.33	0.04
731.509	0.08
731.688	0.04
731.867	-0
732.046	-0.09
732.225	0.15
732.404	-0.08
732.583	-0.15
732.762	-0.11
732.941	0.05
733.12	-0.04
733.298	-0.06
733.477	-0.03
733.656	-0.01
733.835	-0.11
734.014	0.1
734.193	0.02
734.371	0
734.55	-0.04
734.729	-0.12
734.908	0.05
735.086	0.05
735.265	-0.02
735.444	-0.29
735.623	-0.12
735.801	-0.16
735.98	-0
736.159	-0.04
736.337	-0.03
736.516	-0.01
736.694	-0.06
736.873	-0.14
737.052	0.16
737.23	0.09
737.409	-0.12
737.587	0.1
737.766	-0.24
737.944	-0.11
738.123	0.01
738.301	0.03
738.479	-0.07
738.658	-0.12
738.836	-0.2
739.015	-0.13
739.193	-0.03
739.371	-0.07
739.55	-0.17
739.728	-0.25
739.906	0.01
740.085	0.09
740.263	-0.08
740.441	-0.16
740.62	0.15
740.798	-0.04
740.976	-0.19
741.154	-0.09
741.332	0.11
741.511	0
741.689	-0.04
741.867	0.01
742.045	0
742.223	-0.04
742.401	-0.09
742.579	-0.09
742.757	0.12
742.935	-0.1
743.114	0.05
743.292	-0.04
743.47	-0.07
743.648	-0.09
743.826	-0.03
744.004	0.06
744.181	-0.02
744.359	-0.07
744.537	-0.02
744.715	0.04
744.893	-0.02
745.071	-0.1
745.249	-0.06
745.427	-0.01
745.605	0.06
745.782	-0.12
745.96	0.04
746.138	-0.01
746.316	0.04
746.493	-0.03
746.671	0.02
746.849	0.05
747.027	0.03
747.204	-0.12
747.382	-0.08
747.56	-0.22
747.737	-0.02
747.915	-0.06
748.093	-0.07
748.27	-0.06
748.448	-0.07
748.625	-0.15
748.803	-0.14
748.98	-0.09
749.158	0.06
749.335	-0.09
749.513	-0.02
749.69	-0.05
749.868	-0.02
750.045	0.09
750.223	-0.09
750.4	-0.28
750.578	0.23
750.755	-0.12
750.932	-0.02
751.11	0.1
751.287	-0.18
751.464	0.05
751.642	-0.16
751.819	0.03
751.996	-0.06
752.173	-0.03
752.351	-0.11
752.528	0.02
752.705	-0.17
752.882	-0.03
753.06	0.02
753.237	-0.08
753.414	0.21
753.591	0.14
753.768	-0.05
753.945	-0.14
754.122	-0.11
754.299	-0.01
754.476	-0.13
754.654	-0
754.831	-0.01
755.008	0.03
755.185	-0.07
755.362	-0.26
755.539	0.02
755.716	-0.12
755.892	-0.05
756.069	-0.05
756.246	-0.01
756.423	0
756.6	0.08
756.777	-0.03
756.954	0.11
757.131	-0.01
757.307	-0.09
757.484	-0.12
757.661	0.05
757.838	0.07
758.015	-0.02
758.191	0.01
758.368	0.07
758.545	0.09
758.721	0.07
758.898	-0.07
759.075	-0.02
759.251	0.06
759.428	-0.01
759.605	-0.16
759.781	-0.02
759.958	-0.01
760.134	-0
760.311	-0.12
760.488	0.14
760.664	0.1
760.841	-0.09
761.017	-0.17
761.194	-0.04
761.37	-0.15
761.547	-0
761.723	-0.05
761.899	0.2
762.076	-0.04
762.252	-0.11
762.429	-0.12
762.605	-0.03
762.781	0
762.958	0.13
763.134	0
763.31	-0.03
763.486	0.09
763.663	-0.15
763.839	0.06
764.015	-0.23
764.191	-0.09
764.368	-0.01
764.544	-0.07
764.72	0.03
764.896	0.09
765.072	-0.1
765.248	-0.03
765.425	-0.11
765.601	-0.11
765.777	-0.01
765.953	-0.28
766.129	-0.22
766.305	-0.08
766.481	0.05
766.657	-0.01
766.833	0.04
767.009	-0.29
767.185	-0.12
767.361	-0.1
767.537	-0.12
767.713	0.09
767.889	-0.11
768.065	-0.03
768.24	-0.31
768.416	-0.03
768.592	-0.12
768.768	-0.14
768.944	-0.1
769.12	-0.25
769.295	-0.12
769.471	-0.07
769.647	-0.03
769.823	0.08
769.998	-0.18
770.174	-0.19
770.35	0.25
770.525	0.3
770.701	0.03
770.877	-0.02
771.052	0.04
771.228	0.13
771.403	-0.04
771.579	0.19
771.755	0.24
771.93	-0.15
772.106	-0.14
772.281	-0.23
772.457	-0.08
772.632	-0.03
772.808	-0.18
772.983	-0.06
773.159	-0.14
773.334	0.09
773.509	-0.15
773.685	-0.17
773.86	0.31
774.036	0.03
774.211	-0.04
774.386	0.03
774.562	-0.06
774.737	-0.05
774.912	0.05
775.087	0.01
775.263	-0.1
775.438	-0.04
775.613	-0.19
775.788	-0.07
775.964	0.16
776.139	0.22
776.314	-0.12
776.489	0.02
776.664	0.02
776.839	-0.16
777.014	-0.01
777.19	0.17
777.365	0.06
777.54	0.12
777.715	-0.23
777.89	-0.09
778.065	-0.25
778.24	-0.01
778.415	0.1
778.59	-0.38
778.765	-0.14
778.94	0.06
779.115	-0.01
779.289	-0.11
779.464	-0.05
779.639	-0.1
779.814	-0.12
779.989	-0.18
780.164	0.13
780.339	0.08
780.513	-0.18
780.688	-0.14
780.863	-0.1
781.038	0.07
781.212	-0.23
781.387	-0.08
781.562	0.33
781.737	-0.07
781.911	0.17
782.086	-0.14
782.261	-0.03
782.435	0.2
782.61	-0.07
782.784	-0.05
782.959	0.15
783.134	-0.03
783.308	-0.2
783.483	0.04
783.657	0.14
783.832	0.18
784.006	-0.29
784.181	-0.1
784.355	0.17
784.53	-0.25
784.704	-0.28
784.878	0.1
785.053	0.15
785.227	0.01
785.402	0.18
785.576	-0.42
785.75	-0.04
785.925	-0.1
786.099	-0.1
786.273	-0.12
786.448	-0.07
786.622	0.07
786.796	-0.29
786.97	-0.16
787.145	0.35
787.319	-0.19
787.493	0.09
787.667	-0.37
787.841	-0.29
788.015	0.12
788.19	-0.01
788.364	0.16
788.538	-0.02
788.712	0.14
788.886	-0.1
789.06	0.31
789.234	0.13
789.408	-0.23
789.582	-0.23
789.756	-0.13
789.93	-0.28
790.104	-0.27
790.278	-0.23
790.452	-0.29
790.626	0.24
790.8	-0.12
790.973	-0.01
791.147	0.1
791.321	0.12
791.495	0.09
791.669	-0.12
791.843	-0.11
792.016	0.11
792.19	0.43
792.364	-0.28
792.538	0.2
792.711	0.15
792.885	-0.23
793.059	-0.32
793.233	-0.51
793.406	0.2
793.58	0.15
793.754	-0.01
793.927	-0.17
794.101	0.36
794.274	0.02
794.448	0.14
794.622	-0.29
794.795	0.27
794.969	-0.2
795.142	0.2
795.316	-0.11
795.489	-0.19
795.663	0.13
795.836	-0.23
796.009	-0.27
796.183	0.35
796.356	0.03
796.53	0
796.703	0.04
796.876	0.6
797.05	-0.24
797.223	-0.24
797.396	0.06
797.57	-0.07
797.743	0.13
797.916	-0.19
798.09	-0.11
798.263	-0.14
798.436	-0.04
798.609	-0.13
798.782	0.12
798.956	-0.17
799.129	-0.24
799.302	-0.05
799.475	-0.19
799.648	-0.15
799.821	-0.24
799.994	-0.09
800.167	-0.43
800.34	-0.31
800.514	-0.03
800.687	-0.2
800.86	-0.17
801.033	0.02
801.206	-0.14
801.379	-0.51
801.551	0.27
801.724	-0.09
801.897	0.13
802.07	-0.25
802.243	-0.57
802.416	-0.05
802.589	-0.1
802.762	-0.31
802.935	-0.16
803.107	0.1
803.28	0.11
803.453	0.08
803.626	-0.05
803.798	0.25
803.971	0.01
804.144	-0.2
804.317	0.18
804.489	0.3
804.662	-0.17
804.835	-0.07
805.007	-0.15
805.18	0.23
805.353	0.11
805.525	-0.25
805.698	-0.37
805.87	0.16
806.043	0.37
806.215	-0.21
806.388	-0.24
806.56	0.26
806.733	0.37
806.905	-0.06
807.078	-0.23
807.25	-0.25
807.423	0.02
807.595	-0.17
807.768	-0.14
807.94	0.11
808.112	0.1
808.285	0.01
808.457	-0.43
808.629	-0.06
808.802	0.13
808.974	-0.22
809.146	-0.23
809.318	-0.32
809.491	-0
809.663	0.21
809.835	-0.29
810.007	0.2
810.18	-0.27
810.352	-0.42
810.524	0
810.696	0.04
810.868	0.1
811.04	-0.32
811.212	-0.07
811.384	0.24
811.556	-0.13
811.728	-0.15
811.901	0.61
812.073	-0.3
812.245	0.32
812.417	0.03
812.589	-0.67
812.76	-0.17
812.932	0.05
813.104	0.21
813.276	-0
813.448	0.25
813.62	0.02
813.792	-0.21
813.964	-0.18
814.136	0.07
814.307	-0.02
814.479	-0.13
814.651	0.25
814.823	0.63
814.995	-0.44
815.166	0.05
815.338	-0.7
815.51	-0.51
815.681	0.44
815.853	-0.09
816.025	-0.56
816.196	0.02
816.368	-0.2
816.54	-0.51
816.711	-0.57
816.883	-0.23
817.054	0.56
817.226	-0.44
817.398	-0.42
817.569	-0.75
817.741	-0.15
817.912	0.3
818.084	-0.11
818.255	0.27
818.426	-0.55
818.598	-0.07
818.769	-0.69
818.941	0.28
819.112	0.24
819.283	0.18
819.455	-0.19
819.626	-0.28
819.798	-0.07
819.969	-0.04
820.14	-0.08
820.311	-0.12
820.483	0.1
820.654	-0.09
820.825	-0.03
820.996	-0.46
821.168	-0.26
821.339	-0.42
821.51	-0.62
821.681	-0.42
821.852	-0.32
822.023	-0.55
822.195	-0.89
822.366	0.2
822.537	0.25
822.708	-0.27
822.879	-0.33
823.05	0.55
823.221	-0.22
823.392	0.14
823.563	0.03
823.734	0.21
823.905	0.06
824.076	-0.22
824.247	-0.1
824.418	-0.65
824.589	0.16
824.759	0.05
824.93	-0.14
825.101	-0.37
825.272	0.11
825.443	0.16
825.614	-0.17
825.784	-0.99
825.955	0.6
826.126	0.11
826.297	0.33
826.467	0.68
826.638	0.6
826.809	-1.19
826.98	-0.17
827.15	0.05
827.321	-0.02
827.492	0.49
827.662	0.02
827.833	0.73
828.003	0.41
828.174	-0.43
828.345	-1.09
828.515	0.22
828.686	0
828.856	-0.34
829.027	-0.7
829.197	-0.19
829.368	-0.42
829.538	-0.52
829.709	-0.26
829.879	-0.21
830.049	-0.18
830.22	-0.65
830.39	-0.09
830.56	0.07
830.731	-0.3
830.901	-0.48
831.072	-0.1
831.242	-0.05
831.412	-0.36
831.582	0.27
831.753	-0.98
831.923	0.18
832.093	-0.87
832.263	-0.21
832.434	-0.53
832.604	-0.03
832.774	0.28
832.944	-0.28
833.114	-0.44
833.284	-0.11
833.454	-0.92
833.624	-0.56
833.795	-0.63
833.965	0.26
834.135	-0.41
834.305	-1.2
834.475	-0.72
834.645	-0.33
834.815	-1
834.985	-0.78
835.155	-1.28
835.325	0.17
835.494	-0.06
835.664	-0.38
835.834	-0.66
836.004	-0.18
836.174	-0
836.344	-0.44
836.514	-1.22
836.684	-0.36
836.853	0.07
837.023	0.05
837.193	-0.45
837.363	0.4
837.532	0.24
837.702	-0.28
837.872	-0.11
838.041	0.63
838.211	1.56
838.381	-0.81
838.55	-0.4
838.72	1.36
838.89	1.35
839.059	-0.26
839.229	-0.91
839.398	1.23
839.568	-0.41
839.738	-0.05
839.907	0.64
840.077	-0.04
840.246	-0.75
840.416	-1.28
840.585	-0.72
840.755	0.94
840.924	0.94
841.093	-0.55
841.263	-0.56
841.432	-0.14
841.602	-0.62
841.771	-0.43
841.94	0.04
842.11	1.29
842.279	1.16
842.448	-1.17
842.617	-1.3
842.787	0.87
842.956	-0.49
843.125	-0.77
843.294	0.1
843.464	-0.04
843.633	-0.07
843.802	-0.83
843.971	-0.78
844.14	0.39
844.309	0.68
844.479	-0.33
844.648	-0.83
844.817	-1.1
844.986	-0.27
845.155	-0.93
845.324	-0.56
845.493	-1.17
845.662	-0.83
845.831	-0.53
846	0.59
846.169	-0.37
846.338	1.49
846.507	-0.27
846.676	-0.1
846.844	-0.58
847.013	0.06
847.182	-0.95
847.351	-1.06
847.52	-1.1
847.689	0.22
847.858	-0.53
848.026	-0.68
848.195	0.11
848.364	-1.17
848.533	-1.32
848.701	-0.39
848.87	0.49
849.039	0.48
849.207	-0
849.376	0.83
849.545	1.47
849.713	-0.43
849.882	-0.71
850.051	-0.31
850.219	-0.19
850.388	0.07
850.556	-1.46
850.725	-0.99
850.893	-0.13
851.062	-0.34
851.23	-0.17
851.399	-1.81
851.567	-1.28
851.736	-1.21
851.904	-1.54
852.073	-0.79
852.241	0.18
852.41	0.26
852.578	-0.66
852.746	-0.46
852.915	-0.03
853.083	0.05
853.251	-0.75
853.42	-0.66
853.588	0.19
853.756	-0
853.924	0.31
854.093	-0.79
854.261	-1.5
854.429	-0.9
854.597	0.05
854.765	-1.49
854.934	0.01
855.102	0.32
855.27	-0.19
855.438	0.65
855.606	-0.42
855.774	0.99
855.942	-2.11
856.11	-2.26
856.278	0.01
856.446	0.5
856.614	-0.32
856.782	-0.19
856.95	0.12
857.118	-0.38
857.286	-0.28
857.454	-2.39
857.622	-0.13
857.79	-0.61
857.958	-1.51
858.126	-0.33
858.294	-2.17
858.462	0.46
858.629	-1.25
858.797	-1.34
858.965	-0.62
859.133	-1.04
859.301	-0.67
859.468	-0.16
859.636	-0.94
859.804	1
859.971	0.47
860.139	-0.73
860.307	0.68
860.474	0.99
860.642	-0.71
860.81	-1.91
860.977	-0.91
861.145	-0.37
861.313	-1.1
861.48	0.02
861.648	0.87
861.815	0.21
861.983	-1.26
862.15	-0.9
862.318	0.97
862.485	-0.31
862.653	-0.63
862.82	-1.81
862.988	2.24
863.155	-0.2
863.322	-0.9
863.49	-1.15
863.657	-0.51
863.824	0.97
863.992	0.74
864.159	-1.01
864.326	0.7
864.494	-1.46
864.661	2.5
864.828	-0.66
864.996	0.05
865.163	0.39
865.33	-2.71
865.497	-2.12
865.664	-1.44
865.832	-2.85
865.999	0.87
866.166	-1.48
866.333	-1
866.5	-0.21
866.667	-1.11
866.834	-1.14
867.001	1.65
867.168	-2.43
867.335	0.72
867.502	-3.1
867.669	-1.87
867.836	0.87
868.003	-0.82
868.17	0.58
868.337	-0.2
868.504	0.98
868.671	-1.77
868.838	-2.05
869.005	-0.14
869.172	1.1
869.339	-1.74
869.505	0.64
869.672	-1.19
869.839	1.87
870.006	-0.68
870.173	-2.51
870.339	-0.33
870.506	0.85
870.673	-1.74
870.84	2.05
871.006	-0.03
871.173	-0.72
871.34	-1.15
871.506	-2.27
871.673	1.44
871.839	-2.45
872.006	-0.64
872.173	1.07
872.339	-1.34
872.506	-0.67
872.672	-0.82
872.839	-1.55
873.005	-0.5
873.172	2.01
873.338	0.35
873.505	-0.15
873.671	1.29
873.838	0.05
874.004	-1.35
874.171	-1.85
874.337	-1.34
874.503	-0.35
874.67	-1.26
874.836	0.03
875.002	1.47
875.169	-1.15
875.335	-0.65
875.501	-2.19
875.668	-0.9
875.834	-2.08
876	-1.64
876.166	0.25
876.332	-0.92
876.499	1.35
876.665	-2.42
876.831	-2.72
876.997	1.15
877.163	0.84
877.329	-1.85
877.495	-1.78
877.662	-0.09
877.828	1.5
877.994	-0.33
878.16	-1.67
878.326	-1.67
878.492	-0.65
878.658	0.33
878.824	-0
878.99	0.59
879.156	-0.17
879.322	2.39
879.487	-2.56
879.653	-0
879.819	-0.19
879.985	-0.88
880.151	-0.45
880.317	0.93
880.483	-0.47
880.648	-0.77
880.814	-2.95
880.98	-1.03
881.146	-3.81
881.312	-2.48
881.477	-2.37
881.643	-0.27
881.809	2.37
881.974	1.37
882.14	-1.02
882.306	-0.29
882.471	2.43
882.637	-0.68
882.803	-0.68
882.968	1.4
883.134	1.49
883.299	-1.39
883.465	-0.84
883.63	0.65
883.796	0.65
883.961	0.99
884.127	-0.39
884.292	-3.01
884.458	-2.75
884.623	-2.75
