Data from Apollo_Calib_20240827__AbsoluteIrradiance__162__01-51-01-495.txt Node

Date: Wed Aug 28 01:51:01 BST 2024
User: biology
Spectrometer: FLMT08252
Trigger mode: 0
Integration Time (sec): 5.000000E-1
Scans to average: 5
Electric dark correction enabled: true
Nonlinearity correction enabled: false
Boxcar width: 0
XAxis mode: Wavelengths
Number of Pixels in Spectrum: 3648
>>>>>Begin Spectral Data<<<<<
179.588	-0
179.809	-0
180.03	-0
180.251	-0
180.473	-0
180.694	0
180.915	0
181.136	-0
181.357	0
181.578	-0
181.799	-0
182.02	-0
182.241	0
182.462	-0
182.683	0
182.904	-0
183.125	-0
183.346	0
183.567	0
183.788	-0
184.009	-0
184.23	0
184.451	0
184.672	-0
184.892	-0
185.113	0
185.334	0
185.555	-0
185.776	-0
185.996	0
186.217	-0
186.438	0
186.659	-0
186.879	0
187.1	0
187.321	-0
187.541	-0
187.762	0
187.983	-0
188.203	0
188.424	-0
188.644	-0
188.865	0
189.086	-0
189.306	-0
189.527	-0
189.747	0
189.968	-0
190.188	0
190.409	0
190.629	0
190.849	-0
191.07	-0
191.29	0
191.511	0
191.731	-0
191.951	-0
192.172	-0
192.392	-0
192.612	-0
192.833	-0
193.053	0
193.273	0
193.493	-0
193.714	-0
193.934	0
194.154	0
194.374	0
194.594	-0
194.815	0
195.035	0
195.255	-0
195.475	-0
195.695	0
195.915	0
196.135	-0
196.355	0
196.575	0
196.795	-0
197.015	-0
197.235	-0
197.455	-0
197.675	0
197.895	-0
198.115	-0
198.335	0
198.555	-0
198.775	-0
198.995	0
199.214	0
199.434	0
199.654	-0
199.874	-0
200.094	1.03
200.313	-0.71
200.533	-0.57
200.753	-0.68
200.973	0.85
201.192	0.3
201.412	-0.93
201.632	-0.25
201.851	1.14
202.071	-0.49
202.291	-0.51
202.51	-1.09
202.73	0.38
202.95	-0.24
203.169	-0.86
203.389	-0.24
203.608	0.14
203.828	-0.33
204.047	-0.33
204.267	0.43
204.486	0.12
204.706	0.16
204.925	0.05
205.145	-0.39
205.364	0.37
205.583	0.22
205.803	-0.18
206.022	-0.18
206.242	0.04
206.461	0.14
206.68	0.06
206.9	0.01
207.119	0.69
207.338	0.32
207.557	-0.75
207.777	-0.18
207.996	0.12
208.215	0.15
208.434	-0.4
208.654	-0.65
208.873	0.23
209.092	0.49
209.311	-0.46
209.53	-0.21
209.749	-0.28
209.968	-0.04
210.187	-0.25
210.407	-0.5
210.626	-0.18
210.845	0.19
211.064	-0
211.283	-0.17
211.502	0.36
211.721	0.01
211.94	-0.15
212.159	0
212.377	0.13
212.596	0.21
212.815	0.05
213.034	0.1
213.253	0.41
213.472	0.02
213.691	-0.26
213.91	-0.32
214.128	-0.24
214.347	0.39
214.566	-0.47
214.785	-0.45
215.003	0.01
215.222	0.11
215.441	0.12
215.66	-0.54
215.878	-0.08
216.097	0.19
216.316	-0.08
216.534	-0.07
216.753	0.2
216.972	-0.2
217.19	-0.09
217.409	-0.16
217.627	-0.07
217.846	-0.17
218.064	-0.08
218.283	-0.28
218.501	0.47
218.72	0.15
218.938	-0.12
219.157	-0.13
219.375	-0.1
219.594	0.24
219.812	-0.18
220.031	-0.24
220.249	0.25
220.467	0.25
220.686	-0.11
220.904	-0.29
221.122	-0.02
221.341	0.3
221.559	-0.15
221.777	-0.18
221.995	0.02
222.214	-0.04
222.432	-0.29
222.65	0.04
222.868	0.04
223.086	0.1
223.305	0.04
223.523	-0.05
223.741	0.4
223.959	-0.11
224.177	-0.34
224.395	-0.05
224.613	0.02
224.831	-0.03
225.049	-0.22
225.267	-0.07
225.485	0.06
225.703	-0.03
225.921	-0.03
226.139	-0.08
226.357	0.07
226.575	0.15
226.793	-0.11
227.011	0.65
227.229	0.08
227.447	0.08
227.665	-0.16
227.883	-0.31
228.1	-0.14
228.318	0.08
228.536	-0.32
228.754	-0.15
228.972	0.02
229.189	0.04
229.407	-0.15
229.625	-0.12
229.843	0.22
230.06	0.14
230.278	-0.18
230.496	0
230.713	-0.03
230.931	0.17
231.149	-0.16
231.366	-0.24
231.584	0.05
231.801	0.28
232.019	-0.05
232.236	-0.17
232.454	-0.15
232.671	0.01
232.889	-0.05
233.106	-0.06
233.324	-0.04
233.541	-0.05
233.759	0.02
233.976	-0.18
234.194	0.05
234.411	0.01
234.628	0.02
234.846	-0.06
235.063	-0.08
235.28	-0.07
235.498	-0.05
235.715	-0.26
235.932	0.03
236.149	0
236.367	-0.12
236.584	0.09
236.801	-0.1
237.018	0.09
237.236	-0
237.453	-0.2
237.67	0
237.887	0.01
238.104	-0.03
238.321	-0.09
238.538	-0.08
238.755	0.12
238.973	-0.15
239.19	0.02
239.407	0.05
239.624	-0.02
239.841	-0.2
240.058	-0.05
240.275	0.07
240.492	-0.07
240.709	-0.09
240.925	-0.11
241.142	0.08
241.359	-0.01
241.576	-0.08
241.793	-0.09
242.01	-0.02
242.227	-0.05
242.444	-0.01
242.66	0.01
242.877	0.01
243.094	-0.15
243.311	-0.04
243.527	-0.07
243.744	-0.01
243.961	0.09
244.178	-0.12
244.394	-0.07
244.611	0.17
244.828	0.07
245.044	-0.13
245.261	-0.09
245.477	0.07
245.694	-0.02
245.911	-0.11
246.127	0.02
246.344	0.05
246.56	0.04
246.777	-0.11
246.993	-0.05
247.21	0.04
247.426	-0.02
247.643	-0.13
247.859	-0.1
248.076	-0.02
248.292	0.12
248.508	-0.07
248.725	-0.07
248.941	0.14
249.157	0.12
249.374	-0.05
249.59	-0
249.806	0.03
250.023	0.24
250.239	-0.18
250.455	-0.1
250.671	0.02
250.888	0.1
251.104	0.03
251.32	-0.04
251.536	0.01
251.752	-0.08
251.969	0.01
252.185	0.09
252.401	0.17
252.617	0.05
252.833	0.03
253.049	0.01
253.265	-0.05
253.481	0.04
253.697	-0.06
253.913	-0.08
254.129	0.01
254.345	-0.04
254.561	0.04
254.777	-0.04
254.993	0
255.209	0.06
255.425	0.02
255.641	-0.06
255.857	0.03
256.073	-0.04
256.288	-0.06
256.504	-0.05
256.72	0.03
256.936	0.15
257.152	-0.01
257.367	-0.07
257.583	-0.02
257.799	0.07
258.015	-0.07
258.23	-0.07
258.446	0.15
258.662	-0
258.877	-0.08
259.093	-0.06
259.309	0.02
259.524	0.09
259.74	-0.03
259.955	-0.08
260.171	0.03
260.387	-0.07
260.602	0.06
260.818	0.02
261.033	-0.1
261.249	-0.1
261.464	-0.05
261.68	-0.1
261.895	-0
262.11	0.05
262.326	-0.1
262.541	-0.05
262.757	0.02
262.972	0.06
263.187	0.04
263.403	0.02
263.618	0.02
263.833	0.01
264.049	-0.13
264.264	-0.04
264.479	0.06
264.694	0.08
264.91	-0.07
265.125	-0.06
265.34	0.08
265.555	0.09
265.77	-0
265.986	-0.1
266.201	0
266.416	0.08
266.631	-0.01
266.846	-0
267.061	0.06
267.276	0.04
267.491	-0.14
267.706	0.06
267.921	0.06
268.136	0.06
268.351	0.01
268.566	-0.06
268.781	0.08
268.996	0.04
269.211	0.07
269.426	-0.07
269.641	0.02
269.856	0.05
270.071	-0.09
270.285	-0.12
270.5	0.03
270.715	0.06
270.93	0
271.145	-0.04
271.359	0.11
271.574	-0.08
271.789	0.04
272.004	-0.06
272.218	-0.01
272.433	0.05
272.648	-0.06
272.862	0.01
273.077	-0.06
273.292	0.02
273.506	0
273.721	-0.06
273.936	-0.01
274.15	0.08
274.365	-0.02
274.579	0.06
274.794	0
275.008	0.05
275.223	-0.06
275.437	-0.05
275.652	0.03
275.866	0.05
276.081	-0.05
276.295	0.03
276.509	0.04
276.724	-0.02
276.938	-0.02
277.153	0.05
277.367	0.05
277.581	0
277.796	-0.01
278.01	-0.04
278.224	0.01
278.438	0.12
278.653	-0.1
278.867	-0.07
279.081	-0.04
279.295	0.03
279.51	-0
279.724	-0.11
279.938	0.02
280.152	0.03
280.366	-0.04
280.58	0.01
280.794	0.07
281.008	0.1
281.222	0.07
281.437	0.07
281.651	-0.01
281.865	0.11
282.079	0.01
282.293	-0.09
282.507	-0.06
282.721	-0.02
282.935	0.03
283.148	-0.07
283.362	-0.04
283.576	-0.04
283.79	-0.02
284.004	-0.03
284.218	0.09
284.432	-0.02
284.646	0.03
284.859	-0.06
285.073	-0.03
285.287	0.02
285.501	-0.01
285.714	0
285.928	0.04
286.142	0.01
286.356	-0.03
286.569	-0.06
286.783	0.09
286.997	0.01
287.21	-0.01
287.424	-0.01
287.637	-0.07
287.851	-0.01
288.065	0.06
288.278	-0.04
288.492	0.01
288.705	0.01
288.919	0.08
289.132	-0.07
289.346	0.09
289.559	-0.06
289.773	-0.09
289.986	0.01
290.2	-0.03
290.413	0.04
290.626	-0.03
290.84	-0.02
291.053	-0.04
291.267	0.14
291.48	0.03
291.693	-0.03
291.906	-0.07
292.12	-0.01
292.333	-0.06
292.546	-0.02
292.76	0.08
292.973	0.03
293.186	0.04
293.399	-0.02
293.612	0.06
293.826	0
294.039	0
294.252	0.03
294.465	0.02
294.678	0.04
294.891	0
295.104	-0.02
295.317	-0
295.53	0.02
295.743	0.03
295.956	-0.03
296.169	0.06
296.382	0.03
296.595	0
296.808	-0.06
297.021	0.03
297.234	0.04
297.447	-0
297.66	0
297.873	0.04
298.086	0.08
298.299	-0.06
298.511	-0.05
298.724	-0
298.937	-0.02
299.15	-0.02
299.363	0.01
299.575	0.05
299.788	0.02
300.001	-0.02
300.213	-0.01
300.426	-0.04
300.639	-0.03
300.852	-0.03
301.064	0.02
301.277	0.04
301.489	0.06
301.702	0.02
301.915	0
302.127	-0.01
302.34	0.05
302.552	0.04
302.765	-0.01
302.977	0.03
303.19	0.02
303.402	0.03
303.615	-0.01
303.827	-0.06
304.04	-0.03
304.252	0.03
304.464	-0.01
304.677	0.13
304.889	0.04
305.102	-0.02
305.314	-0.03
305.526	0.05
305.739	0.02
305.951	-0.01
306.163	0
306.375	0.09
306.588	-0.02
306.8	-0.01
307.012	-0.07
307.224	0.01
307.436	0.06
307.649	-0.07
307.861	0.03
308.073	0.03
308.285	0.02
308.497	-0.04
308.709	0
308.921	0.01
309.133	0.09
309.346	0.03
309.558	-0.02
309.77	0.05
309.982	0.07
310.194	0.06
310.406	-0.02
310.617	0.08
310.829	-0.02
311.041	0.03
311.253	-0.05
311.465	0.02
311.677	0
311.889	0.01
312.101	-0.02
312.313	0.06
312.524	0.06
312.736	-0.08
312.948	-0.01
313.16	0.11
313.372	-0.01
313.583	0.02
313.795	0
314.007	-0.05
314.218	0.03
314.43	-0.01
314.642	0.02
314.853	0
315.065	0.04
315.277	0
315.488	0.05
315.7	0.06
315.912	0.05
316.123	-0.02
316.335	-0.03
316.546	0.16
316.758	-0.03
316.969	-0.03
317.181	0.03
317.392	0.01
317.604	0.07
317.815	-0.04
318.026	-0.05
318.238	-0.03
318.449	0.03
318.661	-0.07
318.872	-0.02
319.083	-0.09
319.295	0
319.506	-0.01
319.717	-0.03
319.929	0.05
320.14	0.03
320.351	0.03
320.562	-0.02
320.774	-0.02
320.985	0.02
321.196	-0.05
321.407	-0.09
321.618	0.02
321.829	0.02
322.041	0.03
322.252	0.02
322.463	0.04
322.674	-0.02
322.885	-0.03
323.096	0.03
323.307	0.01
323.518	0.04
323.729	-0.02
323.94	-0.05
324.151	-0.03
324.362	0.04
324.573	0.04
324.784	-0
324.995	0.07
325.206	0.01
325.417	-0.02
325.628	-0.01
325.838	0.01
326.049	-0.01
326.26	0.02
326.471	-0.01
326.682	0.08
326.892	0.01
327.103	-0.11
327.314	-0.03
327.525	0.04
327.735	0.02
327.946	-0.04
328.157	-0.06
328.368	0.03
328.578	-0.03
328.789	0.03
328.999	0
329.21	-0.01
329.421	0.05
329.631	-0.07
329.842	-0.04
330.052	0.04
330.263	0.05
330.473	0.05
330.684	-0.03
330.894	-0
331.105	0.02
331.315	0.01
331.526	-0.04
331.736	0.08
331.947	0
332.157	0
332.367	-0.04
332.578	-0
332.788	0.06
332.999	0.04
333.209	0.01
333.419	-0.06
333.629	0
333.84	0.03
334.05	-0.01
334.26	0.09
334.47	-0.01
334.681	0.08
334.891	-0.03
335.101	0.05
335.311	0.05
335.521	-0.03
335.732	-0.04
335.942	0.06
336.152	0.04
336.362	-0.01
336.572	0.03
336.782	0.06
336.992	-0.02
337.202	-0.01
337.412	-0.02
337.622	0.03
337.832	-0
338.042	0
338.252	-0.06
338.462	-0.08
338.672	0.02
338.882	-0.01
339.092	0.04
339.302	0.08
339.511	0.04
339.721	-0.02
339.931	-0.06
340.141	0.04
340.351	0.04
340.561	-0
340.77	0
340.98	0.01
341.19	0.03
341.4	-0.01
341.609	-0.04
341.819	-0.02
342.029	-0.08
342.238	0.01
342.448	-0.02
342.658	0.03
342.867	0.02
343.077	-0
343.286	0.01
343.496	-0.02
343.706	0.06
343.915	-0.06
344.125	-0.02
344.334	-0.01
344.544	-0.07
344.753	-0.02
344.963	-0.01
345.172	-0
345.381	-0.04
345.591	-0.02
345.8	0.03
346.01	0.06
346.219	0.08
346.428	-0.14
346.638	0.02
346.847	-0.01
347.056	0.02
347.266	-0.01
347.475	0.03
347.684	0.05
347.893	0.07
348.103	0.02
348.312	-0
348.521	-0
348.73	0.03
348.94	0.01
349.149	-0.02
349.358	0.01
349.567	-0.03
349.776	-0.05
349.985	-0.02
350.194	0.06
350.403	0.04
350.612	-0.04
350.821	0.01
351.03	-0
351.239	-0.06
351.448	0
351.657	-0.01
351.866	0.09
352.075	0.01
352.284	0.05
352.493	-0.07
352.702	0.06
352.911	0.03
353.12	0.01
353.329	-0.01
353.538	0.04
353.746	0
353.955	-0.02
354.164	-0.02
354.373	-0.01
354.582	0.07
354.79	-0
354.999	0.06
355.208	0.01
355.416	0.05
355.625	-0.05
355.834	-0.01
356.042	0.01
356.251	-0.01
356.46	-0
356.668	0.07
356.877	0.14
357.085	0.09
357.294	-0.05
357.503	-0.01
357.711	0.02
357.92	0.12
358.128	-0.01
358.337	0.01
358.545	0.02
358.754	0.02
358.962	0.01
359.17	-0.02
359.379	0.03
359.587	0.06
359.796	0.01
360.004	0.04
360.212	0.05
360.421	0.04
360.629	0.02
360.837	-0.02
361.046	0.09
361.254	0.1
361.462	0.01
361.67	-0.03
361.879	-0.01
362.087	0.03
362.295	-0.02
362.503	-0.03
362.711	-0.03
362.92	-0.03
363.128	-0.03
363.336	-0.01
363.544	-0.07
363.752	0
363.96	-0.04
364.168	-0
364.376	0.05
364.584	0.03
364.792	0.06
365	-0.02
365.208	0.01
365.416	0.01
365.624	0.04
365.832	-0.03
366.04	0.08
366.248	0.03
366.456	-0.02
366.664	0.06
366.872	0.06
367.079	-0
367.287	0
367.495	0.03
367.703	-0.02
367.911	0.01
368.118	0.01
368.326	0.03
368.534	-0
368.742	0.04
368.949	-0.02
369.157	-0
369.365	0.04
369.572	-0.02
369.78	-0.04
369.988	0.06
370.195	0.04
370.403	0.02
370.61	-0
370.818	0.04
371.026	0.07
371.233	-0.03
371.441	0.03
371.648	-0.03
371.856	0.03
372.063	0
372.271	-0.02
372.478	-0.03
372.685	-0.03
372.893	-0.01
373.1	0.01
373.308	0.01
373.515	0.11
373.722	0.02
373.93	-0.01
374.137	0.04
374.344	0.1
374.552	0.08
374.759	0.01
374.966	0.04
375.173	0.01
375.381	0.07
375.588	0.01
375.795	-0.03
376.002	0.01
376.209	0
376.417	0.04
376.624	-0
376.831	0.05
377.038	0.02
377.245	-0.06
377.452	-0.01
377.659	0.01
377.866	-0.01
378.073	0.01
378.28	0.02
378.487	0.08
378.694	0.06
378.901	0.04
379.108	0.03
379.315	0.07
379.522	0.1
379.729	0.03
379.936	0.05
380.143	0.05
380.35	0.04
380.557	0.01
380.763	0.01
380.97	0
381.177	-0.02
381.384	0.04
381.591	-0.04
381.797	0.05
382.004	0.08
382.211	0.06
382.418	0.03
382.624	0.07
382.831	0.07
383.038	0.01
383.244	0.03
383.451	0.01
383.658	0.09
383.864	0.04
384.071	0.01
384.277	0.13
384.484	0.02
384.69	0.08
384.897	0.07
385.103	0.02
385.31	0.02
385.516	0.03
385.723	0.01
385.929	0.06
386.136	0.06
386.342	0.06
386.549	0.04
386.755	0.09
386.961	0.11
387.168	0.05
387.374	0.09
387.58	0.15
387.787	0.07
387.993	0.09
388.199	0.08
388.406	0.06
388.612	0.1
388.818	0.07
389.024	0.09
389.231	0.15
389.437	0.22
389.643	0.15
389.849	0.18
390.055	0.14
390.261	0.17
390.467	0.22
390.674	0.16
390.88	0.15
391.086	0.2
391.292	0.19
391.498	0.26
391.704	0.28
391.91	0.23
392.116	0.26
392.322	0.15
392.528	0.32
392.734	0.27
392.94	0.35
393.146	0.36
393.352	0.35
393.557	0.42
393.763	0.4
393.969	0.46
394.175	0.44
394.381	0.5
394.587	0.47
394.792	0.52
394.998	0.6
395.204	0.66
395.41	0.61
395.615	0.71
395.821	0.75
396.027	0.77
396.233	0.79
396.438	0.86
396.644	0.93
396.85	0.98
397.055	1
397.261	1.02
397.466	1.14
397.672	1.15
397.878	1.21
398.083	1.21
398.289	1.24
398.494	1.35
398.7	1.4
398.905	1.34
399.111	1.65
399.316	1.53
399.522	1.67
399.727	1.69
399.932	1.83
400.138	1.82
400.343	2.05
400.549	2
400.754	2.16
400.959	2.29
401.165	2.33
401.37	2.49
401.575	2.81
401.78	2.67
401.986	2.86
402.191	2.91
402.396	3.13
402.601	3.25
402.807	3.32
403.012	3.48
403.217	3.73
403.422	3.7
403.627	3.83
403.832	4.05
404.037	4.08
404.243	4.12
404.448	4.4
404.653	4.47
404.858	4.61
405.063	4.57
405.268	4.8
405.473	4.83
405.678	4.85
405.883	5.27
406.088	5.25
406.293	5.14
406.498	5.35
406.703	5.29
406.907	5.45
407.112	5.5
407.317	5.75
407.522	5.84
407.727	5.8
407.932	5.89
408.136	6.06
408.341	5.84
408.546	5.93
408.751	5.84
408.956	5.79
409.16	5.81
409.365	5.78
409.57	5.55
409.774	5.58
409.979	5.5
410.184	5.33
410.388	5.25
410.593	5.34
410.798	5.28
411.002	5.17
411.207	5.07
411.411	4.98
411.616	4.73
411.82	4.71
412.025	4.62
412.229	4.49
412.434	4.34
412.638	4.22
412.843	4.03
413.047	3.94
413.252	3.77
413.456	3.85
413.66	3.63
413.865	3.58
414.069	3.41
414.273	3.38
414.478	3.17
414.682	3.1
414.886	3.03
415.091	2.83
415.295	2.84
415.499	2.74
415.703	2.61
415.908	2.69
416.112	2.48
416.316	2.55
416.52	2.41
416.724	2.32
416.929	2.3
417.133	2.35
417.337	2.16
417.541	2.17
417.745	2.11
417.949	2.04
418.153	2.03
418.357	1.95
418.561	2.04
418.765	1.87
418.969	1.92
419.173	1.9
419.377	1.77
419.581	1.87
419.785	1.66
419.989	1.59
420.193	1.62
420.397	1.62
420.601	1.62
420.804	1.61
421.008	1.51
421.212	1.48
421.416	1.42
421.62	1.31
421.823	1.28
422.027	1.37
422.231	1.23
422.435	1.14
422.638	1.15
422.842	1.08
423.046	1.05
423.249	1.1
423.453	1.03
423.657	0.96
423.86	0.96
424.064	0.9
424.268	1.02
424.471	0.83
424.675	0.89
424.878	0.92
425.082	0.8
425.285	0.85
425.489	0.75
425.692	0.76
425.896	0.66
426.099	0.71
426.303	0.66
426.506	0.61
426.71	0.68
426.913	0.71
427.116	0.69
427.32	0.6
427.523	0.55
427.726	0.64
427.93	0.5
428.133	0.56
428.336	0.5
428.54	0.55
428.743	0.56
428.946	0.55
429.149	0.53
429.353	0.49
429.556	0.48
429.759	0.45
429.962	0.45
430.165	0.45
430.368	0.46
430.571	0.38
430.775	0.41
430.978	0.37
431.181	0.4
431.384	0.41
431.587	0.36
431.79	0.38
431.993	0.34
432.196	0.32
432.399	0.34
432.602	0.42
432.805	0.32
433.008	0.37
433.211	0.25
433.414	0.38
433.616	0.34
433.819	0.27
434.022	0.26
434.225	0.39
434.428	0.38
434.631	0.44
434.833	0.27
435.036	0.23
435.239	0.3
435.442	0.33
435.645	0.23
435.847	0.26
436.05	0.34
436.253	0.28
436.455	0.2
436.658	0.25
436.861	0.31
437.063	0.21
437.266	0.26
437.468	0.25
437.671	0.41
437.874	0.2
438.076	0.18
438.279	0.17
438.481	0.22
438.684	0.2
438.886	0.22
439.089	0.11
439.291	0.2
439.494	0.22
439.696	0.17
439.899	0.2
440.101	0.22
440.303	0.09
440.506	0.22
440.708	0.19
440.91	0.24
441.113	0.13
441.315	0.19
441.517	0.12
441.72	0.24
441.922	0.15
442.124	0.15
442.326	0.17
442.529	0.22
442.731	0.1
442.933	0.25
443.135	0.1
443.337	0.08
443.539	0.1
443.742	0.13
443.944	0.2
444.146	0.11
444.348	0.15
444.55	0.13
444.752	0.13
444.954	0.06
445.156	0.13
445.358	0.14
445.56	0.14
445.762	0.14
445.964	0.14
446.166	0.09
446.368	0.03
446.57	0.15
446.772	0.1
446.974	0.1
447.175	0.15
447.377	0.05
447.579	0.1
447.781	0.03
447.983	0.16
448.184	0.07
448.386	0.1
448.588	0.03
448.79	0.05
448.991	0.08
449.193	0.15
449.395	0.07
449.597	0.11
449.798	0.13
450	0.11
450.202	0.07
450.403	0.08
450.605	0.13
450.806	0.06
451.008	0.04
451.21	0.09
451.411	0.09
451.613	0.06
451.814	0.08
452.016	0.09
452.217	0.08
452.419	0.13
452.62	0.06
452.821	0.12
453.023	0.13
453.224	0.13
453.426	0.05
453.627	0.07
453.828	0.11
454.03	0.05
454.231	0.1
454.432	0.08
454.634	0.17
454.835	0.04
455.036	0
455.238	0.11
455.439	0.17
455.64	0.06
455.841	0.04
456.042	0.21
456.244	0.12
456.445	0.03
456.646	0
456.847	0.05
457.048	0.11
457.249	0.14
457.45	0.26
457.651	0.01
457.852	0.12
458.054	0.07
458.255	0.07
458.456	0.12
458.657	0.1
458.858	0.02
459.058	0.05
459.259	0.15
459.46	0.02
459.661	0.01
459.862	0.18
460.063	0.02
460.264	0.12
460.465	0.03
460.666	0.18
460.866	0.01
461.067	0.07
461.268	0.1
461.469	0.02
461.67	0.07
461.87	0.01
462.071	0.07
462.272	0.03
462.473	0.07
462.673	0.16
462.874	-0
463.075	0.04
463.275	0.03
463.476	0.1
463.676	0.1
463.877	0.08
464.078	0.07
464.278	0.13
464.479	0.04
464.679	0.03
464.88	0.06
465.08	0.09
465.281	0.01
465.481	0.03
465.682	0.07
465.882	0.11
466.083	0.1
466.283	0.03
466.483	0.07
466.684	0.02
466.884	0.05
467.085	0.05
467.285	0.07
467.485	0.07
467.686	0.06
467.886	0.02
468.086	0.02
468.286	0.02
468.487	0.03
468.687	0.03
468.887	0.02
469.087	0.06
469.287	0.04
469.488	0.02
469.688	0.09
469.888	0.1
470.088	0.08
470.288	0.08
470.488	0.11
470.688	0
470.888	0.04
471.088	0.02
471.288	0.1
471.488	0.08
471.688	0.08
471.888	0.06
472.088	0.08
472.288	0.07
472.488	0.02
472.688	0.05
472.888	0.06
473.088	0.03
473.288	0.07
473.488	0.05
473.688	0.13
473.887	0.05
474.087	-0.03
474.287	0.07
474.487	0.03
474.687	0.07
474.886	0.02
475.086	0.02
475.286	0.06
475.486	0.09
475.685	0.02
475.885	0.03
476.085	0.06
476.284	0.08
476.484	0.03
476.684	0.05
476.883	0.13
477.083	0.06
477.282	0.04
477.482	0.07
477.681	0.09
477.881	0.04
478.08	0.03
478.28	0.01
478.479	0.06
478.679	0.15
478.878	0.01
479.078	0.05
479.277	0.01
479.477	0.05
479.676	0.06
479.875	0.03
480.075	-0.02
480.274	0.09
480.473	0.05
480.673	-0.01
480.872	0.06
481.071	0.06
481.271	0.03
481.47	0.02
481.669	0.01
481.868	0
482.067	0
482.267	-0.01
482.466	0.02
482.665	0.01
482.864	0.01
483.063	-0
483.262	0.06
483.461	0.07
483.661	0.03
483.86	0.01
484.059	0.04
484.258	0.03
484.457	0.04
484.656	0.03
484.855	0.06
485.054	-0.02
485.253	0.02
485.452	-0.01
485.651	0.03
485.849	0.02
486.048	0.02
486.247	0.02
486.446	0.04
486.645	-0.01
486.844	-0.01
487.043	0.01
487.241	0.04
487.44	-0.03
487.639	0.01
487.838	0.03
488.037	0.03
488.235	0.08
488.434	0.03
488.633	0.01
488.831	0.02
489.03	0.06
489.229	0.01
489.427	-0.01
489.626	0.06
489.825	0.09
490.023	0.02
490.222	0.02
490.42	0.03
490.619	0.04
490.817	0.02
491.016	0.01
491.214	0.05
491.413	0.02
491.611	0.03
491.81	0.01
492.008	0.04
492.207	0.02
492.405	0.03
492.604	-0.02
492.802	0.02
493	0.04
493.199	0.02
493.397	0.01
493.595	0.02
493.794	-0.01
493.992	0.07
494.19	0
494.388	0.05
494.587	0.01
494.785	0.03
494.983	-0.02
495.181	0.03
495.379	0.02
495.578	0.01
495.776	0.04
495.974	0.04
496.172	-0
496.37	0.03
496.568	-0
496.766	0
496.964	0.03
497.162	0.02
497.36	0
497.558	0.05
497.756	0.04
497.954	0.01
498.152	0.01
498.35	0.01
498.548	0.04
498.746	0.01
498.944	-0.02
499.142	0.02
499.34	-0.02
499.538	0.01
499.736	-0.01
499.933	0.05
500.131	0.03
500.329	0.02
500.527	0.03
500.725	0.03
500.922	0.05
501.12	0.04
501.318	0.03
501.516	-0.01
501.713	0.04
501.911	-0.02
502.109	-0.04
502.306	0.03
502.504	0.01
502.701	0
502.899	0.02
503.097	0.04
503.294	0.03
503.492	-0.01
503.689	0.03
503.887	0.04
504.084	0.05
504.282	0
504.479	-0.01
504.677	0.01
504.874	-0
505.072	0.02
505.269	-0.01
505.466	0.04
505.664	0.02
505.861	-0.02
506.059	-0.01
506.256	0.03
506.453	-0.01
506.651	0.05
506.848	0.03
507.045	0.04
507.242	0.02
507.44	0.03
507.637	0
507.834	-0.01
508.031	0.05
508.229	-0.01
508.426	0.01
508.623	0.03
508.82	0.01
509.017	0.01
509.214	-0.01
509.411	0.02
509.608	-0.01
509.805	0.01
510.003	-0.01
510.2	-0.01
510.397	0.03
510.594	-0.02
510.791	-0.02
510.988	-0
511.184	0.04
511.381	0.02
511.578	-0.02
511.775	0.04
511.972	0.01
512.169	-0
512.366	0
512.563	0.03
512.76	-0.01
512.956	0.02
513.153	-0.01
513.35	0.03
513.547	-0.01
513.744	-0.01
513.94	-0.03
514.137	0.02
514.334	-0
514.53	0.02
514.727	0.01
514.924	0.04
515.12	-0
515.317	-0.02
515.514	-0.01
515.71	-0.03
515.907	0.01
516.103	0.04
516.3	0.03
516.497	0.04
516.693	0.04
516.89	0.01
517.086	-0
517.283	0.02
517.479	0.01
517.676	0.01
517.872	0
518.068	-0.02
518.265	-0.01
518.461	-0.02
518.658	-0
518.854	0
519.05	-0.01
519.247	-0.02
519.443	0.04
519.639	0
519.836	-0.01
520.032	0.01
520.228	0.01
520.424	0.06
520.621	0.01
520.817	-0
521.013	-0
521.209	0.03
521.405	0.06
521.601	0
521.798	-0
521.994	0.04
522.19	-0.01
522.386	-0.02
522.582	0.02
522.778	0
522.974	-0.02
523.17	0.02
523.366	0.01
523.562	0.04
523.758	0.01
523.954	-0.01
524.15	-0.02
524.346	0.02
524.542	-0.01
524.738	-0.01
524.934	-0
525.129	-0.06
525.325	0.01
525.521	-0.01
525.717	0.02
525.913	0.03
526.109	-0.01
526.304	0
526.5	0.02
526.696	0.03
526.892	0.01
527.087	0.01
527.283	-0.01
527.479	0.03
527.674	0.01
527.87	0
528.066	-0.01
528.261	0.01
528.457	0.04
528.653	0.02
528.848	-0.01
529.044	0.01
529.239	0
529.435	0.01
529.63	0.02
529.826	0.06
530.021	0.02
530.217	0.01
530.412	-0
530.608	0.01
530.803	0
530.999	-0.02
531.194	-0.05
531.389	0.03
531.585	-0.05
531.78	-0
531.975	0
532.171	0.04
532.366	-0.03
532.561	-0.03
532.757	-0
532.952	-0.01
533.147	0.01
533.342	0.01
533.538	-0.01
533.733	0.03
533.928	0.03
534.123	-0
534.318	-0.03
534.513	0.02
534.709	0.01
534.904	0
535.099	0
535.294	-0.02
535.489	-0
535.684	-0.01
535.879	-0.05
536.074	-0.01
536.269	-0.01
536.464	0.01
536.659	0.01
536.854	0.01
537.049	0.01
537.244	0.02
537.439	0
537.634	0.04
537.828	0.01
538.023	0
538.218	-0.01
538.413	0.02
538.608	-0.02
538.803	0.02
538.997	-0.02
539.192	0.02
539.387	0.02
539.582	0.01
539.776	0.01
539.971	0.01
540.166	-0
540.36	-0
540.555	-0
540.75	-0.02
540.944	-0.01
541.139	-0.03
541.334	-0.02
541.528	0.01
541.723	0.02
541.917	-0
542.112	-0.04
542.306	-0.02
542.501	0
542.695	0.02
542.89	-0.01
543.084	0.01
543.279	0
543.473	-0.03
543.668	0.01
543.862	-0
544.056	0.02
544.251	0.01
544.445	0.01
544.64	-0.02
544.834	-0.03
545.028	-0.01
545.222	0.01
545.417	0.03
545.611	-0
545.805	-0.01
546	-0.01
546.194	0.01
546.388	-0
546.582	0.01
546.776	0
546.97	0.02
547.165	0.02
547.359	0.02
547.553	0
547.747	0.02
547.941	-0
548.135	0
548.329	0.01
548.523	0.01
548.717	-0.02
548.911	-0.01
549.105	0.01
549.299	0
549.493	0.03
549.687	0.01
549.881	0.03
550.075	-0
550.269	-0.03
550.463	0.02
550.657	-0.02
550.85	0.02
551.044	-0
551.238	0.01
551.432	-0.03
551.626	-0.02
551.82	0.03
552.013	-0.02
552.207	0
552.401	0.03
552.594	0.02
552.788	0
552.982	0.01
553.176	-0.01
553.369	0.02
553.563	0.01
553.756	-0.04
553.95	-0.03
554.144	0.01
554.337	0.04
554.531	-0.01
554.724	0.01
554.918	0
555.111	0.02
555.305	0.02
555.498	0.06
555.692	0.03
555.885	-0.02
556.079	0.01
556.272	-0.03
556.466	0.03
556.659	0.01
556.852	-0.01
557.046	-0
557.239	0.06
557.432	-0.03
557.626	-0.02
557.819	0.02
558.012	0.03
558.206	0.03
558.399	-0.02
558.592	0.03
558.785	-0.01
558.979	0.04
559.172	0.01
559.365	0.02
559.558	0.01
559.751	-0.01
559.944	0
560.138	-0.03
560.331	-0.02
560.524	-0.01
560.717	-0
560.91	0.01
561.103	0.02
561.296	0.01
561.489	0.02
561.682	0
561.875	0.02
562.068	0.02
562.261	0
562.454	0.02
562.647	0
562.84	0.02
563.032	0.01
563.225	0
563.418	-0
563.611	-0.01
563.804	-0
563.997	-0.03
564.19	-0.05
564.382	-0.01
564.575	-0
564.768	0.01
564.961	-0.02
565.153	-0.02
565.346	0.02
565.539	0.01
565.731	0
565.924	0.01
566.117	0
566.309	-0.01
566.502	-0.04
566.695	0
566.887	-0.01
567.08	-0.02
567.272	-0.02
567.465	-0.02
567.657	0.01
567.85	0.03
568.042	-0.01
568.235	0.04
568.427	-0
568.62	0
568.812	0
569.005	-0
569.197	-0.02
569.389	0
569.582	0.03
569.774	0.01
569.966	-0.05
570.159	-0.03
570.351	0.02
570.543	-0.02
570.736	-0
570.928	-0.05
571.12	0.02
571.312	-0.02
571.505	-0.03
571.697	0.01
571.889	-0
572.081	0.01
572.273	-0.01
572.465	0.04
572.658	0.01
572.85	0
573.042	-0.02
573.234	0
573.426	0.05
573.618	-0.01
573.81	-0
574.002	0.01
574.194	0.03
574.386	-0.03
574.578	-0.08
574.77	-0.02
574.962	-0
575.154	-0.04
575.346	-0.04
575.538	0.02
575.729	-0.03
575.921	0.01
576.113	-0
576.305	0.02
576.497	-0.02
576.689	-0.02
576.88	-0.01
577.072	-0.01
577.264	-0.03
577.456	-0.02
577.647	-0.09
577.839	-0.02
578.031	0.04
578.223	-0.05
578.414	-0.04
578.606	-0.02
578.798	0.01
578.989	-0
579.181	0.03
579.372	-0.01
579.564	-0
579.755	0.02
579.947	0
580.139	0.01
580.33	-0.06
580.522	-0.03
580.713	-0.06
580.905	-0.02
581.096	0.01
581.287	0.01
581.479	-0.03
581.67	0.03
581.862	0.01
582.053	-0.03
582.244	-0.05
582.436	-0.02
582.627	0.01
582.818	-0.05
583.01	-0.04
583.201	0.02
583.392	0.02
583.583	-0
583.775	-0.01
583.966	-0.01
584.157	-0.03
584.348	-0.01
584.54	-0.05
584.731	0.01
584.922	-0.01
585.113	-0.03
585.304	0.04
585.495	0
585.686	0.01
585.877	-0.01
586.068	0
586.259	0.02
586.45	0.01
586.641	-0.03
586.832	-0.05
587.023	0.02
587.214	-0.02
587.405	0.02
587.596	-0.03
587.787	0.02
587.978	0.01
588.169	-0.02
588.36	-0.02
588.551	0.01
588.742	-0.02
588.932	0.01
589.123	-0.01
589.314	0.03
589.505	0.01
589.696	0.01
589.886	-0.04
590.077	-0.05
590.268	-0
590.458	-0.04
590.649	-0.06
590.84	0.02
591.03	-0.02
591.221	-0.03
591.412	-0.04
591.602	0.02
591.793	0.01
591.984	-0.03
592.174	0
592.365	0.03
592.555	-0.03
592.746	-0
592.936	0
593.127	0.01
593.317	0.06
593.508	-0.01
593.698	-0.03
593.889	0
594.079	0.01
594.269	-0.04
594.46	0
594.65	-0.01
594.84	0.01
595.031	-0.05
595.221	-0.04
595.411	-0.03
595.602	0.02
595.792	-0.03
595.982	-0.03
596.172	0.06
596.363	-0
596.553	-0.02
596.743	-0
596.933	-0.01
597.123	0.04
597.314	-0.03
597.504	-0.01
597.694	0.04
597.884	-0.01
598.074	-0.01
598.264	-0.01
598.454	-0
598.644	0
598.834	-0.02
599.024	-0.07
599.214	-0.01
599.404	0.03
599.594	-0.02
599.784	-0.03
599.974	0.02
600.164	-0
600.354	-0.03
600.544	-0.04
600.734	0.02
600.924	0.05
601.114	-0.02
601.303	-0.02
601.493	0
601.683	-0.02
601.873	0
602.063	-0.06
602.252	0.03
602.442	-0.09
602.632	-0.02
602.821	-0.05
603.011	0.01
603.201	-0.02
603.39	-0.05
603.58	-0.02
603.77	0.03
603.959	0.04
604.149	-0.02
604.339	-0.02
604.528	0.01
604.718	0.02
604.907	-0.01
605.097	-0.01
605.286	-0.04
605.476	0.05
605.665	0
605.855	-0.02
606.044	0.05
606.234	0.02
606.423	-0.01
606.612	-0.04
606.802	-0.01
606.991	0.02
607.181	0
607.37	-0.03
607.559	-0.02
607.749	-0.06
607.938	-0.01
608.127	-0.03
608.316	-0.01
608.506	0.01
608.695	-0.05
608.884	-0.05
609.073	0.02
609.263	0.04
609.452	-0.01
609.641	-0.01
609.83	-0.05
610.019	-0.03
610.208	-0.02
610.397	0
610.586	0
610.775	-0.02
610.965	-0.03
611.154	-0.02
611.343	0.02
611.532	0.02
611.721	-0.04
611.91	-0.04
612.099	0.03
612.287	0
612.476	-0.03
612.665	-0.01
612.854	-0.03
613.043	0.06
613.232	-0.01
613.421	-0.05
613.61	0.01
613.798	-0.02
613.987	0.01
614.176	-0.03
614.365	0
614.554	-0
614.742	0.01
614.931	-0.01
615.12	-0.01
615.309	-0
615.497	0.01
615.686	-0.04
615.875	-0.01
616.063	-0.01
616.252	-0.02
616.44	-0
616.629	-0.02
616.818	0.01
617.006	-0.02
617.195	-0.03
617.383	0.04
617.572	-0.01
617.76	-0.03
617.949	-0.02
618.137	0
618.326	0.04
618.514	-0
618.703	-0.01
618.891	0.05
619.079	-0.07
619.268	0.02
619.456	-0.02
619.644	0.05
619.833	-0.02
620.021	-0.02
620.209	-0.06
620.398	0.01
620.586	-0.03
620.774	0.01
620.962	-0.02
621.151	0.04
621.339	0.01
621.527	-0.04
621.715	-0.05
621.903	-0.04
622.092	-0.03
622.28	0.01
622.468	-0.03
622.656	-0.02
622.844	0.03
623.032	-0.04
623.22	-0.07
623.408	0.03
623.596	0.02
623.784	-0.01
623.972	-0.04
624.16	-0.02
624.348	0.04
624.536	-0.04
624.724	-0.03
624.912	0.03
625.1	0.04
625.288	-0.05
625.476	-0.05
625.664	-0.02
625.851	-0.03
626.039	0.01
626.227	0.05
626.415	-0.01
626.603	-0.06
626.79	0.01
626.978	0.02
627.166	-0
627.354	-0.03
627.541	-0.04
627.729	-0.08
627.917	0.02
628.104	0.03
628.292	0.02
628.48	-0.03
628.667	-0.01
628.855	0.02
629.042	0.02
629.23	-0
629.418	-0.01
629.605	0.01
629.793	-0.04
629.98	-0.03
630.168	0.02
630.355	-0
630.543	0
630.73	-0.03
630.917	0.02
631.105	0.05
631.292	-0.02
631.48	-0.03
631.667	0.04
631.854	-0
632.042	-0
632.229	-0.05
632.416	-0.01
632.604	-0.02
632.791	-0.01
632.978	0.01
633.165	0.04
633.353	0.04
633.54	0.03
633.727	-0.08
633.914	-0.04
634.101	-0.07
634.289	0
634.476	-0.06
634.663	-0.05
634.85	0.01
635.037	-0.01
635.224	-0.08
635.411	0.02
635.598	0.02
635.785	-0.04
635.972	-0.03
636.159	0.02
636.346	-0.05
636.533	0.01
636.72	-0.01
636.907	-0.02
637.094	0.01
637.281	-0
637.468	-0.01
637.655	-0.02
637.842	-0.01
638.029	-0.04
638.215	0.02
638.402	0.01
638.589	-0.03
638.776	0
638.963	-0.04
639.149	0.03
639.336	0.05
639.523	-0
639.709	-0.02
639.896	-0.04
640.083	0.06
640.27	0.01
640.456	-0.04
640.643	-0.01
640.829	-0.03
641.016	-0.03
641.203	-0.06
641.389	0.02
641.576	0.01
641.762	-0.02
641.949	-0.03
642.135	0.01
642.322	0
642.508	-0.05
642.695	-0.01
642.881	-0.03
643.068	-0.03
643.254	-0.02
643.441	0.02
643.627	0.03
643.813	-0.05
644	0.05
644.186	-0.04
644.372	-0.03
644.559	0.02
644.745	-0.05
644.931	-0.04
645.118	-0.02
645.304	-0
645.49	-0.03
645.676	-0.03
645.862	-0.02
646.049	0.04
646.235	-0.02
646.421	0.02
646.607	0.06
646.793	-0.02
646.979	-0.04
647.165	0.01
647.352	0
647.538	0.02
647.724	-0.01
647.91	-0.03
648.096	0.04
648.282	-0.02
648.468	-0.02
648.654	-0
648.84	-0.03
649.026	0
649.212	0
649.397	-0.05
649.583	-0.06
649.769	-0
649.955	-0.01
650.141	0
650.327	0.03
650.513	-0.04
650.698	-0
650.884	-0.08
651.07	-0.01
651.256	0.02
651.442	-0.01
651.627	0.01
651.813	-0.01
651.999	-0.01
652.184	-0.02
652.37	-0.04
652.556	-0.01
652.741	0.02
652.927	-0.07
653.113	-0.01
653.298	-0.02
653.484	-0.02
653.669	-0.05
653.855	-0.03
654.04	0.01
654.226	0.06
654.412	-0.03
654.597	-0.04
654.782	-0.02
654.968	0.05
655.153	0.02
655.339	-0.03
655.524	-0.04
655.71	0.01
655.895	-0.05
656.08	-0.05
656.266	0.01
656.451	-0.02
656.636	-0.06
656.822	-0.01
657.007	-0.07
657.192	-0.01
657.378	-0.05
657.563	0.01
657.748	0.01
657.933	-0.02
658.118	-0.02
658.304	-0.06
658.489	0.01
658.674	0.03
658.859	-0.05
659.044	-0.02
659.229	0.01
659.414	-0.03
659.599	-0.03
659.785	-0.06
659.97	-0.03
660.155	0
660.34	-0.04
660.525	0.01
660.71	-0.01
660.895	0.04
661.08	-0.04
661.264	-0.03
661.449	0.03
661.634	0
661.819	0.01
662.004	0.02
662.189	-0.09
662.374	-0.04
662.559	-0.07
662.743	-0.09
662.928	0.01
663.113	-0.02
663.298	-0.07
663.483	-0.04
663.667	0.01
663.852	-0.06
664.037	-0.01
664.221	-0.02
664.406	-0
664.591	0.01
664.775	0
664.96	-0.02
665.145	0
665.329	-0.02
665.514	-0.02
665.698	-0.03
665.883	-0.04
666.068	0.04
666.252	-0.05
666.437	-0.02
666.621	-0
666.806	0.02
666.99	0
667.174	-0.04
667.359	0.07
667.543	-0.04
667.728	-0.04
667.912	-0.06
668.096	-0.01
668.281	-0.04
668.465	-0.06
668.649	0.01
668.834	0
669.018	0.01
669.202	-0.03
669.387	-0.04
669.571	0.02
669.755	-0.04
669.939	-0.02
670.124	-0.04
670.308	0.02
670.492	0.04
670.676	0.02
670.86	-0.01
671.044	-0.01
671.228	0.04
671.413	-0.09
671.597	-0.03
671.781	-0.05
671.965	0.03
672.149	-0.02
672.333	-0.03
672.517	-0.03
672.701	0.01
672.885	-0.05
673.069	-0.09
673.253	0.07
673.437	-0.01
673.621	-0.05
673.804	-0.06
673.988	-0.04
674.172	-0.01
674.356	-0.08
674.54	-0.07
674.724	0.07
674.908	-0.03
675.091	0.02
675.275	-0.02
675.459	0.01
675.643	-0.05
675.826	-0.03
676.01	0
676.194	-0.04
676.377	-0.02
676.561	0.02
676.745	0.01
676.928	-0.02
677.112	0.01
677.296	-0.03
677.479	-0.09
677.663	-0.02
677.846	0.01
678.03	0
678.213	-0.02
678.397	0.04
678.58	-0.04
678.764	-0.05
678.947	-0.03
679.131	-0.06
679.314	-0
679.498	-0
679.681	-0.01
679.865	-0
680.048	-0.04
680.231	-0.01
680.415	-0.03
680.598	-0
680.781	-0.01
680.965	-0.03
681.148	0.01
681.331	-0.02
681.514	-0.01
681.698	-0.02
681.881	-0.01
682.064	0.03
682.247	0.03
682.43	-0.07
682.614	-0
682.797	0.07
682.98	0.02
683.163	-0.06
683.346	0
683.529	-0.03
683.712	-0.06
683.895	0.01
684.078	-0.1
684.261	0
684.444	0.02
684.627	0.01
684.81	0
684.993	-0.06
685.176	0.01
685.359	-0.1
685.542	-0.02
685.725	0.03
685.908	0.01
686.091	-0.01
686.274	0.04
686.457	-0.02
686.639	-0.03
686.822	0.01
687.005	-0.03
687.188	-0.03
687.371	0.09
687.553	0.01
687.736	0.02
687.919	0.03
688.102	0.06
688.284	-0
688.467	-0.03
688.65	-0.04
688.832	-0.02
689.015	-0.01
689.197	-0.07
689.38	0.06
689.563	0.06
689.745	-0.02
689.928	-0.05
690.11	-0.02
690.293	-0
690.475	-0.1
690.658	0.03
690.84	0.01
691.023	-0.05
691.205	-0.04
691.388	-0.04
691.57	0.02
691.752	0.02
691.935	-0.07
692.117	-0.01
692.3	0.03
692.482	-0.01
692.664	0.02
692.847	0.04
693.029	0.09
693.211	0.02
693.393	-0.03
693.576	0
693.758	-0.02
693.94	-0.05
694.122	-0.06
694.304	-0.02
694.487	-0.02
694.669	0.06
694.851	-0.03
695.033	-0
695.215	-0.02
695.397	-0.03
695.579	-0.04
695.761	-0.07
695.943	-0.09
696.125	0.03
696.308	0.03
696.49	-0.05
696.671	0.05
696.853	-0
697.035	0.09
697.217	-0.02
697.399	0.01
697.581	-0.01
697.763	-0
697.945	-0.1
698.127	-0.01
698.309	0.07
698.491	-0.02
698.672	0.05
698.854	0.04
699.036	-0
699.218	-0.06
699.399	0.07
699.581	0.01
699.763	-0.01
699.945	-0.05
700.126	-0.05
700.308	0.01
700.49	-0.02
700.671	-0.08
700.853	-0.04
701.035	-0.08
701.216	-0.03
701.398	-0.08
701.579	-0.01
701.761	0.07
701.943	-0.09
702.124	-0.04
702.306	-0.02
702.487	0.07
702.669	0.01
702.85	-0.05
703.031	-0.08
703.213	0.1
703.394	0.07
703.576	-0.01
703.757	0.12
703.938	0.04
704.12	0.15
704.301	-0.02
704.483	-0.05
704.664	-0.05
704.845	0.11
705.026	0.06
705.208	-0.04
705.389	-0.03
705.57	0.01
705.751	-0.02
705.933	-0.03
706.114	0.04
706.295	-0.03
706.476	-0.1
706.657	0.06
706.838	0.04
707.02	0.05
707.201	-0.04
707.382	-0.03
707.563	0.03
707.744	-0.07
707.925	-0.04
708.106	-0.07
708.287	-0
708.468	0.11
708.649	0.03
708.83	0.01
709.011	0.02
709.192	0.09
709.373	-0.1
709.554	-0.05
709.734	0.04
709.915	0.05
710.096	-0.03
710.277	-0.08
710.458	-0.04
710.639	0.02
710.819	-0.12
711	-0.03
711.181	-0
711.362	0.01
711.542	0.02
711.723	-0.04
711.904	0.09
712.085	0.05
712.265	0
712.446	-0.01
712.627	-0.08
712.807	0.02
712.988	-0.01
713.168	-0.08
713.349	0.06
713.53	-0.16
713.71	-0.06
713.891	-0.05
714.071	0.02
714.252	-0.04
714.432	-0.04
714.613	-0.06
714.793	-0
714.974	0.08
715.154	0
715.334	0.01
715.515	0.08
715.695	-0.13
715.876	0.01
716.056	-0.04
716.236	-0.03
716.417	-0.03
716.597	-0.07
716.777	0.06
716.957	0.05
717.138	-0.02
717.318	-0.04
717.498	-0.07
717.678	-0.03
717.859	0.01
718.039	-0.12
718.219	-0.02
718.399	0.01
718.579	-0.05
718.759	-0.1
718.939	0
719.12	-0
719.3	0.04
719.48	-0.15
719.66	-0.12
719.84	0.03
720.02	-0.06
720.2	-0.06
720.38	-0.05
720.56	0
720.74	-0.06
720.92	0.01
721.1	0
721.279	0.05
721.459	0.02
721.639	-0.09
721.819	0.03
721.999	-0.05
722.179	0.03
722.359	-0.11
722.538	-0
722.718	0
722.898	-0.04
723.078	-0.01
723.257	-0.11
723.437	-0.02
723.617	-0.01
723.797	-0.01
723.976	-0.06
724.156	0.04
724.336	0.08
724.515	0.12
724.695	-0.14
724.874	0.01
725.054	0.08
725.234	-0.14
725.413	-0.03
725.593	-0.06
725.772	-0.04
725.952	-0.09
726.131	-0.11
726.311	-0.01
726.49	0.02
726.67	-0.15
726.849	-0.05
727.028	0.03
727.208	-0.1
727.387	-0.05
727.567	-0.07
727.746	-0.04
727.925	-0.05
728.105	-0.13
728.284	-0.09
728.463	-0.07
728.643	0.03
728.822	-0.07
729.001	-0.04
729.18	-0.06
729.359	0.03
729.539	-0.07
729.718	0.04
729.897	0.03
730.076	-0.03
730.255	-0.08
730.434	-0.02
730.614	0
730.793	-0.02
730.972	-0.04
731.151	-0.01
731.33	0.03
731.509	0.03
731.688	0.03
731.867	0.02
732.046	-0.17
732.225	0.18
732.404	-0.15
732.583	-0.12
732.762	0.02
732.941	-0.08
733.12	-0.01
733.298	-0.07
733.477	0.01
733.656	-0.01
733.835	-0.14
734.014	0.05
734.193	0.07
734.371	-0.01
734.55	-0.05
734.729	-0.08
734.908	-0.03
735.086	-0.02
735.265	0.05
735.444	-0.26
735.623	-0.01
735.801	-0.05
735.98	-0.03
736.159	-0.08
736.337	0.08
736.516	-0.06
736.694	-0.03
736.873	-0.14
737.052	0.01
737.23	0.19
737.409	-0.08
737.587	0.14
737.766	-0.26
737.944	-0.1
738.123	0.03
738.301	-0.09
738.479	-0.03
738.658	0.08
738.836	-0.12
739.015	-0.03
739.193	-0.01
739.371	-0.1
739.55	-0.02
739.728	-0.13
739.906	0.11
740.085	0.14
740.263	-0.07
740.441	-0.18
740.62	0.14
740.798	0.15
740.976	-0.08
741.154	-0.08
741.332	0.16
741.511	0.02
741.689	0.01
741.867	0.09
742.045	0.01
742.223	-0.01
742.401	-0.01
742.579	-0
742.757	0.1
742.935	-0.19
743.114	-0.13
743.292	-0.04
743.47	0.01
743.648	-0.05
743.826	-0.05
744.004	0.04
744.181	0.03
744.359	-0.12
744.537	0.04
744.715	-0.09
744.893	-0.14
745.071	0.01
745.249	-0.02
745.427	-0.05
745.605	0.06
745.782	-0.02
745.96	-0.05
746.138	-0.04
746.316	0.05
746.493	-0.04
746.671	0.1
746.849	-0.02
747.027	0.03
747.204	-0.01
747.382	-0.01
747.56	-0.27
747.737	0.04
747.915	-0.1
748.093	0.01
748.27	-0.06
748.448	-0.08
748.625	-0.13
748.803	-0.08
748.98	-0.02
749.158	0.01
749.335	0
749.513	-0.07
749.69	-0.05
749.868	-0.05
750.045	-0.06
750.223	-0.17
750.4	-0.25
750.578	0.12
750.755	-0.07
750.932	-0.14
751.11	0.09
751.287	-0.19
751.464	0.05
751.642	-0.19
751.819	0.06
751.996	-0.07
752.173	-0.06
752.351	-0.13
752.528	0.09
752.705	-0.06
752.882	-0.07
753.06	-0.09
753.237	0.12
753.414	0.13
753.591	0.2
753.768	0.06
753.945	-0.05
754.122	-0.12
754.299	0.01
754.476	-0.06
754.654	-0.03
754.831	-0
755.008	-0.04
755.185	-0.07
755.362	-0.18
755.539	0.03
755.716	-0.03
755.892	-0.06
756.069	0.02
756.246	-0.18
756.423	-0.09
756.6	0.08
756.777	0.01
756.954	-0.06
757.131	-0.11
757.307	-0.08
757.484	-0.1
757.661	-0.03
757.838	-0.03
758.015	-0.16
758.191	0.12
758.368	0.03
758.545	0.11
758.721	0.07
758.898	-0.18
759.075	-0.05
759.251	0.08
759.428	0.02
759.605	-0.18
759.781	-0.02
759.958	0
760.134	0.06
760.311	0
760.488	0.06
760.664	0.08
760.841	-0.05
761.017	-0.13
761.194	0.06
761.37	0.16
761.547	-0.03
761.723	0.11
761.899	0.04
762.076	0.01
762.252	-0.17
762.429	-0.11
762.605	0.1
762.781	-0.03
762.958	0.01
763.134	-0.07
763.31	-0.08
763.486	0.05
763.663	-0.16
763.839	-0.06
764.015	-0.04
764.191	-0.12
764.368	-0.03
764.544	0.01
764.72	0.11
764.896	0.03
765.072	-0.02
765.248	-0.06
765.425	-0.1
765.601	-0.05
765.777	0.06
765.953	-0.06
766.129	-0.16
766.305	-0.09
766.481	0.14
766.657	0.03
766.833	0.07
767.009	-0.22
767.185	-0.03
767.361	0.01
767.537	-0.23
767.713	0.16
767.889	-0.03
768.065	-0.05
768.24	0.03
768.416	0.12
768.592	-0.12
768.768	-0.06
768.944	0.07
769.12	-0.11
769.295	-0.12
769.471	-0.15
769.647	-0.09
769.823	0.13
769.998	-0.11
770.174	-0.1
770.35	0.24
770.525	0.2
770.701	-0.01
770.877	-0.03
771.052	-0.05
771.228	0.05
771.403	0.02
771.579	0.07
771.755	0.25
771.93	-0.2
772.106	-0.11
772.281	-0.22
772.457	-0.08
772.632	0.07
772.808	-0.1
772.983	-0.17
773.159	-0.18
773.334	0.17
773.509	-0.09
773.685	-0.07
773.86	0.19
774.036	0.08
774.211	0.11
774.386	-0.14
774.562	-0.1
774.737	0.04
774.912	-0.07
775.087	0.02
775.263	-0.12
775.438	-0.02
775.613	-0.23
775.788	-0.15
775.964	-0.08
776.139	0.28
776.314	-0.28
776.489	-0.03
776.664	0.07
776.839	-0.13
777.014	0.14
777.19	0.04
777.365	0.21
777.54	0.18
777.715	-0.13
777.89	0
778.065	-0.06
778.24	-0.02
778.415	0.04
778.59	-0.33
778.765	-0.07
778.94	-0.07
779.115	-0.08
779.289	-0.05
779.464	-0.11
779.639	-0.09
779.814	-0.1
779.989	-0.23
780.164	0.14
780.339	0.07
780.513	-0.16
780.688	-0.17
780.863	-0.19
781.038	0.19
781.212	-0.15
781.387	0
781.562	0.22
781.737	0.1
781.911	0.19
782.086	0.01
782.261	-0.22
782.435	0.31
782.61	-0.08
782.784	-0.08
782.959	0.17
783.134	-0.12
783.308	-0.22
783.483	-0.12
783.657	0.13
783.832	0.11
784.006	-0.4
784.181	-0.04
784.355	0.11
784.53	0.11
784.704	-0.29
784.878	0.01
785.053	0.09
785.227	0.15
785.402	0.24
785.576	-0.17
785.75	-0.2
785.925	-0.4
786.099	-0.1
786.273	-0.01
786.448	0.16
786.622	0.28
786.796	0.05
786.97	0.01
787.145	0.41
787.319	-0.18
787.493	-0.08
787.667	-0.41
787.841	0.09
788.015	0.31
788.19	-0.23
788.364	0.1
788.538	0.22
788.712	0.06
788.886	-0.24
789.06	0.17
789.234	0.07
789.408	-0.23
789.582	-0.04
789.756	-0.11
789.93	-0.29
790.104	0.05
790.278	-0.21
790.452	-0.25
790.626	0.09
790.8	-0.11
790.973	0.11
791.147	0.32
791.321	0.29
791.495	0.08
791.669	-0.16
791.843	0.16
792.016	0.13
792.19	0.34
792.364	-0.21
792.538	0.45
792.711	0.08
792.885	0.04
793.059	-0.04
793.233	-0.43
793.406	0.13
793.58	0.14
793.754	0.09
793.927	-0.31
794.101	0.25
794.274	0.09
794.448	0.07
794.622	-0.12
794.795	0.42
794.969	-0.26
795.142	0.28
795.316	-0.14
795.489	-0.02
795.663	0.59
795.836	-0.22
796.009	-0.4
796.183	0.12
796.356	0.06
796.53	0.15
796.703	0.04
796.876	0.61
797.05	-0.15
797.223	-0.02
797.396	0.09
797.57	-0.09
797.743	0.2
797.916	-0.09
798.09	-0.03
798.263	0.36
798.436	0.07
798.609	-0.11
798.782	-0.08
798.956	0.3
799.129	-0.24
799.302	-0.23
799.475	-0.22
799.648	0.19
799.821	-0.2
799.994	-0.1
800.167	-0.26
800.34	-0.19
800.514	0.07
800.687	-0.19
800.86	-0.32
801.033	0.07
801.206	0.3
801.379	-0.04
801.551	0.3
801.724	0.27
801.897	0.44
802.07	-0.16
802.243	-0.35
802.416	-0.23
802.589	-0.18
802.762	0.09
802.935	-0.26
803.107	-0.22
803.28	0.11
803.453	0.24
803.626	-0.47
803.798	0
803.971	-0.1
804.144	-0.03
804.317	0.09
804.489	0.18
804.662	-0.03
804.835	0
805.007	-0.24
805.18	0.44
805.353	-0.13
805.525	-0.42
805.698	-0.12
805.87	0.16
806.043	0.11
806.215	-0.59
806.388	-0.18
806.56	-0.01
806.733	0.35
806.905	0.17
807.078	-0.18
807.25	-0.3
807.423	0.12
807.595	-0.2
807.768	0.15
807.94	0.41
808.112	0.1
808.285	0.12
808.457	0.03
808.629	-0.2
808.802	0.19
808.974	0.03
809.146	-0.21
809.318	-0.5
809.491	0.17
809.663	0.01
809.835	-0.28
810.007	0.29
810.18	0.09
810.352	-0.34
810.524	0.09
810.696	0.45
810.868	0.33
811.04	-0.22
811.212	-0.17
811.384	0.13
811.556	-0.17
811.728	-0.2
811.901	0.6
812.073	-0.42
812.245	0.12
812.417	0.09
812.589	-0.68
812.76	-0.13
812.932	-0.18
813.104	0.15
813.276	-0.07
813.448	0.38
813.62	-0.02
813.792	0.14
813.964	-0.04
814.136	-0.38
814.307	-0.38
814.479	-0.53
814.651	-0.32
814.823	0.57
814.995	-0.17
815.166	-0.33
815.338	-0.23
815.51	-0.59
815.681	0.65
815.853	0.18
816.025	-0.32
816.196	0.38
816.368	0.02
816.54	-0.61
816.711	-0.6
816.883	-0.08
817.054	0.9
817.226	-0.78
817.398	0.27
817.569	-0.25
817.741	-0.22
817.912	-0.18
818.084	-0.32
818.255	-0.02
818.426	-0.45
818.598	0.11
818.769	-0.55
818.941	0.34
819.112	0.85
819.283	0.25
819.455	-0.21
819.626	0.16
819.798	0.26
819.969	-0.01
820.14	0.13
820.311	-0.3
820.483	0.03
820.654	0.22
820.825	-0.13
820.996	-0.68
821.168	-0.46
821.339	0.09
821.51	-0.89
821.681	-0.35
821.852	-0.12
822.023	-0.18
822.195	-0.5
822.366	0.5
822.537	-0.07
822.708	-0.41
822.879	-0.41
823.05	0.49
823.221	-0.17
823.392	0.3
823.563	0.25
823.734	0.27
823.905	-0.33
824.076	-0.27
824.247	-0.2
824.418	-0.14
824.589	1.06
824.759	0.11
824.93	-0.01
825.101	-0.71
825.272	0.26
825.443	0.22
825.614	-0.02
825.784	-0.82
825.955	1.22
826.126	0.92
826.297	0.13
826.467	0.79
826.638	0.78
826.809	-0.35
826.98	-0.35
827.15	-0.1
827.321	0.16
827.492	0.97
827.662	0.17
827.833	0.52
828.003	0.08
828.174	-1.11
828.345	-0.87
828.515	0.91
828.686	0.03
828.856	0.08
829.027	0.19
829.197	-0.29
829.368	0.33
829.538	-0
829.709	-0.3
829.879	0.22
830.049	0.05
830.22	0.23
830.39	0.15
830.56	0.44
830.731	-0.18
830.901	-0.68
831.072	-0.34
831.242	0.57
831.412	-0.05
831.582	0.33
831.753	-0.42
831.923	0.04
832.093	0.23
832.263	-0.03
832.434	-1.07
832.604	0.1
832.774	0.3
832.944	-0.45
833.114	-0.13
833.284	0.47
833.454	-0.41
833.624	-0.33
833.795	-0.14
833.965	1.17
834.135	0.5
834.305	-1.21
834.475	-0.83
834.645	0.49
834.815	0.06
834.985	-0.42
835.155	-1.03
835.325	0.35
835.494	0.05
835.664	-0.72
835.834	-0.81
836.004	0.04
836.174	0.05
836.344	-0.2
836.514	-1.1
836.684	-0.14
836.853	-0.53
837.023	-0.1
837.193	-0.9
837.363	0.09
837.532	0.96
837.702	-0.19
837.872	-0.55
838.041	0.94
838.211	1.14
838.381	-1.27
838.55	-0.42
838.72	1.41
838.89	0.84
839.059	-0.78
839.229	-0.85
839.398	0.73
839.568	-0.43
839.738	-0.14
839.907	1.36
840.077	0.33
840.246	-0.48
840.416	-0.83
840.585	-1.18
840.755	0.47
840.924	0.88
841.093	-0.61
841.263	-0.79
841.432	0.06
841.602	-1.04
841.771	-1.18
841.94	-0.26
842.11	2.16
842.279	1.19
842.448	-1.48
842.617	-0.6
842.787	1.15
842.956	-0.31
843.125	0.51
843.294	0.31
843.464	0.86
843.633	-0.26
843.802	-1.29
843.971	-0.26
844.14	0.45
844.309	-0.23
844.479	-0.37
844.648	-0.39
844.817	-0.68
844.986	0.17
845.155	-0.26
845.324	0.14
845.493	-0.38
845.662	-0.87
845.831	0.07
846	0.18
846.169	-0.04
846.338	1.4
846.507	-0.51
846.676	0.46
846.844	0.06
847.013	0.98
847.182	-0.46
847.351	-0.95
847.52	-0.27
847.689	-0.27
847.858	-0.65
848.026	-0.9
848.195	-0.28
848.364	-0.13
848.533	-1.26
848.701	-0.76
848.87	-0.35
849.039	1.03
849.207	0.43
849.376	0.64
849.545	0.35
849.713	-0.04
849.882	-0.57
850.051	0.07
850.219	-0.03
850.388	0.71
850.556	-0.48
850.725	-1.43
850.893	-0.01
851.062	-0.2
851.23	0.89
851.399	-1.68
851.567	-0.58
851.736	-0.59
851.904	-0.62
852.073	-0.14
852.241	1.65
852.41	-1.58
852.578	-0.86
852.746	-0.68
852.915	0.61
853.083	-0.34
853.251	-0.9
853.42	-0.04
853.588	0.28
853.756	0.76
853.924	0.37
854.093	-0.97
854.261	-0.51
854.429	-1.72
854.597	0.35
854.765	-1.11
854.934	-0.24
855.102	0.46
855.27	-1.05
855.438	0.73
855.606	0.55
855.774	0.65
855.942	-1.42
856.11	-1.52
856.278	-0.24
856.446	0.32
856.614	0.03
856.782	-1.02
856.95	0.74
857.118	0.26
857.286	-0.03
857.454	-0.64
857.622	1.01
857.79	0.98
857.958	-1.53
858.126	-1.3
858.294	-3
858.462	0.56
858.629	-0.5
858.797	-0.91
858.965	0.22
859.133	0.1
859.301	-0.12
859.468	-0.57
859.636	-0.41
859.804	1.02
859.971	1.35
860.139	-0.49
860.307	0.86
860.474	0.66
860.642	-0.13
860.81	-0.5
860.977	-1.01
861.145	1.32
861.313	-0.94
861.48	1.22
861.648	0.95
861.815	0.28
861.983	-1.58
862.15	0.01
862.318	0.79
862.485	0.63
862.653	0.03
862.82	-0.26
862.988	0.48
863.155	-2.56
863.322	-1.92
863.49	-2.36
863.657	-1.18
863.824	1.71
863.992	0.7
864.159	0.03
864.326	1.83
864.494	-0.89
864.661	2.76
864.828	-1.59
864.996	1.5
865.163	2.02
865.33	-0.57
865.497	-2.37
865.664	-1.92
865.832	-1.95
865.999	-0.21
866.166	-1.37
866.333	-0.59
866.5	0.77
866.667	-0.47
866.834	-0.17
867.001	0.86
867.168	-2.27
867.335	-0.1
867.502	-2.11
867.669	-0.69
867.836	2.78
868.003	-1.06
868.17	0.71
868.337	0.92
868.504	2.49
868.671	-1.17
868.838	-2.1
869.005	-0.33
869.172	1.3
869.339	-0.04
869.505	-1.63
869.672	-0.17
869.839	0.28
870.006	-0.95
870.173	-2.83
870.339	1.03
870.506	3.07
870.673	-1.76
870.84	0.28
871.006	-0.58
871.173	0.52
871.34	0.42
871.506	-1.5
871.673	0.77
871.839	-1.92
872.006	0.73
872.173	-0.8
872.339	-0.54
872.506	1.71
872.672	-1.17
872.839	-1.21
873.005	0.29
873.172	3.64
873.338	0.31
873.505	-0.46
873.671	-1.25
873.838	1.25
874.004	-2.85
874.171	-1.14
874.337	0.59
874.503	1.45
874.67	-0.46
874.836	-0.41
875.002	1.2
875.169	-0.84
875.335	0.86
875.501	-2.45
875.668	0.82
875.834	-1.23
876	0.38
876.166	0.13
876.332	1.77
876.499	2.54
876.665	-0.64
876.831	-0.37
876.997	2.33
877.163	1.24
877.329	-1.8
877.495	-1
877.662	2.39
877.828	1.33
877.994	-1.26
878.16	-1.95
878.326	1.08
878.492	-0.92
878.658	-1.45
878.824	-1.7
878.99	-0.46
879.156	-0.42
879.322	2.75
879.487	-0.76
879.653	-0.53
879.819	-0.46
879.985	-0.14
880.151	0.14
880.317	0.78
880.483	-1.06
880.648	1
880.814	-3.14
880.98	0.68
881.146	-1.64
881.312	-1.02
881.477	-0.57
881.643	0.12
881.809	2.27
881.974	1.51
882.14	-3.24
882.306	-0.39
882.471	0.8
882.637	-0.54
882.803	0.91
882.968	2.98
883.134	2.63
883.299	-0.51
883.465	0.05
883.63	1.37
883.796	1.28
883.961	2.8
884.127	0.25
884.292	-4.96
884.458	-3.28
884.623	-3.27
