Data from Apollo_Calib_20240827__AbsoluteIrradiance__136__01-25-03-156.txt Node

Date: Wed Aug 28 01:25:03 BST 2024
User: biology
Spectrometer: FLMT08252
Trigger mode: 0
Integration Time (sec): 5.000000E-1
Scans to average: 5
Electric dark correction enabled: true
Nonlinearity correction enabled: false
Boxcar width: 0
XAxis mode: Wavelengths
Number of Pixels in Spectrum: 3648
>>>>>Begin Spectral Data<<<<<
179.588	-0
179.809	-0
180.03	-0
180.251	-0
180.473	-0
180.694	0
180.915	0
181.136	-0
181.357	0
181.578	-0
181.799	-0
182.02	-0
182.241	0
182.462	0
182.683	0
182.904	-0
183.125	-0
183.346	0
183.567	-0
183.788	-0
184.009	-0
184.23	-0
184.451	-0
184.672	-0
184.892	-0
185.113	0
185.334	0
185.555	-0
185.776	-0
185.996	-0
186.217	0
186.438	-0
186.659	-0
186.879	0
187.1	-0
187.321	-0
187.541	-0
187.762	-0
187.983	-0
188.203	-0
188.424	0
188.644	-0
188.865	0
189.086	-0
189.306	-0
189.527	-0
189.747	-0
189.968	-0
190.188	0
190.409	0
190.629	0
190.849	-0
191.07	-0
191.29	0
191.511	0
191.731	-0
191.951	-0
192.172	-0
192.392	0
192.612	-0
192.833	0
193.053	-0
193.273	-0
193.493	-0
193.714	-0
193.934	0
194.154	0
194.374	-0
194.594	0
194.815	0
195.035	0
195.255	0
195.475	-0
195.695	0
195.915	0
196.135	-0
196.355	0
196.575	0
196.795	-0
197.015	-0
197.235	-0
197.455	-0
197.675	0
197.895	-0
198.115	-0
198.335	0
198.555	-0
198.775	-0
198.995	-0
199.214	0
199.434	0
199.654	-0
199.874	-0
200.094	0.77
200.313	-0.62
200.533	-0.5
200.753	-0.61
200.973	0.54
201.192	0.34
201.412	-0.88
201.632	-0.24
201.851	0.46
202.071	-0.62
202.291	-0.23
202.51	-0.25
202.73	-0.17
202.95	-0.38
203.169	-0.64
203.389	-0.11
203.608	-0.14
203.828	-0.49
204.047	-0.35
204.267	0.19
204.486	-0.09
204.706	-0.14
204.925	-0.48
205.145	-0.29
205.364	0.24
205.583	0.63
205.803	-0.35
206.022	-0.55
206.242	-0.08
206.461	0.31
206.68	-0.69
206.9	0.07
207.119	0.47
207.338	0.53
207.557	-0.3
207.777	-0.06
207.996	-0.43
208.215	0.02
208.434	-0.37
208.654	-0.62
208.873	-0.09
209.092	0.46
209.311	-0.19
209.53	0.05
209.749	-0.09
209.968	-0.43
210.187	-0.16
210.407	-0.54
210.626	-0.33
210.845	-0.06
211.064	-0.08
211.283	-0.45
211.502	0.13
211.721	-0.05
211.94	-0.16
212.159	0.11
212.377	0.06
212.596	0.42
212.815	-0.04
213.034	-0.07
213.253	0.16
213.472	0.06
213.691	-0.12
213.91	-0.45
214.128	0.06
214.347	0.13
214.566	-0.54
214.785	-0.44
215.003	0.07
215.222	-0.07
215.441	-0.11
215.66	-0.54
215.878	-0.19
216.097	0.27
216.316	-0.31
216.534	-0.07
216.753	-0.05
216.972	0.07
217.19	-0.09
217.409	-0.19
217.627	-0.22
217.846	-0.24
218.064	-0.03
218.283	-0.2
218.501	0.43
218.72	0.12
218.938	-0.18
219.157	-0.1
219.375	0.1
219.594	-0.02
219.812	-0.29
220.031	-0.18
220.249	0.28
220.467	0.24
220.686	-0.23
220.904	-0.29
221.122	-0.17
221.341	0.11
221.559	-0.06
221.777	-0.3
221.995	-0.07
222.214	0.06
222.432	-0.14
222.65	0.11
222.868	-0.07
223.086	0
223.305	0.06
223.523	-0.08
223.741	0.15
223.959	-0.2
224.177	-0.32
224.395	-0.29
224.613	0.04
224.831	0.08
225.049	-0.24
225.267	-0.1
225.485	0.02
225.703	-0.28
225.921	-0.09
226.139	-0.08
226.357	0.18
226.575	0.06
226.793	-0.1
227.011	0.48
227.229	-0.01
227.447	0.17
227.665	-0.16
227.883	-0.1
228.1	0.03
228.318	-0.04
228.536	-0.23
228.754	-0.16
228.972	0.04
229.189	0.06
229.407	-0.21
229.625	-0.04
229.843	0.1
230.06	0.11
230.278	-0.15
230.496	-0.01
230.713	0.09
230.931	0.13
231.149	-0.08
231.366	-0.19
231.584	-0.17
231.801	0.34
232.019	-0.1
232.236	-0.12
232.454	-0.09
232.671	-0.12
232.889	-0.1
233.106	-0.2
233.324	-0.09
233.541	-0.09
233.759	0
233.976	-0.14
234.194	-0.01
234.411	-0.09
234.628	-0.1
234.846	-0.06
235.063	-0.05
235.28	-0.07
235.498	-0.07
235.715	-0.11
235.932	0.08
236.149	-0.13
236.367	-0.13
236.584	-0.03
236.801	-0.09
237.018	0.01
237.236	0.06
237.453	-0.25
237.67	0.05
237.887	-0.02
238.104	0.03
238.321	-0.18
238.538	-0.11
238.755	0.09
238.973	-0.14
239.19	-0.02
239.407	0.03
239.624	0.03
239.841	-0.21
240.058	-0.14
240.275	-0.08
240.492	-0.06
240.709	-0.04
240.925	0
241.142	0.02
241.359	-0.05
241.576	-0.04
241.793	-0.09
242.01	-0.07
242.227	0.08
242.444	-0.01
242.66	0.03
242.877	-0.01
243.094	-0.07
243.311	-0
243.527	-0.08
243.744	-0.02
243.961	0.04
244.178	-0.13
244.394	-0.06
244.611	0.1
244.828	0.02
245.044	-0.07
245.261	-0.03
245.477	0.04
245.694	-0.13
245.911	-0.09
246.127	0.04
246.344	0.03
246.56	0.04
246.777	-0.09
246.993	-0.07
247.21	0.09
247.426	0.04
247.643	-0.14
247.859	-0.18
248.076	-0.08
248.292	0.13
248.508	-0.12
248.725	-0.03
248.941	0.01
249.157	0.06
249.374	-0.12
249.59	-0.05
249.806	-0.04
250.023	0.01
250.239	-0.08
250.455	-0.08
250.671	0
250.888	0.02
251.104	0.02
251.32	-0.09
251.536	-0.07
251.752	-0.06
251.969	-0.06
252.185	0.02
252.401	0.17
252.617	0.02
252.833	-0.04
253.049	-0.03
253.265	-0.05
253.481	0.07
253.697	-0.01
253.913	-0.09
254.129	-0.01
254.345	-0.03
254.561	-0.09
254.777	-0.07
254.993	0.01
255.209	-0.05
255.425	0.03
255.641	-0.09
255.857	0.05
256.073	-0.06
256.288	-0.11
256.504	-0.05
256.72	-0.06
256.936	0.02
257.152	-0.02
257.367	-0.02
257.583	-0.04
257.799	0.07
258.015	-0.1
258.23	-0.18
258.446	0.09
258.662	-0.02
258.877	-0.07
259.093	-0.07
259.309	0.01
259.524	-0.05
259.74	-0.01
259.955	-0.1
260.171	0.02
260.387	-0
260.602	0.06
260.818	0.05
261.033	-0.07
261.249	-0.02
261.464	-0.07
261.68	-0.12
261.895	-0
262.11	0.04
262.326	-0.12
262.541	-0.06
262.757	0.07
262.972	0.05
263.187	0.02
263.403	-0.08
263.618	0.06
263.833	-0.05
264.049	-0.03
264.264	-0.05
264.479	0.06
264.694	0.05
264.91	-0.08
265.125	-0.07
265.34	0.09
265.555	0.16
265.77	0
265.986	-0.04
266.201	0.01
266.416	0.09
266.631	-0.07
266.846	-0.01
267.061	0
267.276	0.02
267.491	-0.16
267.706	0.01
267.921	0.05
268.136	-0.03
268.351	-0.03
268.566	-0.07
268.781	0.04
268.996	0.02
269.211	0.03
269.426	-0.09
269.641	-0.05
269.856	0.02
270.071	-0.11
270.285	-0.09
270.5	0.05
270.715	0.02
270.93	0
271.145	-0.03
271.359	0
271.574	-0.09
271.789	-0.03
272.004	-0.06
272.218	-0.02
272.433	0.05
272.648	-0.1
272.862	0.04
273.077	-0.06
273.292	-0.02
273.506	-0.08
273.721	-0.05
273.936	-0.01
274.15	0.05
274.365	-0.06
274.579	0.08
274.794	0.05
275.008	0.07
275.223	-0.12
275.437	0.04
275.652	-0.02
275.866	0.05
276.081	-0.04
276.295	0.04
276.509	0.02
276.724	-0
276.938	0.02
277.153	-0.04
277.367	0.04
277.581	-0.01
277.796	-0.1
278.01	-0.05
278.224	0.01
278.438	0.09
278.653	-0.07
278.867	-0.03
279.081	-0.2
279.295	-0.08
279.51	-0.04
279.724	-0.09
279.938	0.03
280.152	-0.01
280.366	-0.07
280.58	-0.03
280.794	0.02
281.008	0.04
281.222	0.04
281.437	0.09
281.651	0.01
281.865	0.07
282.079	0.01
282.293	-0.06
282.507	-0.02
282.721	0
282.935	-0.07
283.148	-0.07
283.362	-0.06
283.576	-0.08
283.79	-0.02
284.004	-0.03
284.218	0.02
284.432	-0.03
284.646	0
284.859	-0.03
285.073	-0.03
285.287	0.01
285.501	-0.03
285.714	-0.03
285.928	0.02
286.142	-0.02
286.356	-0.04
286.569	-0.05
286.783	0.05
286.997	-0.02
287.21	-0.06
287.424	0
287.637	-0.02
287.851	-0.06
288.065	-0.03
288.278	0.01
288.492	0.01
288.705	0.01
288.919	-0.02
289.132	-0.09
289.346	0.06
289.559	-0.1
289.773	-0.05
289.986	-0
290.2	0.01
290.413	0.06
290.626	-0.08
290.84	-0.06
291.053	-0.05
291.267	0.08
291.48	-0.01
291.693	0.04
291.906	-0.03
292.12	-0.04
292.333	-0.08
292.546	-0.05
292.76	0.06
292.973	0
293.186	-0
293.399	-0.02
293.612	0.05
293.826	-0.01
294.039	0.03
294.252	-0.02
294.465	0.02
294.678	0.05
294.891	0.03
295.104	-0.03
295.317	-0.05
295.53	-0.02
295.743	-0.01
295.956	-0.03
296.169	0.06
296.382	0.01
296.595	0
296.808	-0.05
297.021	0.02
297.234	0.02
297.447	-0
297.66	-0.01
297.873	-0.01
298.086	0.01
298.299	-0.05
298.511	-0.05
298.724	-0.02
298.937	-0.06
299.15	0.02
299.363	0.01
299.575	0.03
299.788	0.01
300.001	-0.02
300.213	-0.03
300.426	-0
300.639	-0.07
300.852	-0.06
301.064	0.07
301.277	0.07
301.489	0.03
301.702	0.02
301.915	0.02
302.127	0.02
302.34	-0
302.552	0.02
302.765	-0.03
302.977	0.02
303.19	-0.05
303.402	-0.02
303.615	-0.05
303.827	-0.02
304.04	0
304.252	-0.01
304.464	-0.01
304.677	0.06
304.889	0.07
305.102	-0.05
305.314	-0.02
305.526	0.03
305.739	0.04
305.951	-0.04
306.163	0
306.375	0.03
306.588	-0.04
306.8	-0.02
307.012	-0.06
307.224	-0
307.436	0.07
307.649	-0.08
307.861	0.01
308.073	0
308.285	-0.04
308.497	-0.05
308.709	-0.04
308.921	-0.02
309.133	0.02
309.346	-0.03
309.558	-0
309.77	0.03
309.982	0.03
310.194	0.03
310.406	-0.05
310.617	0.05
310.829	-0.01
311.041	0.02
311.253	-0.03
311.465	-0.03
311.677	0.01
311.889	-0.03
312.101	-0.05
312.313	0.01
312.524	0.05
312.736	-0.06
312.948	-0.05
313.16	0.06
313.372	0.03
313.583	-0.02
313.795	-0.05
314.007	-0.04
314.218	0.04
314.43	-0.03
314.642	-0.02
314.853	-0.03
315.065	0.03
315.277	-0.02
315.488	0.05
315.7	0.02
315.912	0
316.123	-0.01
316.335	-0.04
316.546	0.04
316.758	-0.03
316.969	-0.02
317.181	-0.01
317.392	-0.04
317.604	0.01
317.815	-0.02
318.026	-0.06
318.238	-0.03
318.449	-0.02
318.661	-0.06
318.872	-0.06
319.083	-0.07
319.295	0
319.506	-0.05
319.717	0.01
319.929	0.06
320.14	-0.04
320.351	-0.01
320.562	-0.03
320.774	0
320.985	-0
321.196	-0.05
321.407	-0.07
321.618	0.06
321.829	-0.01
322.041	0.03
322.252	-0.02
322.463	-0.02
322.674	-0.01
322.885	-0.04
323.096	-0.06
323.307	-0.02
323.518	-0
323.729	-0.03
323.94	0.02
324.151	-0.03
324.362	0.03
324.573	-0.04
324.784	-0.04
324.995	0.02
325.206	0.02
325.417	-0.05
325.628	-0.04
325.838	-0.01
326.049	0.01
326.26	0.04
326.471	-0.06
326.682	0.04
326.892	-0.03
327.103	-0.08
327.314	-0.06
327.525	0.02
327.735	-0.02
327.946	-0.04
328.157	-0.03
328.368	-0.01
328.578	-0
328.789	-0.01
328.999	0.01
329.21	-0.02
329.421	0.03
329.631	-0.04
329.842	-0.05
330.052	-0.01
330.263	0
330.473	0.04
330.684	-0.01
330.894	-0.04
331.105	0
331.315	-0.03
331.526	-0.06
331.736	0.04
331.947	0.02
332.157	0.03
332.367	-0.08
332.578	0.01
332.788	0.05
332.999	-0.01
333.209	-0
333.419	-0.06
333.629	-0.02
333.84	0.02
334.05	-0.01
334.26	0.04
334.47	-0.01
334.681	0.07
334.891	-0
335.101	0.02
335.311	0.05
335.521	0.01
335.732	-0.08
335.942	0.03
336.152	0
336.362	0.03
336.572	-0.01
336.782	0.02
336.992	-0.01
337.202	-0.07
337.412	-0.06
337.622	0
337.832	0.01
338.042	0.02
338.252	-0.04
338.462	-0.03
338.672	-0.06
338.882	0.01
339.092	-0.02
339.302	0.06
339.511	-0.01
339.721	-0.06
339.931	-0.07
340.141	0.03
340.351	0.1
340.561	0.01
340.77	-0
340.98	-0.01
341.19	0.01
341.4	-0.02
341.609	-0.01
341.819	-0.06
342.029	-0.06
342.238	-0
342.448	-0.03
342.658	0.01
342.867	0.02
343.077	-0
343.286	-0
343.496	-0
343.706	0.03
343.915	-0.04
344.125	-0.02
344.334	0.03
344.544	-0.04
344.753	-0.02
344.963	-0.01
345.172	0
345.381	-0.05
345.591	-0.01
345.8	0
346.01	0.06
346.219	0.01
346.428	-0.14
346.638	0
346.847	-0.02
347.056	0.02
347.266	-0.04
347.475	0.02
347.684	0.03
347.893	0
348.103	0.01
348.312	-0.04
348.521	-0.01
348.73	0
348.94	-0.02
349.149	-0.02
349.358	-0.02
349.567	-0.05
349.776	-0.05
349.985	-0.04
350.194	0.03
350.403	0.05
350.612	-0.08
350.821	-0.03
351.03	-0.02
351.239	-0.05
351.448	0
351.657	-0.03
351.866	0.04
352.075	-0.05
352.284	-0
352.493	-0.1
352.702	0.02
352.911	-0.04
353.12	-0.03
353.329	-0.02
353.538	0.01
353.746	0
353.955	-0.03
354.164	-0.01
354.373	-0.03
354.582	0.03
354.79	-0
354.999	0.01
355.208	-0
355.416	0.04
355.625	-0.03
355.834	-0.03
356.042	-0.03
356.251	-0
356.46	-0.05
356.668	0.01
356.877	0.09
357.085	0.04
357.294	-0.07
357.503	-0.02
357.711	-0.01
357.92	0.11
358.128	-0.02
358.337	-0.03
358.545	-0
358.754	-0.06
358.962	0.01
359.17	-0.02
359.379	-0.01
359.587	0.01
359.796	-0.04
360.004	0.04
360.212	0.04
360.421	-0
360.629	-0.02
360.837	-0.01
361.046	0.06
361.254	0.06
361.462	-0.02
361.67	-0.05
361.879	0.02
362.087	0.08
362.295	0.01
362.503	-0.03
362.711	-0.05
362.92	-0.03
363.128	-0.05
363.336	-0.04
363.544	-0.01
363.752	-0.03
363.96	-0.05
364.168	-0.05
364.376	-0.03
364.584	-0.04
364.792	0.03
365	0.02
365.208	-0.01
365.416	0.02
365.624	-0.01
365.832	-0.06
366.04	0.04
366.248	-0.02
366.456	-0.01
366.664	-0.02
366.872	0
367.079	-0.04
367.287	0.01
367.495	0
367.703	-0.01
367.911	0.01
368.118	0.01
368.326	-0.06
368.534	-0.03
368.742	0.04
368.949	-0.07
369.157	-0.04
369.365	0.02
369.572	-0.04
369.78	-0.06
369.988	0.04
370.195	0.03
370.403	0.02
370.61	-0.03
370.818	0.01
371.026	0.08
371.233	-0.04
371.441	-0.03
371.648	-0.07
371.856	0.02
372.063	-0.04
372.271	-0.03
372.478	-0.04
372.685	-0.04
372.893	0
373.1	-0.03
373.308	-0.04
373.515	0.08
373.722	-0.01
373.93	-0.03
374.137	-0
374.344	0.08
374.552	0.01
374.759	-0.01
374.966	0
375.173	-0.07
375.381	0.03
375.588	-0.03
375.795	-0.08
376.002	-0.04
376.209	-0.03
376.417	-0.03
376.624	-0.03
376.831	-0.01
377.038	-0.01
377.245	-0.08
377.452	-0.03
377.659	-0.02
377.866	-0.04
378.073	-0.03
378.28	0.01
378.487	0.05
378.694	0.04
378.901	0
379.108	-0.03
379.315	0.01
379.522	0.07
379.729	0.02
379.936	-0
380.143	-0.01
380.35	0
380.557	-0.01
380.763	-0
380.97	-0
381.177	0.04
381.384	0.02
381.591	-0.06
381.797	-0.01
382.004	0.01
382.211	-0.02
382.418	0
382.624	0.03
382.831	0.03
383.038	-0.07
383.244	-0
383.451	-0.03
383.658	-0.01
383.864	-0.01
384.071	-0.05
384.277	0.03
384.484	-0.05
384.69	0.01
384.897	-0.02
385.103	-0.04
385.31	-0.04
385.516	-0.03
385.723	-0.02
385.929	-0.01
386.136	-0.03
386.342	-0.05
386.549	-0.01
386.755	0.05
386.961	0.03
387.168	-0.02
387.374	-0.01
387.58	0.01
387.787	-0
387.993	-0.01
388.199	-0.04
388.406	-0.02
388.612	-0.04
388.818	-0.05
389.024	-0.03
389.231	-0.03
389.437	0.06
389.643	0.01
389.849	-0.04
390.055	0.01
390.261	-0.04
390.467	0
390.674	-0.05
390.88	-0.03
391.086	-0.01
391.292	-0.05
391.498	0
391.704	-0.01
391.91	-0.03
392.116	-0.06
392.322	-0.05
392.528	-0
392.734	-0.03
392.94	-0
393.146	-0.05
393.352	0.02
393.557	-0.03
393.763	-0.05
393.969	0.03
394.175	-0.03
394.381	0.01
394.587	-0.05
394.792	-0.03
394.998	-0.01
395.204	0.03
395.41	-0.02
395.615	0.02
395.821	0
396.027	0.01
396.233	-0.04
396.438	-0.03
396.644	0.02
396.85	0.03
397.055	0.03
397.261	0
397.466	0.08
397.672	-0.02
397.878	-0.02
398.083	0.01
398.289	-0.05
398.494	0.01
398.7	0.03
398.905	-0.12
399.111	0.02
399.316	-0.05
399.522	-0.03
399.727	0.02
399.932	-0.07
400.138	-0.02
400.343	0.01
400.549	-0
400.754	-0.01
400.959	0.06
401.165	0.03
401.37	0.01
401.575	0.07
401.78	0.04
401.986	-0.04
402.191	-0.04
402.396	-0.05
402.601	0.01
402.807	0.04
403.012	0.01
403.217	0.02
403.422	-0.02
403.627	-0.04
403.832	-0.03
404.037	0
404.243	-0.03
404.448	-0.03
404.653	-0.04
404.858	-0.03
405.063	0.01
405.268	-0.02
405.473	-0.04
405.678	-0.04
405.883	0.07
406.088	-0
406.293	-0.09
406.498	-0.06
406.703	0.04
406.907	-0
407.112	-0.05
407.317	0.03
407.522	0.02
407.727	-0.07
407.932	-0.02
408.136	0.04
408.341	0.01
408.546	-0.02
408.751	-0.02
408.956	-0.05
409.16	0.06
409.365	-0.01
409.57	-0.02
409.774	-0.01
409.979	0.03
410.184	-0
410.388	-0.07
410.593	0.02
410.798	0.01
411.002	-0.05
411.207	-0.03
411.411	-0.01
411.616	-0.05
411.82	-0.07
412.025	0.02
412.229	-0.02
412.434	0.05
412.638	0
412.843	-0.08
413.047	0
413.252	-0.07
413.456	-0.02
413.66	0.02
413.865	-0.03
414.069	0.04
414.273	-0.03
414.478	-0.05
414.682	-0.06
414.886	-0.02
415.091	-0.05
415.295	-0.08
415.499	-0
415.703	-0.08
415.908	-0
416.112	-0.08
416.316	0.04
416.52	-0.04
416.724	-0.1
416.929	-0.03
417.133	0.07
417.337	-0.04
417.541	-0.04
417.745	-0.05
417.949	-0.03
418.153	-0.06
418.357	-0.06
418.561	0.07
418.765	-0.01
418.969	0.06
419.173	-0
419.377	-0.04
419.581	0.05
419.785	-0.05
419.989	-0.08
420.193	-0.04
420.397	-0.02
420.601	0.02
420.804	0.03
421.008	-0.05
421.212	-0.01
421.416	0.03
421.62	-0.03
421.823	-0.03
422.027	0.02
422.231	-0.07
422.435	0
422.638	0.01
422.842	-0.04
423.046	-0.06
423.249	0.05
423.453	0.03
423.657	0.01
423.86	-0.03
424.064	-0
424.268	0.03
424.471	-0.04
424.675	0.04
424.878	0.07
425.082	0
425.285	0.04
425.489	0.01
425.692	-0.02
425.896	-0.03
426.099	0.02
426.303	-0.04
426.506	-0.1
426.71	0.06
426.913	0.04
427.116	0.03
427.32	-0.04
427.523	0.05
427.726	0.11
427.93	-0.07
428.133	0.04
428.336	-0.09
428.54	-0.05
428.743	0.02
428.946	-0
429.149	-0.04
429.353	0.01
429.556	0.01
429.759	-0.05
429.962	-0.02
430.165	0.02
430.368	-0.02
430.571	0
430.775	0.04
430.978	-0.01
431.181	0.04
431.384	0.01
431.587	-0.04
431.79	0.01
431.993	-0.08
432.196	-0.01
432.399	0.01
432.602	0.08
432.805	-0.05
433.008	-0.05
433.211	-0.08
433.414	0.02
433.616	0.02
433.819	0
434.022	-0.12
434.225	0.07
434.428	0.02
434.631	0.07
434.833	-0.01
435.036	0
435.239	0.11
435.442	0.02
435.645	-0.05
435.847	0
436.05	0.05
436.253	-0.03
436.455	-0.05
436.658	0.04
436.861	0.07
437.063	-0.03
437.266	-0.04
437.468	0.02
437.671	0.1
437.874	0.03
438.076	-0.04
438.279	-0.07
438.481	-0
438.684	-0.04
438.886	0.03
439.089	-0.07
439.291	0.05
439.494	0.07
439.696	-0.02
439.899	0
440.101	-0.02
440.303	-0.01
440.506	0.06
440.708	0.01
440.91	0.01
441.113	-0.04
441.315	0.02
441.517	-0.04
441.72	0.03
441.922	-0.05
442.124	-0.03
442.326	-0
442.529	0.12
442.731	-0
442.933	0.09
443.135	0.01
443.337	0.02
443.539	-0.02
443.742	0.01
443.944	0.05
444.146	-0.01
444.348	0.01
444.55	-0.02
444.752	0.01
444.954	0.01
445.156	-0.01
445.358	0.03
445.56	0.05
445.762	0.03
445.964	0.06
446.166	0.04
446.368	0.02
446.57	0.06
446.772	0.08
446.974	0.04
447.175	0.09
447.377	0.02
447.579	0
447.781	-0.01
447.983	0.11
448.184	0.06
448.386	0.07
448.588	-0.03
448.79	0.06
448.991	-0
449.193	0.03
449.395	0.05
449.597	0.08
449.798	0.08
450	0.1
450.202	0.06
450.403	0.1
450.605	0.09
450.806	0.03
451.008	-0.01
451.21	0.03
451.411	0.06
451.613	0.05
451.814	0.09
452.016	0.05
452.217	0.04
452.419	0.14
452.62	0.06
452.821	0.07
453.023	0.13
453.224	0.09
453.426	0
453.627	0.02
453.828	0.04
454.03	0.03
454.231	0.06
454.432	-0.02
454.634	0.13
454.835	0
455.036	-0.04
455.238	0.02
455.439	0.09
455.64	0.02
455.841	0.01
456.042	0.11
456.244	0.09
456.445	-0.02
456.646	-0.07
456.847	-0.03
457.048	0.05
457.249	0.07
457.45	0.2
457.651	-0.01
457.852	0.04
458.054	0.04
458.255	-0.03
458.456	0.08
458.657	0.05
458.858	-0.03
459.058	0.05
459.259	0.09
459.46	0.01
459.661	0
459.862	0.11
460.063	-0.02
460.264	0.08
460.465	-0.06
460.666	0.08
460.866	-0.01
461.067	0.03
461.268	-0
461.469	0
461.67	0.01
461.87	-0.05
462.071	-0.03
462.272	-0.01
462.473	-0.02
462.673	0.07
462.874	-0.02
463.075	0.02
463.275	-0.01
463.476	0.08
463.676	0.04
463.877	0.04
464.078	-0.05
464.278	0.06
464.479	-0.05
464.679	-0.05
464.88	-0
465.08	0.09
465.281	-0.06
465.481	-0.01
465.682	-0.01
465.882	0.02
466.083	0.01
466.283	0.03
466.483	0.03
466.684	-0.02
466.884	-0.06
467.085	0.02
467.285	0.06
467.485	-0.03
467.686	-0.01
467.886	-0.04
468.086	-0.02
468.286	0.03
468.487	-0.02
468.687	-0.05
468.887	-0
469.087	0.04
469.287	-0.02
469.488	-0.06
469.688	-0.05
469.888	0.01
470.088	0.03
470.288	0.06
470.488	0.02
470.688	-0.07
470.888	0.02
471.088	-0.02
471.288	0.05
471.488	-0.01
471.688	0.01
471.888	-0.05
472.088	0.05
472.288	0.06
472.488	-0.02
472.688	-0.04
472.888	-0.02
473.088	-0.01
473.288	-0.01
473.488	0.03
473.688	0.05
473.887	0.03
474.087	-0.02
474.287	0.02
474.487	-0.03
474.687	-0.01
474.886	-0.02
475.086	-0.03
475.286	0.03
475.486	0.07
475.685	-0
475.885	0.01
476.085	-0.01
476.284	0.04
476.484	-0.03
476.684	0.06
476.883	0.03
477.083	-0.02
477.282	-0.01
477.482	0.06
477.681	0.06
477.881	-0.01
478.08	-0.05
478.28	-0
478.479	0.02
478.679	0.08
478.878	-0.04
479.078	-0.02
479.277	-0.02
479.477	-0.01
479.676	0.05
479.875	-0.01
480.075	-0.07
480.274	-0.01
480.473	-0.03
480.673	-0.04
480.872	0.02
481.071	-0
481.271	0.01
481.47	-0.01
481.669	-0
481.868	-0.03
482.067	-0.04
482.267	-0.03
482.466	-0
482.665	-0.05
482.864	-0.07
483.063	-0.03
483.262	0.02
483.461	0.04
483.661	0.01
483.86	-0.01
484.059	0.01
484.258	-0.02
484.457	-0.01
484.656	-0
484.855	0.04
485.054	-0.07
485.253	-0.04
485.452	-0.03
485.651	-0.02
485.849	-0.02
486.048	-0.04
486.247	-0.03
486.446	0.01
486.645	-0.05
486.844	-0.05
487.043	0.01
487.241	0.01
487.44	-0.02
487.639	0.01
487.838	0
488.037	-0.01
488.235	0.04
488.434	0.01
488.633	-0.02
488.831	0
489.03	0.02
489.229	0.03
489.427	-0.04
489.626	0.01
489.825	0.07
490.023	0
490.222	-0.02
490.42	0.02
490.619	0.03
490.817	-0.01
491.016	-0.02
491.214	0.03
491.413	-0.01
491.611	-0
491.81	-0.02
492.008	0.01
492.207	0.01
492.405	-0.01
492.604	-0.06
492.802	-0.02
493	0
493.199	-0.04
493.397	-0.02
493.595	-0.01
493.794	-0.01
493.992	0.01
494.19	-0
494.388	0.02
494.587	-0
494.785	-0.01
494.983	-0.04
495.181	-0.01
495.379	-0.02
495.578	0
495.776	-0
495.974	0
496.172	-0.02
496.37	-0.03
496.568	-0.05
496.766	-0.04
496.964	0.04
497.162	0
497.36	-0.04
497.558	0
497.756	-0
497.954	-0
498.152	-0.02
498.35	-0
498.548	-0.03
498.746	0.01
498.944	-0.02
499.142	0
499.34	-0.06
499.538	-0.02
499.736	-0.02
499.933	0.05
500.131	0.04
500.329	-0.01
500.527	0.01
500.725	0.02
500.922	-0.01
501.12	0.02
501.318	-0.01
501.516	-0.03
501.713	-0.01
501.911	0
502.109	-0.05
502.306	-0
502.504	-0.01
502.701	-0.02
502.899	-0.02
503.097	0.05
503.294	-0.03
503.492	-0.01
503.689	0.01
503.887	0.01
504.084	0.03
504.282	-0.02
504.479	-0.04
504.677	0
504.874	-0.02
505.072	-0.01
505.269	-0.04
505.466	0.01
505.664	-0.01
505.861	-0.04
506.059	-0.04
506.256	0.02
506.453	-0.05
506.651	0.03
506.848	0.01
507.045	0
507.242	-0.01
507.44	-0.02
507.637	-0.02
507.834	-0
508.031	0.03
508.229	-0.03
508.426	-0
508.623	-0
508.82	-0.03
509.017	-0.03
509.214	-0.02
509.411	-0
509.608	-0.04
509.805	-0
510.003	-0.02
510.2	-0.03
510.397	0.02
510.594	-0.01
510.791	-0.02
510.988	-0.03
511.184	0.01
511.381	-0.02
511.578	-0.03
511.775	0.01
511.972	-0.02
512.169	-0.01
512.366	-0.02
512.563	0.02
512.76	-0.03
512.956	0.02
513.153	-0.03
513.35	-0.01
513.547	-0.04
513.744	-0.03
513.94	-0.04
514.137	-0
514.334	-0.01
514.53	0
514.727	-0.03
514.924	0.03
515.12	-0.01
515.317	-0.04
515.514	-0.01
515.71	-0.03
515.907	-0.02
516.103	-0.01
516.3	0.01
516.497	0.01
516.693	0.04
516.89	-0.03
517.086	-0.04
517.283	0.04
517.479	0
517.676	-0.02
517.872	-0
518.068	-0.03
518.265	-0.03
518.461	-0.01
518.658	-0.02
518.854	-0
519.05	-0.03
519.247	-0.03
519.443	-0.02
519.639	-0
519.836	-0.01
520.032	-0.03
520.228	-0.01
520.424	0.03
520.621	0.01
520.817	0
521.013	-0.01
521.209	0.01
521.405	0.04
521.601	-0
521.798	-0.01
521.994	0.03
522.19	-0.01
522.386	-0.04
522.582	-0.01
522.778	-0.01
522.974	-0.02
523.17	-0.01
523.366	0.01
523.562	0.01
523.758	0.01
523.954	-0.02
524.15	-0.01
524.346	0.01
524.542	-0.02
524.738	-0.04
524.934	-0.03
525.129	-0.01
525.325	0.02
525.521	0
525.717	-0.01
525.913	-0.02
526.109	-0.02
526.304	-0.02
526.5	0
526.696	0.01
526.892	0
527.087	-0.01
527.283	-0.03
527.479	-0
527.674	-0.01
527.87	-0.02
528.066	-0.01
528.261	0.02
528.457	-0.02
528.653	-0.03
528.848	-0.02
529.044	0
529.239	-0.01
529.435	0.02
529.63	-0
529.826	0.02
530.021	0.01
530.217	-0.01
530.412	-0.01
530.608	-0.03
530.803	-0.01
530.999	-0
531.194	-0.04
531.389	-0.01
531.585	-0.06
531.78	-0.01
531.975	-0.02
532.171	-0
532.366	-0.02
532.561	-0
532.757	-0.01
532.952	-0.03
533.147	0
533.342	-0.01
533.538	-0.02
533.733	0.01
533.928	-0.01
534.123	-0.03
534.318	-0.04
534.513	-0.01
534.709	0
534.904	-0.02
535.099	-0.04
535.294	-0
535.489	-0
535.684	-0
535.879	-0.04
536.074	0
536.269	-0.02
536.464	-0.01
536.659	0.01
536.854	-0.01
537.049	0
537.244	0
537.439	-0.01
537.634	0.01
537.828	0
538.023	-0.01
538.218	-0.03
538.413	-0.03
538.608	-0.04
538.803	-0
538.997	-0.03
539.192	0.01
539.387	-0.01
539.582	-0.02
539.776	0.01
539.971	-0.01
540.166	0.01
540.36	-0.05
540.555	-0
540.75	-0.02
540.944	-0
541.139	-0.04
541.334	-0.02
541.528	0.01
541.723	0
541.917	-0.03
542.112	-0.06
542.306	-0.01
542.501	-0.02
542.695	0
542.89	-0.02
543.084	0
543.279	0
543.473	-0.02
543.668	-0.02
543.862	-0.01
544.056	0.01
544.251	-0.01
544.445	-0.03
544.64	0
544.834	-0.03
545.028	-0
545.222	-0.01
545.417	-0.01
545.611	-0.01
545.805	-0.01
546	-0.02
546.194	-0
546.388	-0.05
546.582	0.02
546.776	0
546.97	-0.01
547.165	0.01
547.359	0
547.553	-0.03
547.747	-0.01
547.941	-0
548.135	-0.03
548.329	0.01
548.523	0.02
548.717	-0.02
548.911	-0.02
549.105	-0.01
549.299	-0
549.493	0
549.687	0.01
549.881	0.01
550.075	-0.03
550.269	-0.03
550.463	0.01
550.657	-0.01
550.85	-0.01
551.044	-0.04
551.238	-0.01
551.432	-0.03
551.626	-0.03
551.82	-0
552.013	-0.02
552.207	-0.02
552.401	0.01
552.594	-0.01
552.788	-0.02
552.982	0.01
553.176	-0.04
553.369	0
553.563	-0
553.756	-0.04
553.95	-0.03
554.144	-0.01
554.337	0.03
554.531	-0.01
554.724	0
554.918	-0.02
555.111	0
555.305	0.01
555.498	0.06
555.692	-0.02
555.885	-0.02
556.079	0.01
556.272	-0.03
556.466	0.04
556.659	-0.01
556.852	-0
557.046	-0.02
557.239	0
557.432	-0.04
557.626	-0.02
557.819	0
558.012	0.01
558.206	0
558.399	-0.01
558.592	0.01
558.785	-0.04
558.979	0.01
559.172	-0.01
559.365	-0
559.558	0.01
559.751	-0.02
559.944	0.02
560.138	-0.01
560.331	-0.02
560.524	-0.01
560.717	-0.02
560.91	-0.02
561.103	0.01
561.296	-0.01
561.489	0.01
561.682	-0.01
561.875	0.02
562.068	-0.01
562.261	0
562.454	0.02
562.647	-0.02
562.84	0.02
563.032	-0.01
563.225	0
563.418	-0
563.611	-0.01
563.804	0.01
563.997	-0.03
564.19	-0.03
564.382	-0.03
564.575	-0.02
564.768	-0.03
564.961	-0.04
565.153	-0.04
565.346	-0
565.539	0.01
565.731	0.02
565.924	-0.01
566.117	0.01
566.309	-0.02
566.502	-0.01
566.695	0.01
566.887	-0.01
567.08	-0.03
567.272	-0.04
567.465	-0.02
567.657	0.01
567.85	-0.01
568.042	0.02
568.235	0.03
568.427	-0.02
568.62	-0
568.812	0.02
569.005	-0.03
569.197	-0.05
569.389	-0.01
569.582	0.02
569.774	-0.01
569.966	-0.03
570.159	-0.05
570.351	0.01
570.543	-0.02
570.736	0.01
570.928	-0
571.12	0.01
571.312	-0
571.505	-0.05
571.697	0.02
571.889	-0.03
572.081	-0.01
572.273	-0.04
572.465	0.03
572.658	-0.02
572.85	-0.01
573.042	-0.02
573.234	-0.03
573.426	0.04
573.618	-0.05
573.81	0.01
574.002	0.04
574.194	0.04
574.386	-0.04
574.578	-0.09
574.77	-0.03
574.962	0
575.154	-0.03
575.346	-0.02
575.538	0
575.729	-0.04
575.921	-0.03
576.113	-0.02
576.305	-0.01
576.497	-0.02
576.689	0
576.88	-0.02
577.072	0.03
577.264	-0.01
577.456	0
577.647	-0.08
577.839	-0.01
578.031	0.01
578.223	-0.06
578.414	-0.03
578.606	0.02
578.798	-0.01
578.989	-0.03
579.181	-0.01
579.372	0.01
579.564	-0.02
579.755	-0
579.947	0
580.139	-0.01
580.33	-0.08
580.522	-0.03
580.713	-0.07
580.905	-0.02
581.096	0
581.287	-0
581.479	-0.01
581.67	-0.01
581.862	-0.01
582.053	-0.03
582.244	-0.06
582.436	-0.01
582.627	0.02
582.818	-0.04
583.01	-0.03
583.201	-0.01
583.392	0.02
583.583	-0.01
583.775	-0.01
583.966	-0.05
584.157	-0.01
584.348	-0.03
584.54	-0.06
584.731	0
584.922	-0.01
585.113	-0.03
585.304	0.01
585.495	-0
585.686	-0
585.877	-0.01
586.068	0.01
586.259	-0.01
586.45	-0.01
586.641	-0.04
586.832	-0.07
587.023	-0
587.214	-0.02
587.405	-0.01
587.596	-0.05
587.787	-0
587.978	-0
588.169	-0.04
588.36	-0.03
588.551	-0.02
588.742	-0.02
588.932	-0
589.123	-0.01
589.314	-0
589.505	0.02
589.696	-0.01
589.886	-0.04
590.077	-0.05
590.268	-0.01
590.458	-0.07
590.649	-0.05
590.84	0.02
591.03	-0.06
591.221	-0.04
591.412	-0.05
591.602	0.01
591.793	0
591.984	-0.03
592.174	-0.03
592.365	0.05
592.555	-0.02
592.746	0.02
592.936	0
593.127	0
593.317	0.02
593.508	-0.03
593.698	0.01
593.889	-0
594.079	-0.01
594.269	-0.01
594.46	-0
594.65	-0.03
594.84	-0.03
595.031	-0.04
595.221	-0.03
595.411	-0.05
595.602	0.02
595.792	0.01
595.982	-0.01
596.172	0.03
596.363	-0.02
596.553	-0.01
596.743	-0.01
596.933	-0.02
597.123	0.02
597.314	-0.03
597.504	-0.03
597.694	0.01
597.884	0
598.074	-0.03
598.264	-0.05
598.454	0.01
598.644	-0.04
598.834	0.01
599.024	-0.08
599.214	-0.04
599.404	-0
599.594	-0.03
599.784	-0.04
599.974	0.02
600.164	0.04
600.354	-0.03
600.544	-0.07
600.734	-0.02
600.924	0.03
601.114	-0.04
601.303	-0.01
601.493	-0.01
601.683	-0.02
601.873	-0.02
602.063	-0.04
602.252	0.02
602.442	-0.09
602.632	-0.02
602.821	-0.05
603.011	0.01
603.201	-0.01
603.39	-0.02
603.58	-0.03
603.77	-0.01
603.959	0.01
604.149	-0.01
604.339	-0.03
604.528	-0
604.718	0.02
604.907	-0.04
605.097	-0.04
605.286	-0.04
605.476	0.01
605.665	0.01
605.855	-0.03
606.044	0.02
606.234	0.02
606.423	0.01
606.612	-0.02
606.802	0.02
606.991	0
607.181	-0.02
607.37	-0.05
607.559	-0.02
607.749	-0.07
607.938	-0.01
608.127	-0.02
608.316	-0.04
608.506	-0.01
608.695	-0.01
608.884	-0.03
609.073	0.03
609.263	-0.01
609.452	0.02
609.641	-0
609.83	-0.02
610.019	-0.02
610.208	-0.04
610.397	-0.03
610.586	-0.05
610.775	-0.04
610.965	-0.02
611.154	-0.04
611.343	-0.01
611.532	-0.01
611.721	-0.05
611.91	-0.03
612.099	0.02
612.287	-0.04
612.476	-0.05
612.665	0.01
612.854	-0.01
613.043	0.01
613.232	-0.01
613.421	-0.04
613.61	-0
613.798	-0.03
613.987	0
614.176	-0.02
614.365	-0.02
614.554	0
614.742	0.03
614.931	-0.02
615.12	0.03
615.309	-0.04
615.497	0.02
615.686	-0.04
615.875	-0.03
616.063	-0.02
616.252	-0.04
616.44	-0.02
616.629	0
616.818	0.02
617.006	-0.01
617.195	-0.02
617.383	0
617.572	-0.02
617.76	-0.03
617.949	-0.05
618.137	-0.02
618.326	0.01
618.514	-0.04
618.703	-0.04
618.891	0.04
619.079	-0.05
619.268	0.01
619.456	-0.04
619.644	0.02
619.833	-0.02
620.021	-0.05
620.209	-0.03
620.398	0.03
620.586	0.02
620.774	0.02
620.962	0.01
621.151	0.05
621.339	-0.01
621.527	-0.05
621.715	-0.05
621.903	-0.04
622.092	-0.03
622.28	-0
622.468	-0.01
622.656	0.02
622.844	0.02
623.032	-0.03
623.22	-0.07
623.408	0.02
623.596	0.02
623.784	0
623.972	-0.02
624.16	-0.02
624.348	0.05
624.536	-0.03
624.724	-0.03
624.912	0.06
625.1	0
625.288	-0.05
625.476	-0.01
625.664	0.01
625.851	-0.03
626.039	0
626.227	0.02
626.415	-0
626.603	-0.06
626.79	-0.01
626.978	-0.04
627.166	0.02
627.354	0.01
627.541	-0.02
627.729	-0.08
627.917	0.02
628.104	0.05
628.292	0.03
628.48	-0.01
628.667	0.01
628.855	-0.01
629.042	0.05
629.23	-0.03
629.418	-0.05
629.605	0
629.793	-0.03
629.98	-0.03
630.168	0.01
630.355	-0.03
630.543	-0.02
630.73	-0.04
630.917	0.04
631.105	0.02
631.292	-0.01
631.48	-0
631.667	0.06
631.854	0
632.042	-0.01
632.229	-0.04
632.416	0
632.604	-0
632.791	-0.03
632.978	0.02
633.165	-0.02
633.353	0.07
633.54	-0
633.727	-0.06
633.914	-0.02
634.101	-0.06
634.289	0.05
634.476	-0.02
634.663	-0.04
634.85	0.01
635.037	-0.03
635.224	-0.06
635.411	0.06
635.598	0.04
635.785	0.01
635.972	-0
636.159	0.05
636.346	-0.04
636.533	-0
636.72	-0.01
636.907	-0.01
637.094	0.05
637.281	0.01
637.468	0.03
637.655	0
637.842	0.01
638.029	-0.04
638.215	0.03
638.402	-0
638.589	-0.02
638.776	0.02
638.963	-0.03
639.149	0.05
639.336	0.05
639.523	-0.01
639.709	0.03
639.896	0
640.083	0.07
640.27	0.03
640.456	-0.01
640.643	0.02
640.829	-0.03
641.016	-0.04
641.203	-0.03
641.389	0.02
641.576	0.03
641.762	0
641.949	-0.04
642.135	0.02
642.322	0.04
642.508	-0.02
642.695	0.02
642.881	-0.02
643.068	-0.02
643.254	0.03
643.441	0.05
643.627	0.01
643.813	0.01
644	0.05
644.186	-0.01
644.372	0.04
644.559	0.07
644.745	0.04
644.931	0.02
645.118	0.02
645.304	0.02
645.49	0.04
645.676	0.03
645.862	0.04
646.049	0.11
646.235	0.03
646.421	0.08
646.607	0.1
646.793	0.03
646.979	-0.01
647.165	0.06
647.352	0.05
647.538	0.1
647.724	0.06
647.91	0.06
648.096	0.05
648.282	0.1
648.468	0.01
648.654	0.03
648.84	0.05
649.026	0.04
649.212	0.05
649.397	0
649.583	-0.03
649.769	0.08
649.955	0.04
650.141	0.05
650.327	0.1
650.513	0.05
650.698	0.1
650.884	-0.03
651.07	0.06
651.256	0.07
651.442	0.05
651.627	0.05
651.813	0.05
651.999	0.07
652.184	0.06
652.37	0.03
652.556	0.04
652.741	0.14
652.927	0.02
653.113	0.07
653.298	0.07
653.484	0.06
653.669	0.02
653.855	0.06
654.04	0.08
654.226	0.07
654.412	0.04
654.597	0.06
654.782	0.12
654.968	0.14
655.153	0.09
655.339	0.06
655.524	0.05
655.71	0.1
655.895	0.06
656.08	0.02
656.266	0.15
656.451	0.12
656.636	0.02
656.822	0.06
657.007	0.08
657.192	0.07
657.378	0.06
657.563	0.1
657.748	0.1
657.933	0.08
658.118	0.08
658.304	0.06
658.489	0.11
658.674	0.09
658.859	0.05
659.044	0.11
659.229	0.12
659.414	0.07
659.599	0.07
659.785	0.05
659.97	0.1
660.155	0.13
660.34	0.1
660.525	0.06
660.71	0.07
660.895	0.14
661.08	0.06
661.264	0.08
661.449	0.14
661.634	0.11
661.819	0.11
662.004	0.09
662.189	0.06
662.374	0.05
662.559	0.05
662.743	-0.01
662.928	0.03
663.113	0.03
663.298	-0.01
663.483	0.06
663.667	0.07
663.852	0.02
664.037	0.07
664.221	0.05
664.406	0.1
664.591	0.05
664.775	0.06
664.96	-0.01
665.145	0.05
665.329	0.08
665.514	-0.02
665.698	0.01
665.883	-0.03
666.068	0.08
666.252	0.02
666.437	-0
666.621	0.01
666.806	0.04
666.99	-0.01
667.174	-0.03
667.359	0.06
667.543	0.02
667.728	-0
667.912	-0.08
668.096	0.01
668.281	-0.01
668.465	0.04
668.649	-0
668.834	-0.03
669.018	0.01
669.202	0.01
669.387	-0
669.571	0.04
669.755	-0.02
669.939	-0
670.124	0.01
670.308	0.05
670.492	0.03
670.676	0.02
670.86	0
671.044	-0.05
671.228	0.01
671.413	-0.07
671.597	-0.04
671.781	-0.08
671.965	0
672.149	0.02
672.333	-0.03
672.517	-0.04
672.701	-0.01
672.885	-0.06
673.069	-0.07
673.253	0.06
673.437	-0.04
673.621	-0.05
673.804	-0.04
673.988	0
674.172	0.01
674.356	-0.09
674.54	0.02
674.724	0.06
674.908	-0.02
675.091	0.02
675.275	-0.01
675.459	-0.01
675.643	0.05
675.826	-0
676.01	-0.03
676.194	-0.04
676.377	0.04
676.561	0.04
676.745	-0.02
676.928	-0
677.112	0.05
677.296	-0.06
677.479	-0
677.663	0.02
677.846	-0
678.03	-0.04
678.213	-0.02
678.397	0.04
678.58	-0.01
678.764	-0.02
678.947	-0.05
679.131	-0.05
679.314	0.02
679.498	-0.02
679.681	0.01
679.865	0.04
680.048	0.01
680.231	-0.02
680.415	-0.02
680.598	-0.02
680.781	-0.07
680.965	-0.04
681.148	-0.01
681.331	-0.03
681.514	-0
681.698	-0.04
681.881	-0
682.064	0.03
682.247	-0.05
682.43	-0.07
682.614	0.01
682.797	0.03
682.98	0.01
683.163	-0.07
683.346	0.01
683.529	-0.05
683.712	-0.03
683.895	0.01
684.078	-0.08
684.261	-0.04
684.444	0.02
684.627	-0
684.81	-0.09
684.993	0
685.176	0.03
685.359	-0.07
685.542	-0.02
685.725	0.01
685.908	-0.01
686.091	-0.05
686.274	0.01
686.457	0.04
686.639	-0.07
686.822	-0.01
687.005	0
687.188	0.01
687.371	0.05
687.553	-0.01
687.736	-0.03
687.919	0.03
688.102	0.06
688.284	-0.01
688.467	-0.05
688.65	-0.02
688.832	-0.05
689.015	-0.01
689.197	-0.05
689.38	0.05
689.563	0.1
689.745	-0.06
689.928	-0.04
690.11	-0.04
690.293	0.01
690.475	-0.08
690.658	-0.05
690.84	0.01
691.023	-0.02
691.205	-0
691.388	0
691.57	0.03
691.752	0.02
691.935	-0.12
692.117	-0.04
692.3	-0.01
692.482	0.01
692.664	-0.02
692.847	0.02
693.029	0.04
693.211	0.02
693.393	0
693.576	-0.03
693.758	-0.06
693.94	-0.04
694.122	-0.05
694.304	-0.02
694.487	-0.03
694.669	0.04
694.851	-0.01
695.033	0.02
695.215	-0.07
695.397	-0.05
695.579	0.03
695.761	-0.06
695.943	-0.09
696.125	0.02
696.308	-0.02
696.49	-0.09
696.671	0.15
696.853	-0.02
697.035	0.12
697.217	-0.04
697.399	0
697.581	-0.03
697.763	-0.01
697.945	-0.03
698.127	-0.04
698.309	-0.01
698.491	0
698.672	-0
698.854	0.09
699.036	0.04
699.218	-0.06
699.399	0.04
699.581	0.07
699.763	-0.05
699.945	-0.07
700.126	-0.05
700.308	0.03
700.49	0.02
700.671	-0.04
700.853	-0.07
701.035	-0
701.216	-0.01
701.398	-0.07
701.579	-0.01
701.761	0.05
701.943	-0.01
702.124	-0.05
702.306	-0.06
702.487	0.07
702.669	-0.04
702.85	0.01
703.031	-0.04
703.213	-0
703.394	0.02
703.576	-0.02
703.757	0.07
703.938	0.05
704.12	0.14
704.301	-0.03
704.483	-0.05
704.664	-0.01
704.845	0.08
705.026	0.06
705.208	0.03
705.389	0.02
705.57	-0.02
705.751	-0
705.933	-0.03
706.114	0.06
706.295	0
706.476	-0.12
706.657	0.02
706.838	0.04
707.02	-0
707.201	-0.06
707.382	-0.03
707.563	-0
707.744	-0.06
707.925	-0.1
708.106	-0.03
708.287	0.01
708.468	0.07
708.649	0.03
708.83	0.05
709.011	-0.11
709.192	-0.03
709.373	-0.04
709.554	-0.04
709.734	0
709.915	0.06
710.096	-0.03
710.277	-0.11
710.458	0.04
710.639	0
710.819	-0.1
711	-0.01
711.181	0.1
711.362	-0.02
711.542	-0.02
711.723	-0.01
711.904	-0
712.085	0.06
712.265	0.01
712.446	-0.07
712.627	0.06
712.807	-0
712.988	0.02
713.168	-0.07
713.349	0.04
713.53	-0.14
713.71	-0.11
713.891	-0.06
714.071	-0.02
714.252	-0.02
714.432	-0.03
714.613	-0.09
714.793	0.06
714.974	0.07
715.154	0.02
715.334	0.06
715.515	0.11
715.695	-0.01
715.876	-0.08
716.056	0.02
716.236	-0.01
716.417	-0.02
716.597	0.02
716.777	0.11
716.957	0.08
717.138	0.06
717.318	-0.03
717.498	-0.07
717.678	0.06
717.859	0.07
718.039	-0.07
718.219	0.09
718.399	0.08
718.579	-0.03
718.759	-0.04
718.939	0
719.12	0.06
719.3	0.01
719.48	-0.1
719.66	-0.04
719.84	0.04
720.02	0.05
720.2	-0.03
720.38	-0.01
720.56	0.16
720.74	0.04
720.92	0.06
721.1	0.05
721.279	0.1
721.459	0.01
721.639	-0.11
721.819	0.03
721.999	-0.06
722.179	-0.01
722.359	-0.03
722.538	0.04
722.718	0.11
722.898	0
723.078	-0.08
723.257	-0.02
723.437	0.05
723.617	0.02
723.797	-0.04
723.976	0.09
724.156	0.02
724.336	0.07
724.515	0.21
724.695	-0.04
724.874	-0.04
725.054	0.02
725.234	-0.04
725.413	0.06
725.593	-0.03
725.772	0.04
725.952	-0.02
726.131	0.01
726.311	0.03
726.49	0.05
726.67	-0.04
726.849	0.02
727.028	0.09
727.208	-0.03
727.387	0.01
727.567	-0.05
727.746	0.05
727.925	-0.05
728.105	0.02
728.284	0.06
728.463	0.02
728.643	0.05
728.822	-0.07
729.001	0.02
729.18	0.09
729.359	0.11
729.539	0.03
729.718	0.06
729.897	0.1
730.076	0.01
730.255	-0.05
730.434	0.07
730.614	0.07
730.793	0.07
730.972	-0.07
731.151	0.13
731.33	0.15
731.509	0.06
731.688	0.05
731.867	0.14
732.046	-0.13
732.225	0.25
732.404	0.09
732.583	-0.01
732.762	0.06
732.941	0.12
733.12	0.09
733.298	0.05
733.477	0.09
733.656	0.11
733.835	0.01
734.014	0.19
734.193	0.02
734.371	0.06
734.55	0.18
734.729	-0.18
734.908	0.1
735.086	0.17
735.265	0.15
735.444	-0.01
735.623	0.09
735.801	-0.04
735.98	0.06
736.159	0.03
736.337	0.1
736.516	0.06
736.694	0.08
736.873	0.08
737.052	0.24
737.23	0.24
737.409	0.03
737.587	0.15
737.766	-0.09
737.944	-0.1
738.123	0.18
738.301	0.24
738.479	0.08
738.658	0.13
738.836	-0.12
739.015	0.1
739.193	0.09
739.371	0.04
739.55	0.1
739.728	0.06
739.906	0.09
740.085	0.18
740.263	0.11
740.441	-0.1
740.62	0.23
740.798	0.08
740.976	-0.11
741.154	-0.02
741.332	0.2
741.511	-0.1
741.689	0.14
741.867	0.23
742.045	0.1
742.223	0.08
742.401	-0.03
742.579	-0.07
742.757	0.11
742.935	-0.17
743.114	0.12
743.292	-0.06
743.47	0.01
743.648	0.11
743.826	0.04
744.004	0.03
744.181	0.06
744.359	0.03
744.537	0.08
744.715	0.04
744.893	0.04
745.071	0.01
745.249	-0.1
745.427	0.06
745.605	0.07
745.782	-0.04
745.96	0.1
746.138	0.06
746.316	0.08
746.493	-0.06
746.671	-0.03
746.849	-0
747.027	0.11
747.204	-0.1
747.382	0.07
747.56	-0.1
747.737	0.05
747.915	-0.12
748.093	0.09
748.27	-0.13
748.448	-0.03
748.625	-0.16
748.803	-0.11
748.98	-0.05
749.158	0
749.335	0.14
749.513	0.08
749.69	-0.06
749.868	-0.04
750.045	-0.09
750.223	-0.01
750.4	-0.22
750.578	0.16
750.755	-0.09
750.932	-0.16
751.11	-0
751.287	-0.13
751.464	0.02
751.642	-0.09
751.819	0.07
751.996	-0.01
752.173	-0.02
752.351	-0.08
752.528	0.06
752.705	-0.11
752.882	-0.09
753.06	0.06
753.237	-0
753.414	0.11
753.591	0.11
753.768	0.01
753.945	-0.07
754.122	-0.09
754.299	0.02
754.476	-0.06
754.654	-0.01
754.831	0.05
755.008	0.01
755.185	-0.03
755.362	-0.06
755.539	-0.06
755.716	-0.06
755.892	0
756.069	-0.12
756.246	-0.03
756.423	-0.08
756.6	0.14
756.777	0.06
756.954	0.13
757.131	0.1
757.307	-0.15
757.484	-0.08
757.661	-0.03
757.838	0.13
758.015	-0.16
758.191	-0.05
758.368	-0.02
758.545	0.17
758.721	0.14
758.898	-0.16
759.075	0.05
759.251	0.04
759.428	0.06
759.605	-0.16
759.781	-0.05
759.958	0.12
760.134	-0.08
760.311	-0.05
760.488	0.01
760.664	0.06
760.841	-0.04
761.017	-0.06
761.194	0.04
761.37	0.02
761.547	-0.03
761.723	-0.01
761.899	0.19
762.076	-0.19
762.252	-0.1
762.429	-0.08
762.605	-0.04
762.781	-0.04
762.958	0.07
763.134	-0.1
763.31	-0.04
763.486	0.07
763.663	-0.15
763.839	-0.02
764.015	-0.2
764.191	-0.06
764.368	0.05
764.544	-0.13
764.72	0.07
764.896	0.04
765.072	-0.07
765.248	-0.06
765.425	-0.03
765.601	-0.05
765.777	0.03
765.953	-0.14
766.129	-0.12
766.305	-0.08
766.481	0.09
766.657	-0.06
766.833	0.04
767.009	-0.05
767.185	-0.21
767.361	-0.16
767.537	-0.18
767.713	0.03
767.889	-0.02
768.065	-0.05
768.24	-0.21
768.416	0.01
768.592	-0.14
768.768	-0.06
768.944	0.05
769.12	-0.19
769.295	-0.09
769.471	0.03
769.647	-0.04
769.823	0.1
769.998	-0.03
770.174	-0.08
770.35	0.27
770.525	0.15
770.701	0.09
770.877	0.06
771.052	-0.04
771.228	0
771.403	-0.06
771.579	0.25
771.755	0.1
771.93	-0.09
772.106	-0.06
772.281	-0.24
772.457	0.07
772.632	-0.11
772.808	-0.24
772.983	0.11
773.159	-0.28
773.334	0.12
773.509	-0.02
773.685	-0.15
773.86	0.28
774.036	0.17
774.211	-0.08
774.386	0.02
774.562	-0.07
774.737	0.1
774.912	0.04
775.087	0.07
775.263	0.1
775.438	-0
775.613	-0
775.788	-0.14
775.964	0.06
776.139	0.16
776.314	-0.15
776.489	-0.04
776.664	-0.01
776.839	-0.07
777.014	0.18
777.19	0.16
777.365	0.04
777.54	0.17
777.715	-0.18
777.89	0.06
778.065	0.01
778.24	-0.09
778.415	0.07
778.59	-0.22
778.765	-0.11
778.94	0.02
779.115	-0.04
779.289	-0.07
779.464	-0.01
779.639	-0.03
779.814	-0.14
779.989	-0.19
780.164	0.25
780.339	0.04
780.513	-0.07
780.688	-0.2
780.863	-0.09
781.038	0.12
781.212	-0.2
781.387	0.01
781.562	0.23
781.737	0.18
781.911	0.1
782.086	-0.11
782.261	-0.18
782.435	0.09
782.61	0.05
782.784	-0.06
782.959	0.12
783.134	-0.06
783.308	-0.13
783.483	-0.12
783.657	0.34
783.832	0
784.006	-0.3
784.181	-0.01
784.355	-0.05
784.53	0.02
784.704	-0.02
784.878	0.13
785.053	0.03
785.227	0.12
785.402	0.17
785.576	-0.25
785.75	-0.3
785.925	-0.06
786.099	0.04
786.273	-0.05
786.448	0.28
786.622	0.07
786.796	-0.01
786.97	-0.22
787.145	0.35
787.319	-0.16
787.493	-0.24
787.667	-0.42
787.841	-0.02
788.015	0.17
788.19	-0.29
788.364	-0
788.538	0.13
788.712	0.03
788.886	0.01
789.06	0
789.234	0.01
789.408	-0.31
789.582	0.02
789.756	-0.15
789.93	-0.14
790.104	0.04
790.278	-0.12
790.452	-0.15
790.626	0.19
790.8	-0.1
790.973	0.03
791.147	0.3
791.321	0.27
791.495	0.1
791.669	-0.09
791.843	0.06
792.016	-0.03
792.19	0.28
792.364	-0.28
792.538	0.44
792.711	0.17
792.885	-0.08
793.059	-0.23
793.233	-0.46
793.406	0.16
793.58	-0.18
793.754	-0.06
793.927	-0.1
794.101	0.32
794.274	-0.01
794.448	0.22
794.622	-0.29
794.795	0.37
794.969	-0.18
795.142	0.08
795.316	-0.24
795.489	-0.23
795.663	0.28
795.836	0.03
796.009	-0.08
796.183	0.23
796.356	-0.08
796.53	-0.07
796.703	-0.2
796.876	0.31
797.05	-0.14
797.223	-0.05
797.396	0.05
797.57	-0.04
797.743	0.32
797.916	-0.15
798.09	-0.23
798.263	0.13
798.436	-0.04
798.609	-0.07
798.782	-0.12
798.956	0.11
799.129	0.14
799.302	-0.19
799.475	-0.22
799.648	-0.22
799.821	0.03
799.994	0.11
800.167	-0.14
800.34	0.24
800.514	-0.07
800.687	-0.09
800.86	-0.28
801.033	0.06
801.206	0.02
801.379	-0.17
801.551	-0.06
801.724	-0.01
801.897	0.44
802.07	0.04
802.243	-0.49
802.416	-0.25
802.589	-0.42
802.762	0.15
802.935	0.04
803.107	0.18
803.28	0.33
803.453	0.12
803.626	-0.22
803.798	0
803.971	-0.4
804.144	0.36
804.317	0.28
804.489	0
804.662	0.02
804.835	-0.1
805.007	-0.32
805.18	0.33
805.353	0.14
805.525	-0.22
805.698	-0.43
805.87	-0
806.043	0.39
806.215	-0.29
806.388	-0.45
806.56	0.29
806.733	0.08
806.905	0.2
807.078	0.07
807.25	-0.36
807.423	-0.02
807.595	-0.03
807.768	0.25
807.94	0.09
808.112	0.1
808.285	-0.07
808.457	0.15
808.629	-0.37
808.802	0.4
808.974	-0.17
809.146	-0.49
809.318	-0.37
809.491	0.17
809.663	-0.12
809.835	-0.27
810.007	0.28
810.18	0.25
810.352	-0.68
810.524	0.04
810.696	0.21
810.868	0.42
811.04	0.04
811.212	-0.41
811.384	-0.02
811.556	0.06
811.728	-0.21
811.901	0.51
812.073	-0.37
812.245	0.36
812.417	0.02
812.589	-0.73
812.76	0.1
812.932	0.26
813.104	0.68
813.276	-0.15
813.448	0.49
813.62	-0.15
813.792	0.1
813.964	0.14
814.136	-0.03
814.307	-0.27
814.479	-0.21
814.651	-0.13
814.823	0.52
814.995	-0.13
815.166	0.26
815.338	-0.42
815.51	-0.56
815.681	0.66
815.853	0.21
816.025	-0.24
816.196	1.08
816.368	0.04
816.54	-0.34
816.711	-0.27
816.883	0.18
817.054	0.79
817.226	-0.65
817.398	0.4
817.569	-0.81
817.741	0.28
817.912	-0.22
818.084	0.02
818.255	0.39
818.426	-0.31
818.598	0.11
818.769	-0.08
818.941	-0.15
819.112	0.88
819.283	0.28
819.455	-0.24
819.626	-0.17
819.798	0.08
819.969	0.26
820.14	0.07
820.311	-0.2
820.483	0.26
820.654	0.02
820.825	-0.14
820.996	-0.38
821.168	-0.3
821.339	-0.21
821.51	-0.68
821.681	-0.68
821.852	-0.1
822.023	-0.65
822.195	-1.11
822.366	0.16
822.537	-0.21
822.708	0.04
822.879	-0.54
823.05	0.45
823.221	-0.73
823.392	0.1
823.563	-0.05
823.734	0.08
823.905	-0.48
824.076	-0.46
824.247	-0.62
824.418	-0.43
824.589	0.5
824.759	-0.43
824.93	0.11
825.101	-0.51
825.272	0.42
825.443	0.54
825.614	0.67
825.784	-0.84
825.955	0.91
826.126	0.25
826.297	-0.28
826.467	0.41
826.638	0.85
826.809	-0.76
826.98	-0.16
827.15	0.05
827.321	0.4
827.492	1.22
827.662	-0.32
827.833	0.68
828.003	0.2
828.174	-0.98
828.345	-0.64
828.515	0.04
828.686	0.15
828.856	-0.21
829.027	-0.39
829.197	0.19
829.368	0.46
829.538	-1
829.709	-0.3
829.879	0.26
830.049	0.18
830.22	-0.96
830.39	0.36
830.56	0.51
830.731	-0.02
830.901	-0.82
831.072	-0.35
831.242	0.38
831.412	0.26
831.582	0.18
831.753	-0.52
831.923	0.73
832.093	-0.67
832.263	0.05
832.434	-0.99
832.604	-0.41
832.774	0.88
832.944	-0.09
833.114	-0.35
833.284	0.21
833.454	-0.76
833.624	-0.33
833.795	-1.2
833.965	0.27
834.135	0.62
834.305	-0.84
834.475	-0.66
834.645	0.15
834.815	-0.73
834.985	-0.58
835.155	-0.38
835.325	0.52
835.494	-0.72
835.664	0.02
835.834	-1.09
836.004	0.14
836.174	0.14
836.344	-0.14
836.514	-0.5
836.684	0.06
836.853	-0.05
837.023	-0.01
837.193	-0.24
837.363	0.24
837.532	0.39
837.702	-0.64
837.872	-1.12
838.041	0
838.211	1.3
838.381	-0.74
838.55	-0.19
838.72	1.81
838.89	1.4
839.059	-0.5
839.229	-1.25
839.398	0.81
839.568	-0.69
839.738	-0.01
839.907	0.66
840.077	0.74
840.246	-0.12
840.416	-0.81
840.585	-0.97
840.755	0.62
840.924	1.14
841.093	-0.79
841.263	-0.47
841.432	-0.24
841.602	-0.39
841.771	-0.64
841.94	-0.38
842.11	1.64
842.279	0.69
842.448	-0.76
842.617	-0.61
842.787	1.11
842.956	-1.14
843.125	-0.3
843.294	-0.01
843.464	0.89
843.633	-0.85
843.802	-0.86
843.971	0.24
844.14	-0.08
844.309	-0.17
844.479	-1.52
844.648	-0.37
844.817	0.32
844.986	-0.48
845.155	-0.09
845.324	-0.49
845.493	0.1
845.662	-0.61
845.831	-0.16
846	0.45
846.169	-0.41
846.338	0.38
846.507	-0.6
846.676	0.02
846.844	-0.86
847.013	0.42
847.182	-0.27
847.351	-0.69
847.52	-0.69
847.689	0.29
847.858	0.41
848.026	-0.67
848.195	0.04
848.364	-0.5
848.533	-0.44
848.701	-0.61
848.87	-0.2
849.039	0.27
849.207	0.05
849.376	0.24
849.545	0.85
849.713	-0.47
849.882	-0.08
850.051	-0.31
850.219	-0.39
850.388	1.14
850.556	-1.34
850.725	0.03
850.893	0.34
851.062	-0.52
851.23	1.11
851.399	-0.83
851.567	-0.61
851.736	-0.82
851.904	-1.02
852.073	-0.26
852.241	0.55
852.41	-0.31
852.578	-0.47
852.746	-0.74
852.915	0.84
853.083	-0.02
853.251	-0.86
853.42	-0.77
853.588	0.72
853.756	0.81
853.924	-0.3
854.093	0.12
854.261	-0.7
854.429	-1.12
854.597	0.06
854.765	-1.08
854.934	-0.06
855.102	1.39
855.27	0.1
855.438	0.66
855.606	0.63
855.774	1.64
855.942	-1.69
856.11	-2.45
856.278	-0.22
856.446	0.36
856.614	-0.52
856.782	-0.17
856.95	1.51
857.118	0.04
857.286	-0.64
857.454	-1.56
857.622	0.77
857.79	1.05
857.958	-0.28
858.126	-1.23
858.294	-3.21
858.462	-0.49
858.629	-0.55
858.797	-1.71
858.965	-0.39
859.133	0.01
859.301	0.5
859.468	-0.21
859.636	-0.77
859.804	1.59
859.971	1.56
860.139	-0.02
860.307	-0.01
860.474	0.08
860.642	-0.52
860.81	-0.88
860.977	-0.49
861.145	0.29
861.313	0.04
861.48	0.31
861.648	0.83
861.815	-1.57
861.983	-1.16
862.15	-0.73
862.318	2.1
862.485	0.27
862.653	-2.07
862.82	-0.81
862.988	1.44
863.155	-1.44
863.322	-1.19
863.49	-1.66
863.657	-0.21
863.824	0.6
863.992	-0.3
864.159	0.34
864.326	1.63
864.494	-1.47
864.661	1.22
864.828	-1.49
864.996	1.25
865.163	1.05
865.33	-0.91
865.497	-1.74
865.664	-1.66
865.832	-1.61
865.999	-2.18
866.166	-0.79
866.333	0.02
866.5	-1.83
866.667	1.21
866.834	-1.44
867.001	1.54
867.168	-1.82
867.335	0.45
867.502	-0.82
867.669	0.29
867.836	1.46
868.003	-0.64
868.17	1.12
868.337	0.85
868.504	2.07
868.671	-1.48
868.838	-0.6
869.005	-0.93
869.172	0.87
869.339	-0.34
869.505	0.47
869.672	-0.91
869.839	0.36
870.006	-0.13
870.173	-3.29
870.339	-0.4
870.506	2.69
870.673	-0.62
870.84	1.38
871.006	0.15
871.173	-1.19
871.34	0.39
871.506	0.27
871.673	-0.12
871.839	-2.47
872.006	0.24
872.173	-1.78
872.339	0.09
872.506	1.33
872.672	-1.19
872.839	-2.34
873.005	1.31
873.172	2.74
873.338	1.73
873.505	-0.19
873.671	-0.06
873.838	-0.38
874.004	-2
874.171	-1.2
874.337	0.27
874.503	-0.63
874.67	-0.7
874.836	-0.7
875.002	0.48
875.169	1.42
875.335	0.17
875.501	-0.94
875.668	0.71
875.834	1.09
876	0.35
876.166	1.01
876.332	0.46
876.499	2.07
876.665	-1.8
876.831	-0.24
876.997	2.5
877.163	0.27
877.329	-0.9
877.495	0.74
877.662	0.49
877.828	0.65
877.994	0.05
878.16	-3.08
878.326	-0.36
878.492	0.49
878.658	-2.1
878.824	-0.1
878.99	2.58
879.156	-0.9
879.322	2.83
879.487	-0.21
879.653	0.89
879.819	0.09
879.985	-0.66
880.151	0.4
880.317	-0.33
880.483	-0.16
880.648	1.58
880.814	-3.61
880.98	1.81
881.146	-2.92
881.312	-1
881.477	-0.23
881.643	0.95
881.809	2.25
881.974	0.59
882.14	-2.36
882.306	0.71
882.471	3.29
882.637	-0.55
882.803	1.23
882.968	2.87
883.134	2.22
883.299	-0.55
883.465	-1.5
883.63	-0.32
883.796	0.79
883.961	1.29
884.127	0.25
884.292	-3.79
884.458	-1.24
884.623	-1.24
