Data from Apollo_Calib_20240827__AbsoluteIrradiance__520__07-49-02-777.txt Node

Date: Wed Aug 28 07:49:02 BST 2024
User: biology
Spectrometer: FLMT08252
Trigger mode: 0
Integration Time (sec): 5.000000E-1
Scans to average: 5
Electric dark correction enabled: true
Nonlinearity correction enabled: false
Boxcar width: 0
XAxis mode: Wavelengths
Number of Pixels in Spectrum: 3648
>>>>>Begin Spectral Data<<<<<
179.588	-0
179.809	-0
180.03	-0
180.251	-0
180.473	-0
180.694	0
180.915	0
181.136	-0
181.357	0
181.578	-0
181.799	-0
182.02	-0
182.241	0
182.462	-0
182.683	0
182.904	-0
183.125	0
183.346	0
183.567	0
183.788	-0
184.009	-0
184.23	0
184.451	0
184.672	-0
184.892	-0
185.113	0
185.334	0
185.555	-0
185.776	-0
185.996	0
186.217	0
186.438	0
186.659	-0
186.879	0
187.1	0
187.321	-0
187.541	-0
187.762	-0
187.983	0
188.203	0
188.424	0
188.644	0
188.865	0
189.086	-0
189.306	0
189.527	-0
189.747	0
189.968	-0
190.188	0
190.409	0
190.629	0
190.849	-0
191.07	-0
191.29	0
191.511	0
191.731	-0
191.951	-0
192.172	0
192.392	-0
192.612	-0
192.833	0
193.053	0
193.273	0
193.493	-0
193.714	-0
193.934	0
194.154	0
194.374	-0
194.594	0
194.815	0
195.035	0
195.255	0
195.475	-0
195.695	0
195.915	0
196.135	0
196.355	0
196.575	0
196.795	0
197.015	-0
197.235	-0
197.455	-0
197.675	0
197.895	-0
198.115	-0
198.335	0
198.555	0
198.775	0
198.995	0
199.214	0
199.434	0
199.654	-0
199.874	0
200.094	1.19
200.313	-0.21
200.533	-0.25
200.753	-0.8
200.973	0.89
201.192	1.3
201.412	-0.53
201.632	-0.15
201.851	1.12
202.071	0.04
202.291	0.28
202.51	-0.53
202.73	0.31
202.95	-0.22
203.169	-0.92
203.389	0.18
203.608	0.17
203.828	-0.13
204.047	-0.26
204.267	0.08
204.486	0.49
204.706	-0.12
204.925	-0.21
205.145	-0.09
205.364	0.6
205.583	1.01
205.803	-0.09
206.022	-0.48
206.242	0.28
206.461	0.36
206.68	-0.23
206.9	-0.21
207.119	0.76
207.338	0.53
207.557	-0.36
207.777	0.16
207.996	-0.03
208.215	0.36
208.434	-0.07
208.654	-0.41
208.873	0.03
209.092	0.73
209.311	-0.06
209.53	0.16
209.749	-0.15
209.968	-0.25
210.187	-0.24
210.407	-0.33
210.626	-0.09
210.845	0.33
211.064	0.31
211.283	-0.29
211.502	0.18
211.721	0.29
211.94	0.12
212.159	0.26
212.377	0.2
212.596	0.44
212.815	0.13
213.034	-0
213.253	0.3
213.472	0.14
213.691	-0.03
213.91	-0.2
214.128	0.2
214.347	0.27
214.566	-0.33
214.785	-0.23
215.003	0.15
215.222	0.05
215.441	-0.08
215.66	-0.21
215.878	0.05
216.097	0.26
216.316	-0.16
216.534	-0.04
216.753	0.04
216.972	0.03
217.19	0.17
217.409	-0.07
217.627	0.03
217.846	-0.07
218.064	0.01
218.283	-0.18
218.501	0.5
218.72	0.26
218.938	0.07
219.157	0.02
219.375	0.22
219.594	0.03
219.812	-0.14
220.031	-0.22
220.249	0.36
220.467	0.38
220.686	0.12
220.904	-0.14
221.122	-0.04
221.341	0.32
221.559	0.08
221.777	-0.13
221.995	0.05
222.214	0.16
222.432	-0.14
222.65	0.14
222.868	0.17
223.086	0.07
223.305	0.11
223.523	0.04
223.741	0.2
223.959	-0.11
224.177	-0.18
224.395	-0.03
224.613	0.11
224.831	0.11
225.049	-0.1
225.267	0.05
225.485	0.08
225.703	0.15
225.921	-0.02
226.139	0.02
226.357	0.14
226.575	-0.06
226.793	-0.03
227.011	0.43
227.229	0.16
227.447	0.21
227.665	-0.03
227.883	-0.1
228.1	-0.02
228.318	0.17
228.536	-0.21
228.754	-0.05
228.972	0.1
229.189	0.16
229.407	-0.02
229.625	0.05
229.843	0.28
230.06	0.13
230.278	-0.09
230.496	-0.03
230.713	0.19
230.931	0.26
231.149	-0.04
231.366	-0.09
231.584	-0
231.801	0.37
232.019	-0.02
232.236	-0.18
232.454	0.01
232.671	0.12
232.889	0.04
233.106	-0.24
233.324	0.01
233.541	0.03
233.759	0.01
233.976	-0.09
234.194	-0.05
234.411	0.04
234.628	-0.13
234.846	0.03
235.063	0.02
235.28	0.01
235.498	-0.05
235.715	-0.13
235.932	0.13
236.149	-0.03
236.367	-0.01
236.584	0.03
236.801	-0
237.018	0.12
237.236	0.1
237.453	-0.11
237.67	0.13
237.887	-0.01
238.104	-0.05
238.321	-0.07
238.538	-0.07
238.755	0.16
238.973	-0.05
239.19	-0.01
239.407	-0.02
239.624	0.04
239.841	-0.08
240.058	-0.1
240.275	0.08
240.492	0.02
240.709	-0.03
240.925	-0.01
241.142	-0.03
241.359	-0.08
241.576	-0.12
241.793	-0.01
242.01	0.03
242.227	0.03
242.444	0.11
242.66	0.06
242.877	0.09
243.094	0.03
243.311	0.11
243.527	0.02
243.744	0.04
243.961	0.05
244.178	-0.03
244.394	-0.06
244.611	0.13
244.828	0.17
245.044	-0.04
245.261	0.01
245.477	0.01
245.694	-0.03
245.911	-0
246.127	0.05
246.344	0.09
246.56	0.13
246.777	-0
246.993	0.02
247.21	0.07
247.426	0.1
247.643	-0.04
247.859	0
248.076	0.01
248.292	0.23
248.508	-0.03
248.725	0.09
248.941	0
249.157	0.12
249.374	0
249.59	0.08
249.806	-0.01
250.023	0.08
250.239	-0.08
250.455	0.01
250.671	-0.02
250.888	-0.02
251.104	0.1
251.32	-0.07
251.536	0.03
251.752	-0.03
251.969	0.01
252.185	0.03
252.401	0.23
252.617	-0.01
252.833	-0.01
253.049	0.02
253.265	0.02
253.481	0.04
253.697	0.02
253.913	0.03
254.129	0.02
254.345	-0.02
254.561	-0
254.777	0.01
254.993	0.1
255.209	0.03
255.425	-0.03
255.641	-0
255.857	0.03
256.073	0.05
256.288	-0.13
256.504	-0.02
256.72	-0.04
256.936	0.1
257.152	0
257.367	-0.06
257.583	0.07
257.799	0.09
258.015	-0.03
258.23	-0.05
258.446	0.08
258.662	0.02
258.877	-0.08
259.093	0.03
259.309	0.08
259.524	0.04
259.74	-0.09
259.955	-0.09
260.171	0.04
260.387	0.03
260.602	0.06
260.818	0.09
261.033	-0.06
261.249	-0.03
261.464	0.02
261.68	-0.04
261.895	0.1
262.11	0.08
262.326	0.07
262.541	-0.03
262.757	0.04
262.972	0.07
263.187	0.06
263.403	0.04
263.618	-0.03
263.833	0.04
264.049	0.03
264.264	0.01
264.479	0.09
264.694	0.11
264.91	-0.09
265.125	0.06
265.34	0.07
265.555	0.17
265.77	0.09
265.986	0
266.201	-0.03
266.416	0.18
266.631	-0.03
266.846	0
267.061	0.01
267.276	0.12
267.491	-0.09
267.706	0.01
267.921	0.02
268.136	0.05
268.351	-0.02
268.566	-0.05
268.781	0.16
268.996	0.12
269.211	-0.05
269.426	-0.08
269.641	0.01
269.856	0.08
270.071	0.04
270.285	-0.04
270.5	0.08
270.715	0.05
270.93	-0.01
271.145	0.04
271.359	0.07
271.574	-0.06
271.789	0.01
272.004	-0
272.218	-0.02
272.433	0.12
272.648	-0
272.862	0.09
273.077	-0.03
273.292	-0
273.506	0.02
273.721	0.05
273.936	0.1
274.15	0.1
274.365	0.01
274.579	0.07
274.794	0.1
275.008	0.07
275.223	-0.03
275.437	0.01
275.652	0.03
275.866	0.06
276.081	-0.03
276.295	0.08
276.509	0.04
276.724	0.01
276.938	0
277.153	0.01
277.367	0.08
277.581	0.03
277.796	0
278.01	0.02
278.224	0.07
278.438	0.1
278.653	-0.07
278.867	-0.05
279.081	-0.18
279.295	-0.01
279.51	0.03
279.724	-0.06
279.938	0.05
280.152	0.08
280.366	-0.04
280.58	0.05
280.794	0.05
281.008	0.05
281.222	0.03
281.437	0.09
281.651	0.06
281.865	0.04
282.079	-0.03
282.293	-0.09
282.507	-0.02
282.721	-0.01
282.935	0.05
283.148	-0.06
283.362	0.01
283.576	-0.06
283.79	0.05
284.004	-0
284.218	0.03
284.432	0.01
284.646	0
284.859	-0
285.073	-0.02
285.287	-0.02
285.501	0.02
285.714	0.04
285.928	0.03
286.142	0.02
286.356	-0.03
286.569	-0.01
286.783	0.09
286.997	0.05
287.21	0.07
287.424	0.03
287.637	0.08
287.851	-0
288.065	0.05
288.278	0.01
288.492	-0
288.705	0.02
288.919	0.05
289.132	-0.07
289.346	0.07
289.559	-0.02
289.773	-0.01
289.986	-0
290.2	0.01
290.413	0.08
290.626	-0.01
290.84	0
291.053	0.01
291.267	0.08
291.48	0.05
291.693	0.01
291.906	-0.01
292.12	-0.01
292.333	-0.02
292.546	-0.01
292.76	0.11
292.973	0.02
293.186	0.04
293.399	-0.01
293.612	0.03
293.826	0.02
294.039	-0.01
294.252	-0.01
294.465	0.07
294.678	0.06
294.891	0.06
295.104	-0.03
295.317	-0
295.53	0.01
295.743	0.01
295.956	0.02
296.169	0.07
296.382	0.08
296.595	0.03
296.808	0.01
297.021	0.11
297.234	0.05
297.447	0.04
297.66	0.06
297.873	0.07
298.086	0.07
298.299	0.02
298.511	-0.04
298.724	0.03
298.937	0.04
299.15	0.03
299.363	0.02
299.575	0.04
299.788	0.03
300.001	-0.02
300.213	-0.04
300.426	0
300.639	-0.01
300.852	-0
301.064	0.1
301.277	0.08
301.489	0.07
301.702	0.04
301.915	0.03
302.127	-0.01
302.34	0.05
302.552	0.04
302.765	0.02
302.977	0.08
303.19	-0
303.402	-0
303.615	-0.01
303.827	0.01
304.04	0.05
304.252	0.04
304.464	0.03
304.677	0.16
304.889	0.03
305.102	0.01
305.314	-0.02
305.526	0
305.739	0.02
305.951	0.01
306.163	0.01
306.375	0.08
306.588	0.01
306.8	0.06
307.012	-0.02
307.224	0.04
307.436	0.08
307.649	-0.05
307.861	0.05
308.073	0.07
308.285	0
308.497	-0.03
308.709	0.01
308.921	0.04
309.133	0.06
309.346	0.02
309.558	0.01
309.77	0.06
309.982	0.1
310.194	0.07
310.406	-0.02
310.617	0.08
310.829	0.03
311.041	-0
311.253	-0.01
311.465	0.01
311.677	0.03
311.889	0.03
312.101	0.02
312.313	0.05
312.524	0.07
312.736	-0.03
312.948	0.03
313.16	0.09
313.372	0.08
313.583	0.01
313.795	0.01
314.007	0.01
314.218	0.06
314.43	-0
314.642	0.02
314.853	-0
315.065	-0.01
315.277	0.02
315.488	0.01
315.7	0.07
315.912	0.04
316.123	0.01
316.335	0.01
316.546	0.11
316.758	-0.02
316.969	-0.01
317.181	0.06
317.392	0.04
317.604	0.02
317.815	-0.06
318.026	0.01
318.238	0
318.449	0.03
318.661	-0.03
318.872	-0.02
319.083	-0.04
319.295	0.04
319.506	0.01
319.717	0.06
319.929	0.02
320.14	0.03
320.351	0.01
320.562	0
320.774	-0.01
320.985	0
321.196	-0.04
321.407	-0.03
321.618	0.07
321.829	0.03
322.041	-0
322.252	0.02
322.463	0.04
322.674	0.05
322.885	-0.02
323.096	-0.03
323.307	-0
323.518	0.04
323.729	-0.03
323.94	-0
324.151	-0.03
324.362	0.02
324.573	0.07
324.784	-0.02
324.995	0.07
325.206	0.05
325.417	-0.02
325.628	0.02
325.838	0.01
326.049	0.01
326.26	0.07
326.471	-0
326.682	0.07
326.892	0.05
327.103	-0.05
327.314	-0.06
327.525	0.06
327.735	0.02
327.946	0.01
328.157	-0.02
328.368	0.02
328.578	-0.01
328.789	0.03
328.999	0.02
329.21	-0
329.421	0.07
329.631	-0.01
329.842	-0.03
330.052	0.04
330.263	0.06
330.473	0.04
330.684	0.02
330.894	0.02
331.105	0.02
331.315	-0.01
331.526	-0.05
331.736	0.09
331.947	-0.01
332.157	-0
332.367	-0.03
332.578	0.08
332.788	0.01
332.999	0.04
333.209	0.02
333.419	0
333.629	0.01
333.84	0.04
334.05	0
334.26	0.06
334.47	-0.01
334.681	0.07
334.891	-0.01
335.101	0.06
335.311	0.09
335.521	0.03
335.732	0.01
335.942	0.06
336.152	0.03
336.362	0.05
336.572	0.05
336.782	0.03
336.992	0.01
337.202	0.02
337.412	-0.02
337.622	0.03
337.832	0.02
338.042	0.04
338.252	-0.01
338.462	-0.02
338.672	0.01
338.882	-0.01
339.092	0
339.302	0.08
339.511	0.04
339.721	-0.05
339.931	0
340.141	0.07
340.351	0.03
340.561	0.02
340.77	0.02
340.98	0.03
341.19	0.06
341.4	-0.01
341.609	-0.03
341.819	-0.01
342.029	-0.02
342.238	0.05
342.448	-0.02
342.658	0.04
342.867	0.02
343.077	0.03
343.286	0.01
343.496	-0.02
343.706	0.12
343.915	0
344.125	0.02
344.334	0.07
344.544	-0.03
344.753	-0.01
344.963	-0.01
345.172	-0.03
345.381	-0.03
345.591	-0.02
345.8	0.04
346.01	0.01
346.219	0.08
346.428	-0.11
346.638	0.03
346.847	0.01
347.056	0.06
347.266	-0.02
347.475	-0
347.684	0.03
347.893	0.02
348.103	0.02
348.312	0.04
348.521	0.01
348.73	0.06
348.94	0.05
349.149	-0.03
349.358	-0.01
349.567	0.03
349.776	-0.03
349.985	-0.01
350.194	0.05
350.403	0.08
350.612	-0.03
350.821	0.01
351.03	-0
351.239	-0.04
351.448	-0
351.657	0.01
351.866	0.09
352.075	0.01
352.284	0.07
352.493	-0.05
352.702	0.04
352.911	0.04
353.12	0.03
353.329	-0.01
353.538	0.04
353.746	0
353.955	0.01
354.164	0.01
354.373	0.04
354.582	0.05
354.79	0.04
354.999	0.06
355.208	-0
355.416	0.08
355.625	-0.01
355.834	-0.01
356.042	0.06
356.251	0
356.46	-0.01
356.668	0.03
356.877	0.12
357.085	0.07
357.294	-0.05
357.503	0.03
357.711	-0.02
357.92	0.12
358.128	0.01
358.337	0
358.545	0.05
358.754	-0.03
358.962	0.05
359.17	0.02
359.379	-0.02
359.587	0.04
359.796	0.02
360.004	0.05
360.212	0.03
360.421	0.06
360.629	-0.01
360.837	-0.02
361.046	0.04
361.254	0.1
361.462	0.03
361.67	0.03
361.879	0.01
362.087	0.07
362.295	0.02
362.503	0.01
362.711	-0.02
362.92	-0.01
363.128	0
363.336	-0.03
363.544	-0.05
363.752	-0.01
363.96	-0.03
364.168	0.02
364.376	-0.01
364.584	0.03
364.792	0.04
365	0.03
365.208	-0.01
365.416	0.04
365.624	0.05
365.832	-0.01
366.04	0.05
366.248	0.02
366.456	0.02
366.664	0.02
366.872	0.04
367.079	0.03
367.287	0.03
367.495	0.05
367.703	0.02
367.911	0.01
368.118	0
368.326	0.03
368.534	-0.02
368.742	0.07
368.949	-0.03
369.157	-0.03
369.365	0.06
369.572	-0.01
369.78	-0.03
369.988	0.05
370.195	0.03
370.403	0.02
370.61	-0.02
370.818	0.03
371.026	0.06
371.233	-0.02
371.441	0.03
371.648	0.04
371.856	0.02
372.063	0.05
372.271	0
372.478	-0.02
372.685	-0
372.893	0.02
373.1	0.02
373.308	-0.04
373.515	0.06
373.722	0.04
373.93	0.02
374.137	0.06
374.344	0.1
374.552	0.07
374.759	0.08
374.966	0.03
375.173	-0.01
375.381	0.06
375.588	0.02
375.795	-0.05
376.002	-0.01
376.209	-0.03
376.417	0.04
376.624	0.02
376.831	0.04
377.038	-0.01
377.245	-0.05
377.452	0.01
377.659	0.02
377.866	-0.05
378.073	-0.01
378.28	0.02
378.487	0.05
378.694	0.02
378.901	0.03
379.108	0.02
379.315	0.03
379.522	0.08
379.729	0.01
379.936	0
380.143	0.03
380.35	0.02
380.557	0
380.763	0.03
380.97	-0.01
381.177	0.05
381.384	0.02
381.591	0.01
381.797	0
382.004	0.05
382.211	0.05
382.418	0.01
382.624	0.05
382.831	0.05
383.038	-0.02
383.244	0.04
383.451	0.02
383.658	0.04
383.864	-0
384.071	0
384.277	0.07
384.484	0.02
384.69	0.01
384.897	-0
385.103	-0.06
385.31	-0.03
385.516	-0.01
385.723	-0.01
385.929	-0.04
386.136	-0.02
386.342	0.03
386.549	-0
386.755	0.07
386.961	0.01
387.168	0.02
387.374	0.04
387.58	0.02
387.787	0.02
387.993	0.04
388.199	0.04
388.406	-0.01
388.612	0
388.818	0.02
389.024	-0.01
389.231	0.02
389.437	0.06
389.643	0.08
389.849	0.03
390.055	0.01
390.261	0.05
390.467	0.04
390.674	0
390.88	-0.01
391.086	0.07
391.292	-0.02
391.498	0.04
391.704	0.05
391.91	-0.01
392.116	0
392.322	-0.07
392.528	0.02
392.734	0.02
392.94	0.03
393.146	0.02
393.352	0.01
393.557	0.01
393.763	-0
393.969	-0.01
394.175	0.03
394.381	-0
394.587	-0
394.792	0
394.998	0.06
395.204	0.08
395.41	-0.03
395.615	0
395.821	0.03
396.027	0.03
396.233	-0.02
396.438	0.05
396.644	0.06
396.85	0.01
397.055	0
397.261	0.02
397.466	0.11
397.672	0.01
397.878	0.03
398.083	0.03
398.289	0.03
398.494	0.02
398.7	0.04
398.905	-0.05
399.111	0.11
399.316	-0.02
399.522	0.01
399.727	0.03
399.932	-0.02
400.138	0.02
400.343	0.04
400.549	0.05
400.754	0.01
400.959	0.08
401.165	0.04
401.37	0.03
401.575	0.07
401.78	0.01
401.986	-0.03
402.191	0
402.396	0.01
402.601	-0
402.807	0.02
403.012	0.02
403.217	0.05
403.422	-0.02
403.627	0
403.832	-0.02
404.037	0.04
404.243	0.07
404.448	-0.04
404.653	0
404.858	0.05
405.063	0.07
405.268	-0.06
405.473	0.01
405.678	-0.01
405.883	0.12
406.088	0
406.293	-0.06
406.498	-0.02
406.703	0.07
406.907	0.01
407.112	-0.02
407.317	0.04
407.522	0.05
407.727	-0.05
407.932	0.03
408.136	0.07
408.341	0.01
408.546	-0.01
408.751	0.05
408.956	-0.02
409.16	0.03
409.365	-0
409.57	-0.01
409.774	0.01
409.979	0.09
410.184	0.02
410.388	-0.01
410.593	0.1
410.798	0.01
411.002	-0.02
411.207	0.03
411.411	0.03
411.616	-0.01
411.82	-0.01
412.025	0.05
412.229	-0.01
412.434	0.04
412.638	0.05
412.843	-0.01
413.047	0.04
413.252	-0.02
413.456	-0
413.66	0.04
413.865	0.01
414.069	0.06
414.273	-0.01
414.478	-0.01
414.682	-0.03
414.886	-0.02
415.091	-0.04
415.295	-0.05
415.499	0.03
415.703	-0.01
415.908	0.02
416.112	-0.1
416.316	0.03
416.52	0.04
416.724	-0.06
416.929	-0
417.133	0.09
417.337	-0.02
417.541	0.01
417.745	-0.02
417.949	0.02
418.153	0.05
418.357	-0.01
418.561	0.04
418.765	-0.03
418.969	0.11
419.173	0.04
419.377	0.02
419.581	0.05
419.785	0.03
419.989	-0.08
420.193	-0.01
420.397	-0.01
420.601	0.07
420.804	0.09
421.008	0.03
421.212	-0.03
421.416	0.01
421.62	-0.01
421.823	0.03
422.027	0.09
422.231	0.08
422.435	0.04
422.638	0.02
422.842	0.06
423.046	-0.01
423.249	-0.01
423.453	0.07
423.657	0.07
423.86	-0.01
424.064	-0.03
424.268	0.07
424.471	0.03
424.675	0.08
424.878	0.05
425.082	0
425.285	0.02
425.489	0.04
425.692	0.02
425.896	-0
426.099	0.03
426.303	-0.01
426.506	-0.08
426.71	0.02
426.913	0.08
427.116	0.06
427.32	0.02
427.523	0.01
427.726	0.1
427.93	-0.02
428.133	-0
428.336	-0.01
428.54	-0.05
428.743	0.04
428.946	0.04
429.149	-0.03
429.353	0.05
429.556	-0.05
429.759	-0.01
429.962	-0.03
430.165	0.04
430.368	0
430.571	-0.01
430.775	0
430.978	0.03
431.181	0.03
431.384	0.06
431.587	0.05
431.79	-0.03
431.993	-0.06
432.196	0.01
432.399	0.03
432.602	0.06
432.805	0.01
433.008	0.01
433.211	-0.04
433.414	0.01
433.616	0.03
433.819	0
434.022	-0.08
434.225	0.04
434.428	0.04
434.631	0.11
434.833	-0.01
435.036	0.02
435.239	0.09
435.442	0.03
435.645	-0.02
435.847	-0.02
436.05	0.07
436.253	0.06
436.455	-0.02
436.658	0.01
436.861	0.05
437.063	0.04
437.266	-0.05
437.468	0.05
437.671	0.14
437.874	0.02
438.076	-0.06
438.279	-0.07
438.481	0.03
438.684	0.01
438.886	-0.02
439.089	-0.07
439.291	-0.03
439.494	0.04
439.696	0
439.899	-0.03
440.101	0.04
440.303	-0.03
440.506	0.07
440.708	-0
440.91	0.02
441.113	-0.07
441.315	0.05
441.517	-0.04
441.72	0.02
441.922	-0.02
442.124	-0.07
442.326	0.03
442.529	0.05
442.731	-0.03
442.933	0.1
443.135	-0.01
443.337	0.01
443.539	-0.01
443.742	-0.02
443.944	-0
444.146	-0.01
444.348	0
444.55	0.01
444.752	0.04
444.954	-0.07
445.156	-0
445.358	-0.01
445.56	0.05
445.762	-0.03
445.964	-0.02
446.166	0.02
446.368	-0.01
446.57	0.07
446.772	0.04
446.974	-0.04
447.175	0.05
447.377	-0.01
447.579	-0.03
447.781	-0.07
447.983	0.04
448.184	-0
448.386	-0.01
448.588	-0.06
448.79	-0.01
448.991	0
449.193	-0.03
449.395	0.04
449.597	0.03
449.798	0.01
450	0.05
450.202	0.01
450.403	-0.02
450.605	0.07
450.806	0.01
451.008	-0.1
451.21	0.02
451.411	0.02
451.613	0.01
451.814	0.01
452.016	0.07
452.217	0.01
452.419	0.04
452.62	-0.04
452.821	0.04
453.023	0.07
453.224	0.07
453.426	-0.01
453.627	0.03
453.828	0.06
454.03	-0
454.231	0.04
454.432	0
454.634	0.09
454.835	-0.02
455.036	-0.04
455.238	0.09
455.439	0.1
455.64	-0.05
455.841	-0.02
456.042	0.09
456.244	0.02
456.445	-0.01
456.646	-0.06
456.847	-0.01
457.048	0.06
457.249	0.06
457.45	0.2
457.651	-0.03
457.852	0
458.054	0.04
458.255	0.02
458.456	0.06
458.657	0.05
458.858	-0.03
459.058	0.04
459.259	0.07
459.46	-0.02
459.661	-0.03
459.862	0.08
460.063	0.02
460.264	0.1
460.465	-0.02
460.666	0.08
460.866	-0.01
461.067	-0
461.268	-0
461.469	0.03
461.67	-0.03
461.87	-0.02
462.071	-0.02
462.272	-0.05
462.473	0.01
462.673	0.02
462.874	-0.02
463.075	-0.01
463.275	-0.06
463.476	0.02
463.676	0.03
463.877	0.01
464.078	0.01
464.278	0.03
464.479	-0.05
464.679	-0.03
464.88	-0.01
465.08	0.08
465.281	-0.03
465.481	-0.02
465.682	-0.03
465.882	0.05
466.083	0
466.283	0
466.483	0.01
466.684	-0.06
466.884	-0.03
467.085	0.02
467.285	0.07
467.485	-0.07
467.686	-0.02
467.886	-0
468.086	0.02
468.286	0.02
468.487	0.01
468.687	-0.04
468.887	0.02
469.087	0.04
469.287	-0.02
469.488	-0.05
469.688	0.03
469.888	0.05
470.088	0.05
470.288	0.1
470.488	0.03
470.688	-0.02
470.888	0
471.088	-0
471.288	0.08
471.488	0.06
471.688	0.03
471.888	-0.04
472.088	0.07
472.288	0.05
472.488	-0.02
472.688	-0
472.888	0.02
473.088	-0
473.288	0.02
473.488	0.01
473.688	0.08
473.887	0.01
474.087	-0.01
474.287	0.02
474.487	0.01
474.687	0.01
474.886	0.03
475.086	0.02
475.286	-0.01
475.486	0.02
475.685	0.01
475.885	0.01
476.085	-0.03
476.284	0
476.484	0
476.684	0.05
476.883	0.09
477.083	0.05
477.282	0.01
477.482	0.07
477.681	0.03
477.881	0.02
478.08	-0.01
478.28	-0.01
478.479	0.02
478.679	0.07
478.878	0
479.078	-0.01
479.277	-0.02
479.477	0.02
479.676	0.07
479.875	0.01
480.075	-0.07
480.274	0.03
480.473	0.06
480.673	-0.02
480.872	0.05
481.071	0.03
481.271	0.01
481.47	-0.02
481.669	0.03
481.868	-0
482.067	0
482.267	-0.02
482.466	0.01
482.665	-0.02
482.864	-0.03
483.063	-0.01
483.262	0.02
483.461	0.04
483.661	0.08
483.86	0.03
484.059	-0.01
484.258	0.02
484.457	0.05
484.656	0.01
484.855	0.06
485.054	-0.03
485.253	-0.01
485.452	-0.01
485.651	-0.01
485.849	-0.01
486.048	0
486.247	-0
486.446	-0.02
486.645	-0.02
486.844	-0.01
487.043	-0
487.241	0.05
487.44	-0.04
487.639	0
487.838	0.05
488.037	0.02
488.235	0.06
488.434	0.02
488.633	-0.03
488.831	0.02
489.03	0.05
489.229	0.01
489.427	0.02
489.626	0.04
489.825	0.07
490.023	0.01
490.222	0.01
490.42	0.01
490.619	0.04
490.817	0.01
491.016	0.01
491.214	0.05
491.413	0.01
491.611	-0.01
491.81	0.02
492.008	0.03
492.207	0.02
492.405	0.01
492.604	-0.01
492.802	0.01
493	0.01
493.199	0.01
493.397	0
493.595	0.01
493.794	-0.01
493.992	0.03
494.19	0
494.388	0.03
494.587	0.01
494.785	0.02
494.983	-0.02
495.181	0.01
495.379	0.02
495.578	0.02
495.776	0.01
495.974	0.02
496.172	0
496.37	0.01
496.568	-0.01
496.766	-0.01
496.964	0.05
497.162	0.01
497.36	-0.04
497.558	0
497.756	0.03
497.954	0.02
498.152	-0
498.35	0.01
498.548	0
498.746	-0
498.944	-0.02
499.142	-0
499.34	-0.03
499.538	0.02
499.736	-0.01
499.933	0.03
500.131	0.06
500.329	0.02
500.527	0.03
500.725	0.03
500.922	0.01
501.12	0.01
501.318	0.02
501.516	-0.01
501.713	0.01
501.911	-0
502.109	-0.02
502.306	0.01
502.504	-0.02
502.701	-0.01
502.899	-0
503.097	0.05
503.294	0.02
503.492	-0
503.689	0.03
503.887	0.02
504.084	0.04
504.282	0.02
504.479	-0.05
504.677	0.02
504.874	-0.01
505.072	0.01
505.269	-0.01
505.466	0.01
505.664	0.02
505.861	-0.02
506.059	-0.02
506.256	0.02
506.453	-0.03
506.651	0.05
506.848	0.04
507.045	0.02
507.242	-0.01
507.44	-0
507.637	-0.02
507.834	0.01
508.031	0.02
508.229	0.01
508.426	0
508.623	0.02
508.82	-0.02
509.017	0
509.214	0.01
509.411	0
509.608	-0.04
509.805	-0
510.003	0
510.2	-0.01
510.397	0.03
510.594	-0.01
510.791	-0.01
510.988	-0
511.184	0.03
511.381	0.02
511.578	-0.02
511.775	0.03
511.972	0.01
512.169	0.02
512.366	-0.01
512.563	0.03
512.76	-0.03
512.956	-0.01
513.153	0.01
513.35	0.03
513.547	-0
513.744	0.01
513.94	-0.02
514.137	-0
514.334	-0
514.53	0.02
514.727	0.01
514.924	0.08
515.12	-0.01
515.317	-0.02
515.514	0
515.71	-0.04
515.907	-0.01
516.103	0
516.3	0.02
516.497	0.04
516.693	0.02
516.89	-0
517.086	-0.01
517.283	0.02
517.479	0.01
517.676	-0
517.872	-0
518.068	-0.02
518.265	0.01
518.461	0
518.658	-0.01
518.854	0.02
519.05	-0.01
519.247	-0.01
519.443	0.02
519.639	0.02
519.836	0
520.032	0.02
520.228	0.02
520.424	0.05
520.621	0.03
520.817	-0.02
521.013	0.01
521.209	0
521.405	0.05
521.601	0.01
521.798	0.02
521.994	0.05
522.19	-0.02
522.386	-0.02
522.582	0.02
522.778	0.01
522.974	-0.01
523.17	0.03
523.366	0
523.562	0.03
523.758	-0
523.954	-0
524.15	-0
524.346	0.02
524.542	0.01
524.738	-0.01
524.934	0.01
525.129	-0.07
525.325	0.02
525.521	-0
525.717	0.03
525.913	0.01
526.109	0
526.304	0.01
526.5	0.02
526.696	0.02
526.892	0.01
527.087	0
527.283	-0.03
527.479	0.02
527.674	-0
527.87	-0
528.066	0
528.261	0.02
528.457	0.01
528.653	-0.03
528.848	-0
529.044	0.02
529.239	-0.01
529.435	0.04
529.63	0.02
529.826	0.05
530.021	0
530.217	0.03
530.412	-0.01
530.608	-0.02
530.803	0
530.999	0.01
531.194	-0.01
531.389	0.02
531.585	-0.03
531.78	0.01
531.975	0.02
532.171	0.02
532.366	0.02
532.561	0.02
532.757	0
532.952	-0.01
533.147	0.01
533.342	-0
533.538	0.01
533.733	0.02
533.928	-0
534.123	-0.01
534.318	-0.02
534.513	0.02
534.709	0.01
534.904	-0
535.099	0
535.294	-0.01
535.489	0.02
535.684	-0
535.879	-0.01
536.074	0
536.269	-0
536.464	0.02
536.659	0.02
536.854	-0.02
537.049	-0
537.244	0.01
537.439	0
537.634	0.05
537.828	0
538.023	-0.01
538.218	-0
538.413	0.02
538.608	-0.02
538.803	0.03
538.997	-0.03
539.192	0.02
539.387	0.02
539.582	0.04
539.776	0.02
539.971	-0
540.166	-0
540.36	-0.02
540.555	0.01
540.75	0
540.944	0.02
541.139	-0.02
541.334	0.01
541.528	0.02
541.723	0.02
541.917	-0.01
542.112	-0.05
542.306	-0.01
542.501	-0
542.695	0.03
542.89	-0
543.084	0.01
543.279	-0.01
543.473	0.01
543.668	0.01
543.862	0
544.056	0.03
544.251	-0.01
544.445	0
544.64	-0
544.834	-0.02
545.028	0.03
545.222	0.02
545.417	0.02
545.611	-0.01
545.805	0
546	-0.01
546.194	-0.01
546.388	-0.01
546.582	0.02
546.776	0.01
546.97	0.02
547.165	0.02
547.359	0.02
547.553	0
547.747	0.02
547.941	0.01
548.135	-0.01
548.329	0.04
548.523	0.02
548.717	0.01
548.911	-0.01
549.105	0
549.299	0.03
549.493	0.05
549.687	0.02
549.881	0.05
550.075	0.01
550.269	-0.01
550.463	0.03
550.657	-0.01
550.85	0.03
551.044	0
551.238	0.02
551.432	0.02
551.626	-0.02
551.82	0.04
552.013	-0
552.207	0.02
552.401	0.01
552.594	0.02
552.788	0.03
552.982	0.01
553.176	-0
553.369	0.03
553.563	0.01
553.756	-0.04
553.95	-0
554.144	0
554.337	0.04
554.531	0.03
554.724	0.01
554.918	-0.01
555.111	0.02
555.305	-0
555.498	0.07
555.692	0.02
555.885	-0.02
556.079	-0.01
556.272	-0.01
556.466	0.03
556.659	0.01
556.852	-0.01
557.046	0.01
557.239	0.05
557.432	-0.03
557.626	0.01
557.819	0.03
558.012	0.02
558.206	0.03
558.399	0
558.592	0.02
558.785	0
558.979	0.04
559.172	0.01
559.365	0.01
559.558	0.03
559.751	0.01
559.944	0.04
560.138	0.01
560.331	-0
560.524	-0.01
560.717	0.04
560.91	0.02
561.103	0.04
561.296	-0
561.489	0.02
561.682	0.01
561.875	0.06
562.068	0
562.261	0.03
562.454	0.04
562.647	0.04
562.84	0.02
563.032	0.02
563.225	0.02
563.418	0.01
563.611	0.02
563.804	0.03
563.997	-0.01
564.19	0.01
564.382	-0.04
564.575	0.02
564.768	0.01
564.961	0.01
565.153	0.02
565.346	0.04
565.539	0.05
565.731	0.03
565.924	0.03
566.117	0.03
566.309	0.02
566.502	-0.01
566.695	0.01
566.887	0.03
567.08	0.01
567.272	0.02
567.465	-0.01
567.657	0.04
567.85	0.04
568.042	0.05
568.235	0.04
568.427	0.02
568.62	0.04
568.812	0.04
569.005	0.03
569.197	0
569.389	0.03
569.582	0.05
569.774	0.05
569.966	0
570.159	-0.01
570.351	0.08
570.543	0.03
570.736	0.05
570.928	-0
571.12	0.06
571.312	0.01
571.505	0.01
571.697	0.06
571.889	0.01
572.081	0.05
572.273	0.02
572.465	0.08
572.658	0.01
572.85	0.05
573.042	0.03
573.234	0.01
573.426	0.08
573.618	-0.01
573.81	0.05
574.002	0.08
574.194	0.1
574.386	0
574.578	-0.02
574.77	0.02
574.962	0.04
575.154	0.01
575.346	0.03
575.538	0.06
575.729	0.04
575.921	0.02
576.113	0.04
576.305	0.07
576.497	0.04
576.689	0.06
576.88	0.03
577.072	0.07
577.264	0.02
577.456	0.07
577.647	0
577.839	0.07
578.031	0.08
578.223	0.03
578.414	0.02
578.606	0.06
578.798	0.05
578.989	0.05
579.181	0.04
579.372	0.06
579.564	0.04
579.755	0.08
579.947	0.09
580.139	0.1
580.33	0.03
580.522	0.04
580.713	0.01
580.905	0.07
581.096	0.09
581.287	0.08
581.479	0.08
581.67	0.09
581.862	0.09
582.053	0.07
582.244	0.05
582.436	0.08
582.627	0.07
582.818	0.08
583.01	0.05
583.201	0.11
583.392	0.11
583.583	0.12
583.775	0.09
583.966	0.09
584.157	0.09
584.348	0.1
584.54	0.07
584.731	0.13
584.922	0.12
585.113	0.1
585.304	0.14
585.495	0.17
585.686	0.14
585.877	0.16
586.068	0.18
586.259	0.16
586.45	0.14
586.641	0.14
586.832	0.11
587.023	0.14
587.214	0.15
587.405	0.15
587.596	0.12
587.787	0.22
587.978	0.15
588.169	0.17
588.36	0.18
588.551	0.19
588.742	0.15
588.932	0.2
589.123	0.19
589.314	0.2
589.505	0.23
589.696	0.19
589.886	0.19
590.077	0.18
590.268	0.23
590.458	0.18
590.649	0.19
590.84	0.23
591.03	0.19
591.221	0.22
591.412	0.21
591.602	0.26
591.793	0.27
591.984	0.23
592.174	0.23
592.365	0.32
592.555	0.27
592.746	0.29
592.936	0.28
593.127	0.3
593.317	0.32
593.508	0.3
593.698	0.3
593.889	0.33
594.079	0.33
594.269	0.31
594.46	0.32
594.65	0.31
594.84	0.36
595.031	0.33
595.221	0.34
595.411	0.31
595.602	0.37
595.792	0.38
595.982	0.36
596.172	0.45
596.363	0.4
596.553	0.43
596.743	0.42
596.933	0.41
597.123	0.45
597.314	0.42
597.504	0.41
597.694	0.5
597.884	0.48
598.074	0.47
598.264	0.47
598.454	0.5
598.644	0.5
598.834	0.5
599.024	0.45
599.214	0.51
599.404	0.55
599.594	0.53
599.784	0.53
599.974	0.6
600.164	0.61
600.354	0.54
600.544	0.54
600.734	0.6
600.924	0.64
601.114	0.64
601.303	0.63
601.493	0.66
601.683	0.66
601.873	0.68
602.063	0.63
602.252	0.69
602.442	0.65
602.632	0.71
602.821	0.68
603.011	0.76
603.201	0.73
603.39	0.75
603.58	0.73
603.77	0.8
603.959	0.83
604.149	0.8
604.339	0.82
604.528	0.91
604.718	0.91
604.907	0.89
605.097	0.85
605.286	0.87
605.476	0.95
605.665	0.99
605.855	0.95
606.044	1
606.234	0.99
606.423	0.98
606.612	1.01
606.802	1.03
606.991	1.09
607.181	1.1
607.37	1.08
607.559	1.09
607.749	1.1
607.938	1.13
608.127	1.14
608.316	1.16
608.506	1.17
608.695	1.23
608.884	1.19
609.073	1.29
609.263	1.31
609.452	1.35
609.641	1.29
609.83	1.32
610.019	1.35
610.208	1.33
610.397	1.37
610.586	1.43
610.775	1.42
610.965	1.46
611.154	1.46
611.343	1.53
611.532	1.52
611.721	1.55
611.91	1.59
612.099	1.58
612.287	1.62
612.476	1.62
612.665	1.75
612.854	1.72
613.043	1.77
613.232	1.77
613.421	1.78
613.61	1.85
613.798	1.86
613.987	1.92
614.176	1.91
614.365	1.95
614.554	1.96
614.742	2.07
614.931	2.01
615.12	2.13
615.309	2.13
615.497	2.13
615.686	2.13
615.875	2.24
616.063	2.26
616.252	2.28
616.44	2.35
616.629	2.4
616.818	2.41
617.006	2.46
617.195	2.48
617.383	2.54
617.572	2.56
617.76	2.65
617.949	2.67
618.137	2.76
618.326	2.8
618.514	2.75
618.703	2.78
618.891	2.99
619.079	2.92
619.268	3.04
619.456	3.03
619.644	3.16
619.833	3.08
620.021	3.22
620.209	3.2
620.398	3.3
620.586	3.31
620.774	3.48
620.962	3.46
621.151	3.6
621.339	3.56
621.527	3.62
621.715	3.61
621.903	3.73
622.092	3.7
622.28	3.88
622.468	3.8
622.656	3.87
622.844	3.92
623.032	4.07
623.22	4.03
623.408	4.25
623.596	4.18
623.784	4.33
623.972	4.27
624.16	4.3
624.348	4.41
624.536	4.47
624.724	4.45
624.912	4.51
625.1	4.57
625.288	4.62
625.476	4.63
625.664	4.8
625.851	4.75
626.039	4.78
626.227	4.76
626.415	4.82
626.603	4.75
626.79	4.88
626.978	4.97
627.166	4.95
627.354	4.9
627.541	4.95
627.729	4.9
627.917	5.04
628.104	5.03
628.292	5.02
628.48	5.09
628.667	5
628.855	5.08
629.042	5.15
629.23	5.07
629.418	5.07
629.605	5.07
629.793	4.96
629.98	4.99
630.168	4.9
630.355	4.98
630.543	4.94
630.73	4.8
630.917	4.8
631.105	4.87
631.292	4.75
631.48	4.69
631.667	4.72
631.854	4.57
632.042	4.56
632.229	4.47
632.416	4.46
632.604	4.38
632.791	4.16
632.978	4.21
633.165	4.1
633.353	4.1
633.54	4.02
633.727	3.86
633.914	3.8
634.101	3.66
634.289	3.72
634.476	3.53
634.663	3.43
634.85	3.39
635.037	3.25
635.224	3.16
635.411	3.2
635.598	2.99
635.785	2.96
635.972	2.87
636.159	2.76
636.346	2.66
636.533	2.57
636.72	2.53
636.907	2.46
637.094	2.38
637.281	2.17
637.468	2.21
637.655	2.17
637.842	2.09
638.029	2.03
638.215	1.98
638.402	1.9
638.589	1.78
638.776	1.75
638.963	1.66
639.149	1.68
639.336	1.63
639.523	1.51
639.709	1.49
639.896	1.41
640.083	1.38
640.27	1.39
640.456	1.27
640.643	1.22
640.829	1.16
641.016	1.15
641.203	1.09
641.389	1.14
641.576	1.04
641.762	1.01
641.949	0.95
642.135	0.96
642.322	0.96
642.508	0.87
642.695	0.84
642.881	0.8
643.068	0.77
643.254	0.77
643.441	0.79
643.627	0.75
643.813	0.69
644	0.71
644.186	0.64
644.372	0.61
644.559	0.68
644.745	0.61
644.931	0.57
645.118	0.56
645.304	0.56
645.49	0.51
645.676	0.49
645.862	0.51
646.049	0.5
646.235	0.47
646.421	0.5
646.607	0.5
646.793	0.4
646.979	0.37
647.165	0.43
647.352	0.37
647.538	0.39
647.724	0.33
647.91	0.36
648.096	0.35
648.282	0.33
648.468	0.32
648.654	0.32
648.84	0.3
649.026	0.31
649.212	0.32
649.397	0.24
649.583	0.21
649.769	0.28
649.955	0.25
650.141	0.27
650.327	0.27
650.513	0.21
650.698	0.23
650.884	0.17
651.07	0.25
651.256	0.2
651.442	0.19
651.627	0.18
651.813	0.2
651.999	0.18
652.184	0.2
652.37	0.19
652.556	0.15
652.741	0.21
652.927	0.09
653.113	0.15
653.298	0.13
653.484	0.15
653.669	0.12
653.855	0.15
654.04	0.15
654.226	0.18
654.412	0.12
654.597	0.08
654.782	0.12
654.968	0.13
655.153	0.12
655.339	0.13
655.524	0.09
655.71	0.12
655.895	0.12
656.08	0.08
656.266	0.17
656.451	0.12
656.636	0.09
656.822	0.1
657.007	0.05
657.192	0.07
657.378	0.04
657.563	0.09
657.748	0.14
657.933	0.1
658.118	0.07
658.304	0.03
658.489	0.1
658.674	0.08
658.859	0.03
659.044	0.1
659.229	0.09
659.414	0.03
659.599	0.11
659.785	-0
659.97	0.08
660.155	0.07
660.34	0.07
660.525	0.09
660.71	0.04
660.895	0.1
661.08	0.07
661.264	0.03
661.449	0.1
661.634	0.08
661.819	0.09
662.004	0.1
662.189	0.01
662.374	0.02
662.559	0.01
662.743	-0.02
662.928	0.04
663.113	0.04
663.298	-0.02
663.483	0.03
663.667	0.06
663.852	0.01
664.037	0.09
664.221	0.01
664.406	0.08
664.591	0.09
664.775	0.05
664.96	0.08
665.145	0.07
665.329	0.06
665.514	0.04
665.698	0.05
665.883	0.02
666.068	0.09
666.252	0.02
666.437	-0.01
666.621	0.08
666.806	0.07
666.99	0.05
667.174	0.03
667.359	0.08
667.543	0
667.728	0.02
667.912	-0.03
668.096	0.04
668.281	-0
668.465	0.03
668.649	0.02
668.834	-0
669.018	0.05
669.202	0.02
669.387	0.03
669.571	0.06
669.755	0.02
669.939	0.04
670.124	0.05
670.308	0.09
670.492	0.05
670.676	0.02
670.86	0.03
671.044	0
671.228	0.05
671.413	-0.02
671.597	0.01
671.781	-0.01
671.965	0.09
672.149	0.01
672.333	0.05
672.517	-0.04
672.701	0.07
672.885	0.01
673.069	-0.01
673.253	0.08
673.437	0
673.621	0.01
673.804	0.03
673.988	0.03
674.172	0.04
674.356	-0.05
674.54	0.02
674.724	0.08
674.908	0.02
675.091	0.02
675.275	0.03
675.459	0.04
675.643	0.04
675.826	0.03
676.01	0.04
676.194	0.02
676.377	0.08
676.561	0.04
676.745	0.05
676.928	0.07
677.112	0.06
677.296	0.01
677.479	0.04
677.663	0.02
677.846	0.03
678.03	0
678.213	0.02
678.397	0.01
678.58	0.02
678.764	-0.03
678.947	-0.01
679.131	-0.03
679.314	0.05
679.498	-0
679.681	0.05
679.865	0.14
680.048	0.02
680.231	0.01
680.415	0.03
680.598	0.02
680.781	0.02
680.965	0
681.148	0.02
681.331	0.03
681.514	0.04
681.698	0.03
681.881	0.06
682.064	-0
682.247	0.03
682.43	-0.07
682.614	0.08
682.797	0.03
682.98	0.08
683.163	-0.05
683.346	0.05
683.529	-0.02
683.712	0.01
683.895	0.02
684.078	-0.02
684.261	-0.02
684.444	0
684.627	0.05
684.81	0.02
684.993	0.04
685.176	0.03
685.359	-0
685.542	-0.01
685.725	0.1
685.908	0.06
686.091	0.01
686.274	0.09
686.457	0.02
686.639	0.06
686.822	0.06
687.005	0.05
687.188	0.09
687.371	0.07
687.553	0.02
687.736	0.03
687.919	0.13
688.102	0.08
688.284	0
688.467	0.02
688.65	-0.02
688.832	-0.02
689.015	0.01
689.197	-0.07
689.38	0.1
689.563	0.1
689.745	-0.02
689.928	-0.02
690.11	0.01
690.293	0.01
690.475	-0.01
690.658	0.04
690.84	0.06
691.023	0
691.205	-0.06
691.388	-0.02
691.57	0.05
691.752	0.03
691.935	-0.05
692.117	-0.01
692.3	0.02
692.482	0.01
692.664	0.05
692.847	0.03
693.029	0.07
693.211	0.01
693.393	0
693.576	0
693.758	0.05
693.94	0.02
694.122	-0.01
694.304	0.03
694.487	0.01
694.669	0.07
694.851	-0.03
695.033	0.09
695.215	0.02
695.397	-0.03
695.579	0.06
695.761	-0
695.943	-0.06
696.125	0.04
696.308	0.03
696.49	-0.12
696.671	0.14
696.853	0
697.035	0.13
697.217	0.05
697.399	0.05
697.581	-0.02
697.763	-0.01
697.945	-0.01
698.127	0.03
698.309	0.1
698.491	0.02
698.672	0.05
698.854	0.08
699.036	0.11
699.218	-0.09
699.399	0.05
699.581	0.05
699.763	0.04
699.945	-0.02
700.126	-0.05
700.308	0.05
700.49	0
700.671	-0.03
700.853	-0.02
701.035	-0.01
701.216	0.02
701.398	-0.02
701.579	0.04
701.761	0.09
701.943	-0.06
702.124	-0.01
702.306	0.04
702.487	0.11
702.669	0.01
702.85	0.01
703.031	-0.05
703.213	0.1
703.394	0.05
703.576	-0
703.757	0.14
703.938	0.11
704.12	0.14
704.301	0.02
704.483	-0.01
704.664	0.06
704.845	0.09
705.026	0.04
705.208	0.04
705.389	-0.02
705.57	0.02
705.751	-0.01
705.933	0.02
706.114	0.11
706.295	0.02
706.476	-0
706.657	0.1
706.838	0.03
707.02	0.02
707.201	-0.03
707.382	0.06
707.563	0.05
707.744	-0.03
707.925	-0
708.106	0.03
708.287	0.03
708.468	0.08
708.649	0.02
708.83	0.06
709.011	0.04
709.192	0.06
709.373	-0.12
709.554	-0.01
709.734	0.03
709.915	0.07
710.096	0.04
710.277	-0.03
710.458	0
710.639	0.06
710.819	-0.08
711	0.05
711.181	0.07
711.362	0.1
711.542	0.07
711.723	0.02
711.904	0.11
712.085	0.05
712.265	0.03
712.446	0.01
712.627	0.02
712.807	-0.02
712.988	0.01
713.168	-0.06
713.349	0.04
713.53	-0.04
713.71	-0.05
713.891	-0.01
714.071	-0.05
714.252	-0.04
714.432	0
714.613	-0.07
714.793	0.03
714.974	0.09
715.154	0.09
715.334	0.03
715.515	0.19
715.695	-0.06
715.876	0
716.056	-0.04
716.236	-0.01
716.417	0.03
716.597	0.02
716.777	0.17
716.957	0.04
717.138	0.05
717.318	-0.02
717.498	-0.1
717.678	-0.01
717.859	-0.03
718.039	-0.07
718.219	-0.02
718.399	0.06
718.579	-0
718.759	-0.05
718.939	0.02
719.12	-0.02
719.3	0.02
719.48	-0.1
719.66	-0.07
719.84	0.06
720.02	0.04
720.2	0
720.38	0.03
720.56	0.1
720.74	0.06
720.92	-0.02
721.1	0.11
721.279	0.04
721.459	0
721.639	-0.09
721.819	0.13
721.999	0.02
722.179	0.05
722.359	-0.06
722.538	0.06
722.718	0.05
722.898	-0.01
723.078	0.07
723.257	0.03
723.437	0.01
723.617	0.01
723.797	0.01
723.976	-0.02
724.156	0.04
724.336	0.13
724.515	0.1
724.695	-0.08
724.874	0.04
725.054	0.08
725.234	0.04
725.413	0.09
725.593	-0.04
725.772	0.02
725.952	-0
726.131	-0.02
726.311	0.01
726.49	0.03
726.67	-0.04
726.849	-0.01
727.028	0.06
727.208	0.01
727.387	0.07
727.567	-0.05
727.746	0.02
727.925	-0.06
728.105	-0.09
728.284	-0.05
728.463	-0.06
728.643	0.02
728.822	-0.08
729.001	0
729.18	0.07
729.359	0.07
729.539	-0
729.718	0.03
729.897	0.12
730.076	0.03
730.255	-0.09
730.434	0.06
730.614	0.15
730.793	0.06
730.972	-0.07
731.151	-0.05
731.33	0.04
731.509	0.11
731.688	0.05
731.867	0.07
732.046	-0.05
732.225	0.12
732.404	0
732.583	-0.09
732.762	-0.03
732.941	0.15
733.12	0.04
733.298	0.04
733.477	0.12
733.656	0.03
733.835	-0.05
734.014	0.05
734.193	0.02
734.371	0.18
734.55	0.05
734.729	-0.14
734.908	0.04
735.086	0.09
735.265	0.12
735.444	-0.16
735.623	-0.13
735.801	-0.06
735.98	0.11
736.159	-0.04
736.337	0.05
736.516	-0.01
736.694	0.11
736.873	0
737.052	0.15
737.23	0.11
737.409	0.04
737.587	0.12
737.766	-0.09
737.944	-0.01
738.123	0.09
738.301	-0.05
738.479	-0.1
738.658	0.07
738.836	-0.19
739.015	0.05
739.193	0.12
739.371	-0.04
739.55	-0.07
739.728	-0.11
739.906	0.19
740.085	0.2
740.263	-0.04
740.441	-0.14
740.62	0.1
740.798	0.06
740.976	-0.05
741.154	-0.08
741.332	0.24
741.511	0.01
741.689	-0
741.867	0.13
742.045	0.04
742.223	-0.04
742.401	-0.11
742.579	-0.04
742.757	-0.02
742.935	-0.15
743.114	-0.03
743.292	-0.08
743.47	-0.03
743.648	0.03
743.826	0.1
744.004	0.14
744.181	0.1
744.359	-0.01
744.537	-0.06
744.715	0.06
744.893	-0.04
745.071	0.02
745.249	0.04
745.427	0.03
745.605	0.11
745.782	0.02
745.96	-0.04
746.138	-0.02
746.316	0.11
746.493	-0.06
746.671	0.06
746.849	0.14
747.027	0.21
747.204	-0.02
747.382	0.12
747.56	-0.12
747.737	-0.06
747.915	-0.02
748.093	0.07
748.27	-0.08
748.448	-0.02
748.625	-0.1
748.803	-0.08
748.98	0.03
749.158	0.12
749.335	0.06
749.513	0
749.69	0
749.868	0.04
750.045	0.13
750.223	0.03
750.4	-0.16
750.578	0.13
750.755	0.12
750.932	-0.03
751.11	0.16
751.287	-0.14
751.464	0.07
751.642	-0.06
751.819	0.04
751.996	0.08
752.173	-0.03
752.351	-0.05
752.528	0
752.705	-0.08
752.882	-0.04
753.06	0.01
753.237	0.08
753.414	0.12
753.591	0.27
753.768	-0.03
753.945	0.09
754.122	-0.03
754.299	0.07
754.476	-0.12
754.654	0.08
754.831	0.09
755.008	-0
755.185	-0.09
755.362	0
755.539	0.09
755.716	-0.13
755.892	0.08
756.069	-0.11
756.246	0.04
756.423	-0.06
756.6	0.19
756.777	0.03
756.954	0.13
757.131	0.04
757.307	-0.08
757.484	-0.08
757.661	0.16
757.838	-0.01
758.015	-0
758.191	0.06
758.368	0.05
758.545	0.15
758.721	-0
758.898	-0.08
759.075	0.15
759.251	0.11
759.428	0.08
759.605	-0.11
759.781	0.07
759.958	0.07
760.134	-0.02
760.311	-0.03
760.488	0.11
760.664	0.09
760.841	-0.04
761.017	-0.17
761.194	0.14
761.37	0.13
761.547	0.06
761.723	0.06
761.899	0.18
762.076	-0.14
762.252	-0.02
762.429	-0.1
762.605	0.08
762.781	0.01
762.958	0.06
763.134	-0.05
763.31	-0.08
763.486	0.07
763.663	-0.09
763.839	-0.01
764.015	-0.05
764.191	0.03
764.368	-0.02
764.544	-0.02
764.72	0.11
764.896	0.2
765.072	0.12
765.248	0.04
765.425	-0.03
765.601	-0.02
765.777	0.03
765.953	-0.21
766.129	0.02
766.305	-0.01
766.481	0.13
766.657	0.08
766.833	0.16
767.009	-0.09
767.185	-0.03
767.361	-0.09
767.537	-0.17
767.713	0.1
767.889	-0
768.065	0.11
768.24	-0.18
768.416	0.14
768.592	-0.06
768.768	0.11
768.944	-0.05
769.12	-0.04
769.295	-0.05
769.471	-0.03
769.647	-0.07
769.823	0.1
769.998	-0.05
770.174	-0.16
770.35	0.28
770.525	0.24
770.701	0.09
770.877	-0.03
771.052	-0.12
771.228	0.11
771.403	-0.01
771.579	0.2
771.755	0.17
771.93	-0.08
772.106	-0.1
772.281	-0.15
772.457	0.06
772.632	0.02
772.808	-0.14
772.983	-0.07
773.159	-0.17
773.334	0.06
773.509	0.04
773.685	-0.04
773.86	0.39
774.036	0.26
774.211	0.02
774.386	-0.09
774.562	0.04
774.737	0.15
774.912	0.04
775.087	0.23
775.263	0.05
775.438	-0.03
775.613	-0.04
775.788	-0.08
775.964	0.16
776.139	0.42
776.314	-0.08
776.489	-0.01
776.664	0.02
776.839	-0.15
777.014	0.22
777.19	0.03
777.365	0.15
777.54	0.31
777.715	0
777.89	0.09
778.065	-0.04
778.24	0.03
778.415	0.32
778.59	-0.18
778.765	-0.07
778.94	0.1
779.115	-0.09
779.289	0.06
779.464	0.15
779.639	0.05
779.814	-0.06
779.989	-0.14
780.164	0.29
780.339	-0.05
780.513	-0.1
780.688	-0.13
780.863	0.02
781.038	0.12
781.212	-0
781.387	0.03
781.562	0.33
781.737	0.03
781.911	0.2
782.086	-0.1
782.261	0.18
782.435	0.25
782.61	-0.05
782.784	0.02
782.959	0.27
783.134	0.07
783.308	-0.29
783.483	-0.07
783.657	0.49
783.832	0.08
784.006	-0.25
784.181	0.3
784.355	0.24
784.53	-0.25
784.704	-0.22
784.878	0.31
785.053	0.27
785.227	0.32
785.402	0.39
785.576	-0.25
785.75	0.06
785.925	0.04
786.099	0.03
786.273	0.13
786.448	0.27
786.622	0.12
786.796	-0.08
786.97	-0.12
787.145	0.39
787.319	-0.2
787.493	-0.13
787.667	-0.25
787.841	0.03
788.015	0.31
788.19	0.03
788.364	0.08
788.538	0.26
788.712	-0.05
788.886	0.11
789.06	0.29
789.234	0.12
789.408	-0.03
789.582	-0.22
789.756	0.11
789.93	-0.19
790.104	0.04
790.278	-0
790.452	-0.31
790.626	0.07
790.8	-0.04
790.973	0.06
791.147	0.38
791.321	0.19
791.495	0.26
791.669	0.11
791.843	0.2
792.016	-0.05
792.19	0.31
792.364	-0.27
792.538	0.5
792.711	0.29
792.885	-0.11
793.059	-0.08
793.233	-0.52
793.406	0.28
793.58	0.19
793.754	0.16
793.927	-0
794.101	0.2
794.274	0
794.448	0.18
794.622	0.03
794.795	0.37
794.969	0.05
795.142	0.65
795.316	0.1
795.489	-0.16
795.663	0.44
795.836	-0.17
796.009	-0.09
796.183	0.34
796.356	0.03
796.53	0.24
796.703	0.05
796.876	0.63
797.05	0.06
797.223	-0.05
797.396	0.24
797.57	0.05
797.743	0.54
797.916	0.07
798.09	0.02
798.263	0.09
798.436	0.1
798.609	0.11
798.782	-0.14
798.956	0.4
799.129	-0.08
799.302	-0.04
799.475	0.07
799.648	0.06
799.821	-0.08
799.994	0.11
800.167	-0.28
800.34	0.24
800.514	0.19
800.687	0.02
800.86	-0.11
801.033	0.23
801.206	-0.03
801.379	-0.14
801.551	0.23
801.724	0.31
801.897	0.27
802.07	-0.07
802.243	-0.29
802.416	0.09
802.589	-0.12
802.762	0.12
802.935	-0.03
803.107	0
803.28	0.24
803.453	0.4
803.626	-0.01
803.798	0.26
803.971	-0.09
804.144	0.26
804.317	-0.04
804.489	0.21
804.662	-0.01
804.835	0.23
805.007	-0.09
805.18	0.48
805.353	0.32
805.525	-0.36
805.698	-0.02
805.87	0.44
806.043	0.67
806.215	-0.06
806.388	0.19
806.56	0.25
806.733	0.53
806.905	0.21
807.078	-0.15
807.25	0.04
807.423	0.17
807.595	0.2
807.768	0.46
807.94	0.2
808.112	0.06
808.285	0.07
808.457	-0.16
808.629	0.16
808.802	0.15
808.974	0.02
809.146	-0.11
809.318	-0.07
809.491	-0.03
809.663	0.43
809.835	-0.25
810.007	0.15
810.18	0.04
810.352	-0.22
810.524	-0.18
810.696	0.44
810.868	0.53
811.04	0.1
811.212	0.27
811.384	0.37
811.556	0.3
811.728	-0.01
811.901	0.61
812.073	0.04
812.245	0.25
812.417	0.04
812.589	-0.46
812.76	-0.15
812.932	0.4
813.104	0.48
813.276	-0.08
813.448	0.14
813.62	0.03
813.792	0.39
813.964	0.1
814.136	0.24
814.307	-0.09
814.479	-0.28
814.651	0.07
814.823	0.57
814.995	0.02
815.166	-0.02
815.338	-0.24
815.51	-0.47
815.681	0.59
815.853	0.37
816.025	0.18
816.196	0.27
816.368	0.54
816.54	-0.36
816.711	0.14
816.883	0.44
817.054	0.77
817.226	-0.56
817.398	0.71
817.569	-0.31
817.741	0.01
817.912	0.34
818.084	0.08
818.255	0.36
818.426	-0.16
818.598	-0.09
818.769	0.03
818.941	0.27
819.112	0.51
819.283	0.28
819.455	-0.07
819.626	0.1
819.798	0.2
819.969	0.35
820.14	0.23
820.311	0.05
820.483	-0.2
820.654	0.57
820.825	0.13
820.996	0.01
821.168	-0.29
821.339	-0.31
821.51	-0.27
821.681	0.16
821.852	0.33
822.023	-0.12
822.195	-0.21
822.366	0.46
822.537	0.26
822.708	-0.03
822.879	-0.33
823.05	0.73
823.221	-0.09
823.392	0.08
823.563	0.05
823.734	0.38
823.905	-0.16
824.076	-0.03
824.247	-0.45
824.418	-0.73
824.589	0.95
824.759	-0.12
824.93	0.2
825.101	-0.47
825.272	0.57
825.443	0.52
825.614	0.3
825.784	-0.68
825.955	1.31
826.126	0.62
826.297	0.61
826.467	0.85
826.638	0.22
826.809	-0.47
826.98	0.04
827.15	0.56
827.321	0.11
827.492	0.82
827.662	0.58
827.833	1.36
828.003	0.53
828.174	-0.44
828.345	0.11
828.515	0.54
828.686	0.34
828.856	-0.53
829.027	0
829.197	0.18
829.368	0.69
829.538	-0.42
829.709	-0.01
829.879	0.5
830.049	0.13
830.22	-0.8
830.39	-0.28
830.56	0.86
830.731	-0.35
830.901	-0.3
831.072	0.01
831.242	-0.3
831.412	-0.11
831.582	0.51
831.753	-0.59
831.923	0.84
832.093	-0.14
832.263	0.53
832.434	-0.58
832.604	0.16
832.774	0.92
832.944	-0.11
833.114	-0.47
833.284	0.43
833.454	-0.19
833.624	-0.1
833.795	0.08
833.965	0.62
834.135	0.59
834.305	-0.75
834.475	-0.12
834.645	0.3
834.815	-0.1
834.985	-0.54
835.155	-0.13
835.325	0.39
835.494	0.09
835.664	0.24
835.834	-0.58
836.004	0.13
836.174	0.32
836.344	0.07
836.514	-0.46
836.684	-0.1
836.853	0.23
837.023	0.01
837.193	-0.46
837.363	1.29
837.532	0.6
837.702	0.17
837.872	-0.19
838.041	0.65
838.211	0.94
838.381	-0.33
838.55	0.23
838.72	1.55
838.89	1.1
839.059	0.24
839.229	-0.33
839.398	1.4
839.568	0.54
839.738	-0.19
839.907	0.81
840.077	0.15
840.246	-0.23
840.416	-0.18
840.585	-0.89
840.755	0.95
840.924	0.53
841.093	0.11
841.263	0.03
841.432	0.37
841.602	-0.01
841.771	-0.56
841.94	0.55
842.11	1.7
842.279	1.01
842.448	-0.08
842.617	-0.49
842.787	1.16
842.956	0.11
843.125	0.76
843.294	0.23
843.464	0.23
843.633	1.01
843.802	-0.54
843.971	0.55
844.14	1.22
844.309	0.2
844.479	-0.33
844.648	-0.05
844.817	0.17
844.986	0.04
845.155	-0.26
845.324	0.3
845.493	-0.21
845.662	-0.15
845.831	0.41
846	0.85
846.169	0.26
846.338	1.41
846.507	0.46
846.676	1.26
846.844	0.56
847.013	1.19
847.182	0.56
847.351	0.08
847.52	0.11
847.689	0.53
847.858	0.23
848.026	-0.47
848.195	0.19
848.364	-0.24
848.533	-0.38
848.701	0.89
848.87	0.01
849.039	0.57
849.207	1.39
849.376	1.05
849.545	1.81
849.713	-0.63
849.882	0.39
850.051	-0.76
850.219	-0.34
850.388	1.48
850.556	-0.25
850.725	-0.67
850.893	1.25
851.062	-0.58
851.23	1.04
851.399	-1.19
851.567	0.05
851.736	0.73
851.904	-0.16
852.073	0.45
852.241	0.5
852.41	0.29
852.578	0.07
852.746	-0.13
852.915	1.87
853.083	-0.23
853.251	0.25
853.42	-0.39
853.588	0.69
853.756	0.61
853.924	0.88
854.093	1.12
854.261	0.17
854.429	-0.8
854.597	1.06
854.765	-1.12
854.934	0.72
855.102	1.37
855.27	0.66
855.438	1.74
855.606	1.51
855.774	1.46
855.942	-0.72
856.11	-0.32
856.278	0.87
856.446	1.56
856.614	-0.26
856.782	-0.1
856.95	0.56
857.118	0.13
857.286	0.42
857.454	-0.27
857.622	1.33
857.79	0.89
857.958	-0.05
858.126	-0.53
858.294	-2.7
858.462	0.23
858.629	0.44
858.797	0.19
858.965	0.83
859.133	0.35
859.301	-0.54
859.468	0.46
859.636	0.11
859.804	0.68
859.971	0.38
860.139	-0.58
860.307	0.86
860.474	0.6
860.642	-0.9
860.81	-0.3
860.977	0.04
861.145	0.24
861.313	-0.36
861.48	0.31
861.648	1.72
861.815	-0.23
861.983	-1.71
862.15	-0.57
862.318	1
862.485	1.45
862.653	-0.5
862.82	-0.15
862.988	1.63
863.155	1.43
863.322	-0.59
863.49	-0.77
863.657	-1.38
863.824	0.69
863.992	1.06
864.159	0.48
864.326	2.02
864.494	-1.01
864.661	1.87
864.828	-0.57
864.996	-0.31
865.163	2.44
865.33	-1.18
865.497	-1.77
865.664	0.07
865.832	-0.88
865.999	-0.75
866.166	-0.74
866.333	1.34
866.5	-1.29
866.667	0.69
866.834	0.96
867.001	2.39
867.168	-1.5
867.335	1.59
867.502	-1.08
867.669	-0.34
867.836	2.39
868.003	-0.46
868.17	2.72
868.337	2.77
868.504	3.25
868.671	-1.55
868.838	0.38
869.005	0.6
869.172	0.42
869.339	-0.83
869.505	0.2
869.672	-0.19
869.839	3.02
870.006	1.54
870.173	-1.32
870.339	0.93
870.506	2.61
870.673	-0.05
870.84	-0.32
871.006	0.63
871.173	1.53
871.34	0.37
871.506	-0.05
871.673	1.67
871.839	-1.26
872.006	0.57
872.173	-1.02
872.339	-0.1
872.506	3.13
872.672	-0.27
872.839	-3.1
873.005	0.82
873.172	3.05
873.338	1.8
873.505	1.27
873.671	-1.65
873.838	1.3
874.004	-0.51
874.171	0.03
874.337	0.34
874.503	3.61
874.67	-0.21
874.836	-1.83
875.002	2.42
875.169	1.22
875.335	0.31
875.501	-1.35
875.668	2.2
875.834	0.64
876	-0.36
876.166	3.45
876.332	1.67
876.499	3.23
876.665	-0.09
876.831	0.73
876.997	2.73
877.163	0.48
877.329	0.55
877.495	-0.18
877.662	-0.09
877.828	-0.79
877.994	-0.85
878.16	-2.53
878.326	-0.76
878.492	0.06
878.658	-0.2
878.824	0.09
878.99	2.06
879.156	-2.27
879.322	3.29
879.487	-0.28
879.653	2.24
879.819	1.14
879.985	-1.78
880.151	-0.04
880.317	0.06
880.483	1.49
880.648	1.06
880.814	-2.05
880.98	-0.02
881.146	-2.55
881.312	-0.75
881.477	-0.45
881.643	2.01
881.809	3.26
881.974	2.31
882.14	-1.24
882.306	0.09
882.471	3.48
882.637	-1.78
882.803	1.12
882.968	-0.49
883.134	3.83
883.299	0.39
883.465	-0.82
883.63	1.19
883.796	0.62
883.961	1.75
884.127	0.32
884.292	-4.19
884.458	-2.22
884.623	-2.21
