Data from Apollo_Calib_20240827__AbsoluteIrradiance__709__10-58-03-144.txt Node

Date: Wed Aug 28 10:58:03 BST 2024
User: biology
Spectrometer: FLMT08252
Trigger mode: 0
Integration Time (sec): 5.000000E-1
Scans to average: 5
Electric dark correction enabled: true
Nonlinearity correction enabled: false
Boxcar width: 0
XAxis mode: Wavelengths
Number of Pixels in Spectrum: 3648
>>>>>Begin Spectral Data<<<<<
179.588	-0
179.809	-0
180.03	-0
180.251	-0
180.473	-0
180.694	0
180.915	0
181.136	-0
181.357	0
181.578	-0
181.799	-0
182.02	-0
182.241	0
182.462	-0
182.683	0
182.904	-0
183.125	-0
183.346	0
183.567	0
183.788	-0
184.009	-0
184.23	0
184.451	0
184.672	-0
184.892	-0
185.113	0
185.334	0
185.555	-0
185.776	-0
185.996	0
186.217	-0
186.438	-0
186.659	-0
186.879	0
187.1	-0
187.321	-0
187.541	-0
187.762	-0
187.983	-0
188.203	-0
188.424	0
188.644	-0
188.865	-0
189.086	-0
189.306	-0
189.527	-0
189.747	-0
189.968	-0
190.188	0
190.409	-0
190.629	0
190.849	-0
191.07	-0
191.29	0
191.511	-0
191.731	-0
191.951	-0
192.172	-0
192.392	-0
192.612	-0
192.833	-0
193.053	0
193.273	0
193.493	-0
193.714	-0
193.934	0
194.154	0
194.374	0
194.594	-0
194.815	-0
195.035	-0
195.255	-0
195.475	-0
195.695	0
195.915	0
196.135	-0
196.355	0
196.575	0
196.795	-0
197.015	-0
197.235	-0
197.455	-0
197.675	-0
197.895	-0
198.115	-0
198.335	0
198.555	-0
198.775	-0
198.995	0
199.214	0
199.434	-0
199.654	-0
199.874	-0
200.094	0.27
200.313	0.07
200.533	-0.79
200.753	-0.83
200.973	0.44
201.192	0.09
201.412	-1.21
201.632	-0.86
201.851	0.51
202.071	-0.56
202.291	-0.44
202.51	-0.74
202.73	0.08
202.95	-0.64
203.169	-0.98
203.389	-0.3
203.608	-0.05
203.828	-0.49
204.047	-0.44
204.267	-0.23
204.486	0
204.706	0.36
204.925	-0.01
205.145	-0.37
205.364	0.24
205.583	0.28
205.803	-0.37
206.022	-0.43
206.242	-0.22
206.461	-0.12
206.68	-0.12
206.9	-0.02
207.119	0.49
207.338	0.38
207.557	-0.51
207.777	-0.22
207.996	-0.15
208.215	0.35
208.434	-0.34
208.654	-0.48
208.873	0.09
209.092	0.1
209.311	-0.05
209.53	-0.46
209.749	-0.33
209.968	-0.33
210.187	-0.32
210.407	-0.7
210.626	-0.1
210.845	0.05
211.064	-0.15
211.283	-0.33
211.502	0.04
211.721	-0.08
211.94	-0.25
212.159	-0.05
212.377	-0.01
212.596	0.3
212.815	-0.14
213.034	-0.08
213.253	0.11
213.472	0.05
213.691	-0.22
213.91	-0.26
214.128	-0.25
214.347	0.13
214.566	-0.32
214.785	-0.53
215.003	-0.01
215.222	0
215.441	-0.09
215.66	-0.36
215.878	0.03
216.097	0.08
216.316	-0.37
216.534	-0.17
216.753	-0.09
216.972	-0.22
217.19	-0.13
217.409	-0.25
217.627	-0.31
217.846	-0.15
218.064	0.03
218.283	-0.13
218.501	0.22
218.72	0.19
218.938	-0.16
219.157	-0.19
219.375	0.11
219.594	0.05
219.812	-0.07
220.031	-0.29
220.249	0.11
220.467	0.11
220.686	-0.28
220.904	-0.32
221.122	-0.12
221.341	0.27
221.559	-0.25
221.777	-0.45
221.995	0.02
222.214	-0.04
222.432	-0.17
222.65	0.01
222.868	-0.07
223.086	-0.03
223.305	-0.06
223.523	-0.08
223.741	0.27
223.959	-0.06
224.177	-0.33
224.395	-0.13
224.613	0.02
224.831	0.09
225.049	-0.33
225.267	-0.17
225.485	-0
225.703	-0.13
225.921	-0.11
226.139	-0.05
226.357	0
226.575	-0.02
226.793	-0.1
227.011	0.46
227.229	-0.08
227.447	0.1
227.665	0.03
227.883	-0.4
228.1	-0.02
228.318	0.02
228.536	-0.25
228.754	-0.28
228.972	0.03
229.189	0.05
229.407	-0.07
229.625	-0.03
229.843	0.15
230.06	0.12
230.278	-0.11
230.496	-0.03
230.713	0.09
230.931	0.04
231.149	-0.11
231.366	-0.22
231.584	-0.03
231.801	0.32
232.019	-0.13
232.236	-0.21
232.454	-0.1
232.671	-0.11
232.889	-0.1
233.106	-0.2
233.324	0.02
233.541	-0.06
233.759	-0.09
233.976	-0.07
234.194	0
234.411	-0.08
234.628	-0.16
234.846	-0.1
235.063	0.06
235.28	-0.03
235.498	0.02
235.715	-0.16
235.932	0.03
236.149	-0.04
236.367	-0.08
236.584	-0
236.801	-0.16
237.018	0.13
237.236	-0.04
237.453	-0.15
237.67	0.07
237.887	-0.07
238.104	-0.01
238.321	-0.23
238.538	-0.13
238.755	0.06
238.973	-0.18
239.19	-0.01
239.407	0.03
239.624	-0.03
239.841	-0.2
240.058	-0.14
240.275	-0.04
240.492	-0.11
240.709	-0.01
240.925	-0.02
241.142	0.05
241.359	-0.16
241.576	-0.15
241.793	-0.11
242.01	-0.03
242.227	0
242.444	-0.01
242.66	0.03
242.877	-0.1
243.094	-0.14
243.311	0.05
243.527	-0.02
243.744	0.03
243.961	0
244.178	-0.08
244.394	-0.03
244.611	0.04
244.828	0.1
245.044	-0.17
245.261	-0.04
245.477	0.02
245.694	-0.01
245.911	-0.13
246.127	0
246.344	0.07
246.56	-0
246.777	-0.03
246.993	-0.07
247.21	-0.03
247.426	0.02
247.643	-0.12
247.859	-0.15
248.076	-0.01
248.292	0.1
248.508	-0.03
248.725	0
248.941	0.02
249.157	0.09
249.374	-0.13
249.59	-0.08
249.806	-0.05
250.023	0.01
250.239	-0.07
250.455	-0.19
250.671	0
250.888	0.04
251.104	0.05
251.32	-0.11
251.536	0.09
251.752	-0.04
251.969	-0.01
252.185	-0.02
252.401	0.17
252.617	-0.08
252.833	-0.1
253.049	0
253.265	0.02
253.481	0.03
253.697	-0.05
253.913	-0.13
254.129	0.05
254.345	-0.02
254.561	-0.08
254.777	-0.06
254.993	0.05
255.209	-0.05
255.425	-0.07
255.641	-0.08
255.857	0.06
256.073	-0.07
256.288	-0.12
256.504	-0.12
256.72	-0.01
256.936	0.07
257.152	-0.08
257.367	-0.12
257.583	0.05
257.799	0.03
258.015	-0.04
258.23	-0.07
258.446	0.11
258.662	-0.01
258.877	-0.09
259.093	-0.15
259.309	-0.04
259.524	-0
259.74	-0.01
259.955	-0.12
260.171	0.04
260.387	0.02
260.602	-0
260.818	-0.01
261.033	-0.1
261.249	-0.01
261.464	-0.04
261.68	-0.18
261.895	-0.07
262.11	0.05
262.326	-0.09
262.541	-0.08
262.757	0.01
262.972	0
263.187	0.01
263.403	-0.02
263.618	0.14
263.833	0.05
264.049	-0.08
264.264	-0.07
264.479	0.05
264.694	0.1
264.91	-0.09
265.125	-0.04
265.34	0.02
265.555	0.12
265.77	-0.03
265.986	0.02
266.201	-0.01
266.416	0.09
266.631	-0.08
266.846	-0.03
267.061	-0.07
267.276	-0.04
267.491	-0.21
267.706	0.04
267.921	-0.01
268.136	0.04
268.351	-0.04
268.566	-0.08
268.781	0.09
268.996	0
269.211	-0.03
269.426	-0.12
269.641	-0.04
269.856	0.01
270.071	-0.09
270.285	-0.09
270.5	0.08
270.715	0.05
270.93	-0.07
271.145	0.01
271.359	0.05
271.574	-0.12
271.789	-0.01
272.004	-0.03
272.218	-0.04
272.433	0.03
272.648	-0.06
272.862	0.01
273.077	-0.05
273.292	-0.02
273.506	-0.09
273.721	-0.06
273.936	-0.03
274.15	0.08
274.365	-0.03
274.579	-0.06
274.794	-0.01
275.008	0.07
275.223	-0.11
275.437	0
275.652	-0.05
275.866	0.08
276.081	0
276.295	0.02
276.509	-0.04
276.724	-0.06
276.938	0.01
277.153	0.04
277.367	0.04
277.581	-0.08
277.796	-0.05
278.01	-0.08
278.224	0.01
278.438	0.09
278.653	-0.05
278.867	-0.05
279.081	-0.18
279.295	-0.01
279.51	0.02
279.724	-0.08
279.938	0.07
280.152	0.01
280.366	-0.09
280.58	-0.05
280.794	0.09
281.008	0.08
281.222	0.01
281.437	0.09
281.651	-0.01
281.865	0.1
282.079	-0.08
282.293	-0.12
282.507	-0.04
282.721	0.04
282.935	-0.01
283.148	-0.1
283.362	-0.06
283.576	-0.04
283.79	-0.03
284.004	-0.12
284.218	0.06
284.432	-0.02
284.646	-0.06
284.859	-0.09
285.073	-0.02
285.287	-0.03
285.501	0.01
285.714	-0.04
285.928	-0.01
286.142	-0.04
286.356	-0.03
286.569	-0.06
286.783	0.1
286.997	0.05
287.21	-0
287.424	-0
287.637	-0.04
287.851	-0.06
288.065	0.04
288.278	-0.02
288.492	0.03
288.705	-0
288.919	-0.02
289.132	-0.11
289.346	0.07
289.559	-0.06
289.773	-0.06
289.986	-0.02
290.2	-0
290.413	0.02
290.626	-0.09
290.84	-0.03
291.053	-0.01
291.267	0.04
291.48	-0.07
291.693	0.02
291.906	-0.02
292.12	-0.06
292.333	-0.09
292.546	-0.01
292.76	0.07
292.973	0.02
293.186	0.02
293.399	-0.01
293.612	0.04
293.826	-0.02
294.039	-0.01
294.252	-0.02
294.465	-0.03
294.678	-0.04
294.891	0.01
295.104	-0.04
295.317	-0.03
295.53	-0.01
295.743	-0.06
295.956	-0.04
296.169	0.04
296.382	0.07
296.595	0.03
296.808	-0.07
297.021	0.02
297.234	0
297.447	0
297.66	0.04
297.873	0.05
298.086	0.01
298.299	-0.09
298.511	-0.08
298.724	-0.02
298.937	-0.08
299.15	-0.01
299.363	-0.03
299.575	-0.01
299.788	0.01
300.001	-0.02
300.213	-0.05
300.426	0.01
300.639	-0.03
300.852	-0.03
301.064	0.04
301.277	0.02
301.489	0.03
301.702	-0
301.915	0.01
302.127	-0.03
302.34	-0.02
302.552	0.03
302.765	-0.02
302.977	0.05
303.19	-0.02
303.402	-0.03
303.615	-0.06
303.827	-0.01
304.04	-0
304.252	-0.01
304.464	-0.05
304.677	0.07
304.889	0.04
305.102	-0.04
305.314	-0.02
305.526	0
305.739	0.01
305.951	-0.03
306.163	-0.04
306.375	0.07
306.588	0
306.8	-0.06
307.012	-0.09
307.224	-0.01
307.436	0.11
307.649	-0.05
307.861	-0
308.073	0.03
308.285	-0.02
308.497	-0.06
308.709	-0
308.921	-0.02
309.133	0.02
309.346	-0.02
309.558	-0.03
309.77	0.02
309.982	0.06
310.194	-0
310.406	-0.05
310.617	0.06
310.829	-0
311.041	0.03
311.253	-0.05
311.465	-0.01
311.677	-0.01
311.889	0.01
312.101	-0.03
312.313	0.05
312.524	0.03
312.736	-0.05
312.948	-0.06
313.16	0.03
313.372	0.03
313.583	0.01
313.795	-0.02
314.007	0.02
314.218	0.03
314.43	-0.01
314.642	-0.04
314.853	-0.07
315.065	0
315.277	-0
315.488	0.02
315.7	0.01
315.912	0.01
316.123	0
316.335	0.03
316.546	0.08
316.758	-0.02
316.969	-0.03
317.181	-0.03
317.392	-0.02
317.604	0.05
317.815	-0.05
318.026	-0.01
318.238	-0.01
318.449	0
318.661	-0.09
318.872	-0.08
319.083	-0.08
319.295	0.01
319.506	-0.06
319.717	-0.02
319.929	0.01
320.14	-0.02
320.351	0.01
320.562	-0.03
320.774	0.01
320.985	0
321.196	-0.04
321.407	-0.08
321.618	0.04
321.829	-0.02
322.041	0.01
322.252	-0.04
322.463	0.01
322.674	0.02
322.885	-0.07
323.096	-0.02
323.307	-0.03
323.518	-0.03
323.729	-0.04
323.94	-0.07
324.151	-0.02
324.362	-0
324.573	-0.01
324.784	-0.06
324.995	0.03
325.206	-0.01
325.417	-0.04
325.628	0
325.838	-0.03
326.049	0.02
326.26	-0.01
326.471	-0.03
326.682	0.04
326.892	0.03
327.103	-0.05
327.314	-0.11
327.525	0.04
327.735	-0.02
327.946	-0.02
328.157	-0.04
328.368	-0.02
328.578	-0.01
328.789	0.02
328.999	0.02
329.21	-0.03
329.421	-0
329.631	-0.01
329.842	-0.06
330.052	-0.04
330.263	0.01
330.473	-0
330.684	0.01
330.894	-0.05
331.105	-0
331.315	-0.02
331.526	-0.06
331.736	0.07
331.947	-0.01
332.157	0.01
332.367	-0.03
332.578	0.02
332.788	0.02
332.999	0.03
333.209	0.02
333.419	-0.04
333.629	0.04
333.84	0.01
334.05	-0.04
334.26	0.04
334.47	-0.05
334.681	0.03
334.891	-0.03
335.101	0.03
335.311	0.08
335.521	0
335.732	-0.06
335.942	0.04
336.152	0.01
336.362	0
336.572	-0.01
336.782	0.02
336.992	-0.03
337.202	-0.04
337.412	-0.03
337.622	0.02
337.832	-0.02
338.042	-0.03
338.252	-0.04
338.462	-0.01
338.672	-0.02
338.882	-0.03
339.092	-0.04
339.302	0.05
339.511	0.04
339.721	-0.02
339.931	-0.03
340.141	0.05
340.351	0.04
340.561	-0.03
340.77	-0.01
340.98	-0.02
341.19	-0
341.4	-0.08
341.609	-0.05
341.819	-0.01
342.029	-0.06
342.238	-0.03
342.448	-0.04
342.658	-0.01
342.867	0
343.077	0.01
343.286	0
343.496	0
343.706	0.03
343.915	-0.02
344.125	0.01
344.334	-0
344.544	-0.06
344.753	-0.04
344.963	-0.06
345.172	-0.02
345.381	-0.02
345.591	-0.09
345.8	-0.01
346.01	0.06
346.219	0.03
346.428	-0.12
346.638	-0.02
346.847	0
347.056	0.06
347.266	-0.04
347.475	-0
347.684	-0
347.893	-0.06
348.103	-0.01
348.312	-0.01
348.521	-0.06
348.73	-0.01
348.94	-0
349.149	-0.02
349.358	-0.01
349.567	-0.07
349.776	-0.03
349.985	-0.04
350.194	0
350.403	0.06
350.612	-0.06
350.821	-0.03
351.03	-0
351.239	-0.06
351.448	-0.03
351.657	-0.05
351.866	0.03
352.075	-0.01
352.284	-0.05
352.493	-0.07
352.702	0.06
352.911	0.01
353.12	-0.03
353.329	-0.01
353.538	0.01
353.746	-0.03
353.955	-0.02
354.164	0.03
354.373	-0.04
354.582	0.05
354.79	-0
354.999	0.03
355.208	0.02
355.416	0.06
355.625	-0.03
355.834	-0.03
356.042	-0.01
356.251	-0.03
356.46	-0.04
356.668	0.03
356.877	0.08
357.085	0.01
357.294	-0.08
357.503	0.01
357.711	-0
357.92	0.08
358.128	0.03
358.337	-0.04
358.545	-0.03
358.754	-0.05
358.962	0.04
359.17	-0.06
359.379	0.05
359.587	-0
359.796	0
360.004	0.01
360.212	-0.01
360.421	0.05
360.629	-0.03
360.837	-0.02
361.046	-0
361.254	0.09
361.462	-0.02
361.67	-0.02
361.879	-0.03
362.087	0.08
362.295	-0.01
362.503	-0.05
362.711	-0.1
362.92	-0.02
363.128	-0.02
363.336	-0.04
363.544	-0.05
363.752	-0.02
363.96	-0.05
364.168	-0
364.376	-0.04
364.584	0
364.792	0.02
365	0.02
365.208	-0.02
365.416	-0.01
365.624	0.01
365.832	-0.03
366.04	0.04
366.248	0.01
366.456	-0.01
366.664	-0.02
366.872	-0.02
367.079	-0.01
367.287	0.01
367.495	0
367.703	-0
367.911	-0.02
368.118	-0.01
368.326	0.01
368.534	-0.06
368.742	0.06
368.949	-0.07
369.157	-0.01
369.365	0.02
369.572	-0.03
369.78	-0.08
369.988	0.04
370.195	0.01
370.403	0.07
370.61	-0.01
370.818	-0.04
371.026	0.03
371.233	-0.06
371.441	0
371.648	-0.01
371.856	0.02
372.063	0.01
372.271	-0.02
372.478	-0.03
372.685	-0.04
372.893	0.01
373.1	-0.04
373.308	-0.06
373.515	0.07
373.722	0.01
373.93	-0.03
374.137	0.05
374.344	0.08
374.552	-0.01
374.759	-0.01
374.966	-0.04
375.173	-0.04
375.381	0.02
375.588	-0.05
375.795	-0.07
376.002	-0.01
376.209	-0.03
376.417	0
376.624	-0.04
376.831	0.02
377.038	-0.01
377.245	-0.07
377.452	-0.06
377.659	-0.02
377.866	-0.03
378.073	0
378.28	-0
378.487	0.03
378.694	0
378.901	-0.03
379.108	0.01
379.315	0.03
379.522	0.05
379.729	0
379.936	-0.01
380.143	0
380.35	-0.02
380.557	-0.02
380.763	0.02
380.97	-0.03
381.177	0.03
381.384	-0
381.591	-0.02
381.797	-0
382.004	0.02
382.211	0.01
382.418	-0.05
382.624	0.05
382.831	0.02
383.038	-0.01
383.244	-0
383.451	-0.02
383.658	-0.01
383.864	-0.02
384.071	-0.04
384.277	0.05
384.484	-0.04
384.69	0.01
384.897	-0.03
385.103	-0.04
385.31	-0.06
385.516	-0.04
385.723	-0.02
385.929	-0.02
386.136	-0.03
386.342	0.03
386.549	-0.04
386.755	0.08
386.961	0.01
387.168	-0.01
387.374	-0.03
387.58	0.05
387.787	-0.01
387.993	0.01
388.199	-0.04
388.406	-0.02
388.612	-0
388.818	-0.03
389.024	-0.06
389.231	0.05
389.437	0.08
389.643	0.02
389.849	-0.02
390.055	-0.01
390.261	-0.04
390.467	0
390.674	-0.04
390.88	-0
391.086	-0.02
391.292	-0.09
391.498	0.02
391.704	0.01
391.91	-0.01
392.116	-0.03
392.322	-0.11
392.528	0.03
392.734	-0.03
392.94	0.01
393.146	-0.03
393.352	-0.02
393.557	-0.02
393.763	-0.02
393.969	0.05
394.175	-0.01
394.381	-0.02
394.587	-0.02
394.792	-0.01
394.998	0.01
395.204	0.03
395.41	-0.03
395.615	-0.02
395.821	0
396.027	-0
396.233	0
396.438	0
396.644	-0.05
396.85	0.03
397.055	-0.06
397.261	0.02
397.466	-0.05
397.672	-0
397.878	0.03
398.083	-0
398.289	-0
398.494	-0
398.7	0
398.905	-0.09
399.111	0.01
399.316	-0.06
399.522	0
399.727	-0.03
399.932	-0.02
400.138	-0.03
400.343	0.06
400.549	0
400.754	0.01
400.959	0.02
401.165	-0.03
401.37	-0.01
401.575	0.09
401.78	0.01
401.986	-0.05
402.191	-0.02
402.396	0.02
402.601	0.04
402.807	-0.03
403.012	-0.02
403.217	-0.01
403.422	-0.02
403.627	-0
403.832	-0
404.037	0.03
404.243	0.01
404.448	-0.01
404.653	0.02
404.858	-0.02
405.063	0.05
405.268	-0.03
405.473	-0.01
405.678	-0.04
405.883	0.05
406.088	0.02
406.293	-0.04
406.498	-0.04
406.703	0.03
406.907	0.04
407.112	-0.11
407.317	0
407.522	0.02
407.727	-0.05
407.932	-0.01
408.136	0.09
408.341	-0.02
408.546	0.03
408.751	0.02
408.956	-0.02
409.16	0.06
409.365	-0.05
409.57	-0.02
409.774	-0.01
409.979	0.01
410.184	0.03
410.388	-0.02
410.593	0.05
410.798	0.01
411.002	-0.03
411.207	0.02
411.411	0
411.616	-0.08
411.82	-0.03
412.025	-0.01
412.229	-0.02
412.434	0.06
412.638	-0.02
412.843	-0.03
413.047	0.03
413.252	0.01
413.456	-0.02
413.66	0.06
413.865	-0.03
414.069	0.02
414.273	0
414.478	-0.05
414.682	-0.03
414.886	-0.01
415.091	-0.04
415.295	-0.05
415.499	0.05
415.703	-0.02
415.908	0.02
416.112	-0.1
416.316	0.07
416.52	-0.02
416.724	-0.05
416.929	-0
417.133	0.1
417.337	0.01
417.541	-0.04
417.745	0.06
417.949	0.01
418.153	0.04
418.357	-0.03
418.561	0.1
418.765	0.02
418.969	0.13
419.173	0.02
419.377	0.02
419.581	0.09
419.785	0.02
419.989	0
420.193	0
420.397	0.05
420.601	0.06
420.804	0.07
421.008	0.04
421.212	0.06
421.416	0.1
421.62	0.01
421.823	0.03
422.027	0.16
422.231	0.06
422.435	0.04
422.638	0.08
422.842	0.07
423.046	0.05
423.249	0.11
423.453	0.1
423.657	0.09
423.86	0.03
424.064	0.04
424.268	0.15
424.471	0.08
424.675	0.16
424.878	0.18
425.082	0.13
425.285	0.13
425.489	0.11
425.692	0.1
425.896	0.06
426.099	0.1
426.303	0.07
426.506	0.04
426.71	0.14
426.913	0.11
427.116	0.19
427.32	0.16
427.523	0.08
427.726	0.17
427.93	0.07
428.133	0.18
428.336	0.11
428.54	0.08
428.743	0.17
428.946	0.16
429.149	0.13
429.353	0.17
429.556	0.18
429.759	0.16
429.962	0.1
430.165	0.18
430.368	0.15
430.571	0.16
430.775	0.2
430.978	0.15
431.181	0.19
431.384	0.21
431.587	0.12
431.79	0.12
431.993	0.2
432.196	0.13
432.399	0.14
432.602	0.26
432.805	0.17
433.008	0.19
433.211	0.11
433.414	0.22
433.616	0.24
433.819	0.17
434.022	0.13
434.225	0.29
434.428	0.25
434.631	0.29
434.833	0.26
435.036	0.21
435.239	0.29
435.442	0.24
435.645	0.18
435.847	0.25
436.05	0.3
436.253	0.29
436.455	0.23
436.658	0.23
436.861	0.37
437.063	0.25
437.266	0.28
437.468	0.24
437.671	0.38
437.874	0.28
438.076	0.26
438.279	0.26
438.481	0.31
438.684	0.23
438.886	0.31
439.089	0.23
439.291	0.29
439.494	0.32
439.696	0.32
439.899	0.33
440.101	0.39
440.303	0.29
440.506	0.39
440.708	0.39
440.91	0.36
441.113	0.32
441.315	0.41
441.517	0.28
441.72	0.47
441.922	0.36
442.124	0.35
442.326	0.42
442.529	0.44
442.731	0.35
442.933	0.53
443.135	0.41
443.337	0.38
443.539	0.46
443.742	0.41
443.944	0.47
444.146	0.41
444.348	0.41
444.55	0.38
444.752	0.48
444.954	0.39
445.156	0.51
445.358	0.43
445.56	0.49
445.762	0.49
445.964	0.5
446.166	0.49
446.368	0.5
446.57	0.49
446.772	0.47
446.974	0.49
447.175	0.48
447.377	0.46
447.579	0.46
447.781	0.44
447.983	0.49
448.184	0.47
448.386	0.51
448.588	0.39
448.79	0.44
448.991	0.47
449.193	0.45
449.395	0.46
449.597	0.45
449.798	0.51
450	0.42
450.202	0.39
450.403	0.37
450.605	0.42
450.806	0.43
451.008	0.35
451.21	0.39
451.411	0.4
451.613	0.29
451.814	0.37
452.016	0.43
452.217	0.36
452.419	0.36
452.62	0.28
452.821	0.3
453.023	0.41
453.224	0.31
453.426	0.31
453.627	0.33
453.828	0.3
454.03	0.28
454.231	0.3
454.432	0.25
454.634	0.33
454.835	0.21
455.036	0.18
455.238	0.34
455.439	0.28
455.64	0.14
455.841	0.21
456.042	0.36
456.244	0.24
456.445	0.17
456.646	0.16
456.847	0.15
457.048	0.23
457.249	0.2
457.45	0.42
457.651	0.11
457.852	0.24
458.054	0.16
458.255	0.14
458.456	0.16
458.657	0.23
458.858	0.1
459.058	0.15
459.259	0.16
459.46	0.08
459.661	0.11
459.862	0.23
460.063	0.14
460.264	0.22
460.465	0.07
460.666	0.24
460.866	0.09
461.067	0.13
461.268	0.11
461.469	0.06
461.67	0.12
461.87	0.11
462.071	0.06
462.272	0.12
462.473	0.13
462.673	0.13
462.874	0.07
463.075	0.12
463.275	0.06
463.476	0.13
463.676	0.07
463.877	0.11
464.078	0.1
464.278	0.11
464.479	0.11
464.679	0.1
464.88	0.14
465.08	0.14
465.281	0.06
465.481	0.04
465.682	0.07
465.882	0.12
466.083	0.15
466.283	0.07
466.483	0.12
466.684	0.03
466.884	0.01
467.085	0.06
467.285	0.09
467.485	0.06
467.686	0.03
467.886	0.03
468.086	0.04
468.286	0.06
468.487	0.12
468.687	0.05
468.887	0.07
469.087	0.12
469.287	0.04
469.488	0
469.688	0.07
469.888	0.09
470.088	0.11
470.288	0.1
470.488	0.11
470.688	0.01
470.888	0.04
471.088	0.02
471.288	0.07
471.488	0.07
471.688	0.09
471.888	0.04
472.088	0.11
472.288	0.1
472.488	-0
472.688	0.02
472.888	0.04
473.088	0.03
473.288	0.06
473.488	0.03
473.688	0.12
473.887	0.06
474.087	0.03
474.287	0.04
474.487	0.03
474.687	0.04
474.886	0.05
475.086	0.02
475.286	0.01
475.486	0.07
475.685	0.03
475.885	0.03
476.085	0.04
476.284	0.1
476.484	0.01
476.684	0.07
476.883	0.11
477.083	0.08
477.282	-0
477.482	0.08
477.681	0.08
477.881	0.04
478.08	-0.01
478.28	-0.01
478.479	0.07
478.679	0.12
478.878	0.03
479.078	0.01
479.277	0.03
479.477	0.05
479.676	0.04
479.875	0.05
480.075	0
480.274	0.08
480.473	0.06
480.673	0.03
480.872	0.08
481.071	0.06
481.271	0.05
481.47	0.01
481.669	0.03
481.868	0.01
482.067	0.01
482.267	0.02
482.466	0.01
482.665	-0.01
482.864	-0.02
483.063	-0
483.262	0.05
483.461	0.1
483.661	0.07
483.86	0.03
484.059	0.05
484.258	0.06
484.457	0.05
484.656	0.03
484.855	0.09
485.054	-0
485.253	0.02
485.452	0.01
485.651	0.04
485.849	0.05
486.048	0.02
486.247	0.03
486.446	0.06
486.645	0.01
486.844	-0.01
487.043	0.03
487.241	0.06
487.44	0.02
487.639	0.02
487.838	0.06
488.037	0.04
488.235	0.08
488.434	0.05
488.633	0.03
488.831	0.06
489.03	0.07
489.229	0.05
489.427	0.04
489.626	0.07
489.825	0.1
490.023	0.05
490.222	0.05
490.42	0.03
490.619	0.07
490.817	0.07
491.016	0.02
491.214	0.08
491.413	0.05
491.611	0.01
491.81	0.07
492.008	0.05
492.207	0.09
492.405	0.04
492.604	-0
492.802	0.05
493	0.07
493.199	0.05
493.397	0.06
493.595	0.06
493.794	0.05
493.992	0.11
494.19	0.06
494.388	0.04
494.587	0.04
494.785	0.09
494.983	0.02
495.181	0.07
495.379	0.06
495.578	0.04
495.776	0.08
495.974	0.08
496.172	0.06
496.37	0.06
496.568	0.08
496.766	0.06
496.964	0.07
497.162	0.07
497.36	0.05
497.558	0.09
497.756	0.1
497.954	0.07
498.152	0.05
498.35	0.08
498.548	0.07
498.746	0.1
498.944	0.06
499.142	0.08
499.34	0.04
499.538	0.1
499.736	0.05
499.933	0.12
500.131	0.1
500.329	0.08
500.527	0.11
500.725	0.13
500.922	0.12
501.12	0.09
501.318	0.12
501.516	0.08
501.713	0.09
501.911	0.07
502.109	0.07
502.306	0.08
502.504	0.08
502.701	0.08
502.899	0.09
503.097	0.16
503.294	0.13
503.492	0.1
503.689	0.13
503.887	0.13
504.084	0.13
504.282	0.11
504.479	0.08
504.677	0.11
504.874	0.09
505.072	0.1
505.269	0.1
505.466	0.12
505.664	0.13
505.861	0.09
506.059	0.08
506.256	0.13
506.453	0.13
506.651	0.19
506.848	0.16
507.045	0.14
507.242	0.13
507.44	0.12
507.637	0.14
507.834	0.1
508.031	0.13
508.229	0.12
508.426	0.13
508.623	0.15
508.82	0.11
509.017	0.11
509.214	0.14
509.411	0.11
509.608	0.12
509.805	0.11
510.003	0.14
510.2	0.13
510.397	0.16
510.594	0.12
510.791	0.12
510.988	0.14
511.184	0.14
511.381	0.16
511.578	0.12
511.775	0.16
511.972	0.13
512.169	0.16
512.366	0.15
512.563	0.18
512.76	0.14
512.956	0.18
513.153	0.14
513.35	0.17
513.547	0.14
513.744	0.13
513.94	0.11
514.137	0.16
514.334	0.17
514.53	0.17
514.727	0.17
514.924	0.22
515.12	0.14
515.317	0.13
515.514	0.15
515.71	0.14
515.907	0.14
516.103	0.17
516.3	0.18
516.497	0.19
516.693	0.2
516.89	0.16
517.086	0.16
517.283	0.21
517.479	0.17
517.676	0.17
517.872	0.15
518.068	0.15
518.265	0.17
518.461	0.17
518.658	0.14
518.854	0.18
519.05	0.17
519.247	0.16
519.443	0.18
519.639	0.2
519.836	0.18
520.032	0.18
520.228	0.17
520.424	0.22
520.621	0.21
520.817	0.16
521.013	0.21
521.209	0.21
521.405	0.22
521.601	0.19
521.798	0.2
521.994	0.22
522.19	0.14
522.386	0.15
522.582	0.18
522.778	0.2
522.974	0.17
523.17	0.2
523.366	0.19
523.562	0.22
523.758	0.18
523.954	0.16
524.15	0.18
524.346	0.21
524.542	0.19
524.738	0.2
524.934	0.17
525.129	0.19
525.325	0.2
525.521	0.18
525.717	0.22
525.913	0.19
526.109	0.19
526.304	0.18
526.5	0.22
526.696	0.22
526.892	0.22
527.087	0.21
527.283	0.19
527.479	0.23
527.674	0.18
527.87	0.18
528.066	0.19
528.261	0.22
528.457	0.21
528.653	0.19
528.848	0.21
529.044	0.23
529.239	0.19
529.435	0.22
529.63	0.18
529.826	0.25
530.021	0.2
530.217	0.23
530.412	0.18
530.608	0.17
530.803	0.2
530.999	0.18
531.194	0.17
531.389	0.21
531.585	0.14
531.78	0.2
531.975	0.21
532.171	0.22
532.366	0.19
532.561	0.22
532.757	0.19
532.952	0.21
533.147	0.22
533.342	0.2
533.538	0.17
533.733	0.23
533.928	0.18
534.123	0.19
534.318	0.17
534.513	0.19
534.709	0.2
534.904	0.19
535.099	0.19
535.294	0.19
535.489	0.18
535.684	0.19
535.879	0.17
536.074	0.22
536.269	0.18
536.464	0.22
536.659	0.23
536.854	0.2
537.049	0.23
537.244	0.22
537.439	0.2
537.634	0.22
537.828	0.24
538.023	0.21
538.218	0.18
538.413	0.22
538.608	0.17
538.803	0.23
538.997	0.17
539.192	0.24
539.387	0.23
539.582	0.2
539.776	0.21
539.971	0.2
540.166	0.19
540.36	0.19
540.555	0.21
540.75	0.19
540.944	0.2
541.139	0.17
541.334	0.19
541.528	0.2
541.723	0.22
541.917	0.18
542.112	0.16
542.306	0.17
542.501	0.19
542.695	0.2
542.89	0.2
543.084	0.22
543.279	0.21
543.473	0.21
543.668	0.21
543.862	0.2
544.056	0.2
544.251	0.2
544.445	0.22
544.64	0.2
544.834	0.18
545.028	0.2
545.222	0.23
545.417	0.25
545.611	0.21
545.805	0.22
546	0.2
546.194	0.21
546.388	0.21
546.582	0.23
546.776	0.22
546.97	0.21
547.165	0.2
547.359	0.24
547.553	0.18
547.747	0.21
547.941	0.2
548.135	0.21
548.329	0.23
548.523	0.22
548.717	0.2
548.911	0.19
549.105	0.22
549.299	0.23
549.493	0.23
549.687	0.22
549.881	0.23
550.075	0.22
550.269	0.18
550.463	0.25
550.657	0.19
550.85	0.21
551.044	0.2
551.238	0.22
551.432	0.2
551.626	0.19
551.82	0.22
552.013	0.2
552.207	0.21
552.401	0.24
552.594	0.23
552.788	0.19
552.982	0.2
553.176	0.17
553.369	0.25
553.563	0.21
553.756	0.19
553.95	0.19
554.144	0.21
554.337	0.24
554.531	0.22
554.724	0.19
554.918	0.19
555.111	0.24
555.305	0.22
555.498	0.26
555.692	0.23
555.885	0.19
556.079	0.23
556.272	0.2
556.466	0.21
556.659	0.22
556.852	0.2
557.046	0.2
557.239	0.23
557.432	0.18
557.626	0.17
557.819	0.24
558.012	0.23
558.206	0.23
558.399	0.19
558.592	0.24
558.785	0.22
558.979	0.24
559.172	0.21
559.365	0.23
559.558	0.23
559.751	0.21
559.944	0.21
560.138	0.18
560.331	0.2
560.524	0.18
560.717	0.21
560.91	0.19
561.103	0.24
561.296	0.21
561.489	0.21
561.682	0.19
561.875	0.25
562.068	0.24
562.261	0.22
562.454	0.26
562.647	0.21
562.84	0.21
563.032	0.19
563.225	0.23
563.418	0.21
563.611	0.19
563.804	0.21
563.997	0.2
564.19	0.17
564.382	0.14
564.575	0.22
564.768	0.21
564.961	0.21
565.153	0.19
565.346	0.23
565.539	0.22
565.731	0.21
565.924	0.24
566.117	0.23
566.309	0.2
566.502	0.24
566.695	0.2
566.887	0.2
567.08	0.19
567.272	0.2
567.465	0.18
567.657	0.21
567.85	0.23
568.042	0.22
568.235	0.24
568.427	0.21
568.62	0.21
568.812	0.22
569.005	0.21
569.197	0.17
569.389	0.21
569.582	0.22
569.774	0.21
569.966	0.18
570.159	0.16
570.351	0.24
570.543	0.2
570.736	0.21
570.928	0.17
571.12	0.2
571.312	0.19
571.505	0.19
571.697	0.25
571.889	0.17
572.081	0.2
572.273	0.18
572.465	0.25
572.658	0.2
572.85	0.23
573.042	0.21
573.234	0.18
573.426	0.23
573.618	0.17
573.81	0.23
574.002	0.24
574.194	0.26
574.386	0.18
574.578	0.14
574.77	0.18
574.962	0.21
575.154	0.17
575.346	0.19
575.538	0.22
575.729	0.17
575.921	0.21
576.113	0.2
576.305	0.24
576.497	0.17
576.689	0.2
576.88	0.17
577.072	0.21
577.264	0.18
577.456	0.19
577.647	0.13
577.839	0.19
578.031	0.26
578.223	0.18
578.414	0.18
578.606	0.2
578.798	0.23
578.989	0.18
579.181	0.19
579.372	0.21
579.564	0.19
579.755	0.21
579.947	0.19
580.139	0.24
580.33	0.16
580.522	0.18
580.713	0.13
580.905	0.17
581.096	0.21
581.287	0.19
581.479	0.18
581.67	0.25
581.862	0.18
582.053	0.19
582.244	0.15
582.436	0.18
582.627	0.18
582.818	0.2
583.01	0.16
583.201	0.22
583.392	0.2
583.583	0.2
583.775	0.17
583.966	0.17
584.157	0.18
584.348	0.18
584.54	0.16
584.731	0.23
584.922	0.17
585.113	0.17
585.304	0.2
585.495	0.2
585.686	0.22
585.877	0.22
586.068	0.2
586.259	0.21
586.45	0.22
586.641	0.19
586.832	0.13
587.023	0.21
587.214	0.18
587.405	0.2
587.596	0.16
587.787	0.22
587.978	0.2
588.169	0.18
588.36	0.18
588.551	0.2
588.742	0.18
588.932	0.22
589.123	0.17
589.314	0.22
589.505	0.18
589.696	0.21
589.886	0.16
590.077	0.15
590.268	0.17
590.458	0.16
590.649	0.13
590.84	0.2
591.03	0.16
591.221	0.12
591.412	0.14
591.602	0.24
591.793	0.19
591.984	0.15
592.174	0.18
592.365	0.24
592.555	0.15
592.746	0.19
592.936	0.21
593.127	0.23
593.317	0.2
593.508	0.17
593.698	0.19
593.889	0.17
594.079	0.19
594.269	0.16
594.46	0.19
594.65	0.18
594.84	0.16
595.031	0.15
595.221	0.17
595.411	0.13
595.602	0.17
595.792	0.15
595.982	0.15
596.172	0.23
596.363	0.2
596.553	0.18
596.743	0.19
596.933	0.18
597.123	0.21
597.314	0.16
597.504	0.13
597.694	0.19
597.884	0.16
598.074	0.15
598.264	0.16
598.454	0.19
598.644	0.18
598.834	0.14
599.024	0.11
599.214	0.15
599.404	0.19
599.594	0.14
599.784	0.13
599.974	0.23
600.164	0.2
600.354	0.13
600.544	0.11
600.734	0.17
600.924	0.19
601.114	0.17
601.303	0.15
601.493	0.17
601.683	0.14
601.873	0.17
602.063	0.12
602.252	0.2
602.442	0.09
602.632	0.15
602.821	0.12
603.011	0.16
603.201	0.17
603.39	0.15
603.58	0.13
603.77	0.16
603.959	0.19
604.149	0.17
604.339	0.13
604.528	0.18
604.718	0.19
604.907	0.14
605.097	0.13
605.286	0.12
605.476	0.17
605.665	0.17
605.855	0.15
606.044	0.19
606.234	0.15
606.423	0.18
606.612	0.11
606.802	0.18
606.991	0.18
607.181	0.18
607.37	0.13
607.559	0.13
607.749	0.09
607.938	0.13
608.127	0.14
608.316	0.14
608.506	0.16
608.695	0.16
608.884	0.13
609.073	0.14
609.263	0.17
609.452	0.19
609.641	0.17
609.83	0.11
610.019	0.13
610.208	0.1
610.397	0.16
610.586	0.16
610.775	0.14
610.965	0.14
611.154	0.09
611.343	0.15
611.532	0.14
611.721	0.1
611.91	0.13
612.099	0.15
612.287	0.11
612.476	0.09
612.665	0.16
612.854	0.1
613.043	0.16
613.232	0.12
613.421	0.09
613.61	0.13
613.798	0.1
613.987	0.16
614.176	0.11
614.365	0.16
614.554	0.17
614.742	0.15
614.931	0.11
615.12	0.16
615.309	0.1
615.497	0.15
615.686	0.11
615.875	0.09
616.063	0.12
616.252	0.12
616.44	0.13
616.629	0.11
616.818	0.14
617.006	0.15
617.195	0.1
617.383	0.14
617.572	0.11
617.76	0.11
617.949	0.14
618.137	0.16
618.326	0.16
618.514	0.12
618.703	0.09
618.891	0.19
619.079	0.05
619.268	0.16
619.456	0.1
619.644	0.17
619.833	0.12
620.021	0.12
620.209	0.05
620.398	0.13
620.586	0.11
620.774	0.14
620.962	0.12
621.151	0.14
621.339	0.11
621.527	0.09
621.715	0.07
621.903	0.09
622.092	0.09
622.28	0.14
622.468	0.1
622.656	0.13
622.844	0.12
623.032	0.09
623.22	0.05
623.408	0.14
623.596	0.13
623.784	0.15
623.972	0.07
624.16	0.09
624.348	0.17
624.536	0.1
624.724	0.11
624.912	0.14
625.1	0.15
625.288	0.07
625.476	0.08
625.664	0.13
625.851	0.06
626.039	0.1
626.227	0.12
626.415	0.08
626.603	0.07
626.79	0.1
626.978	0.1
627.166	0.14
627.354	0.1
627.541	0.07
627.729	0.05
627.917	0.08
628.104	0.13
628.292	0.11
628.48	0.09
628.667	0.1
628.855	0.11
629.042	0.13
629.23	0.09
629.418	0.09
629.605	0.06
629.793	0.08
629.98	0.08
630.168	0.1
630.355	0.09
630.543	0.13
630.73	0.05
630.917	0.1
631.105	0.15
631.292	0.07
631.48	0.08
631.667	0.16
631.854	0.09
632.042	0.07
632.229	0.05
632.416	0.12
632.604	0.1
632.791	0.04
632.978	0.1
633.165	0.11
633.353	0.15
633.54	0.12
633.727	0.02
633.914	0.08
634.101	0.09
634.289	0.14
634.476	0.08
634.663	0.05
634.85	0.1
635.037	0.05
635.224	0.05
635.411	0.11
635.598	0.12
635.785	0.08
635.972	0.07
636.159	0.09
636.346	0.03
636.533	0.06
636.72	0.07
636.907	0.05
637.094	0.1
637.281	0.06
637.468	0.09
637.655	0.1
637.842	0.07
638.029	0.06
638.215	0.11
638.402	0.1
638.589	0.07
638.776	0.05
638.963	0.04
639.149	0.1
639.336	0.17
639.523	0.05
639.709	0.07
639.896	0.06
640.083	0.13
640.27	0.08
640.456	0.06
640.643	0.09
640.829	0.02
641.016	0.06
641.203	0.01
641.389	0.08
641.576	0.07
641.762	0.05
641.949	0.04
642.135	0.08
642.322	0.1
642.508	0.04
642.695	0.07
642.881	0.06
643.068	0.05
643.254	0.05
643.441	0.09
643.627	0.07
643.813	0.03
644	0.06
644.186	0.03
644.372	0.11
644.559	0.09
644.745	0.05
644.931	0.05
645.118	0.04
645.304	0.04
645.49	0.03
645.676	0.04
645.862	0.05
646.049	0.15
646.235	0.07
646.421	0.12
646.607	0.12
646.793	0.03
646.979	0.03
647.165	0.08
647.352	0.06
647.538	0.11
647.724	0.08
647.91	0.07
648.096	0.09
648.282	0.08
648.468	0.04
648.654	0.07
648.84	0.06
649.026	0.04
649.212	0.07
649.397	0.04
649.583	0.01
649.769	0.08
649.955	0.04
650.141	0.05
650.327	0.1
650.513	-0.01
650.698	0.04
650.884	-0.05
651.07	0.09
651.256	0.07
651.442	0.04
651.627	0.05
651.813	0.07
651.999	0.06
652.184	0.07
652.37	0.05
652.556	0.02
652.741	0.1
652.927	-0.02
653.113	0.04
653.298	0.04
653.484	0.05
653.669	0
653.855	0.05
654.04	0.08
654.226	0.05
654.412	0.02
654.597	0
654.782	0.07
654.968	0.12
655.153	0.03
655.339	0.01
655.524	-0
655.71	0.06
655.895	0.02
656.08	0.02
656.266	0.08
656.451	0.07
656.636	-0
656.822	0.01
657.007	0.01
657.192	0.02
657.378	-0.03
657.563	0.02
657.748	0.06
657.933	0.06
658.118	-0.01
658.304	-0
658.489	0.04
658.674	0.09
658.859	0
659.044	0.07
659.229	0.03
659.414	0
659.599	0.03
659.785	-0.05
659.97	0
660.155	0.06
660.34	0.05
660.525	0.01
660.71	0.01
660.895	0.09
661.08	0
661.264	-0
661.449	0.07
661.634	0.06
661.819	0.02
662.004	0.04
662.189	-0.05
662.374	-0
662.559	-0.01
662.743	-0.02
662.928	0.01
663.113	0.02
663.298	-0.04
663.483	0.01
663.667	0.04
663.852	-0.01
664.037	0.08
664.221	-0
664.406	0.07
664.591	0.04
664.775	0.03
664.96	0
665.145	0.09
665.329	0.06
665.514	0.02
665.698	0.02
665.883	-0.05
666.068	0.06
666.252	0.04
666.437	0.01
666.621	0.01
666.806	0.04
666.99	0.05
667.174	-0.01
667.359	0.06
667.543	0.01
667.728	-0
667.912	-0.06
668.096	0.05
668.281	-0
668.465	0
668.649	0.02
668.834	-0.03
669.018	0.01
669.202	0.02
669.387	-0.01
669.571	0.08
669.755	-0.01
669.939	0.04
670.124	-0.01
670.308	0.02
670.492	0.05
670.676	0.01
670.86	0.03
671.044	-0.02
671.228	0.05
671.413	0.01
671.597	0.02
671.781	-0.02
671.965	0.06
672.149	-0.01
672.333	0.01
672.517	-0.02
672.701	0.03
672.885	-0.01
673.069	-0.03
673.253	0.02
673.437	0.02
673.621	-0.02
673.804	0
673.988	0.02
674.172	0.01
674.356	-0.05
674.54	0.02
674.724	0.09
674.908	0.02
675.091	0.04
675.275	-0.02
675.459	0.05
675.643	0.07
675.826	0.02
676.01	-0.01
676.194	0
676.377	0.09
676.561	0.01
676.745	0.03
676.928	0.06
677.112	0.05
677.296	-0.02
677.479	-0.01
677.663	0
677.846	0.01
678.03	-0.01
678.213	-0.04
678.397	0.05
678.58	-0.02
678.764	-0
678.947	-0.02
679.131	0.03
679.314	0.1
679.498	0.01
679.681	0.05
679.865	0.05
680.048	-0.04
680.231	-0.01
680.415	-0.02
680.598	-0.02
680.781	-0.03
680.965	-0.01
681.148	0.05
681.331	0.02
681.514	0.09
681.698	-0.01
681.881	0.02
682.064	0.05
682.247	-0
682.43	-0.05
682.614	0.07
682.797	0.06
682.98	0.03
683.163	0
683.346	0.05
683.529	0.02
683.712	-0.01
683.895	0.06
684.078	-0.03
684.261	0.01
684.444	0.01
684.627	0.04
684.81	0
684.993	0.01
685.176	0.03
685.359	-0.04
685.542	-0.04
685.725	0.06
685.908	0
686.091	-0.02
686.274	0.03
686.457	0
686.639	0.02
686.822	0.03
687.005	0.01
687.188	0.04
687.371	0.09
687.553	0.03
687.736	-0.02
687.919	0.07
688.102	0.09
688.284	-0.08
688.467	0.04
688.65	0.01
688.832	-0
689.015	0.03
689.197	-0.02
689.38	0.11
689.563	0.13
689.745	-0.07
689.928	0
690.11	-0.01
690.293	-0.01
690.475	-0.05
690.658	0.06
690.84	-0.04
691.023	-0.03
691.205	-0.06
691.388	-0.01
691.57	0.05
691.752	0.07
691.935	-0.11
692.117	-0.02
692.3	0.02
692.482	0
692.664	0.03
692.847	-0.02
693.029	0.04
693.211	0.01
693.393	-0.01
693.576	0.02
693.758	0.04
693.94	-0.06
694.122	0.01
694.304	-0.01
694.487	-0.04
694.669	0.04
694.851	-0.02
695.033	-0.02
695.215	-0.05
695.397	-0.02
695.579	-0.02
695.761	-0.04
695.943	-0.07
696.125	0.07
696.308	0.05
696.49	-0.12
696.671	0.16
696.853	-0.03
697.035	0.13
697.217	-0.05
697.399	0.02
697.581	-0.05
697.763	-0.01
697.945	-0.03
698.127	-0.01
698.309	0.04
698.491	0.05
698.672	0.01
698.854	0.03
699.036	0.07
699.218	-0.04
699.399	0.06
699.581	0.06
699.763	0.04
699.945	-0.09
700.126	-0.02
700.308	0.03
700.49	-0.01
700.671	-0.08
700.853	-0.03
701.035	-0.06
701.216	-0.01
701.398	-0.04
701.579	-0.01
701.761	0.08
701.943	0.01
702.124	-0.08
702.306	-0.01
702.487	0.07
702.669	0.03
702.85	-0.02
703.031	-0.05
703.213	0.1
703.394	0.07
703.576	-0.07
703.757	0.03
703.938	0.07
704.12	0.13
704.301	-0.04
704.483	-0.02
704.664	0.03
704.845	0.08
705.026	0.03
705.208	-0.05
705.389	-0.02
705.57	-0.01
705.751	-0.06
705.933	0.01
706.114	0.03
706.295	0
706.476	-0.08
706.657	0.12
706.838	0.01
707.02	0.08
707.201	-0.06
707.382	-0.04
707.563	0.02
707.744	-0.06
707.925	-0.03
708.106	-0.05
708.287	-0
708.468	0.11
708.649	0.06
708.83	0.03
709.011	-0.02
709.192	0.04
709.373	-0.1
709.554	-0.01
709.734	0.14
709.915	0.03
710.096	-0.01
710.277	-0.11
710.458	0.03
710.639	0.01
710.819	-0.15
711	-0.04
711.181	0.06
711.362	0.08
711.542	-0.01
711.723	-0.05
711.904	0.09
712.085	-0.05
712.265	-0.03
712.446	-0.1
712.627	0.02
712.807	-0
712.988	-0.01
713.168	-0.07
713.349	0.01
713.53	-0.18
713.71	-0.06
713.891	-0.09
714.071	0.01
714.252	-0.01
714.432	-0.02
714.613	-0.08
714.793	-0.01
714.974	0.03
715.154	0.04
715.334	-0.02
715.515	0.05
715.695	-0.09
715.876	-0.04
716.056	-0.08
716.236	0.02
716.417	-0.06
716.597	-0.02
716.777	0.09
716.957	-0.03
717.138	-0.01
717.318	0.03
717.498	-0.09
717.678	-0.02
717.859	-0
718.039	-0.03
718.219	0.04
718.399	0.06
718.579	-0.07
718.759	-0.05
718.939	0.01
719.12	0
719.3	-0.03
719.48	-0.14
719.66	-0.07
719.84	0.04
720.02	0
720.2	-0.06
720.38	-0.04
720.56	0.06
720.74	-0.06
720.92	-0.02
721.1	0.04
721.279	0.01
721.459	-0
721.639	-0.12
721.819	0
721.999	-0.07
722.179	0.03
722.359	-0.13
722.538	-0.07
722.718	-0.04
722.898	-0
723.078	-0.04
723.257	-0.06
723.437	-0.02
723.617	-0.01
723.797	-0.07
723.976	-0.05
724.156	0.05
724.336	0.05
724.515	0.15
724.695	-0.15
724.874	-0.08
725.054	0.02
725.234	-0.13
725.413	-0.01
725.593	-0.05
725.772	-0.02
725.952	-0.03
726.131	-0.05
726.311	0.03
726.49	0.02
726.67	-0.06
726.849	-0.15
727.028	0.05
727.208	-0.11
727.387	0.01
727.567	-0.15
727.746	-0.1
727.925	-0.11
728.105	-0.15
728.284	-0.03
728.463	-0.08
728.643	0.02
728.822	-0.11
729.001	-0.09
729.18	0.05
729.359	0.07
729.539	0.03
729.718	-0.05
729.897	0.07
730.076	-0.08
730.255	-0.1
730.434	-0.09
730.614	0.02
730.793	0.03
730.972	-0.02
731.151	-0.03
731.33	0.11
731.509	0.03
731.688	-0.05
731.867	-0
732.046	-0.06
732.225	0.11
732.404	-0.12
732.583	-0.08
732.762	0.03
732.941	0.04
733.12	-0.05
733.298	-0.03
733.477	0.1
733.656	-0.06
733.835	-0.15
734.014	-0.1
734.193	-0.04
734.371	0.06
734.55	0.05
734.729	-0.12
734.908	-0.02
735.086	0.01
735.265	0.07
735.444	-0.18
735.623	-0.15
735.801	-0.13
735.98	-0.09
736.159	-0.11
736.337	0.03
736.516	-0.02
736.694	0.01
736.873	-0.07
737.052	-0.03
737.23	0.01
737.409	-0.08
737.587	0.06
737.766	-0.19
737.944	-0.07
738.123	0.03
738.301	0.06
738.479	-0.09
738.658	0.03
738.836	-0.13
739.015	-0.06
739.193	0.09
739.371	-0.09
739.55	-0.08
739.728	-0.12
739.906	0.05
740.085	0.13
740.263	0.1
740.441	-0.17
740.62	0.17
740.798	0.09
740.976	-0.21
741.154	-0.09
741.332	0.13
741.511	-0.12
741.689	0.05
741.867	-0
742.045	0.09
742.223	-0.06
742.401	-0.16
742.579	-0.05
742.757	0.01
742.935	-0.12
743.114	-0.1
743.292	-0.09
743.47	-0.04
743.648	-0.06
743.826	-0.19
744.004	0.01
744.181	0.07
744.359	-0.1
744.537	-0.01
744.715	-0.05
744.893	-0.1
745.071	-0.04
745.249	-0.09
745.427	-0.06
745.605	-0.04
745.782	-0.04
745.96	-0
746.138	0.01
746.316	0.06
746.493	-0.07
746.671	-0.13
746.849	-0
747.027	0.12
747.204	-0.05
747.382	0.02
747.56	-0.21
747.737	0.04
747.915	-0.06
748.093	-0
748.27	-0.11
748.448	-0.09
748.625	-0.08
748.803	-0.12
748.98	-0.02
749.158	-0.07
749.335	0.05
749.513	-0.09
749.69	-0.04
749.868	-0.06
750.045	0
750.223	-0.18
750.4	-0.2
750.578	0.24
750.755	-0.1
750.932	-0.13
751.11	0.06
751.287	-0.13
751.464	0.09
751.642	-0.12
751.819	0.02
751.996	0.05
752.173	-0.11
752.351	-0.1
752.528	-0.09
752.705	-0.07
752.882	-0.08
753.06	-0.02
753.237	0.04
753.414	0.12
753.591	0.08
753.768	-0.02
753.945	-0.09
754.122	-0.1
754.299	-0
754.476	-0.09
754.654	0.05
754.831	-0.05
755.008	0
755.185	-0.1
755.362	-0.19
755.539	0
755.716	-0.12
755.892	-0.08
756.069	-0.05
756.246	0.07
756.423	-0.07
756.6	0.08
756.777	-0.12
756.954	0.02
757.131	-0.12
757.307	-0.14
757.484	-0.11
757.661	0
757.838	-0.01
758.015	-0.14
758.191	0.11
758.368	-0.04
758.545	0.21
758.721	0.01
758.898	-0.07
759.075	0.1
759.251	0.02
759.428	0.06
759.605	-0.13
759.781	-0.18
759.958	-0.04
760.134	0.03
760.311	-0.1
760.488	0.09
760.664	-0.01
760.841	-0.07
761.017	-0.17
761.194	0.06
761.37	0.03
761.547	0.01
761.723	-0.03
761.899	0.05
762.076	-0.08
762.252	-0.13
762.429	-0.1
762.605	0.16
762.781	-0.01
762.958	0.01
763.134	-0.08
763.31	-0.12
763.486	0.13
763.663	-0.11
763.839	-0.08
764.015	-0.31
764.191	-0.14
764.368	-0.15
764.544	-0.19
764.72	0
764.896	0.12
765.072	0.09
765.248	-0.11
765.425	-0.05
765.601	-0
765.777	-0.12
765.953	-0.24
766.129	-0.18
766.305	-0.16
766.481	0.01
766.657	-0.06
766.833	0.1
767.009	-0.17
767.185	-0.12
767.361	-0.04
767.537	-0.11
767.713	0
767.889	-0
768.065	-0.05
768.24	-0.21
768.416	0.1
768.592	-0.09
768.768	-0.09
768.944	0.01
769.12	-0.13
769.295	-0.09
769.471	-0.08
769.647	-0.1
769.823	0.13
769.998	-0.07
770.174	-0.09
770.35	0.24
770.525	0.2
770.701	0.03
770.877	0.06
771.052	-0.13
771.228	-0.04
771.403	-0.11
771.579	-0.01
771.755	0.2
771.93	-0.12
772.106	-0.25
772.281	-0.23
772.457	-0.05
772.632	0.1
772.808	-0.19
772.983	-0.25
773.159	-0.22
773.334	-0
773.509	-0.14
773.685	-0.1
773.86	0.26
774.036	0.1
774.211	0.02
774.386	-0.06
774.562	0.09
774.737	0.1
774.912	-0.13
775.087	0.01
775.263	0.01
775.438	-0.01
775.613	-0.14
775.788	-0.05
775.964	0.17
776.139	0.07
776.314	-0.2
776.489	0
776.664	0.03
776.839	-0.12
777.014	0.2
777.19	0.02
777.365	0.04
777.54	0.22
777.715	-0.2
777.89	0.02
778.065	-0.1
778.24	0
778.415	0.07
778.59	-0.25
778.765	-0.15
778.94	0.01
779.115	-0.15
779.289	-0.12
779.464	-0.06
779.639	-0.01
779.814	-0.19
779.989	-0.37
780.164	0.12
780.339	0.06
780.513	-0.32
780.688	-0.01
780.863	-0.02
781.038	0.05
781.212	-0.16
781.387	-0
781.562	0.2
781.737	-0.16
781.911	0.06
782.086	-0.18
782.261	0.01
782.435	0.1
782.61	-0.03
782.784	-0.06
782.959	0.08
783.134	-0.2
783.308	-0.32
783.483	-0.25
783.657	0.41
783.832	0.02
784.006	-0.24
784.181	-0.08
784.355	0.13
784.53	-0.27
784.704	-0.27
784.878	0.13
785.053	-0.06
785.227	0.18
785.402	0.13
785.576	-0.2
785.75	-0.12
785.925	-0.02
786.099	-0.2
786.273	-0.08
786.448	0.08
786.622	-0.02
786.796	-0.05
786.97	-0.11
787.145	0.42
787.319	-0.46
787.493	-0.25
787.667	-0.42
787.841	-0
788.015	0.33
788.19	-0.17
788.364	-0.02
788.538	0.18
788.712	0.17
788.886	-0.06
789.06	0.1
789.234	0.3
789.408	-0.17
789.582	-0.19
789.756	-0.06
789.93	-0.39
790.104	-0.02
790.278	-0.29
790.452	-0.22
790.626	0.06
790.8	-0.2
790.973	0.01
791.147	-0.03
791.321	0.24
791.495	0.1
791.669	-0.13
791.843	0
792.016	0.03
792.19	0.29
792.364	-0.42
792.538	0.58
792.711	0.13
792.885	-0.12
793.059	-0.26
793.233	-0.54
793.406	0.08
793.58	-0.12
793.754	0.01
793.927	-0.28
794.101	0.18
794.274	-0.07
794.448	0.05
794.622	-0.22
794.795	-0
794.969	-0.14
795.142	0.05
795.316	-0.13
795.489	-0.21
795.663	0.46
795.836	-0.2
796.009	-0.48
796.183	0.25
796.356	-0.11
796.53	-0.02
796.703	0.06
796.876	0.2
797.05	-0.26
797.223	-0.14
797.396	0.14
797.57	0.12
797.743	0.29
797.916	0.07
798.09	-0.06
798.263	0.15
798.436	-0.16
798.609	-0.07
798.782	-0.33
798.956	-0.17
799.129	-0.14
799.302	-0.04
799.475	-0.5
799.648	-0.28
799.821	-0.26
799.994	0.09
800.167	-0.26
800.34	0
800.514	0.14
800.687	-0.31
800.86	-0.22
801.033	0.13
801.206	-0.12
801.379	-0.33
801.551	0.06
801.724	0.41
801.897	0.13
802.07	-0.11
802.243	-0.5
802.416	-0.41
802.589	-0.04
802.762	-0.1
802.935	-0.1
803.107	0.1
803.28	0.11
803.453	-0.21
803.626	-0.32
803.798	-0.32
803.971	-0.02
804.144	0.34
804.317	0.12
804.489	0.08
804.662	-0.17
804.835	-0.15
805.007	-0.23
805.18	0.37
805.353	-0.04
805.525	-0.3
805.698	-0.07
805.87	0.06
806.043	0.43
806.215	-0.45
806.388	-0.49
806.56	-0.03
806.733	0.27
806.905	0
807.078	-0.54
807.25	-0.3
807.423	0.01
807.595	-0.09
807.768	-0.18
807.94	0.15
808.112	-0.13
808.285	-0.24
808.457	-0.26
808.629	-0.11
808.802	-0.37
808.974	-0.08
809.146	-0.31
809.318	-0.46
809.491	-0.22
809.663	0.25
809.835	-0.43
810.007	0.32
810.18	-0.22
810.352	-0.5
810.524	-0.36
810.696	0.09
810.868	0.3
811.04	-0.25
811.212	-0.35
811.384	0.04
811.556	-0.16
811.728	0.15
811.901	0.9
812.073	-0.33
812.245	0.23
812.417	0.03
812.589	-0.67
812.76	-0.08
812.932	0.03
813.104	0.09
813.276	-0.21
813.448	0.26
813.62	-0.17
813.792	0.35
813.964	-0.15
814.136	0.29
814.307	0
814.479	-0.18
814.651	-0.17
814.823	0.36
814.995	0.09
815.166	-0.23
815.338	-0.16
815.51	-0.6
815.681	1.11
815.853	-0.18
816.025	-0.12
816.196	0.35
816.368	0.25
816.54	-0.77
816.711	-0.28
816.883	-0.16
817.054	0.74
817.226	-0.79
817.398	0.01
817.569	-0.37
817.741	-0.15
817.912	0.15
818.084	-0.39
818.255	0.57
818.426	-0.64
818.598	-0.38
818.769	-0.48
818.941	0.47
819.112	0.27
819.283	0.31
819.455	-0.43
819.626	0.32
819.798	0.46
819.969	0.11
820.14	-0.13
820.311	-0.31
820.483	-0.2
820.654	0.16
820.825	-0.42
820.996	-0.28
821.168	-0.62
821.339	-0.27
821.51	-0.62
821.681	0.31
821.852	0.4
822.023	-0.38
822.195	-0.47
822.366	0.31
822.537	-0.14
822.708	-0.14
822.879	-0.5
823.05	0.39
823.221	-0.37
823.392	-0.24
823.563	0.3
823.734	0.07
823.905	-0.22
824.076	-1.1
824.247	-0.4
824.418	-0.48
824.589	0.13
824.759	-0.43
824.93	-0.61
825.101	-0.85
825.272	0.01
825.443	0.67
825.614	0.57
825.784	-0.87
825.955	0.32
826.126	0.48
826.297	0.25
826.467	0.52
826.638	0.44
826.809	-0.84
826.98	-0.62
827.15	0.05
827.321	-0.19
827.492	0.48
827.662	-0.16
827.833	0.47
828.003	-0.06
828.174	-0.31
828.345	-0.59
828.515	0.95
828.686	0.28
828.856	-0.3
829.027	0.03
829.197	-0.45
829.368	0.15
829.538	-0.31
829.709	-0.4
829.879	-0.1
830.049	-0.39
830.22	-0.35
830.39	-0.24
830.56	0.34
830.731	-0.11
830.901	-1.15
831.072	-0.09
831.242	0
831.412	0.12
831.582	-0.34
831.753	-0.83
831.923	0.63
832.093	-0.27
832.263	-0.08
832.434	-0.16
832.604	-0.93
832.774	-0.53
832.944	-0.45
833.114	-0.76
833.284	0.62
833.454	-0.9
833.624	-0.63
833.795	-0.58
833.965	0.38
834.135	0.1
834.305	-1.28
834.475	-0.97
834.645	-0.34
834.815	-0.99
834.985	-0.91
835.155	-0.19
835.325	0.27
835.494	-0.09
835.664	-0.3
835.834	-0.52
836.004	-0.22
836.174	0.2
836.344	-0.27
836.514	-1.18
836.684	-0.1
836.853	-0.07
837.023	-0
837.193	-0.27
837.363	0.08
837.532	0.51
837.702	-0.63
837.872	-0.65
838.041	0.15
838.211	0.89
838.381	-0.65
838.55	-0.45
838.72	1.52
838.89	0.85
839.059	-0.73
839.229	-0.96
839.398	1.05
839.568	-0.37
839.738	-0.09
839.907	0.05
840.077	-0.2
840.246	-0.98
840.416	-0.95
840.585	-0.91
840.755	0.58
840.924	0.68
841.093	-0.55
841.263	-0.11
841.432	0.02
841.602	-0.66
841.771	-1.17
841.94	0.23
842.11	0.62
842.279	0.5
842.448	-0.52
842.617	-0.97
842.787	0.72
842.956	-0.17
843.125	-0.41
843.294	0.03
843.464	0.65
843.633	-0.97
843.802	-0.88
843.971	-0.08
844.14	-0.22
844.309	0.38
844.479	-1.75
844.648	-1.16
844.817	-0.84
844.986	0.7
845.155	-0.91
845.324	-0.53
845.493	-0.23
845.662	-0.62
845.831	-0.27
846	-0.23
846.169	-0.67
846.338	0.44
846.507	-0.23
846.676	0
846.844	-0.41
847.013	0.16
847.182	0.04
847.351	-0.57
847.52	0.54
847.689	0.34
847.858	-0.11
848.026	-0.57
848.195	-0.35
848.364	-1.46
848.533	-0.9
848.701	-1.13
848.87	-0.55
849.039	0.77
849.207	0.17
849.376	0.5
849.545	1.16
849.713	-0.8
849.882	-0.46
850.051	0.16
850.219	-0.18
850.388	0.16
850.556	-0.4
850.725	-1.32
850.893	0.2
851.062	-0.25
851.23	-0.18
851.399	-2.44
851.567	-0.87
851.736	-0.27
851.904	-1.02
852.073	-0.22
852.241	-0.25
852.41	0.53
852.578	-0.85
852.746	-0.64
852.915	0.1
853.083	-0.19
853.251	-1.01
853.42	-0.25
853.588	0.25
853.756	1.59
853.924	-0.5
854.093	-0.15
854.261	0.29
854.429	-1.39
854.597	0.21
854.765	-1.87
854.934	0.73
855.102	0.87
855.27	-1.05
855.438	-0.11
855.606	0.82
855.774	1.36
855.942	-1.34
856.11	-1.13
856.278	-0.27
856.446	0.21
856.614	-0.02
856.782	-0.76
856.95	0.75
857.118	0.87
857.286	-0.13
857.454	-0.97
857.622	0.76
857.79	0.28
857.958	-0.25
858.126	-0.14
858.294	-2.7
858.462	-0.07
858.629	-1.03
858.797	-0.78
858.965	-1.41
859.133	-0.1
859.301	-1.59
859.468	-0.58
859.636	-1.01
859.804	0.65
859.971	0.25
860.139	-1.1
860.307	1.14
860.474	-0.08
860.642	-1.7
860.81	-1.05
860.977	-1.07
861.145	-0.19
861.313	-0.8
861.48	0.04
861.648	0.09
861.815	-0.41
861.983	-2.07
862.15	-1.64
862.318	1.52
862.485	1.59
862.653	-1.05
862.82	-2.18
862.988	1.73
863.155	-0.81
863.322	-1.86
863.49	-2.01
863.657	-1.25
863.824	1.75
863.992	-0.23
864.159	-1.21
864.326	0.6
864.494	-0.66
864.661	2.73
864.828	-1.72
864.996	0.2
865.163	0.9
865.33	-1.07
865.497	-2.64
865.664	-0.71
865.832	-1.83
865.999	-0.99
866.166	-1.28
866.333	-1.08
866.5	-1.12
866.667	-0.19
866.834	-1.99
867.001	1.8
867.168	-2.82
867.335	-0.73
867.502	-2.23
867.669	1.09
867.836	0.11
868.003	-0.39
868.17	0.69
868.337	2.46
868.504	1.48
868.671	-2.95
868.838	-1.23
869.005	-0.25
869.172	-0.12
869.339	0.07
869.505	-1.63
869.672	-0.56
869.839	1.08
870.006	-0.61
870.173	-2.2
870.339	0.75
870.506	3.84
870.673	-2.14
870.84	0.54
871.006	0.64
871.173	-0.41
871.34	-0.85
871.506	-1.4
871.673	-1.11
871.839	-2.7
872.006	-0.84
872.173	0.14
872.339	-0.85
872.506	1.83
872.672	-1.79
872.839	-2.99
873.005	-0.46
873.172	1.81
873.338	1.59
873.505	-0.11
873.671	1.02
873.838	-0.21
874.004	-1.49
874.171	-1.79
874.337	0.57
874.503	0.49
874.67	-2.16
874.836	-0.39
875.002	1.96
875.169	0.58
875.335	-0.2
875.501	-1.83
875.668	0.63
875.834	-0.56
876	-2.53
876.166	1.24
876.332	1.03
876.499	1.54
876.665	-0.26
876.831	-1.91
876.997	2.75
877.163	1.33
877.329	-1.55
877.495	-0.16
877.662	1.07
877.828	0.01
877.994	-1.48
878.16	-2.26
878.326	-0.95
878.492	0.1
878.658	-0.62
878.824	0.34
878.99	-1.11
879.156	-3.59
879.322	2.68
879.487	-0.27
879.653	0.59
879.819	0.66
879.985	-0.47
880.151	-1.5
880.317	0.1
880.483	-0.27
880.648	1.24
880.814	-3.72
880.98	1.75
881.146	-4.65
881.312	-1.73
881.477	-1.53
881.643	-1.33
881.809	1.03
881.974	-0.08
882.14	-2.79
882.306	-0.03
882.471	2.7
882.637	-2.32
882.803	2.03
882.968	0.42
883.134	2.89
883.299	0.14
883.465	-1.17
883.63	0.53
883.796	1.97
883.961	1.42
884.127	1.09
884.292	-4.52
884.458	-2.58
884.623	-2.57
