Data from Apollo_Calib_20240827__AbsoluteIrradiance__707__10-56-01-549.txt Node

Date: Wed Aug 28 10:56:01 BST 2024
User: biology
Spectrometer: FLMT08252
Trigger mode: 0
Integration Time (sec): 5.000000E-1
Scans to average: 5
Electric dark correction enabled: true
Nonlinearity correction enabled: false
Boxcar width: 0
XAxis mode: Wavelengths
Number of Pixels in Spectrum: 3648
>>>>>Begin Spectral Data<<<<<
179.588	-0
179.809	-0
180.03	-0
180.251	-0
180.473	-0
180.694	0
180.915	0
181.136	-0
181.357	0
181.578	-0
181.799	0
182.02	-0
182.241	0
182.462	-0
182.683	0
182.904	-0
183.125	-0
183.346	0
183.567	0
183.788	-0
184.009	-0
184.23	0
184.451	0
184.672	-0
184.892	-0
185.113	0
185.334	0
185.555	-0
185.776	-0
185.996	0
186.217	0
186.438	0
186.659	-0
186.879	0
187.1	-0
187.321	-0
187.541	-0
187.762	-0
187.983	-0
188.203	-0
188.424	0
188.644	-0
188.865	-0
189.086	-0
189.306	-0
189.527	0
189.747	-0
189.968	-0
190.188	-0
190.409	-0
190.629	0
190.849	-0
191.07	-0
191.29	0
191.511	0
191.731	-0
191.951	-0
192.172	-0
192.392	-0
192.612	-0
192.833	-0
193.053	-0
193.273	0
193.493	-0
193.714	0
193.934	0
194.154	0
194.374	-0
194.594	-0
194.815	-0
195.035	0
195.255	-0
195.475	-0
195.695	0
195.915	-0
196.135	-0
196.355	0
196.575	0
196.795	0
197.015	-0
197.235	-0
197.455	-0
197.675	0
197.895	-0
198.115	-0
198.335	0
198.555	-0
198.775	0
198.995	0
199.214	0
199.434	-0
199.654	-0
199.874	-0
200.094	0.93
200.313	-0.26
200.533	-0.45
200.753	-0.84
200.973	0.63
201.192	0.19
201.412	-0.44
201.632	-0.46
201.851	0.79
202.071	-0.89
202.291	-0.52
202.51	-0.93
202.73	0.09
202.95	-0.05
203.169	-0.77
203.389	-0.22
203.608	0.2
203.828	-0.82
204.047	-0.09
204.267	-0.18
204.486	-0.26
204.706	-0.13
204.925	-0.2
205.145	-0.2
205.364	0.43
205.583	0.49
205.803	-0.46
206.022	-0.74
206.242	0.18
206.461	-0.02
206.68	-0.2
206.9	-0.11
207.119	0.46
207.338	0.63
207.557	-0.42
207.777	-0.23
207.996	-0.28
208.215	0.53
208.434	-0.11
208.654	-0.63
208.873	-0.09
209.092	0.15
209.311	-0.31
209.53	0.09
209.749	-0.3
209.968	-0.42
210.187	0.06
210.407	-0.54
210.626	-0.18
210.845	0.19
211.064	0
211.283	-0.17
211.502	0.2
211.721	-0.14
211.94	-0.11
212.159	0.23
212.377	0.12
212.596	0.17
212.815	-0.03
213.034	0.11
213.253	0.27
213.472	0.23
213.691	-0.16
213.91	-0.41
214.128	-0.29
214.347	0.2
214.566	-0.51
214.785	-0.26
215.003	-0.01
215.222	0.01
215.441	-0.1
215.66	-0.41
215.878	-0.08
216.097	0.25
216.316	-0.27
216.534	-0.05
216.753	0.13
216.972	-0.16
217.19	-0.1
217.409	-0.31
217.627	-0.18
217.846	-0.21
218.064	-0.11
218.283	-0.12
218.501	0.32
218.72	0.04
218.938	-0.22
219.157	-0.1
219.375	0.02
219.594	0.06
219.812	-0.11
220.031	-0.23
220.249	0.26
220.467	0.28
220.686	-0.18
220.904	-0.34
221.122	-0.23
221.341	0.32
221.559	0.16
221.777	-0.25
221.995	-0.01
222.214	0.09
222.432	-0.07
222.65	0.05
222.868	-0.11
223.086	-0.01
223.305	0.03
223.523	-0.09
223.741	0.22
223.959	-0.3
224.177	-0.21
224.395	-0.04
224.613	0.02
224.831	0.14
225.049	-0.14
225.267	-0.1
225.485	0.12
225.703	-0.08
225.921	0.08
226.139	-0.22
226.357	0.11
226.575	-0.05
226.793	-0
227.011	0.35
227.229	-0.07
227.447	0.04
227.665	-0.08
227.883	-0.28
228.1	-0.05
228.318	0.02
228.536	-0.29
228.754	-0.15
228.972	-0.02
229.189	-0.05
229.407	-0.01
229.625	-0.18
229.843	0.11
230.06	-0.01
230.278	-0.23
230.496	0.05
230.713	0.03
230.931	0.09
231.149	-0.07
231.366	-0.24
231.584	0.02
231.801	0.27
232.019	-0.05
232.236	-0.17
232.454	-0.12
232.671	0.05
232.889	-0.01
233.106	0.01
233.324	-0.07
233.541	0.01
233.759	-0.06
233.976	-0.21
234.194	-0.05
234.411	0.01
234.628	-0.21
234.846	-0.09
235.063	-0.05
235.28	0.07
235.498	-0.03
235.715	-0.15
235.932	0.18
236.149	-0.09
236.367	-0.2
236.584	-0.03
236.801	-0.12
237.018	0.02
237.236	0.01
237.453	-0.21
237.67	-0.01
237.887	-0.06
238.104	-0.09
238.321	-0.16
238.538	-0.01
238.755	0.02
238.973	-0.21
239.19	0.02
239.407	0
239.624	0.02
239.841	-0.25
240.058	-0.07
240.275	0.04
240.492	-0.03
240.709	-0.02
240.925	-0.06
241.142	-0.02
241.359	-0.14
241.576	-0.13
241.793	-0.14
242.01	-0.04
242.227	0.04
242.444	0.01
242.66	0.08
242.877	0.03
243.094	-0.03
243.311	-0.05
243.527	-0.05
243.744	-0.02
243.961	-0.03
244.178	-0.09
244.394	-0.07
244.611	0.08
244.828	0.13
245.044	-0.1
245.261	-0.02
245.477	-0.03
245.694	0
245.911	-0.12
246.127	-0.04
246.344	0.12
246.56	0.06
246.777	-0.05
246.993	0.01
247.21	0.01
247.426	0.07
247.643	-0.04
247.859	-0.05
248.076	-0.08
248.292	0.14
248.508	-0.02
248.725	0.01
248.941	-0.04
249.157	0.1
249.374	-0.02
249.59	-0.04
249.806	0
250.023	-0.05
250.239	-0.03
250.455	-0.04
250.671	0.09
250.888	0.03
251.104	-0.04
251.32	-0.11
251.536	-0.06
251.752	-0.08
251.969	0.01
252.185	-0.01
252.401	0.13
252.617	0.04
252.833	-0.04
253.049	0.01
253.265	-0.11
253.481	0.02
253.697	-0.13
253.913	-0.08
254.129	0.04
254.345	-0.04
254.561	-0.05
254.777	-0.03
254.993	0.08
255.209	0.02
255.425	-0.07
255.641	-0.16
255.857	0.03
256.073	-0.02
256.288	-0.1
256.504	-0.11
256.72	-0.04
256.936	0.11
257.152	-0.03
257.367	-0.07
257.583	-0.04
257.799	0.07
258.015	-0.04
258.23	-0.09
258.446	0.11
258.662	0.01
258.877	-0.05
259.093	-0.03
259.309	-0.05
259.524	0.02
259.74	-0.04
259.955	-0.1
260.171	-0
260.387	-0.05
260.602	0.05
260.818	-0
261.033	-0.07
261.249	-0.03
261.464	-0.06
261.68	-0.21
261.895	-0
262.11	0.02
262.326	-0.09
262.541	-0.12
262.757	0.03
262.972	-0.01
263.187	-0.04
263.403	-0.08
263.618	0.05
263.833	0.04
264.049	-0.1
264.264	0.01
264.479	-0.02
264.694	0.05
264.91	-0.1
265.125	-0.02
265.34	0.07
265.555	0.14
265.77	-0.02
265.986	-0.03
266.201	-0
266.416	0.01
266.631	-0.03
266.846	-0.03
267.061	0
267.276	0.06
267.491	-0.15
267.706	0.02
267.921	0.08
268.136	-0.01
268.351	-0.01
268.566	-0.14
268.781	0.06
268.996	0
269.211	-0.06
269.426	-0.12
269.641	-0.04
269.856	0.01
270.071	-0.05
270.285	-0.09
270.5	0.05
270.715	0.09
270.93	-0.01
271.145	-0
271.359	0.02
271.574	-0.04
271.789	-0.03
272.004	-0.09
272.218	-0.01
272.433	0.09
272.648	-0.05
272.862	0.01
273.077	-0.02
273.292	-0.03
273.506	-0.07
273.721	-0.06
273.936	0.01
274.15	0.02
274.365	-0
274.579	0.05
274.794	0.09
275.008	0.09
275.223	-0.08
275.437	-0.07
275.652	0.07
275.866	0.04
276.081	-0.02
276.295	0.03
276.509	0.01
276.724	-0.01
276.938	-0.04
277.153	0.06
277.367	0.09
277.581	-0.07
277.796	-0.05
278.01	-0.1
278.224	0.03
278.438	0.14
278.653	-0.06
278.867	-0.07
279.081	-0.12
279.295	-0
279.51	0.04
279.724	-0.11
279.938	0.04
280.152	0.01
280.366	-0.05
280.58	-0.02
280.794	0.04
281.008	0.06
281.222	0.08
281.437	0.09
281.651	0.03
281.865	0.04
282.079	-0.02
282.293	-0.15
282.507	-0.03
282.721	0.01
282.935	-0.02
283.148	-0.09
283.362	0.01
283.576	-0.07
283.79	0
284.004	-0.08
284.218	0.1
284.432	0.03
284.646	-0
284.859	-0.03
285.073	-0.05
285.287	0.01
285.501	-0.07
285.714	-0.02
285.928	0.02
286.142	-0.02
286.356	-0
286.569	-0.05
286.783	-0.01
286.997	0
287.21	0
287.424	0.05
287.637	-0.07
287.851	-0.05
288.065	0.01
288.278	-0.05
288.492	-0.02
288.705	-0.03
288.919	-0
289.132	-0.07
289.346	0.06
289.559	-0.06
289.773	-0.08
289.986	0.01
290.2	0.01
290.413	0.03
290.626	-0.03
290.84	-0.04
291.053	-0.01
291.267	0.09
291.48	-0
291.693	0.02
291.906	-0.03
292.12	0.02
292.333	-0.01
292.546	-0.01
292.76	0.03
292.973	-0.03
293.186	-0.01
293.399	-0.09
293.612	0.05
293.826	0.04
294.039	-0.01
294.252	-0.01
294.465	-0.01
294.678	0.03
294.891	-0.02
295.104	-0.03
295.317	-0.01
295.53	-0
295.743	-0.02
295.956	-0.06
296.169	0.04
296.382	0.07
296.595	-0.01
296.808	-0.03
297.021	0.04
297.234	0.01
297.447	-0.01
297.66	-0.02
297.873	0.04
298.086	0.04
298.299	-0.02
298.511	-0.04
298.724	-0.08
298.937	-0.05
299.15	0.01
299.363	-0.01
299.575	0.02
299.788	0.04
300.001	-0.05
300.213	-0.05
300.426	-0.04
300.639	-0.03
300.852	-0.05
301.064	0.04
301.277	0.05
301.489	0
301.702	-0
301.915	-0.02
302.127	-0.02
302.34	0.02
302.552	0.04
302.765	-0.05
302.977	0.05
303.19	-0.01
303.402	0.01
303.615	-0.03
303.827	-0.05
304.04	0.01
304.252	0.05
304.464	-0.06
304.677	0.1
304.889	0.08
305.102	-0.02
305.314	-0.04
305.526	0.04
305.739	-0.01
305.951	-0.04
306.163	-0.01
306.375	0.12
306.588	-0.01
306.8	-0.04
307.012	-0.05
307.224	0
307.436	0.06
307.649	-0.07
307.861	-0
308.073	0.05
308.285	-0.03
308.497	-0.01
308.709	-0.03
308.921	-0.02
309.133	0.07
309.346	-0.03
309.558	-0.04
309.77	0.03
309.982	0.02
310.194	0.02
310.406	-0.08
310.617	0.06
310.829	0.02
311.041	0.03
311.253	-0.04
311.465	0
311.677	0.02
311.889	-0.01
312.101	-0.02
312.313	0.04
312.524	0.02
312.736	-0.07
312.948	-0.02
313.16	0.11
313.372	0.01
313.583	0.03
313.795	0.01
314.007	-0.06
314.218	0.03
314.43	0
314.642	-0.04
314.853	-0.05
315.065	0.02
315.277	-0.01
315.488	0.04
315.7	0.04
315.912	-0.01
316.123	-0
316.335	-0.05
316.546	0.08
316.758	-0.02
316.969	-0.05
317.181	0.02
317.392	0
317.604	0.04
317.815	-0.06
318.026	0.02
318.238	-0.02
318.449	0.02
318.661	-0.05
318.872	-0.03
319.083	-0.01
319.295	-0.02
319.506	-0.01
319.717	0.03
319.929	0.04
320.14	-0.01
320.351	0.01
320.562	-0.05
320.774	0.03
320.985	-0.01
321.196	-0.05
321.407	-0.04
321.618	0.02
321.829	-0.01
322.041	0.08
322.252	-0
322.463	-0.02
322.674	0.05
322.885	-0.02
323.096	-0.01
323.307	-0.04
323.518	0.01
323.729	-0.05
323.94	-0.1
324.151	-0.03
324.362	0
324.573	0.04
324.784	-0
324.995	0.04
325.206	-0.01
325.417	-0.03
325.628	-0.02
325.838	0.01
326.049	0.01
326.26	0.04
326.471	0
326.682	0
326.892	0.03
327.103	-0.08
327.314	-0.06
327.525	0.07
327.735	-0
327.946	-0.03
328.157	-0.03
328.368	-0.01
328.578	-0.03
328.789	0.02
328.999	-0
329.21	-0.03
329.421	0.03
329.631	-0.04
329.842	0.01
330.052	0.03
330.263	0.02
330.473	-0
330.684	0.03
330.894	0
331.105	0.03
331.315	-0
331.526	-0.07
331.736	0.09
331.947	0.01
332.157	0.03
332.367	-0.02
332.578	0.01
332.788	0.01
332.999	0.01
333.209	-0.04
333.419	-0.04
333.629	0.01
333.84	0.03
334.05	-0.03
334.26	0.07
334.47	-0
334.681	0.05
334.891	-0.03
335.101	-0.03
335.311	0.03
335.521	0.01
335.732	-0.04
335.942	0.03
336.152	0.05
336.362	0.01
336.572	-0
336.782	0.02
336.992	-0.05
337.202	-0.03
337.412	0
337.622	0.01
337.832	-0.05
338.042	-0
338.252	-0.04
338.462	0.01
338.672	0.01
338.882	-0.04
339.092	0
339.302	0.05
339.511	0.03
339.721	-0.03
339.931	-0.02
340.141	0.03
340.351	0.05
340.561	0.03
340.77	0.01
340.98	-0.01
341.19	0.03
341.4	-0.03
341.609	-0.07
341.819	-0.02
342.029	-0.06
342.238	0.01
342.448	0
342.658	0.05
342.867	-0
343.077	-0.01
343.286	0.06
343.496	-0
343.706	0.06
343.915	-0.06
344.125	0.03
344.334	0
344.544	-0.05
344.753	-0.02
344.963	-0.04
345.172	-0.01
345.381	-0.01
345.591	-0.05
345.8	-0.02
346.01	0.05
346.219	0.04
346.428	-0.13
346.638	0.01
346.847	0
347.056	0.06
347.266	-0.01
347.475	-0.03
347.684	0.01
347.893	0.02
348.103	0.01
348.312	-0
348.521	-0.04
348.73	-0.01
348.94	0.02
349.149	-0.02
349.358	-0.01
349.567	-0.01
349.776	-0.06
349.985	-0.02
350.194	0.03
350.403	0.06
350.612	-0.01
350.821	-0.02
351.03	0.01
351.239	-0.07
351.448	0.01
351.657	0
351.866	0.06
352.075	-0.04
352.284	-0
352.493	-0.06
352.702	0.05
352.911	0.03
353.12	0.03
353.329	-0.01
353.538	0.04
353.746	0.02
353.955	-0.06
354.164	0.05
354.373	-0.07
354.582	0.06
354.79	0.03
354.999	0.06
355.208	-0.02
355.416	0.04
355.625	-0.07
355.834	-0.02
356.042	0.01
356.251	-0.03
356.46	-0.04
356.668	-0.03
356.877	0.08
357.085	0.06
357.294	-0.11
357.503	0.02
357.711	-0
357.92	0.1
358.128	-0.02
358.337	0.04
358.545	0.02
358.754	-0.01
358.962	0.02
359.17	-0
359.379	-0.02
359.587	0.05
359.796	-0.02
360.004	0.09
360.212	-0
360.421	0.01
360.629	-0.03
360.837	-0.03
361.046	0.02
361.254	0.08
361.462	-0.01
361.67	-0.04
361.879	0.01
362.087	0.02
362.295	0
362.503	-0.03
362.711	-0.07
362.92	-0.03
363.128	-0.02
363.336	-0.03
363.544	-0.02
363.752	0.02
363.96	-0.06
364.168	-0.03
364.376	-0.01
364.584	0
364.792	0.03
365	-0
365.208	-0.05
365.416	0.02
365.624	0
365.832	-0.03
366.04	0.05
366.248	0.01
366.456	0
366.664	-0.01
366.872	0.01
367.079	0.02
367.287	-0.01
367.495	-0.01
367.703	-0
367.911	-0.02
368.118	-0
368.326	-0.03
368.534	-0.02
368.742	0.04
368.949	-0.03
369.157	-0.02
369.365	0.03
369.572	-0.04
369.78	-0.03
369.988	-0
370.195	0.02
370.403	0.03
370.61	-0
370.818	-0.01
371.026	0.03
371.233	-0.03
371.441	-0.01
371.648	-0.04
371.856	0.02
372.063	0.02
372.271	-0
372.478	-0.05
372.685	-0.03
372.893	0.03
373.1	-0.01
373.308	-0.03
373.515	0.08
373.722	-0
373.93	-0.02
374.137	0.01
374.344	0.05
374.552	0.01
374.759	0.03
374.966	-0.01
375.173	-0.03
375.381	0.01
375.588	-0.04
375.795	-0.07
376.002	-0.05
376.209	-0.02
376.417	0.02
376.624	0.04
376.831	0.03
377.038	-0.03
377.245	-0.08
377.452	-0
377.659	0.02
377.866	0.01
378.073	-0.03
378.28	0.02
378.487	0.03
378.694	0.03
378.901	-0.03
379.108	0.01
379.315	-0.04
379.522	0.1
379.729	0.04
379.936	0.01
380.143	0.03
380.35	0
380.557	-0.01
380.763	0
380.97	-0.02
381.177	-0.01
381.384	0.02
381.591	-0.04
381.797	-0
382.004	-0
382.211	0.01
382.418	-0.04
382.624	0.02
382.831	0.04
383.038	-0.01
383.244	-0.01
383.451	-0
383.658	0.01
383.864	-0.07
384.071	-0.04
384.277	0.07
384.484	-0.02
384.69	0.06
384.897	-0.01
385.103	0.01
385.31	-0.04
385.516	-0.04
385.723	-0.04
385.929	-0.02
386.136	-0.05
386.342	-0.03
386.549	-0.01
386.755	0.06
386.961	0.02
387.168	-0.01
387.374	0.01
387.58	-0.01
387.787	-0
387.993	-0
388.199	-0.03
388.406	-0.02
388.612	-0.07
388.818	-0.01
389.024	-0.01
389.231	0.01
389.437	0.05
389.643	0.02
389.849	0.02
390.055	-0.01
390.261	0.03
390.467	0.01
390.674	-0.02
390.88	0.01
391.086	0.04
391.292	-0.07
391.498	0.01
391.704	0.04
391.91	-0
392.116	-0.03
392.322	-0.05
392.528	0.01
392.734	-0.03
392.94	-0.03
393.146	-0.02
393.352	-0
393.557	-0.02
393.763	0.02
393.969	-0
394.175	0.03
394.381	0
394.587	-0.07
394.792	-0.02
394.998	0.04
395.204	0.02
395.41	-0.07
395.615	0.02
395.821	0.04
396.027	0.04
396.233	-0.04
396.438	-0.02
396.644	0.01
396.85	0.02
397.055	-0.04
397.261	0.02
397.466	-0.01
397.672	-0.03
397.878	0.02
398.083	0.02
398.289	-0.03
398.494	0.03
398.7	0.03
398.905	-0.08
399.111	0.05
399.316	-0.04
399.522	0.03
399.727	-0
399.932	-0.02
400.138	0.02
400.343	0.03
400.549	-0.01
400.754	0.03
400.959	0.02
401.165	-0.02
401.37	0.01
401.575	0.07
401.78	-0.03
401.986	-0.06
402.191	-0.04
402.396	0.04
402.601	-0.01
402.807	0.04
403.012	0.02
403.217	0.04
403.422	0
403.627	0.02
403.832	-0.04
404.037	-0.02
404.243	0.01
404.448	0.01
404.653	-0.06
404.858	-0.02
405.063	0.05
405.268	0.02
405.473	-0.07
405.678	-0.03
405.883	0.08
406.088	0.05
406.293	0
406.498	-0.03
406.703	0.05
406.907	-0
407.112	-0.08
407.317	0.04
407.522	0.06
407.727	-0.06
407.932	0.01
408.136	0.09
408.341	0.03
408.546	-0
408.751	0.02
408.956	-0.04
409.16	0.04
409.365	0.01
409.57	-0.05
409.774	0.01
409.979	0.02
410.184	0.01
410.388	-0.04
410.593	0.01
410.798	0.06
411.002	-0
411.207	0.03
411.411	-0
411.616	-0.06
411.82	-0.02
412.025	0.05
412.229	-0.02
412.434	0.04
412.638	0.04
412.843	-0.03
413.047	0.01
413.252	-0.09
413.456	-0.04
413.66	0.04
413.865	-0.05
414.069	0.1
414.273	-0.03
414.478	-0.01
414.682	0.01
414.886	-0.03
415.091	-0.06
415.295	-0.08
415.499	0.02
415.703	0.01
415.908	0.05
416.112	-0.04
416.316	0.03
416.52	-0
416.724	-0.02
416.929	-0.02
417.133	0.11
417.337	0.04
417.541	-0.02
417.745	0.02
417.949	0.03
418.153	0.08
418.357	-0.03
418.561	0.11
418.765	0.03
418.969	0.13
419.173	0.13
419.377	-0
419.581	0.1
419.785	-0
419.989	-0.02
420.193	0.02
420.397	0.02
420.601	0.07
420.804	0.1
421.008	0.06
421.212	0.08
421.416	0.04
421.62	0.03
421.823	0.05
422.027	0.15
422.231	0.12
422.435	0.01
422.638	0.09
422.842	0.05
423.046	0.04
423.249	0.12
423.453	0.12
423.657	0.11
423.86	0.06
424.064	0.07
424.268	0.15
424.471	0.06
424.675	0.19
424.878	0.15
425.082	0.08
425.285	0.18
425.489	0.13
425.692	0.11
425.896	0.1
426.099	0.16
426.303	0.14
426.506	0.07
426.71	0.18
426.913	0.17
427.116	0.18
427.32	0.14
427.523	0.18
427.726	0.19
427.93	0.05
428.133	0.13
428.336	0.11
428.54	0.1
428.743	0.18
428.946	0.19
429.149	0.1
429.353	0.15
429.556	0.16
429.759	0.17
429.962	0.1
430.165	0.16
430.368	0.13
430.571	0.12
430.775	0.17
430.978	0.16
431.181	0.18
431.384	0.18
431.587	0.13
431.79	0.2
431.993	0.15
432.196	0.16
432.399	0.19
432.602	0.26
432.805	0.18
433.008	0.21
433.211	0.18
433.414	0.21
433.616	0.24
433.819	0.21
434.022	0.11
434.225	0.3
434.428	0.21
434.631	0.34
434.833	0.17
435.036	0.21
435.239	0.3
435.442	0.27
435.645	0.24
435.847	0.28
436.05	0.28
436.253	0.24
436.455	0.18
436.658	0.24
436.861	0.33
437.063	0.25
437.266	0.25
437.468	0.33
437.671	0.43
437.874	0.3
438.076	0.22
438.279	0.22
438.481	0.29
438.684	0.25
438.886	0.35
439.089	0.26
439.291	0.31
439.494	0.34
439.696	0.29
439.899	0.32
440.101	0.39
440.303	0.28
440.506	0.4
440.708	0.41
440.91	0.41
441.113	0.32
441.315	0.46
441.517	0.32
441.72	0.41
441.922	0.37
442.124	0.29
442.326	0.45
442.529	0.49
442.731	0.4
442.933	0.51
443.135	0.35
443.337	0.39
443.539	0.46
443.742	0.39
443.944	0.47
444.146	0.42
444.348	0.48
444.55	0.46
444.752	0.42
444.954	0.42
445.156	0.49
445.358	0.46
445.56	0.55
445.762	0.48
445.964	0.46
446.166	0.47
446.368	0.48
446.57	0.5
446.772	0.5
446.974	0.46
447.175	0.51
447.377	0.44
447.579	0.52
447.781	0.38
447.983	0.51
448.184	0.42
448.386	0.5
448.588	0.43
448.79	0.51
448.991	0.46
449.193	0.48
449.395	0.43
449.597	0.47
449.798	0.5
450	0.45
450.202	0.42
450.403	0.43
450.605	0.44
450.806	0.4
451.008	0.33
451.21	0.39
451.411	0.38
451.613	0.32
451.814	0.4
452.016	0.38
452.217	0.33
452.419	0.42
452.62	0.37
452.821	0.35
453.023	0.39
453.224	0.39
453.426	0.3
453.627	0.31
453.828	0.31
454.03	0.29
454.231	0.32
454.432	0.24
454.634	0.35
454.835	0.25
455.036	0.2
455.238	0.26
455.439	0.31
455.64	0.19
455.841	0.17
456.042	0.36
456.244	0.24
456.445	0.19
456.646	0.13
456.847	0.18
457.048	0.22
457.249	0.22
457.45	0.4
457.651	0.12
457.852	0.2
458.054	0.19
458.255	0.15
458.456	0.17
458.657	0.17
458.858	0.16
459.058	0.19
459.259	0.22
459.46	0.16
459.661	0.13
459.862	0.29
460.063	0.17
460.264	0.19
460.465	0.06
460.666	0.22
460.866	0.08
461.067	0.16
461.268	0.17
461.469	0.07
461.67	0.11
461.87	0.1
462.071	0.11
462.272	0.11
462.473	0.11
462.673	0.16
462.874	0.09
463.075	0.12
463.275	0.07
463.476	0.1
463.676	0.11
463.877	0.11
464.078	0.11
464.278	0.19
464.479	0.09
464.679	0.06
464.88	0.09
465.08	0.11
465.281	0.03
465.481	0.08
465.682	0.01
465.882	0.16
466.083	0.13
466.283	0.1
466.483	0.05
466.684	0.04
466.884	0.05
467.085	0.07
467.285	0.12
467.485	0.09
467.686	0.09
467.886	0.04
468.086	0.05
468.286	0.07
468.487	0.08
468.687	0.02
468.887	0.1
469.087	0.11
469.287	0.05
469.488	-0.02
469.688	0.08
469.888	0.08
470.088	0.11
470.288	0.08
470.488	0.12
470.688	0.05
470.888	0.06
471.088	-0.01
471.288	0.05
471.488	0.09
471.688	0.06
471.888	0.03
472.088	0.11
472.288	0.1
472.488	0.03
472.688	0.04
472.888	0.04
473.088	0.03
473.288	0.09
473.488	0.02
473.688	0.11
473.887	0.05
474.087	-0.01
474.287	0.08
474.487	0.02
474.687	0.08
474.886	0.02
475.086	0.04
475.286	0.04
475.486	0.06
475.685	0.06
475.885	0.04
476.085	0.07
476.284	0.07
476.484	0.01
476.684	0.04
476.883	0.08
477.083	0.04
477.282	0.03
477.482	0.13
477.681	0.1
477.881	0.07
478.08	-0
478.28	0.04
478.479	0.09
478.679	0.1
478.878	0.03
479.078	-0
479.277	0.04
479.477	0.06
479.676	0.08
479.875	0.03
480.075	-0.01
480.274	0.07
480.473	0.07
480.673	0.02
480.872	0.06
481.071	0.06
481.271	0.06
481.47	0.02
481.669	0.04
481.868	0.01
482.067	0.02
482.267	-0.02
482.466	0.01
482.665	0.01
482.864	0
483.063	0.01
483.262	0.06
483.461	0.08
483.661	0.08
483.86	0.05
484.059	0.05
484.258	0.05
484.457	0.02
484.656	0.04
484.855	0.1
485.054	-0
485.253	0.04
485.452	-0
485.651	0.02
485.849	0.07
486.048	0.02
486.247	0.02
486.446	0.04
486.645	0.03
486.844	0.01
487.043	0.02
487.241	0.07
487.44	0.03
487.639	0.05
487.838	0.06
488.037	0.05
488.235	0.09
488.434	0.03
488.633	0.04
488.831	0.08
489.03	0.06
489.229	0.05
489.427	0.05
489.626	0.09
489.825	0.11
490.023	0.06
490.222	0.04
490.42	0.08
490.619	0.1
490.817	0.07
491.016	0.05
491.214	0.07
491.413	0.04
491.611	0.03
491.81	0.04
492.008	0.06
492.207	0.06
492.405	0.05
492.604	0.05
492.802	0.03
493	0.06
493.199	0.02
493.397	0.09
493.595	0.07
493.794	0.05
493.992	0.11
494.19	0.05
494.388	0.08
494.587	0.05
494.785	0.07
494.983	0.03
495.181	0.06
495.379	0.06
495.578	0.02
495.776	0.08
495.974	0.09
496.172	0.09
496.37	0.07
496.568	0.05
496.766	0.05
496.964	0.1
497.162	0.08
497.36	0.05
497.558	0.1
497.756	0.09
497.954	0.08
498.152	0.08
498.35	0.08
498.548	0.08
498.746	0.08
498.944	0.06
499.142	0.07
499.34	0.03
499.538	0.09
499.736	0.07
499.933	0.13
500.131	0.1
500.329	0.09
500.527	0.12
500.725	0.12
500.922	0.12
501.12	0.08
501.318	0.08
501.516	0.09
501.713	0.11
501.911	0.09
502.109	0.07
502.306	0.12
502.504	0.06
502.701	0.08
502.899	0.09
503.097	0.16
503.294	0.11
503.492	0.11
503.689	0.14
503.887	0.13
504.084	0.15
504.282	0.11
504.479	0.08
504.677	0.13
504.874	0.09
505.072	0.12
505.269	0.12
505.466	0.16
505.664	0.12
505.861	0.08
506.059	0.1
506.256	0.14
506.453	0.12
506.651	0.16
506.848	0.15
507.045	0.12
507.242	0.12
507.44	0.13
507.637	0.12
507.834	0.13
508.031	0.16
508.229	0.11
508.426	0.13
508.623	0.16
508.82	0.14
509.017	0.11
509.214	0.11
509.411	0.13
509.608	0.1
509.805	0.14
510.003	0.14
510.2	0.13
510.397	0.15
510.594	0.12
510.791	0.14
510.988	0.12
511.184	0.18
511.381	0.13
511.578	0.14
511.775	0.17
511.972	0.15
512.169	0.14
512.366	0.16
512.563	0.16
512.76	0.16
512.956	0.19
513.153	0.14
513.35	0.17
513.547	0.16
513.744	0.14
513.94	0.14
514.137	0.17
514.334	0.17
514.53	0.16
514.727	0.18
514.924	0.23
515.12	0.15
515.317	0.13
515.514	0.15
515.71	0.13
515.907	0.18
516.103	0.17
516.3	0.16
516.497	0.21
516.693	0.2
516.89	0.17
517.086	0.14
517.283	0.15
517.479	0.16
517.676	0.18
517.872	0.16
518.068	0.15
518.265	0.17
518.461	0.16
518.658	0.17
518.854	0.2
519.05	0.15
519.247	0.15
519.443	0.21
519.639	0.19
519.836	0.19
520.032	0.19
520.228	0.19
520.424	0.21
520.621	0.19
520.817	0.19
521.013	0.19
521.209	0.18
521.405	0.23
521.601	0.18
521.798	0.2
521.994	0.23
522.19	0.17
522.386	0.14
522.582	0.19
522.778	0.22
522.974	0.18
523.17	0.2
523.366	0.2
523.562	0.24
523.758	0.2
523.954	0.17
524.15	0.19
524.346	0.2
524.542	0.18
524.738	0.17
524.934	0.19
525.129	0.21
525.325	0.2
525.521	0.17
525.717	0.24
525.913	0.2
526.109	0.19
526.304	0.19
526.5	0.22
526.696	0.24
526.892	0.18
527.087	0.19
527.283	0.15
527.479	0.22
527.674	0.17
527.87	0.19
528.066	0.17
528.261	0.22
528.457	0.21
528.653	0.19
528.848	0.21
529.044	0.2
529.239	0.2
529.435	0.23
529.63	0.21
529.826	0.25
530.021	0.24
530.217	0.23
530.412	0.2
530.608	0.19
530.803	0.19
530.999	0.21
531.194	0.16
531.389	0.2
531.585	0.16
531.78	0.2
531.975	0.21
532.171	0.21
532.366	0.21
532.561	0.22
532.757	0.19
532.952	0.21
533.147	0.24
533.342	0.22
533.538	0.21
533.733	0.23
533.928	0.17
534.123	0.21
534.318	0.18
534.513	0.19
534.709	0.23
534.904	0.2
535.099	0.21
535.294	0.24
535.489	0.21
535.684	0.21
535.879	0.2
536.074	0.21
536.269	0.2
536.464	0.21
536.659	0.2
536.854	0.21
537.049	0.24
537.244	0.22
537.439	0.21
537.634	0.25
537.828	0.23
538.023	0.21
538.218	0.2
538.413	0.2
538.608	0.19
538.803	0.21
538.997	0.17
539.192	0.25
539.387	0.23
539.582	0.21
539.776	0.21
539.971	0.2
540.166	0.21
540.36	0.2
540.555	0.23
540.75	0.22
540.944	0.22
541.139	0.18
541.334	0.21
541.528	0.22
541.723	0.23
541.917	0.2
542.112	0.16
542.306	0.2
542.501	0.2
542.695	0.23
542.89	0.2
543.084	0.21
543.279	0.21
543.473	0.22
543.668	0.21
543.862	0.2
544.056	0.23
544.251	0.19
544.445	0.24
544.64	0.22
544.834	0.18
545.028	0.2
545.222	0.22
545.417	0.23
545.611	0.22
545.805	0.22
546	0.19
546.194	0.18
546.388	0.19
546.582	0.22
546.776	0.21
546.97	0.21
547.165	0.22
547.359	0.23
547.553	0.19
547.747	0.21
547.941	0.23
548.135	0.21
548.329	0.24
548.523	0.21
548.717	0.22
548.911	0.2
549.105	0.23
549.299	0.22
549.493	0.21
549.687	0.22
549.881	0.23
550.075	0.22
550.269	0.19
550.463	0.22
550.657	0.19
550.85	0.23
551.044	0.21
551.238	0.23
551.432	0.21
551.626	0.19
551.82	0.22
552.013	0.19
552.207	0.22
552.401	0.24
552.594	0.21
552.788	0.21
552.982	0.22
553.176	0.2
553.369	0.24
553.563	0.22
553.756	0.17
553.95	0.19
554.144	0.21
554.337	0.26
554.531	0.22
554.724	0.21
554.918	0.2
555.111	0.24
555.305	0.22
555.498	0.28
555.692	0.23
555.885	0.2
556.079	0.22
556.272	0.19
556.466	0.22
556.659	0.23
556.852	0.21
557.046	0.2
557.239	0.21
557.432	0.19
557.626	0.2
557.819	0.23
558.012	0.22
558.206	0.25
558.399	0.22
558.592	0.24
558.785	0.2
558.979	0.22
559.172	0.23
559.365	0.24
559.558	0.21
559.751	0.19
559.944	0.21
560.138	0.2
560.331	0.2
560.524	0.19
560.717	0.24
560.91	0.21
561.103	0.22
561.296	0.19
561.489	0.22
561.682	0.22
561.875	0.24
562.068	0.21
562.261	0.22
562.454	0.28
562.647	0.2
562.84	0.22
563.032	0.22
563.225	0.25
563.418	0.22
563.611	0.23
563.804	0.2
563.997	0.16
564.19	0.17
564.382	0.16
564.575	0.19
564.768	0.2
564.961	0.21
565.153	0.18
565.346	0.25
565.539	0.26
565.731	0.23
565.924	0.24
566.117	0.25
566.309	0.22
566.502	0.21
566.695	0.21
566.887	0.24
567.08	0.18
567.272	0.18
567.465	0.22
567.657	0.21
567.85	0.22
568.042	0.23
568.235	0.26
568.427	0.22
568.62	0.21
568.812	0.21
569.005	0.22
569.197	0.17
569.389	0.21
569.582	0.21
569.774	0.19
569.966	0.17
570.159	0.2
570.351	0.21
570.543	0.19
570.736	0.21
570.928	0.18
571.12	0.21
571.312	0.18
571.505	0.17
571.697	0.26
571.889	0.18
572.081	0.2
572.273	0.2
572.465	0.23
572.658	0.2
572.85	0.22
573.042	0.19
573.234	0.2
573.426	0.23
573.618	0.2
573.81	0.23
574.002	0.24
574.194	0.24
574.386	0.17
574.578	0.15
574.77	0.19
574.962	0.2
575.154	0.17
575.346	0.21
575.538	0.23
575.729	0.17
575.921	0.18
576.113	0.2
576.305	0.24
576.497	0.18
576.689	0.2
576.88	0.17
577.072	0.2
577.264	0.21
577.456	0.22
577.647	0.13
577.839	0.2
578.031	0.25
578.223	0.18
578.414	0.18
578.606	0.22
578.798	0.23
578.989	0.2
579.181	0.2
579.372	0.22
579.564	0.22
579.755	0.2
579.947	0.2
580.139	0.24
580.33	0.13
580.522	0.19
580.713	0.14
580.905	0.2
581.096	0.22
581.287	0.21
581.479	0.21
581.67	0.24
581.862	0.21
582.053	0.2
582.244	0.16
582.436	0.17
582.627	0.21
582.818	0.17
583.01	0.17
583.201	0.23
583.392	0.22
583.583	0.2
583.775	0.17
583.966	0.18
584.157	0.19
584.348	0.18
584.54	0.14
584.731	0.2
584.922	0.18
585.113	0.15
585.304	0.2
585.495	0.21
585.686	0.24
585.877	0.22
586.068	0.2
586.259	0.24
586.45	0.2
586.641	0.17
586.832	0.15
587.023	0.2
587.214	0.2
587.405	0.21
587.596	0.19
587.787	0.25
587.978	0.2
588.169	0.19
588.36	0.16
588.551	0.2
588.742	0.18
588.932	0.2
589.123	0.19
589.314	0.2
589.505	0.2
589.696	0.2
589.886	0.15
590.077	0.16
590.268	0.19
590.458	0.15
590.649	0.14
590.84	0.21
591.03	0.15
591.221	0.15
591.412	0.15
591.602	0.2
591.793	0.2
591.984	0.16
592.174	0.2
592.365	0.25
592.555	0.17
592.746	0.21
592.936	0.2
593.127	0.21
593.317	0.23
593.508	0.16
593.698	0.17
593.889	0.19
594.079	0.19
594.269	0.17
594.46	0.18
594.65	0.18
594.84	0.15
595.031	0.16
595.221	0.16
595.411	0.14
595.602	0.2
595.792	0.19
595.982	0.16
596.172	0.24
596.363	0.19
596.553	0.17
596.743	0.17
596.933	0.19
597.123	0.22
597.314	0.14
597.504	0.18
597.694	0.19
597.884	0.19
598.074	0.15
598.264	0.15
598.454	0.19
598.644	0.2
598.834	0.19
599.024	0.1
599.214	0.16
599.404	0.17
599.594	0.15
599.784	0.11
599.974	0.24
600.164	0.19
600.354	0.13
600.544	0.12
600.734	0.16
600.924	0.18
601.114	0.13
601.303	0.15
601.493	0.17
601.683	0.17
601.873	0.16
602.063	0.11
602.252	0.19
602.442	0.11
602.632	0.09
602.821	0.13
603.011	0.17
603.201	0.15
603.39	0.16
603.58	0.15
603.77	0.17
603.959	0.17
604.149	0.15
604.339	0.18
604.528	0.18
604.718	0.18
604.907	0.14
605.097	0.17
605.286	0.1
605.476	0.2
605.665	0.17
605.855	0.16
606.044	0.19
606.234	0.17
606.423	0.15
606.612	0.1
606.802	0.17
606.991	0.15
607.181	0.19
607.37	0.09
607.559	0.13
607.749	0.1
607.938	0.15
608.127	0.16
608.316	0.12
608.506	0.19
608.695	0.14
608.884	0.16
609.073	0.14
609.263	0.15
609.452	0.14
609.641	0.16
609.83	0.1
610.019	0.14
610.208	0.15
610.397	0.14
610.586	0.15
610.775	0.15
610.965	0.12
611.154	0.11
611.343	0.11
611.532	0.13
611.721	0.13
611.91	0.11
612.099	0.17
612.287	0.11
612.476	0.11
612.665	0.16
612.854	0.13
613.043	0.19
613.232	0.13
613.421	0.1
613.61	0.14
613.798	0.09
613.987	0.17
614.176	0.15
614.365	0.17
614.554	0.16
614.742	0.17
614.931	0.11
615.12	0.15
615.309	0.12
615.497	0.14
615.686	0.08
615.875	0.11
616.063	0.15
616.252	0.11
616.44	0.11
616.629	0.14
616.818	0.17
617.006	0.14
617.195	0.13
617.383	0.13
617.572	0.12
617.76	0.13
617.949	0.1
618.137	0.13
618.326	0.18
618.514	0.13
618.703	0.1
618.891	0.17
619.079	0.08
619.268	0.16
619.456	0.09
619.644	0.17
619.833	0.11
620.021	0.09
620.209	0.06
620.398	0.12
620.586	0.14
620.774	0.13
620.962	0.1
621.151	0.19
621.339	0.13
621.527	0.08
621.715	0.08
621.903	0.12
622.092	0.07
622.28	0.13
622.468	0.1
622.656	0.11
622.844	0.13
623.032	0.08
623.22	0.06
623.408	0.14
623.596	0.12
623.784	0.14
623.972	0.07
624.16	0.11
624.348	0.1
624.536	0.09
624.724	0.08
624.912	0.17
625.1	0.13
625.288	0.08
625.476	0.1
625.664	0.1
625.851	0.07
626.039	0.1
626.227	0.08
626.415	0.1
626.603	0.07
626.79	0.13
626.978	0.12
627.166	0.1
627.354	0.12
627.541	0.1
627.729	0.04
627.917	0.09
628.104	0.15
628.292	0.13
628.48	0.08
628.667	0.12
628.855	0.11
629.042	0.13
629.23	0.1
629.418	0.08
629.605	0.11
629.793	0.07
629.98	0.05
630.168	0.09
630.355	0.09
630.543	0.1
630.73	0.07
630.917	0.08
631.105	0.16
631.292	0.06
631.48	0.09
631.667	0.14
631.854	0.11
632.042	0.08
632.229	0.03
632.416	0.12
632.604	0.12
632.791	0.06
632.978	0.15
633.165	0.1
633.353	0.14
633.54	0.12
633.727	0.03
633.914	0.09
634.101	0.12
634.289	0.11
634.476	0.08
634.663	0.07
634.85	0.09
635.037	0.05
635.224	0.01
635.411	0.12
635.598	0.12
635.785	0.1
635.972	0.08
636.159	0.11
636.346	0.07
636.533	0.07
636.72	0.06
636.907	0.06
637.094	0.1
637.281	0.08
637.468	0.09
637.655	0.07
637.842	0.08
638.029	0.04
638.215	0.13
638.402	0.08
638.589	0.06
638.776	0.09
638.963	0.05
639.149	0.09
639.336	0.17
639.523	0.08
639.709	0.07
639.896	0.07
640.083	0.11
640.27	0.11
640.456	0.04
640.643	0.08
640.829	0.06
641.016	0.04
641.203	0.04
641.389	0.12
641.576	0.11
641.762	0.05
641.949	0.05
642.135	0.11
642.322	0.09
642.508	0.04
642.695	0.08
642.881	0.04
643.068	0.06
643.254	0.03
643.441	0.08
643.627	0.05
643.813	0.04
644	0.11
644.186	0.02
644.372	0.03
644.559	0.09
644.745	0.08
644.931	0.05
645.118	0.08
645.304	0.06
645.49	0.07
645.676	0.03
645.862	0.07
646.049	0.1
646.235	0.06
646.421	0.14
646.607	0.14
646.793	0.04
646.979	0.01
647.165	0.03
647.352	0.09
647.538	0.1
647.724	0.08
647.91	0.06
648.096	0.08
648.282	0.1
648.468	0.05
648.654	0.09
648.84	0.08
649.026	0.06
649.212	0.07
649.397	0.04
649.583	0.04
649.769	0.05
649.955	0.06
650.141	0.09
650.327	0.03
650.513	0.02
650.698	0.06
650.884	-0.02
651.07	0.06
651.256	0.06
651.442	0.04
651.627	0.05
651.813	0.05
651.999	0.05
652.184	0.06
652.37	0.02
652.556	0.03
652.741	0.09
652.927	-0.03
653.113	0.04
653.298	0.06
653.484	0.06
653.669	0.02
653.855	0.04
654.04	0.08
654.226	0.05
654.412	0.02
654.597	0.02
654.782	0.05
654.968	0.08
655.153	0.07
655.339	0.05
655.524	-0.02
655.71	0.09
655.895	-0.01
656.08	0.03
656.266	0.13
656.451	0.06
656.636	0.01
656.822	0.04
657.007	0.06
657.192	0.03
657.378	-0.01
657.563	0.05
657.748	0.04
657.933	0.07
658.118	0.01
658.304	0.04
658.489	0.07
658.674	0.07
658.859	-0.02
659.044	0.03
659.229	0.03
659.414	0.01
659.599	0.05
659.785	0
659.97	0.05
660.155	0.03
660.34	0.04
660.525	0.04
660.71	0.04
660.895	0.08
661.08	0.02
661.264	0.04
661.449	0.09
661.634	0.06
661.819	0.07
662.004	0.04
662.189	-0.04
662.374	-0.01
662.559	0
662.743	-0.01
662.928	0.04
663.113	0.03
663.298	-0.03
663.483	0.01
663.667	0.02
663.852	-0.02
664.037	0.07
664.221	0.03
664.406	0.09
664.591	0.06
664.775	0.02
664.96	-0.05
665.145	0.05
665.329	0.04
665.514	0.03
665.698	-0
665.883	-0.05
666.068	0.07
666.252	0.04
666.437	-0.02
666.621	0.05
666.806	0.05
666.99	-0.02
667.174	-0.02
667.359	0.1
667.543	0.03
667.728	0.02
667.912	-0.02
668.096	0.05
668.281	0.05
668.465	-0
668.649	0.04
668.834	-0.02
669.018	-0
669.202	-0.01
669.387	-0.03
669.571	0.09
669.755	0.01
669.939	-0
670.124	0.03
670.308	0.11
670.492	0.08
670.676	0.04
670.86	0.03
671.044	-0.01
671.228	0.05
671.413	-0
671.597	-0
671.781	0.02
671.965	0.02
672.149	0.01
672.333	0.01
672.517	-0.02
672.701	0.08
672.885	-0.03
673.069	-0.02
673.253	0.06
673.437	-0.01
673.621	0
673.804	0.02
673.988	0.05
674.172	-0
674.356	-0.02
674.54	0
674.724	0.15
674.908	-0.02
675.091	0.01
675.275	0
675.459	0.07
675.643	0.09
675.826	0.03
676.01	0.02
676.194	0
676.377	0.04
676.561	0.06
676.745	0.05
676.928	0.05
677.112	0.07
677.296	-0.03
677.479	-0
677.663	-0.02
677.846	0.06
678.03	0.03
678.213	-0.02
678.397	0.02
678.58	-0.01
678.764	0
678.947	-0.01
679.131	-0.03
679.314	0.1
679.498	0.01
679.681	0.02
679.865	0.07
680.048	0.02
680.231	-0
680.415	0.02
680.598	0.04
680.781	-0
680.965	0
681.148	0.04
681.331	0.02
681.514	0.06
681.698	-0.03
681.881	-0.01
682.064	0.03
682.247	0.04
682.43	-0.07
682.614	0.04
682.797	0.07
682.98	-0
683.163	-0.01
683.346	0.03
683.529	-0.01
683.712	-0.07
683.895	0.01
684.078	-0.02
684.261	-0.01
684.444	0.04
684.627	0.02
684.81	0
684.993	-0
685.176	0.04
685.359	-0.04
685.542	-0.01
685.725	0.06
685.908	0.05
686.091	-0
686.274	0.06
686.457	0.04
686.639	0.04
686.822	0.04
687.005	0.02
687.188	0.02
687.371	0.02
687.553	0.04
687.736	0.04
687.919	0.09
688.102	0.07
688.284	0.02
688.467	0.02
688.65	-0.06
688.832	-0.01
689.015	0.02
689.197	-0.04
689.38	0.08
689.563	0.09
689.745	-0.05
689.928	-0.02
690.11	0.03
690.293	0.05
690.475	-0.04
690.658	0
690.84	0.03
691.023	0.02
691.205	-0.01
691.388	-0.02
691.57	0.08
691.752	0.07
691.935	-0.06
692.117	-0.03
692.3	0.03
692.482	-0.04
692.664	-0
692.847	0.01
693.029	0.05
693.211	0.01
693.393	-0.04
693.576	-0.01
693.758	0.01
693.94	-0.03
694.122	-0.01
694.304	0.03
694.487	-0.02
694.669	0.07
694.851	-0.05
695.033	-0.01
695.215	-0.05
695.397	-0.02
695.579	0.03
695.761	-0.08
695.943	-0.06
696.125	0.08
696.308	0
696.49	-0.12
696.671	0.16
696.853	-0.01
697.035	0.06
697.217	0.05
697.399	0.03
697.581	-0.02
697.763	-0.01
697.945	-0.04
698.127	0.01
698.309	0.15
698.491	0.03
698.672	0.05
698.854	0.01
699.036	0.08
699.218	-0.01
699.399	0.05
699.581	0.03
699.763	0.03
699.945	-0.05
700.126	-0.05
700.308	0
700.49	0.03
700.671	-0.09
700.853	-0.03
701.035	-0.05
701.216	0
701.398	-0.08
701.579	-0.03
701.761	0.02
701.943	-0.02
702.124	-0.04
702.306	0.04
702.487	0.09
702.669	-0.06
702.85	-0.05
703.031	-0.06
703.213	0.08
703.394	0.06
703.576	-0.05
703.757	0.06
703.938	0.05
704.12	0.18
704.301	0.06
704.483	-0.04
704.664	0.03
704.845	0.08
705.026	0.06
705.208	-0.02
705.389	-0.01
705.57	0.03
705.751	-0.04
705.933	-0
706.114	0.03
706.295	-0.03
706.476	-0.06
706.657	0.03
706.838	-0.03
707.02	0.04
707.201	0
707.382	0.04
707.563	0.01
707.744	-0.04
707.925	-0.06
708.106	0.04
708.287	0.04
708.468	0.09
708.649	-0.06
708.83	0.04
709.011	0.02
709.192	0.07
709.373	-0.03
709.554	-0.02
709.734	0.04
709.915	0.05
710.096	0.03
710.277	-0.1
710.458	0.03
710.639	0.07
710.819	-0.08
711	-0.04
711.181	0.04
711.362	0.01
711.542	0.01
711.723	0.03
711.904	0.08
712.085	0.03
712.265	-0.05
712.446	-0.13
712.627	-0.07
712.807	0.02
712.988	-0.03
713.168	-0.05
713.349	-0.01
713.53	-0.16
713.71	-0.09
713.891	-0.08
714.071	0.06
714.252	-0.03
714.432	-0.07
714.613	-0.09
714.793	-0.03
714.974	0.03
715.154	0.08
715.334	0.05
715.515	0.03
715.695	-0.15
715.876	-0.01
716.056	0
716.236	-0.02
716.417	-0.02
716.597	-0.07
716.777	0.08
716.957	-0.02
717.138	0.03
717.318	-0.02
717.498	-0.09
717.678	0
717.859	0.02
718.039	-0.12
718.219	-0.02
718.399	0.04
718.579	-0.08
718.759	-0.08
718.939	0.01
719.12	-0.01
719.3	-0.02
719.48	-0.17
719.66	-0.09
719.84	0.13
720.02	-0.05
720.2	-0.12
720.38	-0.02
720.56	0.06
720.74	-0.02
720.92	0.02
721.1	0.09
721.279	0.11
721.459	0.01
721.639	-0.09
721.819	0.11
721.999	-0.12
722.179	0.06
722.359	-0.02
722.538	0
722.718	-0.02
722.898	-0.05
723.078	0.06
723.257	-0.04
723.437	0.02
723.617	0.03
723.797	-0.07
723.976	0
724.156	0.09
724.336	0.11
724.515	0.08
724.695	-0.15
724.874	0.02
725.054	-0
725.234	-0.06
725.413	0.04
725.593	-0.02
725.772	0.02
725.952	-0.07
726.131	-0.05
726.311	-0.01
726.49	0.01
726.67	-0.03
726.849	-0.09
727.028	0.01
727.208	-0.05
727.387	0.04
727.567	-0.16
727.746	0.02
727.925	-0.11
728.105	-0.05
728.284	-0.04
728.463	-0.02
728.643	0.05
728.822	-0.12
729.001	-0.09
729.18	-0.02
729.359	0.04
729.539	0.02
729.718	-0.12
729.897	0.03
730.076	-0.04
730.255	-0.12
730.434	0.08
730.614	0.01
730.793	0.07
730.972	-0.04
731.151	-0.04
731.33	0.09
731.509	0.02
731.688	0.07
731.867	0.04
732.046	-0.06
732.225	0.22
732.404	-0.07
732.583	-0.15
732.762	0.01
732.941	0.01
733.12	-0.01
733.298	-0.09
733.477	0.05
733.656	-0.08
733.835	-0.15
734.014	0.06
734.193	0.01
734.371	-0.03
734.55	-0.05
734.729	-0.11
734.908	0.01
735.086	0.05
735.265	0.07
735.444	-0.15
735.623	-0.15
735.801	-0.12
735.98	0.1
736.159	-0.07
736.337	0.06
736.516	-0.07
736.694	-0.04
736.873	-0.05
737.052	0.16
737.23	0.02
737.409	-0.04
737.587	0.16
737.766	-0.14
737.944	-0.01
738.123	0.13
738.301	0.09
738.479	0.01
738.658	-0.05
738.836	-0.16
739.015	0.01
739.193	0.09
739.371	-0.12
739.55	-0.16
739.728	-0.18
739.906	0.08
740.085	0.16
740.263	0.02
740.441	-0.25
740.62	0.14
740.798	0.01
740.976	-0.1
741.154	-0.1
741.332	0.04
741.511	-0.06
741.689	0.09
741.867	0.13
742.045	-0.02
742.223	-0
742.401	-0.09
742.579	-0.11
742.757	-0.06
742.935	-0.15
743.114	0.01
743.292	-0.06
743.47	-0.06
743.648	-0.01
743.826	-0
744.004	0.03
744.181	0.01
744.359	-0.05
744.537	-0.1
744.715	-0.03
744.893	-0.08
745.071	0
745.249	-0.06
745.427	-0.03
745.605	0.05
745.782	0.04
745.96	0.04
746.138	-0.04
746.316	0.02
746.493	-0.08
746.671	0.03
746.849	-0.01
747.027	0.03
747.204	-0.12
747.382	0.11
747.56	-0.09
747.737	0.05
747.915	-0.1
748.093	0.04
748.27	-0.13
748.448	-0.07
748.625	-0.11
748.803	-0.12
748.98	-0.07
749.158	0.01
749.335	0.05
749.513	-0.05
749.69	-0.05
749.868	-0.04
750.045	0.08
750.223	-0.14
750.4	-0.2
750.578	0.09
750.755	-0.06
750.932	-0.18
751.11	0.09
751.287	-0.11
751.464	0.11
751.642	-0.12
751.819	0.05
751.996	0.03
752.173	-0.06
752.351	-0.11
752.528	-0.05
752.705	-0.03
752.882	-0.07
753.06	0.07
753.237	0.03
753.414	0.05
753.591	0.13
753.768	0.04
753.945	-0.04
754.122	-0.16
754.299	-0.01
754.476	-0.13
754.654	-0.05
754.831	0.09
755.008	0.04
755.185	-0.16
755.362	-0.15
755.539	0.06
755.716	-0.03
755.892	0.03
756.069	-0
756.246	0.05
756.423	0.01
756.6	0.09
756.777	-0.01
756.954	0.04
757.131	-0.07
757.307	-0.08
757.484	-0.07
757.661	-0.04
757.838	0.02
758.015	-0.09
758.191	0.09
758.368	0.05
758.545	0.17
758.721	0.02
758.898	-0.09
759.075	0.05
759.251	0.03
759.428	0.11
759.605	-0.17
759.781	-0.05
759.958	0
760.134	0.01
760.311	-0.13
760.488	-0.03
760.664	0.11
760.841	-0.03
761.017	-0.18
761.194	0.05
761.37	0.14
761.547	0.01
761.723	-0
761.899	0.03
762.076	-0.11
762.252	0
762.429	-0.06
762.605	0.08
762.781	-0.11
762.958	0.12
763.134	-0.02
763.31	-0.05
763.486	0.03
763.663	-0.09
763.839	0.02
764.015	-0.25
764.191	-0.11
764.368	-0.01
764.544	-0.15
764.72	0.09
764.896	-0.06
765.072	-0.02
765.248	0.07
765.425	-0.01
765.601	0.09
765.777	0.05
765.953	-0.28
766.129	-0.17
766.305	-0.07
766.481	0.06
766.657	-0
766.833	0.11
767.009	-0.18
767.185	-0.14
767.361	-0.11
767.537	-0.15
767.713	0.09
767.889	-0.05
768.065	-0.05
768.24	-0.23
768.416	0.17
768.592	0.02
768.768	-0.08
768.944	0.03
769.12	-0.19
769.295	-0.18
769.471	0.02
769.647	0.11
769.823	0.12
769.998	-0.13
770.174	-0.1
770.35	0.28
770.525	0.3
770.701	-0.02
770.877	-0.08
771.052	-0.17
771.228	0.06
771.403	0.1
771.579	0.06
771.755	0.28
771.93	-0.12
772.106	-0.03
772.281	-0.17
772.457	0.05
772.632	0.01
772.808	-0.11
772.983	-0.16
773.159	-0.19
773.334	0.04
773.509	-0.12
773.685	-0.11
773.86	0.31
774.036	0.09
774.211	0.03
774.386	-0.13
774.562	-0.1
774.737	-0.05
774.912	-0.15
775.087	0.04
775.263	-0.04
775.438	0.05
775.613	-0.06
775.788	-0
775.964	0.19
776.139	0.4
776.314	-0.09
776.489	-0.03
776.664	0.02
776.839	-0.22
777.014	0.18
777.19	0.18
777.365	0.12
777.54	0.04
777.715	-0.18
777.89	-0.02
778.065	-0.11
778.24	-0
778.415	0.15
778.59	-0.34
778.765	-0.09
778.94	-0.07
779.115	-0.12
779.289	-0.1
779.464	-0.06
779.639	-0.03
779.814	-0.27
779.989	-0.25
780.164	0.19
780.339	0.01
780.513	-0.11
780.688	-0.22
780.863	-0.08
781.038	0.12
781.212	-0.21
781.387	-0.09
781.562	0.37
781.737	-0.29
781.911	0.18
782.086	-0.16
782.261	-0.17
782.435	0.11
782.61	-0.11
782.784	-0.18
782.959	0.19
783.134	-0.09
783.308	-0.21
783.483	-0.1
783.657	0.3
783.832	0.23
784.006	-0.36
784.181	0.11
784.355	0.22
784.53	-0.12
784.704	-0.14
784.878	-0
785.053	-0.04
785.227	0.2
785.402	0.43
785.576	-0.22
785.75	-0.21
785.925	-0.08
786.099	-0.1
786.273	0.01
786.448	0.1
786.622	0.01
786.796	0.06
786.97	0.03
787.145	0.48
787.319	-0.42
787.493	-0.1
787.667	-0.37
787.841	-0.06
788.015	0.12
788.19	-0.19
788.364	0.2
788.538	0.12
788.712	0.22
788.886	-0.07
789.06	0.11
789.234	0.18
789.408	-0.35
789.582	-0.19
789.756	-0.1
789.93	-0.06
790.104	-0.09
790.278	-0.08
790.452	-0.24
790.626	0.1
790.8	-0.33
790.973	0.2
791.147	0.31
791.321	0.32
791.495	0.15
791.669	0.13
791.843	0.19
792.016	-0.04
792.19	0.39
792.364	-0.3
792.538	0.44
792.711	0.27
792.885	-0.21
793.059	-0.22
793.233	-0.4
793.406	0.06
793.58	0.06
793.754	0.04
793.927	-0.05
794.101	0.19
794.274	-0.15
794.448	0.1
794.622	-0.24
794.795	0.27
794.969	-0.31
795.142	0.26
795.316	-0.11
795.489	-0.29
795.663	0.3
795.836	0.05
796.009	-0.19
796.183	0.29
796.356	-0.02
796.53	0.13
796.703	-0.37
796.876	0.65
797.05	-0.31
797.223	-0.19
797.396	0.25
797.57	0.16
797.743	0.34
797.916	-0.06
798.09	-0.23
798.263	0.2
798.436	0.12
798.609	-0.12
798.782	-0.07
798.956	0.09
799.129	-0.08
799.302	-0.14
799.475	-0.32
799.648	-0.39
799.821	-0.4
799.994	-0.1
800.167	-0.43
800.34	0.13
800.514	0.03
800.687	0.02
800.86	-0.2
801.033	-0.19
801.206	0.01
801.379	-0.31
801.551	0.12
801.724	0.05
801.897	0.35
802.07	-0.02
802.243	-0.47
802.416	0.07
802.589	-0.22
802.762	0.14
802.935	-0.04
803.107	0.31
803.28	0.45
803.453	0.11
803.626	-0.34
803.798	-0.24
803.971	-0.13
804.144	-0.09
804.317	-0.12
804.489	0.26
804.662	-0.08
804.835	0.1
805.007	-0.33
805.18	0.42
805.353	-0.07
805.525	-0.24
805.698	-0.28
805.87	0.14
806.043	0.13
806.215	-0.37
806.388	-0.16
806.56	0.01
806.733	0.49
806.905	0.05
807.078	-0.24
807.25	-0.4
807.423	0.41
807.595	0.25
807.768	0.15
807.94	0.14
808.112	0.04
808.285	-0.08
808.457	-0.11
808.629	0.12
808.802	-0.02
808.974	-0.25
809.146	-0.08
809.318	-0.44
809.491	-0.1
809.663	0.22
809.835	-0.08
810.007	0.08
810.18	-0.26
810.352	-0.71
810.524	-0.15
810.696	0.35
810.868	0.22
811.04	-0.08
811.212	0.1
811.384	0.14
811.556	0.05
811.728	-0.39
811.901	0.94
812.073	-0.2
812.245	0.01
812.417	0.17
812.589	-0.39
812.76	0.15
812.932	0.3
813.104	0.36
813.276	-0.01
813.448	0.61
813.62	0.06
813.792	-0.23
813.964	-0.14
814.136	-0.12
814.307	-0.27
814.479	-0.27
814.651	-0.26
814.823	0.97
814.995	0.04
815.166	0.12
815.338	-0.13
815.51	-0.22
815.681	0.92
815.853	-0.24
816.025	-0.01
816.196	0.24
816.368	0.59
816.54	-0.39
816.711	-0.42
816.883	0.17
817.054	0.85
817.226	-0.81
817.398	0.06
817.569	-0.45
817.741	0.24
817.912	-0.17
818.084	-0.35
818.255	0.26
818.426	-0.06
818.598	-0.5
818.769	-0.4
818.941	-0.11
819.112	0.8
819.283	0.22
819.455	-0.16
819.626	0.15
819.798	-0.08
819.969	0.06
820.14	-0.1
820.311	0.03
820.483	-0.24
820.654	0.26
820.825	0.04
820.996	-0.49
821.168	-0.51
821.339	-0.22
821.51	-0.79
821.681	0.78
821.852	-0.43
822.023	-0.35
822.195	-0.3
822.366	0.37
822.537	-0.38
822.708	0.12
822.879	-0.18
823.05	0.34
823.221	-0.02
823.392	0.11
823.563	-0.02
823.734	0.17
823.905	-0.09
824.076	-0.41
824.247	-0.77
824.418	-0
824.589	0.75
824.759	0.13
824.93	-0.34
825.101	-0.72
825.272	0.31
825.443	0.73
825.614	0.3
825.784	-0.29
825.955	1.28
826.126	0.77
826.297	-0.19
826.467	0.95
826.638	0.54
826.809	-0.89
826.98	-0.38
827.15	0.24
827.321	0.35
827.492	0.18
827.662	-0.18
827.833	0.61
828.003	0.22
828.174	-0.5
828.345	-0.38
828.515	0.53
828.686	0.14
828.856	-0.62
829.027	0.21
829.197	-0.02
829.368	0.15
829.538	-0.58
829.709	-0.2
829.879	0.06
830.049	-0.34
830.22	-0.61
830.39	0.07
830.56	0.64
830.731	-0.56
830.901	-0.36
831.072	0.4
831.242	-0.7
831.412	0.63
831.582	-0.24
831.753	-0.87
831.923	0.38
832.093	-0.02
832.263	-0.14
832.434	-0.63
832.604	-0.19
832.774	-0.09
832.944	-0.07
833.114	-0.4
833.284	0.06
833.454	-0.37
833.624	-0.32
833.795	-0.02
833.965	0.53
834.135	0.47
834.305	-0.84
834.475	-0.86
834.645	-0.27
834.815	-0.68
834.985	-0.73
835.155	0.33
835.325	0.44
835.494	0.19
835.664	0.01
835.834	-0.94
836.004	-0.01
836.174	-0.55
836.344	-0.03
836.514	-1.04
836.684	-0.4
836.853	0.17
837.023	0.12
837.193	0.12
837.363	0.11
837.532	0.34
837.702	-0.19
837.872	-0.67
838.041	0.62
838.211	0.79
838.381	-1.03
838.55	-0.12
838.72	1.02
838.89	0.68
839.059	-0.09
839.229	-0.46
839.398	0.86
839.568	0.21
839.738	0.18
839.907	0.84
840.077	0.46
840.246	0.13
840.416	-0.6
840.585	-0.85
840.755	0.96
840.924	0.96
841.093	-1.28
841.263	-0.07
841.432	0.04
841.602	-0.99
841.771	-0.89
841.94	-0.76
842.11	1.32
842.279	0.97
842.448	-0.84
842.617	-1.01
842.787	0.83
842.956	-1.02
843.125	-0.38
843.294	0.09
843.464	0.83
843.633	-0.17
843.802	-1.06
843.971	0.13
844.14	0.66
844.309	0.05
844.479	-1.73
844.648	-0.95
844.817	-0.16
844.986	-0.12
845.155	-0.68
845.324	-0.66
845.493	-0.36
845.662	-1.05
845.831	0.03
846	0.58
846.169	-0.92
846.338	0.15
846.507	0.12
846.676	-0.21
846.844	-0.37
847.013	-0.15
847.182	-0
847.351	-0.92
847.52	0.42
847.689	0.81
847.858	0.3
848.026	-0.92
848.195	0.88
848.364	-0.6
848.533	-1.16
848.701	-0.14
848.87	0.32
849.039	0.73
849.207	0.84
849.376	0.55
849.545	0.71
849.713	-0.66
849.882	-0.49
850.051	0.21
850.219	-0.04
850.388	0.68
850.556	-1.16
850.725	-0.67
850.893	-0.03
851.062	0.02
851.23	0.75
851.399	-1.23
851.567	-0.19
851.736	-0.95
851.904	-0.89
852.073	0.01
852.241	0.71
852.41	-0.43
852.578	-0.47
852.746	-0.33
852.915	0.63
853.083	-0.91
853.251	-1.61
853.42	-1.35
853.588	0.04
853.756	0.98
853.924	0.02
854.093	-0.27
854.261	-0.34
854.429	-1.42
854.597	-0.13
854.765	-1.1
854.934	-0.32
855.102	0.5
855.27	-0.44
855.438	-0.05
855.606	0.23
855.774	1.15
855.942	-1.77
856.11	-2.81
856.278	0.37
856.446	-0.33
856.614	-0.45
856.782	-1.32
856.95	1.42
857.118	0.5
857.286	0.14
857.454	-0.95
857.622	0.5
857.79	-0.41
857.958	-1.62
858.126	0.05
858.294	-2.63
858.462	-0.77
858.629	-0.1
858.797	-1.27
858.965	-0.28
859.133	1.09
859.301	-0.36
859.468	0.99
859.636	-0.49
859.804	1.4
859.971	-0.38
860.139	-1.02
860.307	0.86
860.474	0.78
860.642	-1.45
860.81	-1.13
860.977	-0.72
861.145	1.53
861.313	-1.05
861.48	1.28
861.648	1.11
861.815	-0.23
861.983	-0.97
862.15	0.05
862.318	2.37
862.485	2.14
862.653	-0.62
862.82	-1.2
862.988	2.56
863.155	1.32
863.322	-1.16
863.49	-1.84
863.657	-2.21
863.824	1.03
863.992	1.03
864.159	-0.54
864.326	1.96
864.494	-0.69
864.661	2.26
864.828	-1.38
864.996	1.52
865.163	1.36
865.33	-0.49
865.497	-1.49
865.664	-1.11
865.832	-2.91
865.999	-0.84
866.166	-1.41
866.333	-0.47
866.5	-1.44
866.667	-1.32
866.834	-0.99
867.001	1.8
867.168	-3.35
867.335	0.04
867.502	-1.83
867.669	0.43
867.836	0.78
868.003	0.25
868.17	0.46
868.337	-0.2
868.504	2.48
868.671	-1.47
868.838	-1.3
869.005	1
869.172	-0.08
869.339	0.25
869.505	-0.05
869.672	-0.68
869.839	-0.32
870.006	0.25
870.173	-3.33
870.339	1.72
870.506	2.98
870.673	-0.56
870.84	0.93
871.006	1.09
871.173	-1.18
871.34	-0.83
871.506	-2.03
871.673	0.71
871.839	-1.83
872.006	0.88
872.173	-0.63
872.339	-0.2
872.506	1.02
872.672	-0.9
872.839	-2.1
873.005	-0.75
873.172	2.5
873.338	-0.6
873.505	-0.41
873.671	1.93
873.838	1.11
874.004	-1.96
874.171	-1.94
874.337	0.54
874.503	0.24
874.67	-0.69
874.836	-0.19
875.002	2.33
875.169	1.19
875.335	-1.12
875.501	-0.53
875.668	1.62
875.834	0.39
876	0.71
876.166	0.93
876.332	1.22
876.499	2.2
876.665	-1.15
876.831	0.03
876.997	2.92
877.163	0.09
877.329	-0.75
877.495	0.32
877.662	1.11
877.828	0.95
877.994	-1.81
878.16	-1.58
878.326	-0.5
878.492	-0.76
878.658	-2.32
878.824	0.5
878.99	1.43
879.156	-1.66
879.322	0.39
879.487	-0.6
879.653	0.07
879.819	0.26
879.985	-0.04
880.151	-0
880.317	-0.1
880.483	1.53
880.648	0.74
880.814	-3.33
880.98	1.78
881.146	-3.42
881.312	-2.14
881.477	-1.94
881.643	-0.38
881.809	0.94
881.974	-0.4
882.14	-1.49
882.306	2.59
882.471	3.95
882.637	-2.15
882.803	2.17
882.968	3.29
883.134	3.34
883.299	-1.33
883.465	0.28
883.63	1.26
883.796	0.33
883.961	1.41
884.127	0.55
884.292	-4.24
884.458	-2.2
884.623	-2.2
