Data from Apollo_Calib_20240827__AbsoluteIrradiance__588__08-57-02-621.txt Node

Date: Wed Aug 28 08:57:02 BST 2024
User: biology
Spectrometer: FLMT08252
Trigger mode: 0
Integration Time (sec): 5.000000E-1
Scans to average: 5
Electric dark correction enabled: true
Nonlinearity correction enabled: false
Boxcar width: 0
XAxis mode: Wavelengths
Number of Pixels in Spectrum: 3648
>>>>>Begin Spectral Data<<<<<
179.588	-0
179.809	-0
180.03	-0
180.251	-0
180.473	-0
180.694	0
180.915	0
181.136	-0
181.357	0
181.578	-0
181.799	-0
182.02	-0
182.241	-0
182.462	-0
182.683	0
182.904	-0
183.125	0
183.346	0
183.567	0
183.788	0
184.009	-0
184.23	0
184.451	0
184.672	-0
184.892	-0
185.113	0
185.334	0
185.555	0
185.776	0
185.996	0
186.217	0
186.438	0
186.659	0
186.879	0
187.1	0
187.321	0
187.541	-0
187.762	0
187.983	0
188.203	0
188.424	0
188.644	0
188.865	0
189.086	0
189.306	0
189.527	0
189.747	0
189.968	0
190.188	0
190.409	0
190.629	0
190.849	0
191.07	0
191.29	0
191.511	0
191.731	-0
191.951	0
192.172	0
192.392	0
192.612	0
192.833	0
193.053	0
193.273	0
193.493	0
193.714	0
193.934	0
194.154	0
194.374	0
194.594	0
194.815	0
195.035	0
195.255	0
195.475	0
195.695	0
195.915	0
196.135	0
196.355	0
196.575	0
196.795	0
197.015	-0
197.235	0
197.455	0
197.675	0
197.895	0
198.115	0
198.335	0
198.555	-0
198.775	0
198.995	0
199.214	0
199.434	0
199.654	0
199.874	0
200.094	1.36
200.313	0.39
200.533	0.22
200.753	-0.13
200.973	1.22
201.192	1.33
201.412	-0.52
201.632	0.13
201.851	1.14
202.071	-0.02
202.291	0.45
202.51	-0.12
202.73	0.56
202.95	0.29
203.169	-0.11
203.389	0.31
203.608	0.49
203.828	-0.13
204.047	0.13
204.267	0.77
204.486	0.44
204.706	0.4
204.925	0.19
205.145	0.21
205.364	0.65
205.583	0.97
205.803	0.21
206.022	0.07
206.242	0.06
206.461	0.72
206.68	0.16
206.9	0.68
207.119	1.01
207.338	0.86
207.557	0.29
207.777	0.21
207.996	0.25
208.215	0.71
208.434	0.16
208.654	-0.13
208.873	0.35
209.092	0.81
209.311	0.08
209.53	0.56
209.749	0.24
209.968	0.36
210.187	0.09
210.407	-0.04
210.626	0.21
210.845	0.47
211.064	0.35
211.283	0.18
211.502	0.39
211.721	0.23
211.94	0.08
212.159	0.34
212.377	0.57
212.596	0.58
212.815	0.34
213.034	0.33
213.253	0.48
213.472	0.46
213.691	0.09
213.91	0.04
214.128	0.22
214.347	0.5
214.566	-0.2
214.785	-0.01
215.003	0.62
215.222	0.29
215.441	0.14
215.66	-0.01
215.878	0.27
216.097	0.56
216.316	-0.08
216.534	0.2
216.753	0.47
216.972	0.26
217.19	0.17
217.409	0.08
217.627	-0.04
217.846	0.26
218.064	0.14
218.283	0.22
218.501	0.48
218.72	0.26
218.938	0.05
219.157	0.16
219.375	0.38
219.594	0.26
219.812	-0.02
220.031	-0.03
220.249	0.43
220.467	0.5
220.686	0.1
220.904	0.01
221.122	-0.04
221.341	0.37
221.559	0.18
221.777	0.01
221.995	0.2
222.214	0.19
222.432	0.18
222.65	0.27
222.868	0.25
223.086	0.28
223.305	0.25
223.523	0.2
223.741	0.26
223.959	-0.07
224.177	-0.07
224.395	0.11
224.613	0.24
224.831	0.28
225.049	0
225.267	0
225.485	0.01
225.703	0.1
225.921	0.06
226.139	-0.03
226.357	0.19
226.575	0.09
226.793	0.04
227.011	0.43
227.229	0.21
227.447	0.2
227.665	0.09
227.883	-0.14
228.1	0.14
228.318	0.16
228.536	-0.27
228.754	-0
228.972	0.14
229.189	0.25
229.407	0.08
229.625	0.02
229.843	0.31
230.06	0.26
230.278	0.13
230.496	0.18
230.713	0.19
230.931	0.27
231.149	0.17
231.366	-0.13
231.584	-0
231.801	0.4
232.019	0.05
232.236	-0.09
232.454	-0.01
232.671	0.19
232.889	0.11
233.106	0.03
233.324	0.23
233.541	0.04
233.759	0.07
233.976	0.08
234.194	0.15
234.411	0.05
234.628	0.1
234.846	0.08
235.063	0.15
235.28	0.16
235.498	0.13
235.715	-0.11
235.932	0.2
236.149	0.13
236.367	0.03
236.584	0.04
236.801	0.13
237.018	0.19
237.236	0.18
237.453	0.02
237.67	0.25
237.887	0.04
238.104	0.04
238.321	0.03
238.538	0.08
238.755	0.07
238.973	-0.04
239.19	0.07
239.407	0.15
239.624	0.11
239.841	0.03
240.058	0.04
240.275	0.12
240.492	0.04
240.709	0.08
240.925	-0.02
241.142	0.06
241.359	-0.03
241.576	-0.03
241.793	0
242.01	0.09
242.227	0.2
242.444	0.05
242.66	0.15
242.877	0.06
243.094	0.06
243.311	0.06
243.527	0.01
243.744	0.14
243.961	0.21
244.178	0.01
244.394	0.14
244.611	0.18
244.828	0.17
245.044	-0.03
245.261	0.08
245.477	0.19
245.694	0.27
245.911	0.04
246.127	0.08
246.344	0.22
246.56	0.17
246.777	0.12
246.993	0.15
247.21	0.14
247.426	0.16
247.643	0.07
247.859	0.04
248.076	-0.01
248.292	0.33
248.508	0.03
248.725	0.11
248.941	0.13
249.157	0.22
249.374	0.07
249.59	0.09
249.806	0.09
250.023	0.13
250.239	-0.03
250.455	0.01
250.671	0.06
250.888	0.17
251.104	0.16
251.32	-0.02
251.536	0.14
251.752	0.02
251.969	0.11
252.185	0.15
252.401	0.26
252.617	0.18
252.833	0.01
253.049	0.12
253.265	0.1
253.481	0.18
253.697	0.03
253.913	0.04
254.129	0.14
254.345	0.1
254.561	0.08
254.777	0.07
254.993	0.13
255.209	0.15
255.425	0.1
255.641	0.01
255.857	0.15
256.073	0.08
256.288	-0.04
256.504	0.04
256.72	0.11
256.936	0.17
257.152	0.05
257.367	0.04
257.583	0.08
257.799	0.16
258.015	0.09
258.23	0.04
258.446	0.17
258.662	0.05
258.877	0.01
259.093	0.04
259.309	-0.03
259.524	0.14
259.74	0.07
259.955	0.01
260.171	0.13
260.387	0.08
260.602	0.16
260.818	0.15
261.033	0.02
261.249	0.07
261.464	0.08
261.68	0.01
261.895	0.09
262.11	0.13
262.326	0.07
262.541	-0.01
262.757	0.08
262.972	0.1
263.187	0.1
263.403	-0
263.618	0.15
263.833	0.06
264.049	0.06
264.264	0.11
264.479	0.07
264.694	0.16
264.91	0.03
265.125	0.08
265.34	0.15
265.555	0.18
265.77	0.06
265.986	-0.03
266.201	0.09
266.416	0.13
266.631	0.07
266.846	0.06
267.061	0.06
267.276	0.12
267.491	-0.1
267.706	0.1
267.921	0.15
268.136	0.09
268.351	0.04
268.566	-0.03
268.781	0.2
268.996	0.15
269.211	0.07
269.426	-0.03
269.641	0.06
269.856	0.09
270.071	0.06
270.285	0.02
270.5	0.1
270.715	0.16
270.93	0.09
271.145	0.04
271.359	0.05
271.574	0.04
271.789	0.09
272.004	0.03
272.218	0.03
272.433	0.13
272.648	0.03
272.862	0.12
273.077	0.03
273.292	0.01
273.506	0.07
273.721	0.01
273.936	0.09
274.15	0.18
274.365	0.05
274.579	0.12
274.794	0.11
275.008	0.12
275.223	0.02
275.437	0.04
275.652	0.1
275.866	0.09
276.081	0.07
276.295	0.09
276.509	0.02
276.724	0.01
276.938	0.08
277.153	0.14
277.367	0.13
277.581	0
277.796	0.03
278.01	-0.02
278.224	0.09
278.438	0.2
278.653	0.06
278.867	0.07
279.081	-0.16
279.295	0.03
279.51	0.12
279.724	0.02
279.938	0.09
280.152	0.09
280.366	0.04
280.58	0.12
280.794	0.11
281.008	0.1
281.222	0.11
281.437	0.21
281.651	0.04
281.865	0.09
282.079	0.04
282.293	-0.03
282.507	-0.04
282.721	0.1
282.935	0.06
283.148	-0.06
283.362	-0.03
283.576	-0.02
283.79	0.02
284.004	0.05
284.218	0.08
284.432	0.03
284.646	0.06
284.859	0.06
285.073	0.06
285.287	0.03
285.501	0.06
285.714	0.04
285.928	0.07
286.142	0.09
286.356	0.03
286.569	0.02
286.783	0.14
286.997	0.08
287.21	0.06
287.424	0.08
287.637	0.05
287.851	0.03
288.065	0.1
288.278	0.07
288.492	0.07
288.705	0.04
288.919	0.08
289.132	-0
289.346	0.09
289.559	0.02
289.773	0.01
289.986	0.07
290.2	0.05
290.413	0.08
290.626	0.01
290.84	0.05
291.053	0.03
291.267	0.13
291.48	0.07
291.693	0.07
291.906	0.05
292.12	0.05
292.333	0.03
292.546	0.08
292.76	0.11
292.973	0.08
293.186	0.06
293.399	0.01
293.612	0.09
293.826	0.05
294.039	0.07
294.252	-0
294.465	0.05
294.678	0.07
294.891	0.06
295.104	0.04
295.317	0.07
295.53	0.05
295.743	0.03
295.956	0.04
296.169	0.13
296.382	0.03
296.595	0.04
296.808	0.01
297.021	0.12
297.234	0.1
297.447	0.07
297.66	0.08
297.873	0.12
298.086	0.08
298.299	0.01
298.511	0.01
298.724	-0
298.937	-0.01
299.15	0.04
299.363	0.09
299.575	0.09
299.788	0.11
300.001	0.01
300.213	0.03
300.426	0.08
300.639	0.03
300.852	-0
301.064	0.1
301.277	0.13
301.489	0.11
301.702	0.09
301.915	0.06
302.127	0.01
302.34	0.07
302.552	0.05
302.765	0.05
302.977	0.07
303.19	-0.03
303.402	0.02
303.615	0.04
303.827	0
304.04	0.04
304.252	0.1
304.464	0.05
304.677	0.13
304.889	0.07
305.102	-0
305.314	0.04
305.526	0.11
305.739	0.05
305.951	0.04
306.163	0.05
306.375	0.15
306.588	0.04
306.8	0.03
307.012	0.03
307.224	0.11
307.436	0.11
307.649	-0.02
307.861	0.08
308.073	0.07
308.285	0.07
308.497	0.01
308.709	0.01
308.921	0.04
309.133	0.07
309.346	0.07
309.558	0.02
309.77	0.08
309.982	0.08
310.194	0.11
310.406	0.02
310.617	0.07
310.829	0.06
311.041	0.08
311.253	0.03
311.465	0.03
311.677	0.08
311.889	0.02
312.101	0.01
312.313	0.13
312.524	0.09
312.736	-0
312.948	0.02
313.16	0.12
313.372	0.07
313.583	0.06
313.795	0.03
314.007	0.03
314.218	0.04
314.43	0.01
314.642	0.05
314.853	0.03
315.065	0.07
315.277	0.05
315.488	0.06
315.7	0.07
315.912	0.04
316.123	0.07
316.335	0.03
316.546	0.17
316.758	0.06
316.969	0.04
317.181	0.06
317.392	0.04
317.604	0.11
317.815	0.02
318.026	0.02
318.238	0.03
318.449	0.08
318.661	-0.01
318.872	0.03
319.083	0.01
319.295	0.09
319.506	-0.01
319.717	0.06
319.929	0.05
320.14	0.03
320.351	0.09
320.562	-0.02
320.774	0.03
320.985	0.09
321.196	-0.02
321.407	-0.01
321.618	0.12
321.829	0.1
322.041	0.05
322.252	0.06
322.463	0.05
322.674	0.05
322.885	0
323.096	0.06
323.307	0.07
323.518	0.07
323.729	0.03
323.94	0.02
324.151	0
324.362	0.07
324.573	0.07
324.784	0.02
324.995	0.09
325.206	0.07
325.417	0.02
325.628	0.06
325.838	0.02
326.049	0.03
326.26	0.1
326.471	0.05
326.682	0.09
326.892	0.06
327.103	0
327.314	-0.02
327.525	0.11
327.735	0.04
327.946	0.01
328.157	0.02
328.368	0.09
328.578	0.01
328.789	0.07
328.999	0.06
329.21	0.02
329.421	0.08
329.631	0.03
329.842	0.04
330.052	0.02
330.263	0.12
330.473	0.1
330.684	0.09
330.894	0.06
331.105	0.05
331.315	0.05
331.526	-0.01
331.736	0.13
331.947	0.04
332.157	0.09
332.367	0.03
332.578	0.06
332.788	0.08
332.999	0.05
333.209	0.08
333.419	0.03
333.629	0.05
333.84	0.1
334.05	0.05
334.26	0.09
334.47	0.02
334.681	0.09
334.891	0.07
335.101	0.08
335.311	0.1
335.521	0.07
335.732	0.02
335.942	0.08
336.152	0.08
336.362	0.08
336.572	0.04
336.782	0.08
336.992	-0
337.202	0.03
337.412	0.01
337.622	0.08
337.832	0.06
338.042	0.06
338.252	0.01
338.462	0.02
338.672	0.05
338.882	0.05
339.092	0.01
339.302	0.13
339.511	0.1
339.721	0.05
339.931	0.01
340.141	0.1
340.351	0.06
340.561	0.06
340.77	0.09
340.98	0.06
341.19	0.05
341.4	0.04
341.609	-0.01
341.819	0.06
342.029	-0.01
342.238	0.01
342.448	0.02
342.658	0.05
342.867	0.05
343.077	0.06
343.286	0.08
343.496	0.07
343.706	0.14
343.915	-0.01
344.125	0.08
344.334	0.08
344.544	-0.01
344.753	0.01
344.963	0.04
345.172	0
345.381	0.05
345.591	0.03
345.8	0.02
346.01	0.12
346.219	0.11
346.428	-0.07
346.638	0.05
346.847	0.06
347.056	0.11
347.266	0.04
347.475	0.04
347.684	0.08
347.893	0.1
348.103	0.06
348.312	0.04
348.521	0.05
348.73	0.05
348.94	0.08
349.149	0.04
349.358	0.01
349.567	-0.01
349.776	-0
349.985	0.02
350.194	0.04
350.403	0.09
350.612	0
350.821	0.03
351.03	0.02
351.239	0.01
351.448	0.07
351.657	0.01
351.866	0.1
352.075	0.03
352.284	0.09
352.493	-0.02
352.702	0.03
352.911	0.05
353.12	0.04
353.329	0.06
353.538	0.08
353.746	0.05
353.955	0.04
354.164	0.06
354.373	0.05
354.582	0.1
354.79	0.06
354.999	0.06
355.208	0.06
355.416	0.09
355.625	0.04
355.834	0.01
356.042	0
356.251	-0
356.46	0.01
356.668	0.05
356.877	0.1
357.085	0.07
357.294	-0.03
357.503	0.05
357.711	0.06
357.92	0.17
358.128	0.03
358.337	0.04
358.545	0.02
358.754	0.07
358.962	0.07
359.17	0.01
359.379	0.09
359.587	0.07
359.796	0.05
360.004	0.08
360.212	0.06
360.421	0.09
360.629	0.06
360.837	0.07
361.046	0.06
361.254	0.11
361.462	0.05
361.67	0.02
361.879	0.08
362.087	0.08
362.295	0.08
362.503	0.05
362.711	-0.01
362.92	0
363.128	-0
363.336	0.02
363.544	-0.03
363.752	0.04
363.96	0.02
364.168	-0
364.376	0.03
364.584	0.04
364.792	0.1
365	0.07
365.208	0.04
365.416	0.02
365.624	0.06
365.832	0
366.04	0.09
366.248	0.05
366.456	0.07
366.664	0.05
366.872	0.05
367.079	0.04
367.287	0.06
367.495	0.07
367.703	0.04
367.911	0.06
368.118	0.01
368.326	0.02
368.534	0.01
368.742	0.07
368.949	0.01
369.157	0.03
369.365	0.08
369.572	0.02
369.78	0
369.988	0.06
370.195	0.04
370.403	0.07
370.61	0.02
370.818	0.06
371.026	0.11
371.233	-0.02
371.441	0.05
371.648	0.03
371.856	0.02
372.063	0.03
372.271	0.01
372.478	0.01
372.685	0.01
372.893	0.08
373.1	0
373.308	0.03
373.515	0.07
373.722	0.09
373.93	0.05
374.137	0.08
374.344	0.09
374.552	0.08
374.759	0.05
374.966	0.04
375.173	0.02
375.381	0.11
375.588	0.02
375.795	-0.05
376.002	0.04
376.209	0.02
376.417	0.04
376.624	0.04
376.831	0.07
377.038	0.04
377.245	-0.02
377.452	0.02
377.659	0.02
377.866	-0.02
378.073	0.03
378.28	0.03
378.487	0.04
378.694	0.05
378.901	0.02
379.108	0.04
379.315	0.05
379.522	0.11
379.729	0.02
379.936	0.03
380.143	0.04
380.35	0.09
380.557	0.05
380.763	0.04
380.97	0.03
381.177	0.06
381.384	0.06
381.591	0.02
381.797	0.03
382.004	0.07
382.211	0.08
382.418	0
382.624	0.1
382.831	0.09
383.038	0.04
383.244	0.05
383.451	0.06
383.658	0.03
383.864	-0.01
384.071	-0.02
384.277	0.09
384.484	0.01
384.69	0.06
384.897	0
385.103	0.01
385.31	0.01
385.516	0.03
385.723	-0.04
385.929	0.02
386.136	0
386.342	0.06
386.549	0.03
386.755	0.11
386.961	0.08
387.168	0.05
387.374	0.09
387.58	0.09
387.787	0.04
387.993	0.02
388.199	0.02
388.406	0.03
388.612	0.08
388.818	0.01
389.024	0
389.231	0.13
389.437	0.07
389.643	0.07
389.849	0.04
390.055	0.02
390.261	0.03
390.467	0.04
390.674	0.03
390.88	0.03
391.086	0.06
391.292	0.02
391.498	0.05
391.704	0.08
391.91	0.06
392.116	0.01
392.322	-0.08
392.528	0.07
392.734	0.04
392.94	0.04
393.146	0.05
393.352	0.02
393.557	0.04
393.763	0.03
393.969	0.05
394.175	0.04
394.381	0.03
394.587	0.01
394.792	0.01
394.998	0.06
395.204	0.1
395.41	0.02
395.615	0.04
395.821	0.08
396.027	0.07
396.233	0.01
396.438	0.09
396.644	0.07
396.85	0.07
397.055	0.01
397.261	0.06
397.466	0.11
397.672	0.04
397.878	0.07
398.083	0.07
398.289	0.02
398.494	0.12
398.7	0.03
398.905	-0
399.111	0.12
399.316	0
399.522	-0.01
399.727	0.01
399.932	0.03
400.138	0.01
400.343	0.09
400.549	0.02
400.754	0.05
400.959	0.08
401.165	0.02
401.37	0.02
401.575	0.09
401.78	0.06
401.986	-0.02
402.191	0.01
402.396	0.03
402.601	0.12
402.807	0.02
403.012	0.1
403.217	0.11
403.422	0.06
403.627	0.05
403.832	0.03
404.037	0.09
404.243	0.08
404.448	0.02
404.653	0.04
404.858	0.02
405.063	0.07
405.268	0.01
405.473	-0.03
405.678	0.05
405.883	0.14
406.088	0.05
406.293	0
406.498	0.03
406.703	0.1
406.907	0.01
407.112	-0.04
407.317	0.04
407.522	0.08
407.727	-0
407.932	0.01
408.136	0.09
408.341	0.05
408.546	0.03
408.751	0.04
408.956	0.04
409.16	0.08
409.365	0.03
409.57	0.05
409.774	0.06
409.979	0.08
410.184	0.01
410.388	0.02
410.593	0.09
410.798	0.05
411.002	-0.02
411.207	0.05
411.411	0.07
411.616	-0
411.82	0.03
412.025	0.08
412.229	0.04
412.434	0.1
412.638	0.06
412.843	-0
413.047	0.03
413.252	0
413.456	0.04
413.66	0.06
413.865	-0.01
414.069	0.13
414.273	0.04
414.478	0
414.682	-0.01
414.886	0.01
415.091	0
415.295	-0.04
415.499	0.03
415.703	0.02
415.908	0.07
416.112	-0.02
416.316	0.06
416.52	0.01
416.724	-0.03
416.929	0.03
417.133	0.13
417.337	0.02
417.541	0.04
417.745	0.04
417.949	0.12
418.153	0.04
418.357	0
418.561	0.09
418.765	0.05
418.969	0.12
419.173	0.04
419.377	-0.01
419.581	0.15
419.785	0.03
419.989	0.03
420.193	0.01
420.397	0.03
420.601	0.07
420.804	0.12
421.008	0.02
421.212	0.05
421.416	0.09
421.62	0.01
421.823	0.02
422.027	0.16
422.231	0.05
422.435	-0.01
422.638	0.05
422.842	-0
423.046	0
423.249	0.04
423.453	0.03
423.657	0.03
423.86	0.03
424.064	0.1
424.268	0.08
424.471	0.06
424.675	0.11
424.878	0.1
425.082	0.04
425.285	0.06
425.489	0.07
425.692	0.03
425.896	0.01
426.099	0.05
426.303	-0.01
426.506	0
426.71	0.09
426.913	0.07
427.116	0.06
427.32	0.05
427.523	0.04
427.726	0.11
427.93	-0
428.133	0.02
428.336	-0.03
428.54	0.02
428.743	0.06
428.946	0.09
429.149	0.07
429.353	0.07
429.556	0
429.759	-0.04
429.962	0.01
430.165	0.04
430.368	0.06
430.571	0.03
430.775	0.09
430.978	0.02
431.181	0.04
431.384	0.06
431.587	-0.01
431.79	0.05
431.993	0.05
432.196	0.02
432.399	0.02
432.602	0.14
432.805	0.03
433.008	0.01
433.211	-0.04
433.414	0.07
433.616	0.08
433.819	0.04
434.022	-0.03
434.225	0.09
434.428	0.05
434.631	0.16
434.833	-0.02
435.036	0.02
435.239	0.1
435.442	0.04
435.645	0.02
435.847	0.08
436.05	0.07
436.253	0.08
436.455	0.02
436.658	0.01
436.861	0.15
437.063	0.05
437.266	0.05
437.468	0.09
437.671	0.16
437.874	0.08
438.076	-0.01
438.279	0
438.481	0.02
438.684	-0.02
438.886	0.06
439.089	-0.04
439.291	0.06
439.494	0.06
439.696	-0.02
439.899	0.02
440.101	0.09
440.303	-0
440.506	0.05
440.708	0.03
440.91	0.13
441.113	-0.01
441.315	0.08
441.517	-0.03
441.72	0.07
441.922	0.03
442.124	0.02
442.326	0.04
442.529	0.13
442.731	-0.01
442.933	0.18
443.135	-0.01
443.337	0.04
443.539	0.04
443.742	0.09
443.944	0.05
444.146	0
444.348	0.04
444.55	0.02
444.752	-0
444.954	-0.01
445.156	0.03
445.358	-0.01
445.56	0.14
445.762	0.02
445.964	0.1
446.166	0.01
446.368	0.02
446.57	0.12
446.772	0.07
446.974	0.02
447.175	0.05
447.377	-0.01
447.579	0.01
447.781	-0.02
447.983	0.11
448.184	0.09
448.386	0.06
448.588	-0
448.79	0.09
448.991	-0.01
449.193	0.04
449.395	0.04
449.597	0.13
449.798	0.05
450	0.09
450.202	0.03
450.403	0.06
450.605	0.09
450.806	0.06
451.008	-0.08
451.21	0.05
451.411	0.05
451.613	0.06
451.814	0.04
452.016	0.07
452.217	-0
452.419	0.09
452.62	0.04
452.821	0.06
453.023	0.14
453.224	0.06
453.426	0.07
453.627	0.1
453.828	0.12
454.03	0.06
454.231	0.05
454.432	0.04
454.634	0.1
454.835	-0
455.036	0.02
455.238	0.12
455.439	0.11
455.64	0
455.841	0.02
456.042	0.1
456.244	0.09
456.445	0
456.646	-0.02
456.847	0
457.048	0.1
457.249	0.09
457.45	0.28
457.651	-0.01
457.852	0.08
458.054	0.06
458.255	0.05
458.456	0.07
458.657	0.08
458.858	0.03
459.058	0.03
459.259	0.06
459.46	0.06
459.661	0.04
459.862	0.14
460.063	0.03
460.264	0.07
460.465	-0.02
460.666	0.12
460.866	0.07
461.067	0.01
461.268	-0.01
461.469	0.04
461.67	0.03
461.87	0.06
462.071	0.05
462.272	-0.03
462.473	0.06
462.673	0.1
462.874	0.05
463.075	0.07
463.275	-0.06
463.476	0.11
463.676	0.05
463.877	0.04
464.078	0.04
464.278	0.1
464.479	-0.03
464.679	0.02
464.88	0.03
465.08	0.12
465.281	0.01
465.481	0.07
465.682	0
465.882	0.08
466.083	0.07
466.283	0.05
466.483	0
466.684	-0.02
466.884	0.08
467.085	0.02
467.285	0.1
467.485	0.02
467.686	0.06
467.886	-0.01
468.086	0.02
468.286	0.05
468.487	0.05
468.687	-0.03
468.887	0.04
469.087	0.07
469.287	0.05
469.488	-0.03
469.688	0.06
469.888	0.09
470.088	0.07
470.288	0.1
470.488	0.1
470.688	0.03
470.888	0.04
471.088	0
471.288	0.07
471.488	0.06
471.688	0.08
471.888	0
472.088	0.11
472.288	0.09
472.488	0.02
472.688	-0
472.888	0.02
473.088	0.04
473.288	0.03
473.488	0.02
473.688	0.11
473.887	0.03
474.087	0.03
474.287	0.08
474.487	0.03
474.687	0.1
474.886	0
475.086	0.03
475.286	0.02
475.486	0.06
475.685	0.03
475.885	-0.02
476.085	0.03
476.284	0.04
476.484	0.04
476.684	0.07
476.883	0.06
477.083	0.04
477.282	0.01
477.482	0.06
477.681	0.11
477.881	0.03
478.08	0.01
478.28	0.01
478.479	0.06
478.679	0.1
478.878	0.03
479.078	0.02
479.277	0.02
479.477	0.05
479.676	0.07
479.875	0.02
480.075	0
480.274	0.04
480.473	0.05
480.673	0.01
480.872	0.02
481.071	0.02
481.271	0.05
481.47	0.01
481.669	0.02
481.868	-0
482.067	0
482.267	0.02
482.466	0.01
482.665	0.01
482.864	-0.01
483.063	-0.02
483.262	0.07
483.461	0.07
483.661	0.05
483.86	0.02
484.059	0.04
484.258	0.01
484.457	0.02
484.656	0.01
484.855	0.05
485.054	-0.01
485.253	0.02
485.452	-0.05
485.651	0
485.849	0.01
486.048	-0
486.247	0.01
486.446	0.01
486.645	-0.01
486.844	0.01
487.043	0.03
487.241	0.03
487.44	0
487.639	0.02
487.838	0.03
488.037	0.02
488.235	0.07
488.434	0.01
488.633	0
488.831	0.05
489.03	0.07
489.229	0.03
489.427	0.02
489.626	0.06
489.825	0.08
490.023	0.01
490.222	-0
490.42	0.06
490.619	0.05
490.817	0.03
491.016	0.01
491.214	0.06
491.413	0.01
491.611	0
491.81	0.01
492.008	0.03
492.207	0.06
492.405	0.03
492.604	-0.01
492.802	0.01
493	0.01
493.199	-0
493.397	0.03
493.595	0
493.794	-0.01
493.992	0.04
494.19	0.01
494.388	0.03
494.587	0.02
494.785	0.04
494.983	-0.01
495.181	0.01
495.379	0.01
495.578	-0.02
495.776	0.03
495.974	0.04
496.172	0
496.37	0.01
496.568	0.01
496.766	0.02
496.964	0.05
497.162	0.03
497.36	0.01
497.558	0.06
497.756	0.04
497.954	0.01
498.152	-0.01
498.35	0.01
498.548	0.02
498.746	0.03
498.944	-0
499.142	0.01
499.34	0
499.538	0.02
499.736	0.01
499.933	0.06
500.131	0.04
500.329	0.01
500.527	0.06
500.725	0.03
500.922	0.04
501.12	0.03
501.318	0.03
501.516	0.01
501.713	0.04
501.911	0.02
502.109	0
502.306	0.04
502.504	0.01
502.701	-0
502.899	0.02
503.097	0.05
503.294	0.03
503.492	0.02
503.689	0.03
503.887	0.05
504.084	0.05
504.282	0.04
504.479	-0.02
504.677	0.02
504.874	-0
505.072	0.01
505.269	0.01
505.466	0.05
505.664	0.02
505.861	-0.01
506.059	-0.01
506.256	0.03
506.453	-0.01
506.651	0.06
506.848	0.04
507.045	0.04
507.242	0.01
507.44	-0
507.637	0.03
507.834	0.02
508.031	0.04
508.229	-0
508.426	0.04
508.623	0.05
508.82	0.01
509.017	-0.01
509.214	0.01
509.411	-0
509.608	0.01
509.805	0.03
510.003	-0
510.2	0.01
510.397	0.05
510.594	-0
510.791	0.01
510.988	0.02
511.184	0.05
511.381	0.03
511.578	0
511.775	0.03
511.972	-0
512.169	0.01
512.366	0.02
512.563	0.06
512.76	0.01
512.956	0.05
513.153	0.01
513.35	0.02
513.547	-0.01
513.744	-0
513.94	-0.01
514.137	0.04
514.334	0.05
514.53	0.01
514.727	0.04
514.924	0.08
515.12	-0.01
515.317	-0.03
515.514	0.01
515.71	0.01
515.907	0.02
516.103	0.01
516.3	0.04
516.497	0.04
516.693	0.05
516.89	0.02
517.086	-0.01
517.283	0.05
517.479	0.02
517.676	0.02
517.872	0.01
518.068	0.02
518.265	-0
518.461	0.03
518.658	-0.01
518.854	0.02
519.05	0.02
519.247	0.01
519.443	0.04
519.639	0.04
519.836	0.01
520.032	0.05
520.228	0.03
520.424	0.04
520.621	0.04
520.817	0
521.013	0.03
521.209	0.04
521.405	0.08
521.601	0.01
521.798	0.03
521.994	0.04
522.19	-0.01
522.386	-0.01
522.582	0
522.778	0.01
522.974	0.01
523.17	0.02
523.366	0.01
523.562	0.06
523.758	0.02
523.954	0
524.15	0
524.346	0.04
524.542	0.01
524.738	-0
524.934	0.02
525.129	-0.07
525.325	0.03
525.521	-0
525.717	0.04
525.913	0.03
526.109	0.03
526.304	0.04
526.5	0.04
526.696	0.04
526.892	0.01
527.087	0.03
527.283	-0.01
527.479	0.02
527.674	0.01
527.87	0.01
528.066	0
528.261	0.04
528.457	0.01
528.653	0.02
528.848	0.01
529.044	0.02
529.239	-0
529.435	0.05
529.63	0.05
529.826	0.06
530.021	0.03
530.217	0.05
530.412	0.01
530.608	0.01
530.803	0.04
530.999	0.02
531.194	-0.02
531.389	0
531.585	-0
531.78	0.02
531.975	0.02
532.171	0.05
532.366	0.01
532.561	0.03
532.757	-0.01
532.952	0
533.147	0.03
533.342	0.02
533.538	0.01
533.733	0.05
533.928	-0.01
534.123	-0.01
534.318	-0.01
534.513	0.02
534.709	0.04
534.904	0.03
535.099	-0.01
535.294	0.02
535.489	0.04
535.684	0.01
535.879	-0.01
536.074	0.02
536.269	-0.02
536.464	0.02
536.659	0.01
536.854	0.04
537.049	-0
537.244	0.05
537.439	0.02
537.634	0.05
537.828	0.03
538.023	0
538.218	-0
538.413	0.03
538.608	0.01
538.803	0.02
538.997	-0.02
539.192	0.03
539.387	0.03
539.582	0.02
539.776	0.02
539.971	-0
540.166	0.02
540.36	-0.01
540.555	0.03
540.75	0.02
540.944	0.01
541.139	-0.02
541.334	0.02
541.528	0.04
541.723	0.04
541.917	0.02
542.112	-0.03
542.306	0.02
542.501	-0
542.695	0.04
542.89	0.02
543.084	0.03
543.279	0.01
543.473	0.03
543.668	0.02
543.862	0.02
544.056	0.05
544.251	0.02
544.445	0.03
544.64	0.02
544.834	0.01
545.028	0.01
545.222	0.04
545.417	0.05
545.611	0.03
545.805	0.02
546	0.02
546.194	0.01
546.388	0.01
546.582	0.06
546.776	0
546.97	0.02
547.165	0.04
547.359	0.04
547.553	-0
547.747	0.03
547.941	0.02
548.135	0.02
548.329	0.04
548.523	0.05
548.717	0.04
548.911	0.01
549.105	0.02
549.299	0.02
549.493	0.05
549.687	0.03
549.881	0.03
550.075	0.02
550.269	-0.02
550.463	0.02
550.657	0.02
550.85	0.02
551.044	0.01
551.238	0.03
551.432	0.01
551.626	-0.01
551.82	0.01
552.013	0
552.207	0.01
552.401	0.03
552.594	0.03
552.788	0.03
552.982	0.02
553.176	-0.01
553.369	0.04
553.563	0.04
553.756	-0.01
553.95	0
554.144	0.02
554.337	0.04
554.531	0.03
554.724	0.04
554.918	-0.01
555.111	0.03
555.305	0.03
555.498	0.08
555.692	0.05
555.885	0
556.079	0.03
556.272	0.02
556.466	0.05
556.659	0.03
556.852	0.02
557.046	0.03
557.239	0.04
557.432	-0.01
557.626	0.04
557.819	0.04
558.012	0.03
558.206	0.05
558.399	0.04
558.592	0.05
558.785	0.03
558.979	0.05
559.172	0.05
559.365	0.02
559.558	0.04
559.751	0.02
559.944	0.07
560.138	0.05
560.331	0.03
560.524	0
560.717	0.05
560.91	0.02
561.103	0.04
561.296	0.03
561.489	0.05
561.682	0.05
561.875	0.06
562.068	0.04
562.261	0.06
562.454	0.08
562.647	0.04
562.84	0.06
563.032	0.02
563.225	0.06
563.418	0.03
563.611	0.01
563.804	0.02
563.997	0.01
564.19	0
564.382	-0
564.575	0.04
564.768	0.02
564.961	0.03
565.153	0.02
565.346	0.04
565.539	0.06
565.731	0.07
565.924	0.05
566.117	0.04
566.309	0.03
566.502	0.02
566.695	0.01
566.887	0.05
567.08	0.01
567.272	0.01
567.465	-0
567.657	0.04
567.85	0.05
568.042	0.02
568.235	0.05
568.427	0.05
568.62	0.02
568.812	0.05
569.005	0.02
569.197	0.01
569.389	0.05
569.582	0.04
569.774	0.04
569.966	0.02
570.159	0.01
570.351	0.04
570.543	0.01
570.736	0.02
570.928	-0.01
571.12	0.05
571.312	0.02
571.505	0.01
571.697	0.09
571.889	0.02
572.081	0.04
572.273	0.03
572.465	0.07
572.658	0.03
572.85	0.05
573.042	0.02
573.234	0.05
573.426	0.04
573.618	0
573.81	0.02
574.002	0.07
574.194	0.07
574.386	0
574.578	-0.01
574.77	0
574.962	0.06
575.154	0.01
575.346	0.03
575.538	0.05
575.729	0.02
575.921	0.02
576.113	0.05
576.305	0.07
576.497	0.04
576.689	0.01
576.88	0.02
577.072	0.07
577.264	0.04
577.456	0.06
577.647	-0.03
577.839	0.02
578.031	0.07
578.223	-0.01
578.414	0
578.606	0.06
578.798	0.05
578.989	0.03
579.181	0.01
579.372	0.03
579.564	0.01
579.755	0.02
579.947	0.04
580.139	0.06
580.33	0
580.522	0.01
580.713	-0.02
580.905	0.01
581.096	0.05
581.287	0.05
581.479	0.05
581.67	0.05
581.862	0.07
582.053	0.03
582.244	0.01
582.436	0.05
582.627	0.06
582.818	0.02
583.01	0.01
583.201	0.07
583.392	0.09
583.583	0.05
583.775	0.05
583.966	0.01
584.157	0.05
584.348	0.06
584.54	0.01
584.731	0.07
584.922	0.05
585.113	0.05
585.304	0.06
585.495	0.09
585.686	0.04
585.877	0.06
586.068	0.07
586.259	0.08
586.45	0.06
586.641	0.04
586.832	0.03
587.023	0.08
587.214	0.07
587.405	0.07
587.596	0.06
587.787	0.1
587.978	0.07
588.169	0.02
588.36	0.03
588.551	0.08
588.742	0.04
588.932	0.05
589.123	0.05
589.314	0.07
589.505	0.06
589.696	0.06
589.886	0.03
590.077	0.03
590.268	0.06
590.458	0.04
590.649	0.03
590.84	0.09
591.03	0.05
591.221	0.03
591.412	0.04
591.602	0.08
591.793	0.08
591.984	0.04
592.174	0.08
592.365	0.13
592.555	0.05
592.746	0.09
592.936	0.1
593.127	0.08
593.317	0.09
593.508	0.06
593.698	0.05
593.889	0.1
594.079	0.07
594.269	0.06
594.46	0.08
594.65	0.09
594.84	0.09
595.031	0.06
595.221	0.08
595.411	0.04
595.602	0.1
595.792	0.06
595.982	0.06
596.172	0.16
596.363	0.09
596.553	0.09
596.743	0.11
596.933	0.11
597.123	0.14
597.314	0.07
597.504	0.08
597.694	0.12
597.884	0.13
598.074	0.09
598.264	0.08
598.454	0.12
598.644	0.11
598.834	0.1
599.024	0.08
599.214	0.09
599.404	0.13
599.594	0.1
599.784	0.09
599.974	0.15
600.164	0.13
600.354	0.08
600.544	0.07
600.734	0.13
600.924	0.11
601.114	0.11
601.303	0.11
601.493	0.12
601.683	0.14
601.873	0.13
602.063	0.08
602.252	0.16
602.442	0.09
602.632	0.12
602.821	0.11
603.011	0.16
603.201	0.12
603.39	0.11
603.58	0.12
603.77	0.17
603.959	0.17
604.149	0.16
604.339	0.16
604.528	0.18
604.718	0.17
604.907	0.14
605.097	0.14
605.286	0.15
605.476	0.2
605.665	0.2
605.855	0.2
606.044	0.22
606.234	0.18
606.423	0.18
606.612	0.15
606.802	0.21
606.991	0.22
607.181	0.2
607.37	0.2
607.559	0.18
607.749	0.16
607.938	0.19
608.127	0.21
608.316	0.2
608.506	0.24
608.695	0.22
608.884	0.21
609.073	0.23
609.263	0.25
609.452	0.27
609.641	0.27
609.83	0.22
610.019	0.24
610.208	0.22
610.397	0.27
610.586	0.28
610.775	0.29
610.965	0.25
611.154	0.28
611.343	0.26
611.532	0.28
611.721	0.3
611.91	0.27
612.099	0.32
612.287	0.32
612.476	0.29
612.665	0.32
612.854	0.31
613.043	0.39
613.232	0.37
613.421	0.31
613.61	0.38
613.798	0.35
613.987	0.42
614.176	0.39
614.365	0.43
614.554	0.39
614.742	0.42
614.931	0.39
615.12	0.47
615.309	0.41
615.497	0.43
615.686	0.43
615.875	0.43
616.063	0.47
616.252	0.45
616.44	0.47
616.629	0.48
616.818	0.51
617.006	0.5
617.195	0.53
617.383	0.57
617.572	0.54
617.76	0.56
617.949	0.56
618.137	0.57
618.326	0.63
618.514	0.54
618.703	0.57
618.891	0.65
619.079	0.54
619.268	0.7
619.456	0.62
619.644	0.71
619.833	0.68
620.021	0.7
620.209	0.68
620.398	0.72
620.586	0.72
620.774	0.77
620.962	0.78
621.151	0.83
621.339	0.78
621.527	0.77
621.715	0.75
621.903	0.81
622.092	0.8
622.28	0.89
622.468	0.86
622.656	0.92
622.844	0.91
623.032	0.92
623.22	0.87
623.408	1
623.596	0.99
623.784	1.05
623.972	1
624.16	1.07
624.348	1.1
624.536	1.09
624.724	1.09
624.912	1.18
625.1	1.17
625.288	1.13
625.476	1.15
625.664	1.28
625.851	1.24
626.039	1.33
626.227	1.29
626.415	1.33
626.603	1.3
626.79	1.39
626.978	1.38
627.166	1.44
627.354	1.43
627.541	1.41
627.729	1.39
627.917	1.55
628.104	1.59
628.292	1.57
628.48	1.6
628.667	1.56
628.855	1.72
629.042	1.75
629.23	1.69
629.418	1.75
629.605	1.82
629.793	1.79
629.98	1.86
630.168	1.88
630.355	1.91
630.543	1.96
630.73	1.95
630.917	2.03
631.105	2.16
631.292	2.14
631.48	2.16
631.667	2.31
631.854	2.19
632.042	2.26
632.229	2.23
632.416	2.31
632.604	2.38
632.791	2.36
632.978	2.54
633.165	2.49
633.353	2.59
633.54	2.63
633.727	2.54
633.914	2.62
634.101	2.62
634.289	2.8
634.476	2.74
634.663	2.81
634.85	2.87
635.037	2.88
635.224	2.87
635.411	3.1
635.598	3.08
635.785	3.1
635.972	3.14
636.159	3.27
636.346	3.31
636.533	3.31
636.72	3.35
636.907	3.41
637.094	3.41
637.281	3.46
637.468	3.58
637.655	3.66
637.842	3.69
638.029	3.69
638.215	3.76
638.402	3.83
638.589	3.86
638.776	3.91
638.963	4.04
639.149	4.18
639.336	4.21
639.523	4.25
639.709	4.32
639.896	4.35
640.083	4.36
640.27	4.6
640.456	4.59
640.643	4.67
640.829	4.64
641.016	4.79
641.203	4.82
641.389	4.99
641.576	5.04
641.762	5.04
641.949	5.18
642.135	5.33
642.322	5.34
642.508	5.38
642.695	5.57
642.881	5.65
643.068	5.6
643.254	5.76
643.441	5.86
643.627	6.04
643.813	5.96
644	6.17
644.186	6.22
644.372	6.4
644.559	6.47
644.745	6.63
644.931	6.73
645.118	6.76
645.304	6.85
645.49	7.05
645.676	7.13
645.862	7.24
646.049	7.47
646.235	7.48
646.421	7.87
646.607	8.01
646.793	7.91
646.979	7.96
647.165	8.32
647.352	8.39
647.538	8.5
647.724	8.61
647.91	8.72
648.096	8.98
648.282	9.18
648.468	9.21
648.654	9.45
648.84	9.5
649.026	9.73
649.212	9.75
649.397	9.98
649.583	10.26
649.769	10.34
649.955	10.45
650.141	10.77
650.327	10.78
650.513	11.14
650.698	11.19
650.884	11.2
651.07	11.65
651.256	11.71
651.442	11.93
651.627	11.88
651.813	12.41
651.999	12.22
652.184	12.47
652.37	12.78
652.556	12.92
652.741	13.07
652.927	13.01
653.113	13.43
653.298	13.63
653.484	13.83
653.669	14
653.855	13.98
654.04	14.31
654.226	14.47
654.412	14.64
654.597	14.6
654.782	15.04
654.968	15.13
655.153	15.36
655.339	15.55
655.524	15.62
655.71	15.85
655.895	16.1
656.08	16.17
656.266	16.42
656.451	16.27
656.636	16.44
656.822	16.76
657.007	16.79
657.192	17
657.378	17.18
657.563	16.96
657.748	17.27
657.933	17.47
658.118	17.14
658.304	17.63
658.489	17.71
658.674	17.78
658.859	17.54
659.044	17.6
659.229	17.58
659.414	17.66
659.599	17.62
659.785	17.4
659.97	17.59
660.155	17.42
660.34	17.49
660.525	17.14
660.71	17.09
660.895	17.01
661.08	16.72
661.264	16.39
661.449	16.28
661.634	15.83
661.819	15.84
662.004	15.26
662.189	15.23
662.374	14.97
662.559	14.45
662.743	14.12
662.928	13.93
663.113	13.49
663.298	13.23
663.483	12.91
663.667	12.41
663.852	12.16
664.037	11.95
664.221	11.58
664.406	11.2
664.591	10.87
664.775	10.36
664.96	10.1
665.145	9.68
665.329	9.51
665.514	9.18
665.698	8.76
665.883	8.49
666.068	8.34
666.252	7.97
666.437	7.65
666.621	7.4
666.806	7.2
666.99	6.88
667.174	6.69
667.359	6.48
667.543	6.16
667.728	5.94
667.912	5.75
668.096	5.56
668.281	5.38
668.465	5.2
668.649	5.08
668.834	4.7
669.018	4.61
669.202	4.53
669.387	4.26
669.571	4.28
669.755	4.03
669.939	3.84
670.124	3.74
670.308	3.67
670.492	3.55
670.676	3.4
670.86	3.26
671.044	3.1
671.228	3.07
671.413	2.94
671.597	2.87
671.781	2.76
671.965	2.77
672.149	2.61
672.333	2.52
672.517	2.47
672.701	2.37
672.885	2.28
673.069	2.08
673.253	2.21
673.437	2.13
673.621	2.01
673.804	1.93
673.988	1.88
674.172	1.81
674.356	1.65
674.54	1.75
674.724	1.72
674.908	1.63
675.091	1.58
675.275	1.46
675.459	1.5
675.643	1.45
675.826	1.36
676.01	1.28
676.194	1.29
676.377	1.27
676.561	1.24
676.745	1.18
676.928	1.17
677.112	1.17
677.296	1.03
677.479	1.04
677.663	0.96
677.846	0.99
678.03	0.89
678.213	0.88
678.397	0.89
678.58	0.81
678.764	0.78
678.947	0.78
679.131	0.68
679.314	0.81
679.498	0.71
679.681	0.72
679.865	0.8
680.048	0.67
680.231	0.62
680.415	0.63
680.598	0.65
680.781	0.57
680.965	0.57
681.148	0.58
681.331	0.55
681.514	0.59
681.698	0.44
681.881	0.51
682.064	0.5
682.247	0.45
682.43	0.45
682.614	0.53
682.797	0.55
682.98	0.5
683.163	0.4
683.346	0.48
683.529	0.39
683.712	0.34
683.895	0.44
684.078	0.34
684.261	0.37
684.444	0.39
684.627	0.36
684.81	0.36
684.993	0.32
685.176	0.42
685.359	0.29
685.542	0.32
685.725	0.37
685.908	0.31
686.091	0.23
686.274	0.35
686.457	0.35
686.639	0.26
686.822	0.34
687.005	0.24
687.188	0.29
687.371	0.31
687.553	0.32
687.736	0.26
687.919	0.39
688.102	0.3
688.284	0.25
688.467	0.29
688.65	0.18
688.832	0.2
689.015	0.21
689.197	0.19
689.38	0.31
689.563	0.26
689.745	0.22
689.928	0.19
690.11	0.23
690.293	0.22
690.475	0.17
690.658	0.25
690.84	0.21
691.023	0.16
691.205	0.22
691.388	0.16
691.57	0.26
691.752	0.16
691.935	0.13
692.117	0.17
692.3	0.19
692.482	0.18
692.664	0.15
692.847	0.2
693.029	0.23
693.211	0.2
693.393	0.18
693.576	0.2
693.758	0.17
693.94	0.19
694.122	0.14
694.304	0.13
694.487	0.15
694.669	0.22
694.851	0.1
695.033	0.12
695.215	0.11
695.397	0.13
695.579	0.17
695.761	0.07
695.943	0.04
696.125	0.2
696.308	0.15
696.49	0.01
696.671	0.26
696.853	0.17
697.035	0.27
697.217	0.13
697.399	0.17
697.581	0.07
697.763	0.1
697.945	0.09
698.127	0.11
698.309	0.16
698.491	0.12
698.672	0.13
698.854	0.17
699.036	0.23
699.218	0.09
699.399	0.15
699.581	0.14
699.763	0.13
699.945	0.08
700.126	0.08
700.308	0.11
700.49	0.09
700.671	0.07
700.853	0.14
701.035	0.07
701.216	0.12
701.398	0.1
701.579	0.08
701.761	0.16
701.943	0.05
702.124	0.07
702.306	0.12
702.487	0.22
702.669	0.12
702.85	0.05
703.031	0.04
703.213	0.18
703.394	0.21
703.576	0.12
703.757	0.18
703.938	0.13
704.12	0.23
704.301	0.09
704.483	0.08
704.664	0.1
704.845	0.21
705.026	0.16
705.208	0.12
705.389	0.09
705.57	0.19
705.751	0.07
705.933	0.11
706.114	0.17
706.295	0.11
706.476	0.02
706.657	0.19
706.838	0.09
707.02	0.12
707.201	0.05
707.382	0.07
707.563	0.16
707.744	0.07
707.925	0.05
708.106	0.03
708.287	0.19
708.468	0.18
708.649	0.06
708.83	0.13
709.011	0.1
709.192	0.18
709.373	0.02
709.554	0.03
709.734	0.16
709.915	0.17
710.096	0.09
710.277	0.02
710.458	0.11
710.639	0.1
710.819	0.03
711	0.11
711.181	0.13
711.362	0.15
711.542	0.09
711.723	0.08
711.904	0.16
712.085	0.09
712.265	0.16
712.446	0
712.627	-0.01
712.807	0.07
712.988	0.14
713.168	0.02
713.349	0.15
713.53	-0.06
713.71	-0.01
713.891	-0.01
714.071	0.09
714.252	0.06
714.432	0.04
714.613	0.04
714.793	0.09
714.974	0.17
715.154	0.15
715.334	0.16
715.515	0.19
715.695	0
715.876	0.14
716.056	0.03
716.236	0.16
716.417	0.05
716.597	-0.02
716.777	0.2
716.957	0.12
717.138	0.1
717.318	0.07
717.498	0.02
717.678	0.14
717.859	0.08
718.039	-0.01
718.219	0.07
718.399	0.14
718.579	0.06
718.759	0.03
718.939	0.18
719.12	0.01
719.3	0.14
719.48	-0.05
719.66	0
719.84	0.2
720.02	0.07
720.2	0.01
720.38	0.05
720.56	0.2
720.74	0.03
720.92	0.12
721.1	0.13
721.279	0.18
721.459	0.11
721.639	0.02
721.819	0.07
721.999	0.04
722.179	0.12
722.359	0.01
722.538	0.06
722.718	0.05
722.898	0.07
723.078	-0.02
723.257	0.02
723.437	0.07
723.617	0.04
723.797	0.08
723.976	0.08
724.156	0.13
724.336	0.14
724.515	0.25
724.695	-0.02
724.874	0.13
725.054	0.15
725.234	0.02
725.413	0.11
725.593	0.06
725.772	0.09
725.952	0.09
726.131	0.05
726.311	0.15
726.49	0.08
726.67	0.07
726.849	0.03
727.028	0.17
727.208	0.1
727.387	0.08
727.567	-0.04
727.746	0.07
727.925	-0.02
728.105	-0.01
728.284	0.06
728.463	-0.21
728.643	0.09
728.822	-0.04
729.001	0.09
729.18	0.08
729.359	0.15
729.539	0.07
729.718	0.1
729.897	0.15
730.076	0
730.255	-0.05
730.434	0.14
730.614	0.1
730.793	0.21
730.972	-0.01
731.151	0.05
731.33	0.17
731.509	0.12
731.688	0.08
731.867	0.07
732.046	-0.03
732.225	0.14
732.404	0.11
732.583	-0.02
732.762	0.05
732.941	0.1
733.12	0.14
733.298	0.1
733.477	0.18
733.656	0.1
733.835	-0.01
734.014	0.09
734.193	0.08
734.371	0.08
734.55	0.14
734.729	0.02
734.908	0.11
735.086	0.19
735.265	0.07
735.444	-0.1
735.623	0.02
735.801	0.08
735.98	0.05
736.159	0.07
736.337	0.13
736.516	0.16
736.694	0.06
736.873	0.07
737.052	0.22
737.23	0
737.409	-0.09
737.587	0.18
737.766	-0.14
737.944	0.01
738.123	0.19
738.301	0.14
738.479	0.12
738.658	0.16
738.836	-0.09
739.015	0.07
739.193	0.19
739.371	-0.01
739.55	0.09
739.728	0.08
739.906	0.15
740.085	0.19
740.263	0.01
740.441	-0.11
740.62	0.21
740.798	0.17
740.976	-0.06
741.154	-0.05
741.332	0.19
741.511	0.07
741.689	0.16
741.867	0.22
742.045	0.08
742.223	0.14
742.401	-0
742.579	-0.05
742.757	0.12
742.935	-0.07
743.114	0
743.292	0.03
743.47	0.11
743.648	0.04
743.826	-0.05
744.004	0.18
744.181	0.13
744.359	0.01
744.537	0.08
744.715	0.16
744.893	0.04
745.071	0.04
745.249	0.04
745.427	0.11
745.605	0.17
745.782	0.01
745.96	0.13
746.138	0.13
746.316	0.2
746.493	0.14
746.671	0.1
746.849	0.01
747.027	0.15
747.204	0.01
747.382	0.04
747.56	0.02
747.737	0.06
747.915	-0.05
748.093	0.19
748.27	0.06
748.448	-0.02
748.625	-0.02
748.803	0.09
748.98	0.01
749.158	0.15
749.335	0.18
749.513	0.05
749.69	0.04
749.868	0.08
750.045	0.14
750.223	0.05
750.4	-0.05
750.578	0.19
750.755	0.11
750.932	-0.01
751.11	0.22
751.287	-0.01
751.464	0.15
751.642	0.08
751.819	0.16
751.996	-0.01
752.173	0.09
752.351	-0.03
752.528	0.13
752.705	0.13
752.882	0.02
753.06	0.1
753.237	0.13
753.414	0.2
753.591	0.21
753.768	0.06
753.945	-0.04
754.122	0.07
754.299	0.07
754.476	-0
754.654	0.1
754.831	0.14
755.008	0.13
755.185	0.08
755.362	0.01
755.539	0.01
755.716	-0.14
755.892	0.07
756.069	0.05
756.246	0.04
756.423	0.05
756.6	0.18
756.777	0.11
756.954	0.18
757.131	-0.05
757.307	0
757.484	-0.05
757.661	0.09
757.838	0.11
758.015	-0.1
758.191	0.22
758.368	0.11
758.545	0.25
758.721	0.17
758.898	-0.04
759.075	0.01
759.251	0.19
759.428	0.24
759.605	-0.05
759.781	0.11
759.958	0.07
760.134	0.13
760.311	0
760.488	0.28
760.664	0.31
760.841	0.06
761.017	-0.01
761.194	0.12
761.37	0.12
761.547	0.05
761.723	0.2
761.899	0.1
762.076	-0.05
762.252	-0.11
762.429	0
762.605	0.22
762.781	0.06
762.958	0.08
763.134	0.12
763.31	0.06
763.486	0.16
763.663	-0.1
763.839	0.14
764.015	-0.02
764.191	-0.04
764.368	0.08
764.544	-0.03
764.72	0.15
764.896	0.14
765.072	0.03
765.248	0.19
765.425	0.07
765.601	0.14
765.777	0.13
765.953	-0.08
766.129	0.06
766.305	-0.07
766.481	0.18
766.657	0.07
766.833	0.32
767.009	-0.04
767.185	-0.02
767.361	0.08
767.537	-0.04
767.713	0.28
767.889	-0.01
768.065	0.06
768.24	-0.1
768.416	0.24
768.592	0.03
768.768	0.01
768.944	0.01
769.12	-0.07
769.295	-0.03
769.471	0.09
769.647	0.12
769.823	0.18
769.998	0.04
770.174	-0.02
770.35	0.38
770.525	0.37
770.701	0.18
770.877	0.02
771.052	0.02
771.228	0.22
771.403	0.14
771.579	0.32
771.755	0.24
771.93	0.03
772.106	-0.05
772.281	-0.22
772.457	0.06
772.632	0.07
772.808	-0.06
772.983	0.03
773.159	-0.06
773.334	0.36
773.509	0.12
773.685	-0.01
773.86	0.37
774.036	0.28
774.211	0.09
774.386	0.02
774.562	0.07
774.737	-0.02
774.912	0.19
775.087	0.18
775.263	-0.05
775.438	0.05
775.613	0.02
775.788	0.01
775.964	0.21
776.139	0.41
776.314	-0.12
776.489	0.11
776.664	0.11
776.839	0.03
777.014	0.23
777.19	0.21
777.365	0.26
777.54	0.37
777.715	0.02
777.89	0.1
778.065	0.03
778.24	0.04
778.415	0.2
778.59	-0.18
778.765	-0.06
778.94	0.2
779.115	0.03
779.289	0.07
779.464	-0.07
779.639	0.15
779.814	-0.09
779.989	-0.09
780.164	0.36
780.339	0.23
780.513	0
780.688	0.02
780.863	0.03
781.038	0.2
781.212	0
781.387	0.17
781.562	0.38
781.737	0.13
781.911	0.31
782.086	-0.02
782.261	0.1
782.435	0.24
782.61	0.09
782.784	0.08
782.959	0.48
783.134	0.01
783.308	-0.26
783.483	0.13
783.657	0.47
783.832	0.34
784.006	-0.22
784.181	0.12
784.355	0.27
784.53	-0.09
784.704	-0.24
784.878	0.31
785.053	0.2
785.227	0.43
785.402	0.49
785.576	-0.19
785.75	0.1
785.925	-0.17
786.099	0.16
786.273	-0.19
786.448	0.31
786.622	0.07
786.796	0.12
786.97	0.1
787.145	0.65
787.319	-0.34
787.493	0.05
787.667	-0.21
787.841	0.1
788.015	0.41
788.19	0.02
788.364	-0.02
788.538	0.12
788.712	0.33
788.886	-0.16
789.06	0.22
789.234	0.28
789.408	0.11
789.582	-0.06
789.756	0.11
789.93	0.15
790.104	0.08
790.278	0.36
790.452	-0
790.626	0.29
790.8	0.05
790.973	0.16
791.147	0.32
791.321	0.53
791.495	0.18
791.669	0.1
791.843	0.14
792.016	0.16
792.19	0.4
792.364	0.08
792.538	0.56
792.711	0.39
792.885	0.03
793.059	-0.1
793.233	-0.3
793.406	0.34
793.58	0.3
793.754	0.22
793.927	-0.03
794.101	0.4
794.274	0.15
794.448	0.35
794.622	-0.25
794.795	0.28
794.969	-0.21
795.142	0.32
795.316	0.24
795.489	-0.16
795.663	0.53
795.836	-0.02
796.009	-0.06
796.183	0.66
796.356	0.32
796.53	0.38
796.703	0.12
796.876	0.65
797.05	0.18
797.223	0.05
797.396	0.34
797.57	0.27
797.743	0.3
797.916	0.13
798.09	0.13
798.263	0.35
798.436	0.23
798.609	0.18
798.782	-0.03
798.956	0.12
799.129	0.15
799.302	-0.03
799.475	-0.02
799.648	-0.21
799.821	-0.1
799.994	0.01
800.167	0.03
800.34	0.09
800.514	0.2
800.687	-0.07
800.86	-0.35
801.033	0.16
801.206	0.04
801.379	-0.29
801.551	0.24
801.724	0.47
801.897	0.54
802.07	-0.1
802.243	-0.15
802.416	0.14
802.589	-0.08
802.762	-0.05
802.935	0.26
803.107	0.37
803.28	0.3
803.453	0.42
803.626	-0.09
803.798	0.04
803.971	-0.09
804.144	0.16
804.317	0.19
804.489	0.3
804.662	0.14
804.835	0.15
805.007	-0.06
805.18	0.44
805.353	0.13
805.525	-0.15
805.698	0.13
805.87	0.38
806.043	0.39
806.215	-0.19
806.388	-0.11
806.56	0.59
806.733	0.78
806.905	0.28
807.078	0.37
807.25	0.15
807.423	0.34
807.595	0.13
807.768	0.27
807.94	0.45
808.112	0.4
808.285	-0.06
808.457	0.05
808.629	0.09
808.802	0.52
808.974	0.52
809.146	0.36
809.318	0.24
809.491	-0
809.663	0.47
809.835	-0.14
810.007	0.01
810.18	0.12
810.352	-0.25
810.524	0.04
810.696	-0.18
810.868	0.66
811.04	-0.14
811.212	-0.07
811.384	0.3
811.556	0.06
811.728	0.4
811.901	0.78
812.073	0.22
812.245	0.24
812.417	-0.09
812.589	-0.41
812.76	0.12
812.932	0.32
813.104	0.64
813.276	0.04
813.448	0.46
813.62	0.02
813.792	0.3
813.964	0.34
814.136	0.13
814.307	-0.31
814.479	0.06
814.651	0.24
814.823	0.59
814.995	0.01
815.166	0.27
815.338	-0.22
815.51	-0.19
815.681	1.15
815.853	0.21
816.025	0.59
816.196	0.85
816.368	0.11
816.54	-0.23
816.711	0.63
816.883	0.46
817.054	1.21
817.226	-0.11
817.398	0.35
817.569	-0.12
817.741	0.19
817.912	0.06
818.084	0.38
818.255	0.61
818.426	-0.09
818.598	0.19
818.769	0.17
818.941	0.34
819.112	0.62
819.283	0.58
819.455	0.23
819.626	-0.03
819.798	0.26
819.969	0.1
820.14	0.16
820.311	0.09
820.483	0.25
820.654	0.39
820.825	0.69
820.996	0.03
821.168	-0.05
821.339	0.15
821.51	-0.09
821.681	0.08
821.852	0.36
822.023	-0.17
822.195	-0.03
822.366	0.67
822.537	0.66
822.708	0.02
822.879	-0.14
823.05	0.91
823.221	-0.05
823.392	0.57
823.563	0.01
823.734	0.11
823.905	0.19
824.076	0.39
824.247	-0.24
824.418	0.01
824.589	0.83
824.759	0.28
824.93	0.05
825.101	0.26
825.272	0.64
825.443	0.67
825.614	0.6
825.784	-0.49
825.955	0.63
826.126	1.09
826.297	0.16
826.467	0.77
826.638	0.72
826.809	-0.59
826.98	0.42
827.15	1
827.321	0
827.492	1.31
827.662	0.45
827.833	1.19
828.003	0.47
828.174	-0.16
828.345	-0.32
828.515	1.11
828.686	0.23
828.856	-0.17
829.027	0.05
829.197	0.73
829.368	0.46
829.538	0.21
829.709	0.24
829.879	0.35
830.049	0.5
830.22	0.44
830.39	0.37
830.56	0.25
830.731	-0.04
830.901	-0.45
831.072	0.56
831.242	0.16
831.412	0.05
831.582	-0.01
831.753	-0.35
831.923	0.86
832.093	0.58
832.263	0.26
832.434	0.03
832.604	0.44
832.774	0
832.944	0.61
833.114	0.22
833.284	0.54
833.454	0.15
833.624	-0.5
833.795	0.13
833.965	1.03
834.135	0.42
834.305	-0.74
834.475	-0.05
834.645	0.53
834.815	-0.02
834.985	-0.23
835.155	-0.15
835.325	0.46
835.494	0.67
835.664	0.01
835.834	-0.16
836.004	0.22
836.174	0.52
836.344	0.28
836.514	-0.75
836.684	0.36
836.853	0.74
837.023	0.39
837.193	-0.43
837.363	0.57
837.532	1.03
837.702	-0.59
837.872	0.4
838.041	1.38
838.211	2.04
838.381	-0.79
838.55	0.46
838.72	1.64
838.89	1.37
839.059	-0.16
839.229	0.51
839.398	1.34
839.568	0.83
839.738	0.18
839.907	0.75
840.077	0.22
840.246	0.11
840.416	0.26
840.585	0.25
840.755	1.22
840.924	1.46
841.093	-0.03
841.263	-0.14
841.432	0.68
841.602	-0.24
841.771	-0.24
841.94	0.43
842.11	2.13
842.279	1.24
842.448	-0.09
842.617	-0.25
842.787	1.76
842.956	-0.54
843.125	0.91
843.294	0.31
843.464	1.01
843.633	0.57
843.802	-0.94
843.971	0.62
844.14	1.03
844.309	0.87
844.479	-0.01
844.648	-0.29
844.817	0.61
844.986	0.43
845.155	0.29
845.324	-0.03
845.493	0.15
845.662	-0.47
845.831	0.79
846	1.88
846.169	-0.29
846.338	1.17
846.507	-0.02
846.676	0.72
846.844	-0.01
847.013	0.78
847.182	0.52
847.351	0.42
847.52	1.14
847.689	1.29
847.858	0.42
848.026	-0.34
848.195	0.25
848.364	0.54
848.533	0.07
848.701	-0.52
848.87	0.89
849.039	0.37
849.207	0.49
849.376	1.37
849.545	1.29
849.713	0.05
849.882	-0.01
850.051	0.6
850.219	1.09
850.388	1.58
850.556	-0.41
850.725	-0.08
850.893	0.32
851.062	1.45
851.23	0.96
851.399	-1.29
851.567	0.69
851.736	0.75
851.904	-0.57
852.073	-0.12
852.241	1.21
852.41	0.1
852.578	0.81
852.746	0.04
852.915	1.71
853.083	-0.03
853.251	-1.16
853.42	-0.81
853.588	0.92
853.756	2.96
853.924	0.04
854.093	0.51
854.261	0.06
854.429	-0.16
854.597	-0.15
854.765	0.23
854.934	0.94
855.102	1.73
855.27	0.93
855.438	0.84
855.606	0.8
855.774	1.33
855.942	-0.97
856.11	-1.07
856.278	0.6
856.446	1.19
856.614	0.62
856.782	-0.65
856.95	1.06
857.118	0.56
857.286	0.93
857.454	0.12
857.622	1.8
857.79	0.71
857.958	-0.91
858.126	1.18
858.294	-2.03
858.462	1.79
858.629	-0.23
858.797	-0.69
858.965	0.62
859.133	0.26
859.301	0.68
859.468	1.08
859.636	-0.3
859.804	1.67
859.971	1.05
860.139	-0.06
860.307	1.1
860.474	0.29
860.642	-0.49
860.81	-0.2
860.977	0
861.145	1.27
861.313	1.28
861.48	0.36
861.648	1.98
861.815	1.75
861.983	-0.76
862.15	0.4
862.318	1.01
862.485	2.26
862.653	-0.31
862.82	-1.36
862.988	2.15
863.155	1.27
863.322	0.19
863.49	-0.01
863.657	-0.15
863.824	2.41
863.992	0.84
864.159	1.44
864.326	1.47
864.494	-0.04
864.661	2.92
864.828	-0.46
864.996	2.44
865.163	2.43
865.33	0.3
865.497	-1.59
865.664	1.29
865.832	-0.93
865.999	0.78
866.166	-0.78
866.333	0.18
866.5	-0.37
866.667	0.59
866.834	0.24
867.001	1.16
867.168	-1.7
867.335	1.5
867.502	-0.53
867.669	0.76
867.836	2.73
868.003	1.51
868.17	1.38
868.337	1.2
868.504	2.98
868.671	-1.12
868.838	-1.1
869.005	2.24
869.172	0.69
869.339	0.52
869.505	0.88
869.672	-0.3
869.839	2.74
870.006	1.31
870.173	-1.09
870.339	1.44
870.506	2.26
870.673	-0.92
870.84	1.39
871.006	-0.44
871.173	-0.02
871.34	0.64
871.506	-1.6
871.673	0.86
871.839	-1.71
872.006	-0.05
872.173	1.07
872.339	1.75
872.506	0.88
872.672	-0.5
872.839	0.08
873.005	0.07
873.172	3.47
873.338	2.34
873.505	0.5
873.671	0.61
873.838	0.02
874.004	-0.82
874.171	-0.19
874.337	1.51
874.503	0.27
874.67	0.69
874.836	-0.72
875.002	2.89
875.169	1.62
875.335	2.25
875.501	1.37
875.668	2.78
875.834	2.04
876	0.36
876.166	2.52
876.332	1.44
876.499	3.79
876.665	-0.22
876.831	1.88
876.997	2.75
877.163	1.01
877.329	-0.16
877.495	1.98
877.662	1.15
877.828	1.5
877.994	0.88
878.16	-0.35
878.326	-0.11
878.492	1.46
878.658	1.74
878.824	0.93
878.99	1.12
879.156	-0.48
879.322	2.43
879.487	1.29
879.653	0.17
879.819	0.93
879.985	-1.12
880.151	1.36
880.317	2.92
880.483	2.32
880.648	2.26
880.814	-0.9
880.98	2.57
881.146	-0.13
881.312	-2.04
881.477	-0.11
881.643	0.47
881.809	3.75
881.974	2.61
882.14	-1.13
882.306	2.97
882.471	3.56
882.637	0.68
882.803	1.29
882.968	2
883.134	2.39
883.299	0.15
883.465	0.21
883.63	2.39
883.796	1.7
883.961	3.63
884.127	2.25
884.292	-2.36
884.458	-2.75
884.623	-2.75
