Data from Apollo_Calib_20240827__AbsoluteIrradiance__380__05-29-03-096.txt Node

Date: Wed Aug 28 05:29:03 BST 2024
User: biology
Spectrometer: FLMT08252
Trigger mode: 0
Integration Time (sec): 5.000000E-1
Scans to average: 5
Electric dark correction enabled: true
Nonlinearity correction enabled: false
Boxcar width: 0
XAxis mode: Wavelengths
Number of Pixels in Spectrum: 3648
>>>>>Begin Spectral Data<<<<<
179.588	-0
179.809	-0
180.03	-0
180.251	-0
180.473	-0
180.694	0
180.915	0
181.136	-0
181.357	0
181.578	-0
181.799	-0
182.02	-0
182.241	0
182.462	-0
182.683	0
182.904	0
183.125	-0
183.346	0
183.567	0
183.788	-0
184.009	-0
184.23	0
184.451	0
184.672	-0
184.892	-0
185.113	0
185.334	0
185.555	-0
185.776	-0
185.996	0
186.217	0
186.438	-0
186.659	-0
186.879	-0
187.1	-0
187.321	-0
187.541	-0
187.762	-0
187.983	-0
188.203	-0
188.424	-0
188.644	-0
188.865	-0
189.086	-0
189.306	-0
189.527	-0
189.747	-0
189.968	-0
190.188	0
190.409	0
190.629	0
190.849	-0
191.07	-0
191.29	0
191.511	-0
191.731	-0
191.951	-0
192.172	-0
192.392	-0
192.612	-0
192.833	-0
193.053	0
193.273	0
193.493	-0
193.714	-0
193.934	0
194.154	0
194.374	-0
194.594	-0
194.815	-0
195.035	-0
195.255	-0
195.475	-0
195.695	-0
195.915	0
196.135	-0
196.355	0
196.575	0
196.795	0
197.015	-0
197.235	-0
197.455	-0
197.675	-0
197.895	-0
198.115	-0
198.335	0
198.555	-0
198.775	-0
198.995	0
199.214	0
199.434	-0
199.654	-0
199.874	-0
200.094	0.53
200.313	-0.25
200.533	-0.83
200.753	-1.25
200.973	0.91
201.192	-0.02
201.412	-0.96
201.632	-0.53
201.851	0.8
202.071	-0.84
202.291	-0.86
202.51	-0.85
202.73	0.42
202.95	-0.12
203.169	-0.44
203.389	-0.44
203.608	0.21
203.828	-0.39
204.047	-0.56
204.267	0.17
204.486	-0.02
204.706	-0.08
204.925	-0.24
205.145	-0.58
205.364	0.19
205.583	0.47
205.803	-0.51
206.022	-0.73
206.242	-0.16
206.461	-0.34
206.68	-0.47
206.9	-0.21
207.119	0.51
207.338	0.43
207.557	-0.49
207.777	-0.03
207.996	-0.13
208.215	0.5
208.434	-0.28
208.654	-0.64
208.873	-0.09
209.092	0.45
209.311	-0.34
209.53	-0.08
209.749	-0.31
209.968	-0.23
210.187	-0.23
210.407	-0.81
210.626	-0.42
210.845	0.06
211.064	-0.06
211.283	-0.35
211.502	0.21
211.721	-0.15
211.94	-0.09
212.159	0.01
212.377	0.12
212.596	0.31
212.815	-0.08
213.034	0.03
213.253	0.23
213.472	0.01
213.691	-0.08
213.91	-0.17
214.128	-0.2
214.347	0.3
214.566	-0.41
214.785	-0.54
215.003	0.08
215.222	0.02
215.441	0.01
215.66	-0.49
215.878	-0.07
216.097	0.2
216.316	-0.32
216.534	-0.22
216.753	0.14
216.972	-0.06
217.19	-0.28
217.409	-0.18
217.627	-0.29
217.846	-0.22
218.064	-0.02
218.283	-0.16
218.501	0.33
218.72	0.08
218.938	-0.21
219.157	-0.15
219.375	-0.06
219.594	0.06
219.812	-0.21
220.031	-0.38
220.249	0.16
220.467	0.3
220.686	-0.11
220.904	-0.29
221.122	-0.13
221.341	0.27
221.559	-0.19
221.777	-0.22
221.995	-0.15
222.214	-0.08
222.432	-0.28
222.65	0.02
222.868	-0.02
223.086	-0.04
223.305	0.06
223.523	-0.16
223.741	0.21
223.959	-0.09
224.177	-0.43
224.395	-0.13
224.613	0.02
224.831	-0.04
225.049	-0.23
225.267	-0.18
225.485	0.07
225.703	-0.26
225.921	-0.05
226.139	-0.18
226.357	0.12
226.575	-0.07
226.793	-0.13
227.011	0.55
227.229	-0.05
227.447	0.21
227.665	-0.08
227.883	-0.1
228.1	-0.05
228.318	0.05
228.536	-0.29
228.754	-0.26
228.972	-0.07
229.189	0.02
229.407	-0.16
229.625	-0.1
229.843	0.22
230.06	0.05
230.278	-0.12
230.496	-0.16
230.713	0
230.931	0.06
231.149	-0.08
231.366	-0.27
231.584	-0.01
231.801	0.27
232.019	-0.1
232.236	-0.2
232.454	-0.2
232.671	0.13
232.889	-0.18
233.106	-0.19
233.324	-0.04
233.541	-0.04
233.759	-0.11
233.976	-0.2
234.194	-0.08
234.411	-0.02
234.628	-0.07
234.846	-0.07
235.063	-0.05
235.28	-0.08
235.498	-0.08
235.715	-0.19
235.932	0.16
236.149	-0.11
236.367	-0.23
236.584	-0.04
236.801	-0.09
237.018	0.08
237.236	-0.07
237.453	-0.21
237.67	0.07
237.887	0.02
238.104	-0.15
238.321	-0.15
238.538	-0.14
238.755	0.12
238.973	-0.2
239.19	-0.09
239.407	0.05
239.624	-0.05
239.841	-0.17
240.058	-0.16
240.275	0.02
240.492	-0.06
240.709	-0.01
240.925	-0.17
241.142	-0.04
241.359	-0.2
241.576	-0.14
241.793	-0.13
242.01	-0.03
242.227	0.06
242.444	-0.02
242.66	0.09
242.877	-0.04
243.094	-0.05
243.311	-0.04
243.527	-0.16
243.744	-0.11
243.961	0.04
244.178	-0.16
244.394	-0.12
244.611	0.11
244.828	0.05
245.044	-0.13
245.261	0
245.477	-0.02
245.694	-0.02
245.911	-0.02
246.127	-0
246.344	0.04
246.56	0.04
246.777	-0.16
246.993	-0.03
247.21	-0.04
247.426	0.01
247.643	0
247.859	-0.11
248.076	-0.07
248.292	0.2
248.508	-0.1
248.725	0.05
248.941	0.01
249.157	0.13
249.374	-0.1
249.59	-0.08
249.806	0.01
250.023	0.06
250.239	-0.06
250.455	-0.06
250.671	-0.04
250.888	0.04
251.104	-0.01
251.32	-0.11
251.536	-0
251.752	-0.13
251.969	0
252.185	-0
252.401	0.11
252.617	-0.13
252.833	-0.04
253.049	-0.01
253.265	0.03
253.481	0.02
253.697	-0.13
253.913	0.01
254.129	-0.01
254.345	-0
254.561	-0.11
254.777	-0.03
254.993	0.05
255.209	0.01
255.425	-0.02
255.641	-0.03
255.857	0.01
256.073	-0.04
256.288	-0.16
256.504	-0.05
256.72	-0.02
256.936	0.04
257.152	-0.06
257.367	-0.1
257.583	-0.04
257.799	0.04
258.015	-0.16
258.23	-0.03
258.446	0.1
258.662	0.03
258.877	-0.1
259.093	-0.1
259.309	0.03
259.524	-0.01
259.74	-0.05
259.955	-0.22
260.171	-0.05
260.387	-0.1
260.602	0.02
260.818	0.04
261.033	-0.12
261.249	-0.06
261.464	-0.07
261.68	-0.13
261.895	-0.02
262.11	0.01
262.326	-0.09
262.541	-0.16
262.757	0.02
262.972	0.01
263.187	-0.04
263.403	-0.04
263.618	-0.02
263.833	-0.02
264.049	-0.08
264.264	-0.01
264.479	0.1
264.694	0.06
264.91	-0.12
265.125	-0.07
265.34	0.03
265.555	0.13
265.77	0.01
265.986	-0.09
266.201	-0.01
266.416	-0
266.631	-0
266.846	-0.03
267.061	0.02
267.276	0.03
267.491	-0.15
267.706	-0.05
267.921	0.03
268.136	-0.02
268.351	-0.01
268.566	-0.09
268.781	0.08
268.996	0.06
269.211	0
269.426	-0.1
269.641	-0.06
269.856	0.05
270.071	-0.08
270.285	-0.08
270.5	0.06
270.715	0.04
270.93	-0.04
271.145	0.01
271.359	-0.01
271.574	-0.12
271.789	-0.01
272.004	-0.11
272.218	-0.06
272.433	0.01
272.648	-0.05
272.862	0.08
273.077	0.02
273.292	-0.01
273.506	-0.06
273.721	-0.04
273.936	-0.01
274.15	0.02
274.365	0.01
274.579	0.02
274.794	0.05
275.008	0.11
275.223	-0.12
275.437	-0.01
275.652	0.05
275.866	-0.02
276.081	-0.01
276.295	0.03
276.509	-0.06
276.724	0.01
276.938	0.01
277.153	0.01
277.367	0.06
277.581	-0.02
277.796	-0.08
278.01	-0.08
278.224	0.01
278.438	0.1
278.653	-0.05
278.867	-0.05
279.081	-0.23
279.295	-0.05
279.51	-0
279.724	-0.13
279.938	0.05
280.152	0.01
280.366	-0.07
280.58	-0.05
280.794	0.08
281.008	0.01
281.222	0.02
281.437	0.07
281.651	0
281.865	0.06
282.079	-0.04
282.293	-0.15
282.507	-0.06
282.721	-0.03
282.935	-0.06
283.148	-0.12
283.362	-0
283.576	-0.04
283.79	-0.04
284.004	-0.05
284.218	0.02
284.432	-0.07
284.646	0.01
284.859	-0.05
285.073	-0.04
285.287	-0.03
285.501	-0.05
285.714	-0.04
285.928	-0
286.142	0.02
286.356	-0.06
286.569	-0.08
286.783	0.06
286.997	0.03
287.21	-0.02
287.424	0.02
287.637	0.01
287.851	-0.05
288.065	0
288.278	-0.04
288.492	0.02
288.705	-0.03
288.919	0.04
289.132	-0.1
289.346	0.05
289.559	-0.08
289.773	-0.05
289.986	0
290.2	-0.05
290.413	0.02
290.626	-0.1
290.84	-0.02
291.053	-0.02
291.267	0.08
291.48	-0.05
291.693	-0.01
291.906	-0.05
292.12	-0.03
292.333	-0.07
292.546	-0.05
292.76	0.02
292.973	0.02
293.186	-0.01
293.399	-0.05
293.612	0.07
293.826	0.01
294.039	-0.04
294.252	-0.09
294.465	0.01
294.678	-0.01
294.891	-0
295.104	-0.07
295.317	-0.06
295.53	0.01
295.743	0.03
295.956	-0.01
296.169	0.02
296.382	0.05
296.595	-0.02
296.808	-0.08
297.021	0.07
297.234	0.02
297.447	-0.03
297.66	0.02
297.873	0.04
298.086	-0.02
298.299	-0.05
298.511	-0.1
298.724	-0.03
298.937	-0.02
299.15	-0.03
299.363	-0.01
299.575	0.03
299.788	0.01
300.001	-0.01
300.213	-0.04
300.426	-0.02
300.639	0.01
300.852	-0.04
301.064	0.02
301.277	0.04
301.489	0.05
301.702	0.04
301.915	0.01
302.127	-0.03
302.34	-0.03
302.552	0.03
302.765	-0.05
302.977	0.02
303.19	-0.04
303.402	0.02
303.615	0
303.827	-0.11
304.04	-0.01
304.252	0
304.464	-0.05
304.677	0.11
304.889	0.03
305.102	-0.04
305.314	-0.04
305.526	0.02
305.739	0.02
305.951	-0.04
306.163	-0.08
306.375	0.09
306.588	-0.04
306.8	-0.05
307.012	-0.07
307.224	0.01
307.436	0.06
307.649	-0.1
307.861	0.03
308.073	0.01
308.285	0.01
308.497	-0.1
308.709	-0.04
308.921	0
309.133	0.03
309.346	-0.04
309.558	-0.05
309.77	0.01
309.982	0.05
310.194	0.02
310.406	-0.02
310.617	0.02
310.829	-0.01
311.041	-0.02
311.253	-0.06
311.465	0.01
311.677	-0.01
311.889	-0.02
312.101	-0.03
312.313	0.06
312.524	0.05
312.736	-0.04
312.948	-0.03
313.16	0.06
313.372	0.02
313.583	-0.02
313.795	-0.02
314.007	-0.03
314.218	0.06
314.43	-0.04
314.642	-0.05
314.853	-0.08
315.065	0.03
315.277	0
315.488	0.02
315.7	0.03
315.912	0.03
316.123	-0.04
316.335	-0.02
316.546	0.12
316.758	-0.01
316.969	-0.05
317.181	-0.01
317.392	-0.02
317.604	0.01
317.815	-0.06
318.026	-0.03
318.238	-0.05
318.449	0.03
318.661	-0.05
318.872	-0.06
319.083	-0.07
319.295	0.05
319.506	-0.04
319.717	0.01
319.929	0.02
320.14	-0.04
320.351	-0.03
320.562	-0.06
320.774	-0
320.985	-0.03
321.196	-0.07
321.407	-0.06
321.618	0.05
321.829	-0.02
322.041	-0.01
322.252	-0.03
322.463	0.03
322.674	0.04
322.885	-0.07
323.096	-0.06
323.307	-0.01
323.518	-0.02
323.729	-0.05
323.94	-0.03
324.151	-0
324.362	-0.01
324.573	0.02
324.784	-0.01
324.995	0.06
325.206	-0
325.417	-0.02
325.628	-0.03
325.838	0.01
326.049	-0.01
326.26	0.01
326.471	-0.02
326.682	0.01
326.892	0.02
327.103	-0.09
327.314	-0.08
327.525	0.04
327.735	-0.02
327.946	-0.02
328.157	-0.04
328.368	0.06
328.578	-0.02
328.789	0.02
328.999	-0.02
329.21	-0.06
329.421	0.02
329.631	-0.08
329.842	-0.07
330.052	0.01
330.263	0
330.473	0.04
330.684	-0.01
330.894	-0.06
331.105	-0.02
331.315	-0
331.526	-0.06
331.736	0.07
331.947	0.05
332.157	0.04
332.367	-0.05
332.578	0.02
332.788	0.07
332.999	0.04
333.209	-0.01
333.419	-0.06
333.629	0.01
333.84	-0.01
334.05	-0.03
334.26	-0.01
334.47	-0.04
334.681	0.05
334.891	-0.06
335.101	-0
335.311	0.12
335.521	-0.01
335.732	-0.05
335.942	0.08
336.152	0.01
336.362	0.01
336.572	-0.01
336.782	0.03
336.992	-0.01
337.202	-0.01
337.412	-0.04
337.622	0.02
337.832	-0.02
338.042	-0.02
338.252	-0.06
338.462	-0.04
338.672	-0.05
338.882	0.01
339.092	0.01
339.302	0.09
339.511	0.03
339.721	-0.03
339.931	-0.03
340.141	0.05
340.351	0.01
340.561	-0.03
340.77	0.02
340.98	0.02
341.19	0.01
341.4	-0.04
341.609	-0.02
341.819	-0.03
342.029	-0.07
342.238	0
342.448	-0.05
342.658	0.05
342.867	0.02
343.077	0.03
343.286	-0.02
343.496	-0.04
343.706	0.06
343.915	-0.04
344.125	-0.02
344.334	-0.01
344.544	-0.08
344.753	-0.06
344.963	-0.06
345.172	-0.05
345.381	-0.04
345.591	-0.11
345.8	0.01
346.01	0.09
346.219	0.02
346.428	-0.14
346.638	0
346.847	-0.02
347.056	0.05
347.266	-0.06
347.475	-0.03
347.684	-0.01
347.893	-0.04
348.103	-0
348.312	-0.04
348.521	-0.04
348.73	0.01
348.94	0
349.149	-0.02
349.358	0.01
349.567	-0.03
349.776	-0.06
349.985	-0.07
350.194	0.01
350.403	0.05
350.612	-0.05
350.821	-0.03
351.03	-0
351.239	-0.05
351.448	-0.02
351.657	-0.06
351.866	0.05
352.075	-0.04
352.284	-0.02
352.493	-0.09
352.702	0.04
352.911	-0
353.12	-0.02
353.329	-0.01
353.538	0.04
353.746	-0.04
353.955	-0.06
354.164	-0
354.373	0
354.582	0.05
354.79	-0
354.999	0.03
355.208	-0.05
355.416	0.08
355.625	-0.05
355.834	-0.01
356.042	-0.04
356.251	-0.04
356.46	-0.05
356.668	-0.01
356.877	0.11
357.085	0.01
357.294	-0.08
357.503	0
357.711	-0
357.92	0.09
358.128	-0
358.337	-0.02
358.545	-0.03
358.754	-0.04
358.962	0.02
359.17	-0.01
359.379	0.01
359.587	0.02
359.796	0.01
360.004	0.04
360.212	0.02
360.421	0.02
360.629	-0.06
360.837	-0.02
361.046	0.01
361.254	0.07
361.462	-0.01
361.67	-0
361.879	0.01
362.087	0.05
362.295	-0
362.503	-0.03
362.711	-0.07
362.92	-0.03
363.128	0.01
363.336	-0.04
363.544	-0.06
363.752	-0.02
363.96	-0.07
364.168	-0.06
364.376	-0.01
364.584	-0
364.792	0.03
365	0.01
365.208	-0.04
365.416	0.01
365.624	0.03
365.832	-0.03
366.04	0.05
366.248	0.02
366.456	0
366.664	0.02
366.872	-0.01
367.079	0.01
367.287	-0.01
367.495	0.01
367.703	0.02
367.911	-0.04
368.118	0.02
368.326	-0.03
368.534	-0.06
368.742	0.05
368.949	-0.09
369.157	-0.03
369.365	0.03
369.572	-0.02
369.78	-0.01
369.988	0.02
370.195	-0
370.403	0.01
370.61	-0.04
370.818	0.04
371.026	0.05
371.233	-0.09
371.441	0.01
371.648	-0.05
371.856	0.01
372.063	-0.01
372.271	0
372.478	-0.05
372.685	-0.02
372.893	0.02
373.1	0.01
373.308	-0.01
373.515	0.07
373.722	0.04
373.93	-0
374.137	0.03
374.344	0.05
374.552	0.03
374.759	0.03
374.966	0.01
375.173	-0.02
375.381	0.02
375.588	-0.01
375.795	-0.11
376.002	-0.01
376.209	0
376.417	-0.03
376.624	-0.03
376.831	-0.01
377.038	0
377.245	-0.08
377.452	-0.03
377.659	-0.02
377.866	-0.04
378.073	-0.04
378.28	0.03
378.487	0.02
378.694	-0
378.901	-0.02
379.108	-0.03
379.315	0.04
379.522	0.07
379.729	-0
379.936	-0.01
380.143	0.01
380.35	-0
380.557	-0.04
380.763	-0.01
380.97	0.03
381.177	0.01
381.384	-0.02
381.591	0
381.797	-0.01
382.004	-0.01
382.211	0.01
382.418	-0.03
382.624	-0.01
382.831	0.02
383.038	-0.03
383.244	0.01
383.451	0.02
383.658	0.03
383.864	-0.06
384.071	-0.06
384.277	0.06
384.484	-0.04
384.69	0.01
384.897	-0.04
385.103	-0.02
385.31	-0.08
385.516	-0.06
385.723	-0.07
385.929	-0.05
386.136	-0.05
386.342	-0
386.549	-0.03
386.755	0.07
386.961	0.01
387.168	-0.04
387.374	0.01
387.58	0
387.787	0
387.993	0.03
388.199	0.04
388.406	-0.04
388.612	-0.02
388.818	-0.06
389.024	-0.07
389.231	0
389.437	0.05
389.643	0.02
389.849	-0.01
390.055	0.01
390.261	-0.02
390.467	0.01
390.674	-0.04
390.88	-0.03
391.086	0.04
391.292	-0.05
391.498	0
391.704	-0.01
391.91	-0.01
392.116	-0.04
392.322	-0.12
392.528	0.04
392.734	-0.02
392.94	-0.03
393.146	-0.08
393.352	-0.02
393.557	-0.03
393.763	-0.01
393.969	-0.02
394.175	-0.04
394.381	-0.01
394.587	-0.06
394.792	-0.09
394.998	0.02
395.204	0.04
395.41	-0.04
395.615	-0.01
395.821	0.02
396.027	0
396.233	-0.06
396.438	-0.03
396.644	0.05
396.85	0.02
397.055	-0.02
397.261	-0.02
397.466	0.05
397.672	0.01
397.878	-0
398.083	-0.01
398.289	-0.04
398.494	0.03
398.7	0.01
398.905	-0.06
399.111	0.09
399.316	-0.03
399.522	-0.04
399.727	-0.02
399.932	-0.01
400.138	-0.03
400.343	0.01
400.549	0.02
400.754	0.01
400.959	-0
401.165	-0.02
401.37	-0.01
401.575	-0.05
401.78	0.01
401.986	-0.01
402.191	-0.02
402.396	-0.01
402.601	0.01
402.807	0.02
403.012	-0.01
403.217	0.04
403.422	-0
403.627	-0.04
403.832	-0.05
404.037	0.01
404.243	-0.04
404.448	-0.07
404.653	-0.02
404.858	-0.06
405.063	0.02
405.268	-0.06
405.473	-0.08
405.678	-0.09
405.883	0.1
406.088	0.02
406.293	-0.03
406.498	-0.08
406.703	0.04
406.907	0.01
407.112	-0.03
407.317	-0.03
407.522	0.02
407.727	-0.07
407.932	-0.02
408.136	0.07
408.341	-0.05
408.546	0.01
408.751	0.01
408.956	-0.06
409.16	0.03
409.365	-0.05
409.57	-0.01
409.774	-0.03
409.979	0.05
410.184	0.03
410.388	-0.06
410.593	0.05
410.798	-0
411.002	-0.03
411.207	0.02
411.411	-0.01
411.616	-0.03
411.82	-0.04
412.025	-0.01
412.229	-0.04
412.434	0.07
412.638	0
412.843	-0.07
413.047	0.01
413.252	-0.06
413.456	-0.04
413.66	-0.01
413.865	-0.06
414.069	0.06
414.273	-0.05
414.478	-0.07
414.682	-0.05
414.886	-0.02
415.091	-0.06
415.295	-0.1
415.499	0.01
415.703	-0.02
415.908	0.04
416.112	-0.09
416.316	-0.01
416.52	0.02
416.724	-0.12
416.929	-0.02
417.133	0.06
417.337	-0.04
417.541	-0.04
417.745	-0.03
417.949	-0
418.153	0
418.357	-0.07
418.561	0.02
418.765	0.01
418.969	0.11
419.173	0.01
419.377	-0.06
419.581	0.08
419.785	-0.05
419.989	-0.07
420.193	-0.05
420.397	-0.05
420.601	0.02
420.804	0.05
421.008	-0.04
421.212	-0.01
421.416	0.07
421.62	-0.03
421.823	-0.04
422.027	0.1
422.231	0.02
422.435	-0.04
422.638	-0.01
422.842	-0.01
423.046	-0.05
423.249	-0.01
423.453	0.04
423.657	-0.01
423.86	-0
424.064	0
424.268	0.04
424.471	0
424.675	0.06
424.878	0.05
425.082	-0.01
425.285	-0
425.489	-0.03
425.692	-0.04
425.896	-0.05
426.099	0.07
426.303	-0.04
426.506	-0.08
426.71	-0.04
426.913	0
427.116	0.04
427.32	-0.01
427.523	-0.01
427.726	0.1
427.93	-0.1
428.133	0.03
428.336	-0.05
428.54	-0.06
428.743	0.01
428.946	-0.01
429.149	-0.06
429.353	-0
429.556	-0.04
429.759	-0.03
429.962	-0.06
430.165	-0.01
430.368	-0
430.571	-0.06
430.775	0.02
430.978	-0.06
431.181	0.02
431.384	-0.05
431.587	-0.03
431.79	-0.02
431.993	-0.02
432.196	-0.02
432.399	-0.08
432.602	0.07
432.805	-0.03
433.008	-0.02
433.211	-0.07
433.414	0.05
433.616	0.02
433.819	-0.05
434.022	-0.14
434.225	0.04
434.428	-0
434.631	0.07
434.833	-0.02
435.036	-0.05
435.239	0.04
435.442	-0.03
435.645	-0.05
435.847	-0.02
436.05	0.05
436.253	-0.02
436.455	-0.05
436.658	-0.03
436.861	0.07
437.063	-0.07
437.266	-0.01
437.468	0.02
437.671	0.16
437.874	-0.04
438.076	-0.05
438.279	-0.1
438.481	-0.06
438.684	-0.06
438.886	-0.01
439.089	-0.09
439.291	0.02
439.494	0.02
439.696	-0.09
439.899	-0.03
440.101	-0.04
440.303	-0.07
440.506	0.04
440.708	-0.01
440.91	0.06
441.113	-0.04
441.315	0.03
441.517	-0.09
441.72	0.03
441.922	-0.08
442.124	-0.05
442.326	0.02
442.529	0.08
442.731	-0.08
442.933	0.07
443.135	-0.02
443.337	-0.04
443.539	-0.09
443.742	-0.05
443.944	-0.02
444.146	-0.04
444.348	-0.02
444.55	-0.05
444.752	-0
444.954	-0.06
445.156	-0.03
445.358	-0.04
445.56	0.02
445.762	-0.02
445.964	-0.03
446.166	0.02
446.368	-0.04
446.57	0.07
446.772	-0.04
446.974	-0.03
447.175	0
447.377	0.01
447.579	-0.07
447.781	-0.13
447.983	0.06
448.184	-0.04
448.386	-0.06
448.588	-0.05
448.79	-0.01
448.991	-0.03
449.193	-0.08
449.395	-0.04
449.597	0.03
449.798	0.03
450	-0.01
450.202	-0.03
450.403	0.01
450.605	0.03
450.806	-0
451.008	-0.12
451.21	-0.03
451.411	-0.01
451.613	-0.02
451.814	-0.01
452.016	0.01
452.217	-0
452.419	0.02
452.62	0.01
452.821	-0.01
453.023	0.07
453.224	0.03
453.426	-0.01
453.627	0.01
453.828	0.02
454.03	-0.05
454.231	0
454.432	-0.04
454.634	0.1
454.835	-0.05
455.036	-0.1
455.238	0.03
455.439	0.07
455.64	-0.06
455.841	-0.05
456.042	0.07
456.244	0.03
456.445	-0.03
456.646	-0.09
456.847	-0.02
457.048	0.04
457.249	0.03
457.45	0.2
457.651	-0.04
457.852	0.04
458.054	-0.03
458.255	-0.05
458.456	0.01
458.657	0.03
458.858	-0.05
459.058	-0.04
459.259	0.01
459.46	-0
459.661	-0.07
459.862	0.09
460.063	-0.05
460.264	0.03
460.465	-0.04
460.666	0.1
460.866	-0.03
461.067	-0.03
461.268	-0.03
461.469	-0.01
461.67	0
461.87	-0.03
462.071	-0.02
462.272	-0.08
462.473	-0.03
462.673	0
462.874	-0.08
463.075	-0.02
463.275	-0.07
463.476	0.04
463.676	-0.01
463.877	-0.02
464.078	-0.07
464.278	0.02
464.479	-0.05
464.679	-0.02
464.88	-0.05
465.08	0.02
465.281	-0.08
465.481	-0.05
465.682	-0.03
465.882	0.07
466.083	0.04
466.283	-0.03
466.483	-0.02
466.684	-0.04
466.884	-0.02
467.085	-0
467.285	0.07
467.485	-0.05
467.686	-0.02
467.886	-0.02
468.086	-0.02
468.286	0
468.487	-0.02
468.687	-0.08
468.887	-0.04
469.087	0.04
469.287	-0.01
469.488	-0.09
469.688	0.04
469.888	0.02
470.088	0.02
470.288	0.01
470.488	0.05
470.688	-0.06
470.888	-0.04
471.088	-0.08
471.288	0.03
471.488	-0.01
471.688	0.02
471.888	-0.03
472.088	0.09
472.288	0.04
472.488	-0.03
472.688	-0.03
472.888	-0.04
473.088	0.02
473.288	-0.04
473.488	-0.04
473.688	0.08
473.887	0.01
474.087	-0.06
474.287	-0.02
474.487	-0.03
474.687	0.02
474.886	-0.02
475.086	-0.06
475.286	-0.02
475.486	-0.01
475.685	-0.03
475.885	0.01
476.085	0.01
476.284	0.03
476.484	-0.05
476.684	-0.03
476.883	0.03
477.083	-0.03
477.282	-0.04
477.482	0.02
477.681	0.03
477.881	-0.02
478.08	-0.04
478.28	-0.04
478.479	0.02
478.679	0.04
478.878	-0.03
479.078	-0.06
479.277	-0.01
479.477	-0.03
479.676	0.04
479.875	-0.01
480.075	-0.07
480.274	-0.01
480.473	0.01
480.673	-0.04
480.872	0.02
481.071	0.01
481.271	-0.02
481.47	-0.04
481.669	-0.02
481.868	-0.05
482.067	-0.02
482.267	-0.03
482.466	-0.06
482.665	-0.04
482.864	-0.06
483.063	-0.04
483.262	0
483.461	0.05
483.661	0.03
483.86	0
484.059	-0.02
484.258	-0.02
484.457	-0
484.656	-0.03
484.855	0.03
485.054	-0.08
485.253	-0.05
485.452	-0.05
485.651	-0
485.849	-0.03
486.048	-0.03
486.247	-0.03
486.446	-0
486.645	-0.03
486.844	0
487.043	-0.02
487.241	0.01
487.44	-0.01
487.639	-0.01
487.838	0.02
488.037	0.01
488.235	0.04
488.434	-0
488.633	-0.02
488.831	-0.01
489.03	0.01
489.229	0.01
489.427	-0.03
489.626	0.04
489.825	0.04
490.023	-0.01
490.222	-0.02
490.42	0.01
490.619	0.01
490.817	-0.03
491.016	-0.03
491.214	0.02
491.413	-0.01
491.611	-0.03
491.81	0.01
492.008	0.01
492.207	-0
492.405	0
492.604	-0.07
492.802	-0
493	0.01
493.199	-0.04
493.397	-0.01
493.595	-0.01
493.794	-0.01
493.992	0.05
494.19	-0.02
494.388	0.01
494.587	0.01
494.785	-0.01
494.983	-0.03
495.181	0.01
495.379	0
495.578	-0.01
495.776	-0
495.974	0.01
496.172	-0.01
496.37	-0.03
496.568	-0.03
496.766	-0.03
496.964	0.03
497.162	-0
497.36	-0.05
497.558	0.02
497.756	0.02
497.954	0.01
498.152	-0.03
498.35	-0
498.548	-0.02
498.746	-0.01
498.944	-0.02
499.142	-0.02
499.34	-0.04
499.538	0.01
499.736	-0.02
499.933	0.01
500.131	0.02
500.329	-0
500.527	0.03
500.725	0.03
500.922	0.02
501.12	-0.01
501.318	-0
501.516	-0.02
501.713	-0.01
501.911	-0.03
502.109	-0.05
502.306	0.01
502.504	-0.01
502.701	-0.02
502.899	-0.01
503.097	0.01
503.294	0.02
503.492	-0.02
503.689	0
503.887	-0
504.084	0.03
504.282	-0
504.479	-0.06
504.677	0.02
504.874	-0.04
505.072	-0
505.269	-0.01
505.466	0.02
505.664	0.01
505.861	-0.03
506.059	-0.01
506.256	0.01
506.453	-0.01
506.651	0.03
506.848	0.04
507.045	-0.01
507.242	-0
507.44	-0.02
507.637	-0
507.834	0
508.031	0.01
508.229	-0.03
508.426	0
508.623	0.02
508.82	-0.03
509.017	-0.02
509.214	-0.01
509.411	0
509.608	-0.04
509.805	0
510.003	-0.03
510.2	-0.03
510.397	0.05
510.594	0.01
510.791	-0.02
510.988	-0.01
511.184	0.02
511.381	-0
511.578	-0.04
511.775	0.02
511.972	-0.01
512.169	-0.01
512.366	0
512.563	0.01
512.76	-0.01
512.956	0.03
513.153	-0.03
513.35	0.03
513.547	0
513.744	-0.03
513.94	-0.04
514.137	-0.01
514.334	0.01
514.53	-0
514.727	0.02
514.924	0.05
515.12	-0.05
515.317	-0.02
515.514	-0.01
515.71	-0.03
515.907	-0.02
516.103	0
516.3	0.01
516.497	0.04
516.693	0.03
516.89	-0.01
517.086	-0.02
517.283	0.02
517.479	0.01
517.676	-0.01
517.872	0.01
518.068	-0.01
518.265	-0.01
518.461	-0.02
518.658	-0.02
518.854	0.01
519.05	0
519.247	-0.02
519.443	0.03
519.639	0.01
519.836	0.02
520.032	0.01
520.228	-0
520.424	0.05
520.621	0.02
520.817	0.01
521.013	0.03
521.209	0.05
521.405	0.04
521.601	0.01
521.798	0.01
521.994	0.05
522.19	-0.01
522.386	-0.03
522.582	-0
522.778	0.02
522.974	-0
523.17	0.02
523.366	0.01
523.562	0.02
523.758	-0
523.954	-0.01
524.15	-0.01
524.346	0.02
524.542	-0.01
524.738	0
524.934	0.02
525.129	0
525.325	0.01
525.521	-0.01
525.717	0.01
525.913	0.01
526.109	-0
526.304	-0
526.5	0.02
526.696	0.01
526.892	0.02
527.087	0.01
527.283	-0.03
527.479	0.01
527.674	-0.01
527.87	-0.01
528.066	-0
528.261	0.02
528.457	0.04
528.653	-0.01
528.848	0
529.044	0.01
529.239	0
529.435	0.01
529.63	0.01
529.826	0.06
530.021	0.02
530.217	0.03
530.412	-0.02
530.608	-0.02
530.803	0
530.999	0.01
531.194	-0.05
531.389	0.03
531.585	-0.05
531.78	-0.01
531.975	-0.02
532.171	0.03
532.366	0.02
532.561	0
532.757	-0.03
532.952	-0.01
533.147	0.02
533.342	-0
533.538	0
533.733	0.03
533.928	0
534.123	-0.01
534.318	-0.02
534.513	-0
534.709	0
534.904	-0.02
535.099	-0.02
535.294	-0.01
535.489	0.01
535.684	0.01
535.879	-0.04
536.074	0.01
536.269	-0.01
536.464	0.01
536.659	-0
536.854	0.02
537.049	0.01
537.244	0.02
537.439	-0.02
537.634	0.03
537.828	0.01
538.023	0.01
538.218	-0.03
538.413	0
538.608	-0.03
538.803	0.02
538.997	-0.04
539.192	0.03
539.387	0.01
539.582	0.02
539.776	0.02
539.971	-0.02
540.166	0.01
540.36	-0.03
540.555	0.01
540.75	-0.02
540.944	0.03
541.139	-0.02
541.334	0.01
541.528	0.01
541.723	0.02
541.917	-0.01
542.112	-0.03
542.306	0.01
542.501	-0
542.695	-0.02
542.89	-0.02
543.084	0.02
543.279	-0
543.473	-0
543.668	-0.01
543.862	0
544.056	0.01
544.251	0.01
544.445	0.01
544.64	-0.01
544.834	-0.03
545.028	-0.01
545.222	0
545.417	0.02
545.611	-0.01
545.805	-0.01
546	-0.03
546.194	-0.02
546.388	-0.02
546.582	0
546.776	-0
546.97	0
547.165	0.02
547.359	0.02
547.553	-0.01
547.747	-0.01
547.941	-0
548.135	-0
548.329	0.02
548.523	0.02
548.717	-0
548.911	-0.03
549.105	-0.01
549.299	0
549.493	0.01
549.687	0
549.881	0.02
550.075	0
550.269	-0.04
550.463	0.01
550.657	-0
550.85	-0.01
551.044	-0.04
551.238	-0.01
551.432	-0.02
551.626	-0.03
551.82	-0
552.013	-0.01
552.207	-0.01
552.401	0.02
552.594	0.01
552.788	-0
552.982	-0.01
553.176	-0.02
553.369	0.01
553.563	0.02
553.756	-0.02
553.95	-0.03
554.144	0.01
554.337	0.02
554.531	-0.01
554.724	0.02
554.918	-0.02
555.111	0.02
555.305	0.02
555.498	0.04
555.692	0.02
555.885	-0.02
556.079	-0
556.272	-0.01
556.466	0.02
556.659	0.02
556.852	-0.03
557.046	-0
557.239	0.03
557.432	-0.01
557.626	-0.02
557.819	0.01
558.012	0
558.206	-0
558.399	0.01
558.592	0
558.785	-0.01
558.979	0.01
559.172	-0.01
559.365	0.01
559.558	0
559.751	-0
559.944	0.03
560.138	-0
560.331	-0.02
560.524	-0.04
560.717	-0.02
560.91	-0.02
561.103	0.01
561.296	-0.01
561.489	0
561.682	-0
561.875	0.02
562.068	0.01
562.261	-0
562.454	0.04
562.647	-0.01
562.84	0.01
563.032	-0.02
563.225	-0.01
563.418	-0
563.611	-0.01
563.804	-0.02
563.997	-0.04
564.19	-0.03
564.382	-0.02
564.575	-0.02
564.768	-0.01
564.961	-0.04
565.153	-0.03
565.346	0.01
565.539	0.01
565.731	0.02
565.924	0.02
566.117	-0
566.309	0.02
566.502	-0.04
566.695	-0
566.887	-0.01
567.08	-0.02
567.272	-0.01
567.465	-0.03
567.657	0
567.85	-0.01
568.042	0.01
568.235	0.04
568.427	-0.02
568.62	-0.01
568.812	0
569.005	-0
569.197	-0.02
569.389	0
569.582	-0
569.774	-0.01
569.966	-0.04
570.159	-0.01
570.351	0.01
570.543	-0.03
570.736	-0
570.928	-0.04
571.12	0.02
571.312	-0.02
571.505	-0.05
571.697	0.03
571.889	-0.04
572.081	-0.03
572.273	-0.05
572.465	0.03
572.658	-0.03
572.85	0
573.042	-0.03
573.234	-0.02
573.426	0.05
573.618	-0.03
573.81	-0.02
574.002	0.02
574.194	0.05
574.386	-0.05
574.578	-0.07
574.77	-0.02
574.962	-0.01
575.154	-0.05
575.346	-0.02
575.538	0
575.729	-0.03
575.921	-0.03
576.113	-0.02
576.305	0.02
576.497	-0.03
576.689	-0.01
576.88	-0.04
577.072	0
577.264	-0.02
577.456	-0.01
577.647	-0.08
577.839	-0.02
578.031	0.01
578.223	-0.05
578.414	-0.05
578.606	0.01
578.798	0.01
578.989	-0.05
579.181	-0.03
579.372	-0.01
579.564	-0.01
579.755	0
579.947	0
580.139	0.01
580.33	-0.04
580.522	-0.05
580.713	-0.1
580.905	-0.02
581.096	0.01
581.287	-0.02
581.479	-0.02
581.67	0.01
581.862	-0.02
582.053	-0.04
582.244	-0.07
582.436	-0.03
582.627	-0
582.818	-0.02
583.01	-0.04
583.201	-0
583.392	0.03
583.583	0.01
583.775	-0.02
583.966	-0.02
584.157	-0.04
584.348	-0.02
584.54	-0.03
584.731	-0.01
584.922	-0.02
585.113	-0.04
585.304	-0
585.495	0
585.686	-0.03
585.877	0.02
586.068	-0.01
586.259	-0.01
586.45	0.02
586.641	-0.03
586.832	-0.08
587.023	0.01
587.214	-0.03
587.405	-0.01
587.596	-0.02
587.787	0.05
587.978	0.01
588.169	-0.03
588.36	-0.04
588.551	-0.02
588.742	-0.03
588.932	-0.01
589.123	0
589.314	0.02
589.505	0.01
589.696	-0.01
589.886	-0.05
590.077	-0.07
590.268	0.01
590.458	-0.06
590.649	-0.06
590.84	0.03
591.03	-0.05
591.221	-0.05
591.412	-0.06
591.602	-0.01
591.793	0.02
591.984	-0.03
592.174	-0.03
592.365	0.06
592.555	-0.02
592.746	-0.02
592.936	0
593.127	0.02
593.317	0.03
593.508	-0.05
593.698	-0.03
593.889	-0
594.079	-0.02
594.269	-0.03
594.46	-0.03
594.65	-0.01
594.84	-0
595.031	-0.03
595.221	-0.03
595.411	-0.07
595.602	0
595.792	-0.02
595.982	-0.03
596.172	0.03
596.363	-0.01
596.553	-0
596.743	-0
596.933	-0.03
597.123	0.02
597.314	-0.04
597.504	-0.02
597.694	0.02
597.884	0.01
598.074	0
598.264	-0.03
598.454	0
598.644	-0.01
598.834	-0.03
599.024	-0.07
599.214	-0.02
599.404	0.03
599.594	-0.03
599.784	-0.02
599.974	0.06
600.164	0.02
600.354	-0.04
600.544	-0.06
600.734	0.02
600.924	0.03
601.114	-0.03
601.303	-0.01
601.493	-0.02
601.683	-0.01
601.873	-0
602.063	-0.07
602.252	-0.02
602.442	-0.07
602.632	-0.03
602.821	-0.04
603.011	-0.01
603.201	-0.05
603.39	-0.01
603.58	-0.05
603.77	-0.01
603.959	0.04
604.149	-0.01
604.339	-0.02
604.528	0.01
604.718	0.01
604.907	-0.01
605.097	-0.04
605.286	-0.02
605.476	0.01
605.665	-0.01
605.855	-0.05
606.044	0.03
606.234	0
606.423	-0.02
606.612	-0.04
606.802	0
606.991	-0
607.181	0.02
607.37	-0.04
607.559	-0
607.749	-0.02
607.938	-0.01
608.127	-0.04
608.316	-0.04
608.506	0
608.695	-0.01
608.884	-0.05
609.073	-0.01
609.263	0
609.452	-0.01
609.641	-0.01
609.83	-0.04
610.019	-0.01
610.208	-0.04
610.397	-0.01
610.586	0.03
610.775	0
610.965	-0.03
611.154	-0.04
611.343	0.02
611.532	-0.05
611.721	-0.05
611.91	-0.06
612.099	0.01
612.287	-0.02
612.476	-0.06
612.665	-0.01
612.854	-0.04
613.043	0.02
613.232	-0.01
613.421	-0.05
613.61	-0
613.798	-0.05
613.987	0.02
614.176	-0.01
614.365	0.02
614.554	-0.03
614.742	0.01
614.931	-0.01
615.12	0
615.309	-0
615.497	-0
615.686	-0.02
615.875	-0.01
616.063	-0
616.252	-0.02
616.44	-0.02
616.629	0.02
616.818	0
617.006	-0.03
617.195	-0
617.383	-0.01
617.572	-0.03
617.76	-0.05
617.949	-0.02
618.137	0.01
618.326	0.04
618.514	-0.05
618.703	-0.02
618.891	0.05
619.079	-0.07
619.268	-0.01
619.456	-0.01
619.644	0.01
619.833	-0.03
620.021	-0.04
620.209	-0.07
620.398	-0.02
620.586	-0.01
620.774	0.02
620.962	-0.03
621.151	0.02
621.339	-0.02
621.527	-0.04
621.715	-0.08
621.903	-0.07
622.092	-0.05
622.28	-0.01
622.468	-0.03
622.656	-0.02
622.844	0.02
623.032	-0.05
623.22	-0.06
623.408	0.03
623.596	0.01
623.784	-0.02
623.972	-0.04
624.16	-0
624.348	0.02
624.536	-0.04
624.724	-0.04
624.912	0.03
625.1	0.02
625.288	-0.07
625.476	-0.04
625.664	0.06
625.851	-0.03
626.039	-0
626.227	-0.02
626.415	-0.01
626.603	-0.08
626.79	-0.01
626.978	-0.05
627.166	0.02
627.354	-0.02
627.541	-0.05
627.729	-0.09
627.917	-0
628.104	0.01
628.292	-0.01
628.48	-0.04
628.667	-0.01
628.855	0.01
629.042	-0
629.23	-0.04
629.418	-0.02
629.605	-0.02
629.793	-0.06
629.98	-0.07
630.168	0
630.355	-0.02
630.543	-0
630.73	-0.05
630.917	0.01
631.105	0.04
631.292	-0.01
631.48	-0.01
631.667	0.05
631.854	-0.02
632.042	-0.03
632.229	-0.1
632.416	-0
632.604	-0.02
632.791	-0.04
632.978	-0
633.165	0.03
633.353	0.03
633.54	0.02
633.727	-0.1
633.914	-0.02
634.101	-0.1
634.289	0.03
634.476	-0.06
634.663	-0.05
634.85	0.01
635.037	-0.06
635.224	-0.09
635.411	0
635.598	0.05
635.785	-0.03
635.972	-0.02
636.159	0
636.346	-0.06
636.533	-0.01
636.72	-0.04
636.907	-0.01
637.094	0.01
637.281	-0.02
637.468	-0.02
637.655	-0.03
637.842	-0.01
638.029	-0.05
638.215	0.01
638.402	-0.02
638.589	-0.04
638.776	-0.04
638.963	-0.05
639.149	0.02
639.336	0.04
639.523	-0.03
639.709	-0.02
639.896	-0.04
640.083	0.03
640.27	-0.01
640.456	-0.07
640.643	0.03
640.829	-0.07
641.016	-0.03
641.203	-0.06
641.389	0.01
641.576	0
641.762	-0.01
641.949	-0.04
642.135	-0
642.322	-0.02
642.508	-0.05
642.695	-0.03
642.881	-0.03
643.068	-0.02
643.254	-0.02
643.441	-0
643.627	-0.03
643.813	-0.07
644	-0
644.186	-0.05
644.372	-0.01
644.559	0.05
644.745	-0.04
644.931	-0.06
645.118	0.02
645.304	-0.01
645.49	-0.05
645.676	-0.04
645.862	0
646.049	0
646.235	-0.02
646.421	0.04
646.607	0.05
646.793	-0.02
646.979	-0.03
647.165	-0.01
647.352	0.01
647.538	0.01
647.724	-0.01
647.91	0.01
648.096	0.03
648.282	0.03
648.468	-0.03
648.654	-0.01
648.84	0.01
649.026	-0.04
649.212	-0.03
649.397	-0.05
649.583	-0.06
649.769	0
649.955	-0.04
650.141	-0.04
650.327	0.01
650.513	-0.04
650.698	-0.03
650.884	-0.07
651.07	0
651.256	-0.03
651.442	-0.05
651.627	-0.04
651.813	0
651.999	-0.01
652.184	-0
652.37	-0.02
652.556	-0.01
652.741	-0
652.927	-0.07
653.113	-0.02
653.298	-0.06
653.484	-0.03
653.669	-0.05
653.855	-0.03
654.04	0.03
654.226	-0.01
654.412	-0.04
654.597	-0.07
654.782	-0.02
654.968	-0.01
655.153	-0.02
655.339	-0.07
655.524	-0.06
655.71	0.02
655.895	-0.01
656.08	-0.02
656.266	0
656.451	-0.01
656.636	-0.06
656.822	-0.01
657.007	-0.05
657.192	-0.05
657.378	-0.04
657.563	-0
657.748	0
657.933	-0.01
658.118	-0.04
658.304	-0
658.489	0.01
658.674	-0.01
658.859	-0.06
659.044	-0.01
659.229	0.01
659.414	-0.05
659.599	-0.01
659.785	-0.06
659.97	-0.04
660.155	0.01
660.34	-0.05
660.525	-0.05
660.71	-0.06
660.895	-0.01
661.08	-0.04
661.264	-0.06
661.449	0.02
661.634	0.05
661.819	0.02
662.004	0.03
662.189	-0.05
662.374	-0.03
662.559	-0.1
662.743	-0.1
662.928	0
663.113	-0.02
663.298	-0.09
663.483	-0.05
663.667	0.02
663.852	-0.09
664.037	0.01
664.221	-0.05
664.406	0.03
664.591	0.01
664.775	-0.01
664.96	-0.02
665.145	-0.01
665.329	-0.01
665.514	-0.05
665.698	-0.05
665.883	-0.1
666.068	0.03
666.252	-0
666.437	-0.04
666.621	-0.04
666.806	0.01
666.99	-0.03
667.174	-0.05
667.359	0.01
667.543	-0.04
667.728	-0.01
667.912	-0.1
668.096	0.05
668.281	-0.01
668.465	-0.07
668.649	-0.02
668.834	-0.04
669.018	-0.02
669.202	-0.05
669.387	-0.06
669.571	0.03
669.755	-0.03
669.939	-0
670.124	-0.01
670.308	0.03
670.492	0.02
670.676	-0.05
670.86	-0.04
671.044	-0.08
671.228	0.03
671.413	-0.04
671.597	-0.08
671.781	-0.01
671.965	-0
672.149	-0.04
672.333	-0.03
672.517	-0.04
672.701	-0.01
672.885	-0.04
673.069	-0.1
673.253	0.03
673.437	-0.03
673.621	-0.05
673.804	-0.03
673.988	-0.02
674.172	-0.01
674.356	-0.09
674.54	-0.08
674.724	0.08
674.908	-0.04
675.091	0.02
675.275	-0.03
675.459	-0.01
675.643	0.04
675.826	-0
676.01	-0.05
676.194	-0.05
676.377	0.04
676.561	0.02
676.745	-0
676.928	0.03
677.112	-0.01
677.296	-0.03
677.479	-0.01
677.663	-0.01
677.846	-0
678.03	-0.04
678.213	-0.03
678.397	-0.03
678.58	-0.05
678.764	-0.02
678.947	-0.09
679.131	-0.02
679.314	0.01
679.498	-0.06
679.681	-0.01
679.865	0.03
680.048	-0.04
680.231	-0.02
680.415	-0.02
680.598	-0.04
680.781	0.01
680.965	-0.05
681.148	-0.02
681.331	-0.04
681.514	0.01
681.698	-0.06
681.881	-0.02
682.064	-0.03
682.247	-0.01
682.43	-0.11
682.614	0.03
682.797	-0.01
682.98	0.02
683.163	-0.05
683.346	-0.02
683.529	-0.02
683.712	-0.04
683.895	0.09
684.078	-0.08
684.261	-0.03
684.444	-0.01
684.627	0
684.81	-0.11
684.993	-0.03
685.176	0
685.359	-0.04
685.542	-0.07
685.725	0.08
685.908	-0.07
686.091	-0.01
686.274	0.04
686.457	0.04
686.639	-0.07
686.822	-0.03
687.005	-0.04
687.188	0.01
687.371	0.04
687.553	0.02
687.736	-0
687.919	0.05
688.102	0.05
688.284	-0.04
688.467	-0.06
688.65	-0.03
688.832	-0.05
689.015	0.01
689.197	-0.1
689.38	0.06
689.563	0.04
689.745	-0.06
689.928	-0.07
690.11	-0.01
690.293	0.01
690.475	-0.07
690.658	0
690.84	-0.02
691.023	-0.03
691.205	-0.07
691.388	-0.05
691.57	0.01
691.752	-0.01
691.935	-0.1
692.117	-0.02
692.3	-0.01
692.482	-0.03
692.664	-0.06
692.847	-0.01
693.029	0.01
693.211	0.05
693.393	-0.02
693.576	-0.08
693.758	-0.01
693.94	-0.05
694.122	-0.05
694.304	-0.04
694.487	-0.03
694.669	0.09
694.851	-0.16
695.033	-0.03
695.215	-0.1
695.397	-0.01
695.579	-0.01
695.761	-0.04
695.943	-0.07
696.125	0.07
696.308	-0.03
696.49	-0.13
696.671	0.08
696.853	-0.06
697.035	0.13
697.217	-0.02
697.399	0.01
697.581	-0.06
697.763	-0.02
697.945	-0.06
698.127	-0.01
698.309	0.05
698.491	-0.02
698.672	0
698.854	0.03
699.036	0.13
699.218	-0.07
699.399	0.04
699.581	0.04
699.763	-0.02
699.945	-0.04
700.126	-0.07
700.308	0.01
700.49	0.01
700.671	-0.09
700.853	-0.09
701.035	-0.06
701.216	-0.05
701.398	-0.06
701.579	-0.02
701.761	0.03
701.943	-0.07
702.124	-0.04
702.306	-0.02
702.487	0.13
702.669	0.02
702.85	-0.05
703.031	-0.09
703.213	0.05
703.394	0.04
703.576	-0.04
703.757	0.09
703.938	0.01
704.12	0.13
704.301	-0.06
704.483	-0.08
704.664	-0.03
704.845	0.07
705.026	0
705.208	-0.03
705.389	-0.03
705.57	0.04
705.751	-0.04
705.933	-0.05
706.114	0.02
706.295	-0.02
706.476	-0.09
706.657	0.02
706.838	-0.01
707.02	0.05
707.201	-0.06
707.382	-0.07
707.563	0.04
707.744	-0.06
707.925	-0.09
708.106	-0.07
708.287	-0.02
708.468	0.08
708.649	-0.01
708.83	0.09
709.011	-0.12
709.192	0.02
709.373	-0.12
709.554	0.02
709.734	-0
709.915	0.04
710.096	-0
710.277	-0.15
710.458	-0.02
710.639	-0.04
710.819	-0.1
711	-0.01
711.181	0.04
711.362	0.04
711.542	-0.07
711.723	0.05
711.904	0.06
712.085	0.02
712.265	0.04
712.446	-0.08
712.627	0.01
712.807	-0.01
712.988	-0.02
713.168	-0.15
713.349	0.01
713.53	-0.18
713.71	-0.13
713.891	-0.07
714.071	-0.04
714.252	-0.08
714.432	-0.04
714.613	-0.08
714.793	-0.03
714.974	0.09
715.154	0.09
715.334	-0.01
715.515	0.14
715.695	-0.07
715.876	-0.02
716.056	-0.02
716.236	-0.02
716.417	-0.04
716.597	-0.07
716.777	0.14
716.957	-0.03
717.138	-0.03
717.318	-0.03
717.498	-0.12
717.678	-0.01
717.859	-0.03
718.039	-0.11
718.219	-0.03
718.399	0.06
718.579	-0.12
718.759	-0.12
718.939	0.01
719.12	-0.05
719.3	-0.04
719.48	-0.16
719.66	-0.07
719.84	0.06
720.02	-0.01
720.2	-0.07
720.38	-0.05
720.56	0.08
720.74	-0.06
720.92	-0.04
721.1	0.08
721.279	0.11
721.459	-0.1
721.639	-0.1
721.819	0.01
721.999	-0.06
722.179	0.02
722.359	-0.06
722.538	-0.06
722.718	-0.03
722.898	-0.09
723.078	0
723.257	-0.06
723.437	-0.08
723.617	-0.01
723.797	-0.09
723.976	-0.02
724.156	0.01
724.336	0.09
724.515	0.02
724.695	-0.14
724.874	-0.05
725.054	0.02
725.234	-0.06
725.413	0.01
725.593	-0.06
725.772	0
725.952	-0.03
726.131	-0.08
726.311	-0.05
726.49	-0.07
726.67	-0.12
726.849	-0.12
727.028	0.03
727.208	0.02
727.387	-0.01
727.567	-0.13
727.746	-0.03
727.925	-0.15
728.105	-0.1
728.284	-0.05
728.463	-0.04
728.643	0.07
728.822	-0.18
729.001	-0.1
729.18	-0.05
729.359	-0.01
729.539	-0.1
729.718	-0.02
729.897	-0
730.076	-0.06
730.255	-0.13
730.434	-0.03
730.614	0.01
730.793	0.04
730.972	-0.06
731.151	0.01
731.33	0.13
731.509	0.04
731.688	-0.02
731.867	-0.05
732.046	-0.13
732.225	0.2
732.404	-0.13
732.583	-0.09
732.762	-0.02
732.941	0.08
733.12	-0.08
733.298	-0.1
733.477	0.06
733.656	-0.08
733.835	-0.1
734.014	0.06
734.193	0
734.371	0.08
734.55	0.06
734.729	-0.22
734.908	0.01
735.086	-0.01
735.265	-0.07
735.444	-0.15
735.623	-0.14
735.801	-0.08
735.98	-0.04
736.159	-0.15
736.337	0.03
736.516	-0.06
736.694	-0.12
736.873	-0.13
737.052	0.07
737.23	0.02
737.409	-0.15
737.587	0.13
737.766	-0.1
737.944	-0.13
738.123	0.04
738.301	0.11
738.479	0.03
738.658	-0.07
738.836	-0.19
739.015	-0.07
739.193	0.04
739.371	-0.19
739.55	0.02
739.728	-0.18
739.906	0.07
740.085	0.12
740.263	-0.06
740.441	-0.25
740.62	0.14
740.798	0
740.976	-0.05
741.154	-0.02
741.332	0.15
741.511	-0.11
741.689	0.02
741.867	-0.05
742.045	-0.03
742.223	-0.05
742.401	-0.09
742.579	-0.13
742.757	0.03
742.935	-0.16
743.114	-0.07
743.292	0.02
743.47	-0.01
743.648	0
743.826	-0.02
744.004	0.08
744.181	0.06
744.359	-0.13
744.537	-0.04
744.715	-0.07
744.893	-0.06
745.071	-0.03
745.249	-0.08
745.427	0.01
745.605	0.08
745.782	-0.03
745.96	0
746.138	0.04
746.316	0.1
746.493	-0.06
746.671	-0.03
746.849	0.01
747.027	0.12
747.204	-0.08
747.382	0.03
747.56	-0.11
747.737	0.09
747.915	-0.1
748.093	-0.01
748.27	-0.08
748.448	0.01
748.625	-0.28
748.803	-0.14
748.98	-0.07
749.158	0.03
749.335	0.06
749.513	-0.1
749.69	-0.12
749.868	-0.1
750.045	0.02
750.223	-0.08
750.4	-0.24
750.578	0.16
750.755	0.01
750.932	-0.2
751.11	0.09
751.287	-0.13
751.464	0.04
751.642	-0.04
751.819	-0
751.996	0.06
752.173	-0.01
752.351	-0.13
752.528	-0.07
752.705	0.06
752.882	-0.03
753.06	-0.02
753.237	0.08
753.414	-0
753.591	0.14
753.768	-0.04
753.945	-0.08
754.122	-0.14
754.299	0.05
754.476	-0.09
754.654	0.09
754.831	0.07
755.008	0.03
755.185	-0.03
755.362	-0.2
755.539	0.04
755.716	-0.12
755.892	-0.03
756.069	-0.13
756.246	0
756.423	-0.07
756.6	0.16
756.777	-0.01
756.954	0.07
757.131	-0.07
757.307	-0.11
757.484	-0.21
757.661	-0.06
757.838	-0.04
758.015	-0.1
758.191	0.12
758.368	-0.13
758.545	0.13
758.721	0.03
758.898	-0.1
759.075	-0.03
759.251	0.03
759.428	0.07
759.605	-0.16
759.781	-0.2
759.958	0.01
760.134	-0.1
760.311	-0.05
760.488	0.11
760.664	0.06
760.841	0.03
761.017	-0.22
761.194	0.07
761.37	0.13
761.547	-0.06
761.723	-0.02
761.899	0.03
762.076	-0.15
762.252	-0.12
762.429	-0.03
762.605	0.04
762.781	-0.04
762.958	0.1
763.134	-0.13
763.31	0.01
763.486	0.14
763.663	-0.2
763.839	0.04
764.015	-0.24
764.191	-0.13
764.368	-0.07
764.544	-0.17
764.72	0.12
764.896	0.04
765.072	-0.03
765.248	0.02
765.425	-0.11
765.601	0.1
765.777	-0.06
765.953	-0.27
766.129	-0.02
766.305	-0.22
766.481	-0.01
766.657	-0
766.833	0.09
767.009	-0.2
767.185	0
767.361	-0.08
767.537	-0.14
767.713	0.16
767.889	-0.18
768.065	-0.14
768.24	-0
768.416	0
768.592	-0.06
768.768	-0.13
768.944	-0
769.12	-0.18
769.295	-0.1
769.471	-0.18
769.647	-0.13
769.823	0.11
769.998	-0.1
770.174	-0.11
770.35	0.19
770.525	0.25
770.701	-0.01
770.877	-0.09
771.052	-0.1
771.228	0.03
771.403	-0.04
771.579	-0.05
771.755	0.15
771.93	-0.01
772.106	-0.29
772.281	-0.31
772.457	0.05
772.632	0.15
772.808	-0.19
772.983	-0.08
773.159	-0.23
773.334	0.24
773.509	0.02
773.685	-0.15
773.86	0.24
774.036	0.18
774.211	-0.07
774.386	-0.1
774.562	-0.12
774.737	-0.19
774.912	-0.22
775.087	0.02
775.263	0.01
775.438	-0.15
775.613	-0.19
775.788	-0.05
775.964	0.13
776.139	0.31
776.314	-0.25
776.489	0
776.664	-0.09
776.839	-0.19
777.014	0.06
777.19	0.12
777.365	0.03
777.54	0.32
777.715	-0.16
777.89	-0.09
778.065	-0.25
778.24	-0.07
778.415	0.02
778.59	-0.27
778.765	-0.06
778.94	0.04
779.115	-0.08
779.289	-0.08
779.464	-0.09
779.639	-0.06
779.814	-0.11
779.989	-0.31
780.164	0.13
780.339	0.05
780.513	-0.06
780.688	-0.07
780.863	-0.05
781.038	0.22
781.212	-0.17
781.387	0.12
781.562	0.07
781.737	-0.09
781.911	0.25
782.086	-0.24
782.261	0.02
782.435	0.12
782.61	-0.2
782.784	-0
782.959	0.06
783.134	-0.1
783.308	-0.24
783.483	-0.27
783.657	0.11
783.832	0.25
784.006	-0.34
784.181	-0.07
784.355	0.15
784.53	-0.3
784.704	-0.2
784.878	0.17
785.053	0.11
785.227	0.15
785.402	0.18
785.576	-0.23
785.75	0.04
785.925	-0.3
786.099	-0.17
786.273	-0.16
786.448	0.04
786.622	0.07
786.796	-0.21
786.97	-0.04
787.145	0.38
787.319	-0.18
787.493	-0.11
787.667	-0.45
787.841	-0.07
788.015	0.14
788.19	-0.06
788.364	0.02
788.538	0.1
788.712	0.22
788.886	-0.09
789.06	0.04
789.234	0.1
789.408	-0.24
789.582	-0.18
789.756	-0.09
789.93	-0.31
790.104	-0.15
790.278	-0.15
790.452	-0.37
790.626	0.03
790.8	-0.14
790.973	0.11
791.147	-0.04
791.321	0.04
791.495	0.17
791.669	0.01
791.843	0.1
792.016	-0.03
792.19	0.49
792.364	-0.26
792.538	0.27
792.711	0.21
792.885	-0.21
793.059	-0.32
793.233	-0.7
793.406	0.12
793.58	-0.03
793.754	0.14
793.927	-0.03
794.101	0.11
794.274	-0.29
794.448	0.08
794.622	-0.27
794.795	0.38
794.969	-0.29
795.142	0.21
795.316	-0.09
795.489	-0.31
795.663	0.31
795.836	-0.18
796.009	-0.29
796.183	0.3
796.356	0.11
796.53	0.09
796.703	-0.11
796.876	0.36
797.05	-0.23
797.223	-0.06
797.396	0.09
797.57	0.03
797.743	0.25
797.916	-0.09
798.09	-0.14
798.263	0.01
798.436	0.17
798.609	0.04
798.782	-0.06
798.956	0.07
799.129	-0.28
799.302	-0.24
799.475	-0.23
799.648	-0.38
799.821	-0.2
799.994	-0.05
800.167	-0.22
800.34	-0.24
800.514	0
800.687	-0.03
800.86	-0.17
801.033	-0.08
801.206	-0.04
801.379	-0.26
801.551	0.07
801.724	0.04
801.897	0.38
802.07	0.09
802.243	-0.71
802.416	0
802.589	-0.23
802.762	0.03
802.935	-0.12
803.107	0.02
803.28	0.35
803.453	0.02
803.626	-0.26
803.798	0.04
803.971	-0.55
804.144	0.11
804.317	0.19
804.489	-0.22
804.662	-0.07
804.835	-0.09
805.007	-0.15
805.18	0.32
805.353	0.27
805.525	-0.11
805.698	-0.21
805.87	0.48
806.043	0.14
806.215	-0.34
806.388	-0.43
806.56	0.32
806.733	0.48
806.905	0.13
807.078	-0.33
807.25	-0.13
807.423	0.11
807.595	-0.14
807.768	-0.04
807.94	0.13
808.112	-0.19
808.285	-0.23
808.457	-0.05
808.629	-0.32
808.802	0.16
808.974	-0.45
809.146	-0.38
809.318	-0.57
809.491	0.12
809.663	0.04
809.835	-0.32
810.007	0.07
810.18	-0.02
810.352	-0.63
810.524	-0.04
810.696	-0.21
810.868	0.04
811.04	-0.16
811.212	-0.01
811.384	0.32
811.556	0.02
811.728	-0.19
811.901	0.42
812.073	-0.33
812.245	0.13
812.417	0.09
812.589	-0.65
812.76	-0.11
812.932	-0.3
813.104	0.37
813.276	0.34
813.448	0.08
813.62	-0.17
813.792	0.12
813.964	-0.11
814.136	0.06
814.307	-0.31
814.479	-0.48
814.651	-0.42
814.823	0.68
814.995	-0.23
815.166	0.2
815.338	-0.55
815.51	-0.74
815.681	0.61
815.853	-0.02
816.025	0.27
816.196	-0.01
816.368	0.14
816.54	-0.47
816.711	-0.58
816.883	-0.04
817.054	0.94
817.226	-0.65
817.398	0
817.569	-0.34
817.741	-0.3
817.912	-0.16
818.084	-0.55
818.255	-0.05
818.426	-0.53
818.598	0.31
818.769	-0.26
818.941	0.14
819.112	0.32
819.283	0.21
819.455	-0.32
819.626	-0.18
819.798	-0.2
819.969	-0.06
820.14	-0.04
820.311	-0.52
820.483	0.15
820.654	0.18
820.825	-0.29
820.996	0.06
821.168	-0.54
821.339	-0.39
821.51	-0.34
821.681	1.14
821.852	0.31
822.023	-0.4
822.195	-0.45
822.366	0.54
822.537	-0.18
822.708	-0.28
822.879	-0.22
823.05	0.48
823.221	-0.21
823.392	-0.23
823.563	-0.14
823.734	-0.32
823.905	-0.37
824.076	-0.11
824.247	-0.44
824.418	-0.26
824.589	0.78
824.759	-0.19
824.93	-0.21
825.101	-0.77
825.272	-0.02
825.443	0.55
825.614	0.32
825.784	-0.99
825.955	0.82
826.126	0.71
826.297	0.31
826.467	0.75
826.638	0.7
826.809	-1.16
826.98	-0.3
827.15	0.34
827.321	-0.01
827.492	0.7
827.662	-0.26
827.833	0.98
828.003	0.4
828.174	-0.85
828.345	-1
828.515	0.27
828.686	0.19
828.856	-0.39
829.027	0.17
829.197	0.29
829.368	0.41
829.538	-0.46
829.709	-0.31
829.879	-0.25
830.049	-0
830.22	-0.26
830.39	0.18
830.56	0.22
830.731	0.26
830.901	-0.75
831.072	-0.04
831.242	-0.28
831.412	0.12
831.582	0.25
831.753	-1.03
831.923	0.65
832.093	-0.4
832.263	0.18
832.434	-1.04
832.604	-0.31
832.774	0.44
832.944	-0.58
833.114	-0.42
833.284	0.4
833.454	-1.4
833.624	-0.36
833.795	-0.39
833.965	0.75
834.135	0.74
834.305	-1.23
834.475	-1.12
834.645	-0.05
834.815	-0.73
834.985	-0.62
835.155	-1.02
835.325	0.2
835.494	0.07
835.664	-0.65
835.834	-0.33
836.004	0.04
836.174	0.25
836.344	-0.64
836.514	-1.51
836.684	-1.16
836.853	-0.09
837.023	-0.56
837.193	-0.28
837.363	0.3
837.532	0.35
837.702	-0.2
837.872	0.05
838.041	0.65
838.211	1.37
838.381	-0.16
838.55	0.27
838.72	1.81
838.89	1.01
839.059	-0.9
839.229	-0.1
839.398	1.13
839.568	-0.28
839.738	-0.46
839.907	0.51
840.077	-0
840.246	-0.51
840.416	-0.53
840.585	-1.02
840.755	1.66
840.924	0.99
841.093	-0.69
841.263	-0.08
841.432	-0.64
841.602	-0.78
841.771	-0.5
841.94	-0.28
842.11	1.43
842.279	1.47
842.448	-0.65
842.617	-1.27
842.787	0.61
842.956	-1.39
843.125	-0.38
843.294	-0.29
843.464	0.55
843.633	-0.37
843.802	-0.74
843.971	-0.57
844.14	0.17
844.309	1.16
844.479	-0.75
844.648	-1.23
844.817	-0.17
844.986	0.24
845.155	-1.19
845.324	-1.02
845.493	-0.18
845.662	-1.34
845.831	0.72
846	0.46
846.169	0.08
846.338	0.87
846.507	-0.01
846.676	0.31
846.844	-1.02
847.013	0.48
847.182	-0.4
847.351	0.56
847.52	-0.65
847.689	0.29
847.858	-0.49
848.026	-0.99
848.195	-0.48
848.364	-0.98
848.533	-0.33
848.701	-0.96
848.87	0.24
849.039	0.08
849.207	0.31
849.376	0.82
849.545	1.2
849.713	-0.95
849.882	-0.67
850.051	0.24
850.219	0.68
850.388	0.58
850.556	-0.98
850.725	-1.57
850.893	0.06
851.062	-0
851.23	0.72
851.399	-1.47
851.567	-0.45
851.736	-0.76
851.904	-0.87
852.073	-0.69
852.241	0.34
852.41	-1.29
852.578	0.04
852.746	-0.9
852.915	0.43
853.083	0.27
853.251	-0.95
853.42	-0.11
853.588	-0.42
853.756	0.89
853.924	-0.05
854.093	-0.31
854.261	-0.99
854.429	-1.84
854.597	0.31
854.765	-1.07
854.934	1.76
855.102	1.08
855.27	-0.11
855.438	0.18
855.606	0.63
855.774	1.37
855.942	-2.02
856.11	-2.03
856.278	0.58
856.446	0.2
856.614	-0.74
856.782	-1.14
856.95	1.29
857.118	-1.1
857.286	0.47
857.454	-2
857.622	0.91
857.79	-0.05
857.958	-2.24
858.126	-1.59
858.294	-3.34
858.462	-0.3
858.629	0.11
858.797	-2.57
858.965	0.07
859.133	0.36
859.301	-0.5
859.468	-0.71
859.636	-1.45
859.804	0.89
859.971	-0.25
860.139	-0.72
860.307	1.16
860.474	-0.49
860.642	-2.32
860.81	-1.32
860.977	-0.88
861.145	0.15
861.313	0.16
861.48	-0.65
861.648	-0.09
861.815	-0.27
861.983	-1.5
862.15	-0.85
862.318	-0.03
862.485	0.68
862.653	-0.82
862.82	-0.78
862.988	2.08
863.155	-0.12
863.322	-0.97
863.49	-1.79
863.657	-1.19
863.824	2.25
863.992	-0.02
864.159	-0.17
864.326	0.02
864.494	-1.38
864.661	1.59
864.828	-2.82
864.996	1.54
865.163	1.31
865.33	-1.3
865.497	-3.12
865.664	-0.43
865.832	-1.9
865.999	-1.98
866.166	-1.58
866.333	-1.52
866.5	-0.47
866.667	-0.33
866.834	-1.28
867.001	0.1
867.168	-3.11
867.335	-0.98
867.502	-2.25
867.669	-0.14
867.836	1.49
868.003	-1.66
868.17	2
868.337	-1.75
868.504	2.21
868.671	-0.49
868.838	-1.2
869.005	0.09
869.172	-0.04
869.339	-1.15
869.505	-1.17
869.672	0.01
869.839	1.74
870.006	-0.68
870.173	-2.05
870.339	-0.27
870.506	0.86
870.673	-1.87
870.84	-0.21
871.006	0.23
871.173	-0.75
871.34	-1.51
871.506	-2.56
871.673	1.49
871.839	-2.32
872.006	-0.04
872.173	-0.91
872.339	0.47
872.506	1.73
872.672	-0.62
872.839	-0.77
873.005	0.11
873.172	2.43
873.338	0.68
873.505	-0.37
873.671	-0.42
873.838	-1.21
874.004	-2.11
874.171	-0.86
874.337	1.95
874.503	1.34
874.67	-0.52
874.836	-1.37
875.002	2.02
875.169	2.71
875.335	0.36
875.501	-2.28
875.668	0.47
875.834	1.15
876	-0.77
876.166	-0.27
876.332	1.58
876.499	3.66
876.665	0.14
876.831	-0.61
876.997	2.32
877.163	0.38
877.329	-0.65
877.495	-0.37
877.662	2.01
877.828	1.66
877.994	-0.58
878.16	-3.37
878.326	-1.48
878.492	-1.21
878.658	-0.39
878.824	0.14
878.99	2.26
879.156	-1.81
879.322	3.3
879.487	-0.75
879.653	0.35
879.819	0.37
879.985	-3.26
880.151	-0.6
880.317	-0.02
880.483	0.61
880.648	-0.12
880.814	-4.24
880.98	0.45
881.146	-0.85
881.312	-2.35
881.477	-0.91
881.643	0.5
881.809	1.84
881.974	0.28
882.14	-3.27
882.306	-1.04
882.471	3.54
882.637	-2.43
882.803	1.23
882.968	3.34
883.134	2.73
883.299	-0.57
883.465	-0.51
883.63	-0.14
883.796	2.1
883.961	1.71
884.127	0.66
884.292	-2.23
884.458	-2.18
884.623	-2.18
