Data from Apollo_Calib_20240827__AbsoluteIrradiance__542__08-11-01-126.txt Node

Date: Wed Aug 28 08:11:01 BST 2024
User: biology
Spectrometer: FLMT08252
Trigger mode: 0
Integration Time (sec): 5.000000E-1
Scans to average: 5
Electric dark correction enabled: true
Nonlinearity correction enabled: false
Boxcar width: 0
XAxis mode: Wavelengths
Number of Pixels in Spectrum: 3648
>>>>>Begin Spectral Data<<<<<
179.588	-0
179.809	-0
180.03	-0
180.251	-0
180.473	-0
180.694	0
180.915	0
181.136	-0
181.357	0
181.578	-0
181.799	-0
182.02	-0
182.241	-0
182.462	-0
182.683	0
182.904	-0
183.125	-0
183.346	0
183.567	-0
183.788	-0
184.009	-0
184.23	0
184.451	0
184.672	-0
184.892	-0
185.113	-0
185.334	0
185.555	-0
185.776	-0
185.996	0
186.217	-0
186.438	-0
186.659	-0
186.879	0
187.1	-0
187.321	-0
187.541	-0
187.762	-0
187.983	-0
188.203	-0
188.424	-0
188.644	-0
188.865	-0
189.086	-0
189.306	-0
189.527	-0
189.747	0
189.968	-0
190.188	0
190.409	-0
190.629	0
190.849	-0
191.07	-0
191.29	0
191.511	0
191.731	-0
191.951	-0
192.172	0
192.392	-0
192.612	-0
192.833	-0
193.053	0
193.273	-0
193.493	-0
193.714	-0
193.934	0
194.154	0
194.374	0
194.594	0
194.815	-0
195.035	-0
195.255	-0
195.475	-0
195.695	-0
195.915	-0
196.135	0
196.355	0
196.575	0
196.795	0
197.015	-0
197.235	-0
197.455	-0
197.675	-0
197.895	-0
198.115	-0
198.335	0
198.555	-0
198.775	0
198.995	0
199.214	0
199.434	-0
199.654	-0
199.874	-0
200.094	0.62
200.313	-0.32
200.533	-0.79
200.753	-1.11
200.973	0.84
201.192	0.28
201.412	-1.13
201.632	-0.65
201.851	0.55
202.071	-0.84
202.291	-0.62
202.51	-0.77
202.73	0.24
202.95	-0.31
203.169	-0.82
203.389	-0.32
203.608	-0.07
203.828	-0.49
204.047	-0.7
204.267	0.38
204.486	0.04
204.706	-0.17
204.925	-0.08
205.145	-0.33
205.364	0.46
205.583	0.22
205.803	-0.35
206.022	-0.53
206.242	-0.26
206.461	-0.09
206.68	-0.27
206.9	-0.19
207.119	0.15
207.338	0.42
207.557	-0.4
207.777	-0.21
207.996	-0.32
208.215	0.25
208.434	-0.4
208.654	-0.52
208.873	0.01
209.092	0.37
209.311	-0.08
209.53	-0.06
209.749	-0.39
209.968	-0.29
210.187	-0.23
210.407	-0.42
210.626	-0.17
210.845	0
211.064	-0.04
211.283	-0.49
211.502	0.15
211.721	0.06
211.94	-0.06
212.159	0.17
212.377	0.21
212.596	0.25
212.815	0.03
213.034	0.01
213.253	0.05
213.472	-0
213.691	-0.53
213.91	-0.06
214.128	-0.03
214.347	0.03
214.566	-0.53
214.785	-0.48
215.003	-0
215.222	-0.09
215.441	-0.2
215.66	-0.16
215.878	-0.15
216.097	0.08
216.316	-0.33
216.534	-0.27
216.753	-0.05
216.972	-0.27
217.19	-0.16
217.409	-0.15
217.627	-0.22
217.846	-0.02
218.064	-0.07
218.283	-0.18
218.501	0.38
218.72	0.15
218.938	-0.31
219.157	-0.09
219.375	0.11
219.594	0.1
219.812	-0.27
220.031	-0.33
220.249	0.11
220.467	0.16
220.686	0.03
220.904	-0.23
221.122	-0.25
221.341	0.36
221.559	-0.14
221.777	-0.34
221.995	-0.11
222.214	0.09
222.432	-0.13
222.65	0.11
222.868	-0.1
223.086	0
223.305	0.11
223.523	-0.11
223.741	0.1
223.959	-0.25
224.177	-0.21
224.395	-0.11
224.613	-0.01
224.831	0.05
225.049	-0.26
225.267	-0.15
225.485	0.06
225.703	-0.08
225.921	-0.13
226.139	-0.16
226.357	-0.01
226.575	-0.01
226.793	-0.15
227.011	0.56
227.229	-0.1
227.447	0.12
227.665	-0.18
227.883	-0.33
228.1	-0.06
228.318	-0.05
228.536	-0.3
228.754	-0.14
228.972	0.18
229.189	0.08
229.407	-0.12
229.625	-0.1
229.843	0.14
230.06	-0.05
230.278	-0.08
230.496	-0.09
230.713	-0.05
230.931	0.05
231.149	-0.04
231.366	-0.17
231.584	-0.14
231.801	0.24
232.019	-0.19
232.236	-0.19
232.454	-0.1
232.671	0.01
232.889	-0.08
233.106	-0.13
233.324	-0.14
233.541	0.01
233.759	-0.08
233.976	-0.12
234.194	-0.13
234.411	-0.09
234.628	-0.06
234.846	-0.15
235.063	-0.04
235.28	-0.13
235.498	-0.07
235.715	-0.11
235.932	0.11
236.149	-0.14
236.367	-0.14
236.584	-0.01
236.801	-0.08
237.018	-0.07
237.236	-0.01
237.453	-0.16
237.67	-0.02
237.887	-0.07
238.104	-0.18
238.321	-0.17
238.538	-0.07
238.755	0.1
238.973	-0.21
239.19	-0.02
239.407	-0.01
239.624	-0.07
239.841	-0.14
240.058	-0.1
240.275	0.02
240.492	-0.01
240.709	-0.06
240.925	-0.1
241.142	-0.03
241.359	-0.11
241.576	-0.13
241.793	-0.08
242.01	-0.01
242.227	-0
242.444	0.07
242.66	0.05
242.877	-0.06
243.094	-0.07
243.311	-0.01
243.527	-0.02
243.744	-0.03
243.961	0.03
244.178	-0.02
244.394	-0.09
244.611	0.01
244.828	0.09
245.044	-0.11
245.261	-0.02
245.477	-0.09
245.694	0.02
245.911	-0.07
246.127	-0.1
246.344	0.03
246.56	-0.08
246.777	-0.06
246.993	-0.07
247.21	-0.01
247.426	0.03
247.643	-0.12
247.859	-0.17
248.076	-0.04
248.292	0.15
248.508	-0.1
248.725	-0.01
248.941	0.06
249.157	-0.03
249.374	-0.17
249.59	0.02
249.806	-0
250.023	-0.04
250.239	-0.09
250.455	-0.15
250.671	0.01
250.888	0.04
251.104	-0.01
251.32	-0.09
251.536	-0.08
251.752	0.02
251.969	-0
252.185	-0.04
252.401	0.15
252.617	0.06
252.833	-0.07
253.049	-0.04
253.265	0.04
253.481	0.03
253.697	-0.08
253.913	-0.07
254.129	-0.01
254.345	-0.05
254.561	-0.13
254.777	-0.04
254.993	-0.04
255.209	-0.06
255.425	-0.08
255.641	-0.12
255.857	0.08
256.073	0.02
256.288	-0.14
256.504	-0.08
256.72	-0.1
256.936	0.14
257.152	0.02
257.367	-0.1
257.583	-0.07
257.799	0.02
258.015	-0.03
258.23	-0.09
258.446	0.09
258.662	-0.04
258.877	-0.03
259.093	-0.03
259.309	-0.02
259.524	-0.02
259.74	-0.08
259.955	-0.12
260.171	-0.07
260.387	-0.04
260.602	0.06
260.818	0.04
261.033	-0.1
261.249	-0.15
261.464	-0.1
261.68	-0.11
261.895	0.02
262.11	0.01
262.326	-0.12
262.541	-0.16
262.757	0.01
262.972	0.07
263.187	0.01
263.403	-0.05
263.618	-0.01
263.833	-0.05
264.049	-0.07
264.264	-0.06
264.479	-0.02
264.694	0.08
264.91	-0.17
265.125	-0.06
265.34	0.05
265.555	0.11
265.77	0.02
265.986	-0.02
266.201	-0.02
266.416	0.11
266.631	-0.07
266.846	-0.01
267.061	0.07
267.276	0.03
267.491	-0.11
267.706	0.02
267.921	0
268.136	0.02
268.351	-0.05
268.566	-0.07
268.781	0.1
268.996	0.01
269.211	0.01
269.426	-0.12
269.641	-0.03
269.856	-0
270.071	-0.11
270.285	-0.08
270.5	0.02
270.715	0.06
270.93	-0.01
271.145	-0.04
271.359	0.07
271.574	-0.1
271.789	-0.03
272.004	-0.07
272.218	-0.07
272.433	0.01
272.648	-0.08
272.862	0.02
273.077	-0
273.292	-0.01
273.506	-0.05
273.721	-0.01
273.936	0.01
274.15	0.03
274.365	-0.06
274.579	-0.01
274.794	-0.01
275.008	0.03
275.223	-0.07
275.437	-0.06
275.652	-0.11
275.866	-0.06
276.081	-0.1
276.295	-0
276.509	-0.04
276.724	-0.05
276.938	-0
277.153	0.04
277.367	0.01
277.581	-0.05
277.796	-0.07
278.01	-0.1
278.224	0.05
278.438	0.11
278.653	-0.07
278.867	-0.09
279.081	-0.25
279.295	-0.02
279.51	0.05
279.724	-0.13
279.938	-0.02
280.152	0.03
280.366	-0.08
280.58	-0.01
280.794	0.07
281.008	-0.02
281.222	0.06
281.437	0.06
281.651	0.04
281.865	0.05
282.079	-0.05
282.293	-0.07
282.507	-0.03
282.721	-0.02
282.935	-0.06
283.148	-0.1
283.362	-0.04
283.576	-0.07
283.79	-0.01
284.004	-0.03
284.218	-0.01
284.432	-0.09
284.646	-0.02
284.859	-0.04
285.073	-0.02
285.287	-0.01
285.501	-0.05
285.714	-0.04
285.928	-0.04
286.142	-0.03
286.356	-0.11
286.569	-0.01
286.783	0.06
286.997	0.04
287.21	0
287.424	-0.02
287.637	-0.03
287.851	0.04
288.065	-0
288.278	-0.04
288.492	-0.01
288.705	-0.05
288.919	0.05
289.132	-0.06
289.346	0.01
289.559	-0.09
289.773	-0.1
289.986	-0.02
290.2	-0.01
290.413	0.04
290.626	-0.06
290.84	-0.05
291.053	-0.01
291.267	0.04
291.48	-0.03
291.693	-0.05
291.906	-0.05
292.12	-0.05
292.333	-0.01
292.546	-0.04
292.76	0.05
292.973	0.02
293.186	0.03
293.399	-0.01
293.612	0.01
293.826	-0.04
294.039	-0.01
294.252	-0.05
294.465	-0.01
294.678	0
294.891	-0
295.104	-0.05
295.317	-0.04
295.53	-0
295.743	-0.01
295.956	-0.03
296.169	0.02
296.382	0.06
296.595	-0.05
296.808	-0.02
297.021	-0
297.234	0.03
297.447	0.02
297.66	-0.03
297.873	0.03
298.086	-0.02
298.299	-0.04
298.511	-0.06
298.724	0
298.937	-0.06
299.15	-0.01
299.363	-0.04
299.575	0
299.788	-0
300.001	-0.03
300.213	-0.08
300.426	-0.03
300.639	-0.06
300.852	-0.04
301.064	0.03
301.277	0.12
301.489	0.01
301.702	0.01
301.915	-0.03
302.127	-0.04
302.34	0.01
302.552	0.02
302.765	-0.05
302.977	0.04
303.19	-0.09
303.402	0
303.615	-0.03
303.827	-0.08
304.04	-0.06
304.252	-0.02
304.464	-0.03
304.677	0.09
304.889	0.06
305.102	-0.06
305.314	-0.08
305.526	0.06
305.739	-0.01
305.951	-0.06
306.163	-0.03
306.375	0.02
306.588	-0.06
306.8	-0.04
307.012	-0.04
307.224	-0.03
307.436	0.01
307.649	-0.09
307.861	-0
308.073	0.01
308.285	-0.02
308.497	-0.06
308.709	-0.02
308.921	0.03
309.133	0.05
309.346	-0.03
309.558	-0.03
309.77	-0.02
309.982	0.04
310.194	0
310.406	-0.05
310.617	0.03
310.829	-0.06
311.041	0.04
311.253	-0.06
311.465	-0.03
311.677	-0.03
311.889	-0.03
312.101	-0.02
312.313	0.02
312.524	0.05
312.736	-0.07
312.948	-0.06
313.16	0.08
313.372	-0.01
313.583	-0.02
313.795	-0.02
314.007	-0.04
314.218	0.01
314.43	-0.01
314.642	-0.02
314.853	-0.07
315.065	0.01
315.277	-0.05
315.488	0.01
315.7	0.06
315.912	-0.01
316.123	-0.04
316.335	0.01
316.546	0.08
316.758	-0.03
316.969	-0.06
317.181	-0.02
317.392	0.01
317.604	0.05
317.815	-0.04
318.026	-0.07
318.238	-0.05
318.449	-0.01
318.661	-0.09
318.872	-0.06
319.083	-0.07
319.295	0.02
319.506	-0.04
319.717	-0
319.929	-0.02
320.14	-0.01
320.351	0
320.562	-0.02
320.774	-0.03
320.985	-0.01
321.196	-0.03
321.407	-0.08
321.618	0.01
321.829	0.01
322.041	0.05
322.252	-0.01
322.463	0
322.674	0.02
322.885	-0.01
323.096	-0.01
323.307	-0.03
323.518	0.04
323.729	-0.06
323.94	-0.03
324.151	-0.01
324.362	-0
324.573	0.01
324.784	-0.04
324.995	0.03
325.206	0
325.417	-0.01
325.628	-0.02
325.838	-0.01
326.049	0.03
326.26	0
326.471	-0.04
326.682	-0.02
326.892	-0.02
327.103	-0.08
327.314	-0.08
327.525	0.04
327.735	-0.02
327.946	-0.03
328.157	-0.04
328.368	-0.01
328.578	-0.03
328.789	0.01
328.999	-0.03
329.21	-0.01
329.421	0
329.631	-0
329.842	-0.06
330.052	-0.03
330.263	0.02
330.473	-0.03
330.684	-0.01
330.894	-0.03
331.105	0.01
331.315	-0.02
331.526	-0.06
331.736	0.07
331.947	-0
332.157	0.02
332.367	-0.03
332.578	0
332.788	0.03
332.999	-0
333.209	-0
333.419	-0.05
333.629	-0.01
333.84	0.01
334.05	-0.02
334.26	0.03
334.47	-0.04
334.681	0.02
334.891	0.01
335.101	0.01
335.311	0.05
335.521	-0.01
335.732	-0.07
335.942	0.05
336.152	0.02
336.362	0.03
336.572	-0.02
336.782	0.02
336.992	-0.08
337.202	-0.02
337.412	-0.06
337.622	0.04
337.832	0.02
338.042	-0.04
338.252	-0.02
338.462	-0.03
338.672	-0.03
338.882	0.01
339.092	-0.01
339.302	0.09
339.511	0.01
339.721	-0.04
339.931	-0.05
340.141	0.01
340.351	0.01
340.561	-0
340.77	0.02
340.98	-0.04
341.19	0.04
341.4	-0.04
341.609	-0.07
341.819	-0.01
342.029	-0.02
342.238	0.01
342.448	-0.04
342.658	0.04
342.867	0.03
343.077	-0.01
343.286	0.01
343.496	-0.06
343.706	0.03
343.915	-0.07
344.125	0
344.334	0.02
344.544	-0.08
344.753	-0.05
344.963	-0.03
345.172	-0
345.381	-0.05
345.591	-0.04
345.8	0.05
346.01	0.06
346.219	0.03
346.428	-0.16
346.638	-0.04
346.847	-0.02
347.056	0.02
347.266	-0.05
347.475	-0.04
347.684	0.06
347.893	0.03
348.103	-0.02
348.312	-0.04
348.521	-0.03
348.73	-0.01
348.94	-0
349.149	-0.01
349.358	-0.03
349.567	-0.04
349.776	-0.07
349.985	-0.04
350.194	0.03
350.403	0.01
350.612	-0.05
350.821	-0.05
351.03	-0.01
351.239	-0.08
351.448	-0.04
351.657	-0.05
351.866	0.04
352.075	-0.05
352.284	0.04
352.493	-0.06
352.702	0.04
352.911	0.01
353.12	-0.02
353.329	-0
353.538	0.01
353.746	-0
353.955	-0.01
354.164	-0.03
354.373	0
354.582	-0.02
354.79	-0.01
354.999	0.01
355.208	-0.04
355.416	0.05
355.625	-0.06
355.834	-0.01
356.042	0.06
356.251	-0.01
356.46	-0.03
356.668	-0
356.877	0.05
357.085	0.01
357.294	-0.08
357.503	0.02
357.711	-0.04
357.92	0.07
358.128	-0.02
358.337	-0.04
358.545	-0.05
358.754	-0.03
358.962	0.02
359.17	-0.03
359.379	0.01
359.587	0.02
359.796	-0.03
360.004	0.03
360.212	0
360.421	0.06
360.629	-0.04
360.837	-0.04
361.046	-0
361.254	0.05
361.462	-0.01
361.67	-0.03
361.879	-0.03
362.087	0.06
362.295	-0.01
362.503	-0.04
362.711	-0.09
362.92	-0.06
363.128	-0.01
363.336	-0.05
363.544	-0.05
363.752	-0.02
363.96	0
364.168	-0.04
364.376	-0.03
364.584	0.01
364.792	0.01
365	0.01
365.208	-0.02
365.416	-0.02
365.624	-0.01
365.832	-0.04
366.04	0.03
366.248	0
366.456	0.01
366.664	0.05
366.872	0.02
367.079	0.01
367.287	-0.02
367.495	0.01
367.703	0.01
367.911	-0.03
368.118	-0.02
368.326	-0.05
368.534	-0.02
368.742	0.07
368.949	-0.03
369.157	-0.05
369.365	0.03
369.572	-0.01
369.78	-0.02
369.988	0.02
370.195	0.02
370.403	-0.01
370.61	-0.04
370.818	-0.01
371.026	0.05
371.233	-0.07
371.441	-0.01
371.648	-0.03
371.856	0
372.063	-0
372.271	-0
372.478	-0.03
372.685	-0.02
372.893	0.01
373.1	-0.03
373.308	-0.01
373.515	0.05
373.722	-0.03
373.93	-0.01
374.137	0.01
374.344	0.07
374.552	0.03
374.759	0.03
374.966	0.03
375.173	-0.02
375.381	0.01
375.588	0.01
375.795	-0.07
376.002	-0.01
376.209	-0.03
376.417	-0.06
376.624	0.01
376.831	-0
377.038	0
377.245	-0.1
377.452	-0.03
377.659	-0.02
377.866	-0.05
378.073	-0.04
378.28	-0.01
378.487	-0.02
378.694	0.01
378.901	0.01
379.108	-0.02
379.315	0.05
379.522	0.06
379.729	-0.02
379.936	-0.01
380.143	-0.03
380.35	-0.01
380.557	-0.03
380.763	0
380.97	-0.03
381.177	-0.02
381.384	0.02
381.591	-0.05
381.797	-0.01
382.004	-0
382.211	0.01
382.418	-0.09
382.624	0.02
382.831	0.02
383.038	-0.05
383.244	-0
383.451	-0.02
383.658	-0.01
383.864	-0.03
384.071	-0.07
384.277	0.03
384.484	-0.05
384.69	0.01
384.897	-0.01
385.103	-0.02
385.31	-0.05
385.516	-0.04
385.723	-0.01
385.929	-0
386.136	-0.06
386.342	-0
386.549	-0
386.755	-0.01
386.961	0.03
387.168	0
387.374	-0.02
387.58	0.01
387.787	-0.01
387.993	0.01
388.199	-0.07
388.406	-0.02
388.612	-0.04
388.818	-0.03
389.024	-0.03
389.231	0.01
389.437	0.06
389.643	0.03
389.849	-0.01
390.055	-0.02
390.261	-0
390.467	0.03
390.674	-0.04
390.88	-0.02
391.086	-0.04
391.292	-0.01
391.498	-0.01
391.704	-0.03
391.91	-0.04
392.116	-0.03
392.322	-0.11
392.528	0.01
392.734	-0.05
392.94	-0.01
393.146	-0.04
393.352	-0.02
393.557	-0.02
393.763	-0.02
393.969	0.02
394.175	-0.02
394.381	0
394.587	-0.06
394.792	-0.04
394.998	0.01
395.204	0.03
395.41	-0.04
395.615	0.02
395.821	-0.03
396.027	-0.01
396.233	-0.06
396.438	-0.02
396.644	0.04
396.85	-0.02
397.055	-0.06
397.261	-0.03
397.466	0.02
397.672	-0.01
397.878	-0.02
398.083	-0.03
398.289	-0.07
398.494	-0.04
398.7	-0
398.905	-0.1
399.111	0.05
399.316	-0.04
399.522	-0.02
399.727	-0.02
399.932	-0.03
400.138	-0.04
400.343	0.02
400.549	0.02
400.754	-0.02
400.959	0.01
401.165	-0.01
401.37	0.02
401.575	0.03
401.78	-0.02
401.986	-0.05
402.191	-0.04
402.396	-0.01
402.601	-0.01
402.807	-0.05
403.012	0.03
403.217	0.03
403.422	-0.01
403.627	-0.01
403.832	-0.04
404.037	-0
404.243	-0.02
404.448	-0.06
404.653	-0.06
404.858	-0.03
405.063	0.02
405.268	-0.01
405.473	-0.04
405.678	-0.03
405.883	0.1
406.088	0.01
406.293	-0.08
406.498	-0.04
406.703	0.03
406.907	0
407.112	-0.05
407.317	-0.01
407.522	0.03
407.727	-0.12
407.932	-0.01
408.136	0.03
408.341	-0.01
408.546	-0
408.751	-0.03
408.956	-0.07
409.16	0.03
409.365	-0.04
409.57	-0.02
409.774	-0.01
409.979	0.01
410.184	0
410.388	-0.03
410.593	0.01
410.798	-0.04
411.002	-0.04
411.207	-0.01
411.411	0.01
411.616	-0.1
411.82	-0.07
412.025	0.03
412.229	-0.05
412.434	0.08
412.638	-0
412.843	-0.02
413.047	0.04
413.252	-0.02
413.456	-0.02
413.66	-0.01
413.865	-0.02
414.069	0.06
414.273	-0.05
414.478	-0.05
414.682	-0.03
414.886	-0.05
415.091	-0.06
415.295	-0.12
415.499	-0.02
415.703	-0.05
415.908	-0.05
416.112	-0.14
416.316	0.02
416.52	-0.04
416.724	-0.06
416.929	-0.07
417.133	0.09
417.337	-0.06
417.541	-0.06
417.745	-0.06
417.949	-0.04
418.153	0
418.357	-0.06
418.561	0.02
418.765	-0.01
418.969	0.04
419.173	0.02
419.377	-0.08
419.581	0.03
419.785	-0.06
419.989	-0.04
420.193	-0.06
420.397	-0.08
420.601	-0.01
420.804	0.03
421.008	-0.01
421.212	-0.01
421.416	0.04
421.62	-0.05
421.823	-0.03
422.027	0.07
422.231	-0
422.435	-0.03
422.638	-0.01
422.842	-0.06
423.046	-0.05
423.249	-0.03
423.453	0.02
423.657	-0
423.86	-0.06
424.064	-0.04
424.268	0.05
424.471	-0.03
424.675	0.04
424.878	0.02
425.082	0.02
425.285	0.03
425.489	-0.02
425.692	-0.01
425.896	-0.04
426.099	0.04
426.303	-0.03
426.506	-0.06
426.71	0.04
426.913	-0
427.116	0.01
427.32	-0.02
427.523	-0.05
427.726	0.07
427.93	-0.04
428.133	-0.07
428.336	-0.09
428.54	-0.05
428.743	-0.01
428.946	-0.02
429.149	-0.05
429.353	0
429.556	-0.07
429.759	-0.03
429.962	-0.05
430.165	-0.02
430.368	-0.04
430.571	-0.02
430.775	-0.01
430.978	-0.01
431.181	0
431.384	0
431.587	-0.01
431.79	-0.01
431.993	-0.02
432.196	0.02
432.399	0.01
432.602	0.08
432.805	-0.01
433.008	-0.03
433.211	-0.08
433.414	-0.01
433.616	0.01
433.819	-0.03
434.022	-0.08
434.225	0.02
434.428	0.03
434.631	0.1
434.833	-0
435.036	-0.03
435.239	0.02
435.442	-0.03
435.645	-0.08
435.847	-0.01
436.05	0.02
436.253	0.02
436.455	-0.06
436.658	-0.02
436.861	0.05
437.063	-0.03
437.266	-0.07
437.468	0
437.671	0.07
437.874	-0.03
438.076	-0.09
438.279	-0.12
438.481	-0.04
438.684	-0.08
438.886	-0.02
439.089	-0.1
439.291	-0.05
439.494	0
439.696	-0.03
439.899	-0.05
440.101	0.01
440.303	-0.1
440.506	0.03
440.708	-0.03
440.91	-0.02
441.113	0.01
441.315	0.01
441.517	-0.09
441.72	0.03
441.922	-0.04
442.124	-0.05
442.326	0.01
442.529	0.08
442.731	-0.04
442.933	0.06
443.135	-0.03
443.337	-0.08
443.539	-0.03
443.742	-0.03
443.944	-0.03
444.146	-0.08
444.348	-0.04
444.55	-0.07
444.752	-0.08
444.954	-0.05
445.156	-0.06
445.358	-0.04
445.56	0.01
445.762	-0.02
445.964	-0.02
446.166	-0.05
446.368	-0.03
446.57	0
446.772	0.05
446.974	-0.06
447.175	-0.03
447.377	0.01
447.579	-0.09
447.781	-0.11
447.983	0.03
448.184	-0.03
448.386	0
448.588	-0.05
448.79	-0.03
448.991	-0.05
449.193	-0.01
449.395	-0.02
449.597	0.03
449.798	0.01
450	-0.02
450.202	-0.02
450.403	0.02
450.605	-0.01
450.806	0.01
451.008	-0.06
451.21	-0.03
451.411	-0.03
451.613	-0.03
451.814	-0.02
452.016	0
452.217	-0.04
452.419	0.04
452.62	-0.03
452.821	0.03
453.023	0.03
453.224	-0
453.426	-0.07
453.627	0
453.828	-0
454.03	-0.04
454.231	-0.03
454.432	-0.07
454.634	0.04
454.835	-0.08
455.036	-0.06
455.238	0.01
455.439	0.09
455.64	-0.03
455.841	-0.03
456.042	0.05
456.244	-0.01
456.445	-0.06
456.646	-0.08
456.847	-0.04
457.048	0.03
457.249	0.01
457.45	0.14
457.651	-0.08
457.852	0.04
458.054	-0.02
458.255	-0.01
458.456	0.01
458.657	0
458.858	-0.07
459.058	0.02
459.259	0.02
459.46	-0.01
459.661	-0.02
459.862	0.1
460.063	-0.03
460.264	0.04
460.465	-0.12
460.666	0.06
460.866	-0.04
461.067	-0.04
461.268	-0.01
461.469	-0.01
461.67	-0.01
461.87	0.02
462.071	-0.02
462.272	-0.01
462.473	0.01
462.673	0.02
462.874	-0.05
463.075	-0.02
463.275	-0.12
463.476	0
463.676	0.04
463.877	-0.01
464.078	-0.04
464.278	0.03
464.479	-0.12
464.679	0.01
464.88	-0.05
465.08	0.05
465.281	-0.02
465.481	-0.02
465.682	-0.01
465.882	-0.01
466.083	-0.01
466.283	-0.02
466.483	-0.01
466.684	-0.1
466.884	-0.05
467.085	-0
467.285	0.05
467.485	-0.04
467.686	-0.05
467.886	-0.07
468.086	-0.03
468.286	-0.01
468.487	-0.01
468.687	-0.02
468.887	-0.06
469.087	0.03
469.287	-0.01
469.488	-0.12
469.688	-0.01
469.888	-0.01
470.088	0.02
470.288	0.04
470.488	0.01
470.688	-0.06
470.888	-0.04
471.088	-0.05
471.288	0.01
471.488	0.03
471.688	0.01
471.888	-0.05
472.088	0.03
472.288	-0
472.488	-0.07
472.688	-0.02
472.888	0.02
473.088	-0.02
473.288	-0.03
473.488	0.01
473.688	0.07
473.887	-0.03
474.087	-0.04
474.287	-0
474.487	-0.05
474.687	0.01
474.886	-0.05
475.086	-0.06
475.286	-0.03
475.486	-0.02
475.685	-0.03
475.885	-0.01
476.085	-0.03
476.284	0.01
476.484	-0.02
476.684	-0.01
476.883	0.04
477.083	-0.01
477.282	-0.06
477.482	0
477.681	0.02
477.881	-0.01
478.08	-0.04
478.28	-0.02
478.479	0.03
478.679	0.04
478.878	-0.04
479.078	-0.04
479.277	-0.04
479.477	-0.02
479.676	0.02
479.875	-0.02
480.075	-0.06
480.274	-0.01
480.473	0.02
480.673	-0.03
480.872	0.01
481.071	-0.01
481.271	0.01
481.47	-0.02
481.669	-0.02
481.868	-0.04
482.067	-0.05
482.267	-0.03
482.466	-0.04
482.665	-0.05
482.864	-0.05
483.063	-0.05
483.262	0.01
483.461	0.03
483.661	0.01
483.86	-0.03
484.059	0
484.258	0.02
484.457	-0.02
484.656	-0.05
484.855	0.04
485.054	-0.04
485.253	-0.03
485.452	-0.03
485.651	-0.02
485.849	0
486.048	-0.04
486.247	-0.05
486.446	0
486.645	-0.05
486.844	-0.04
487.043	-0.04
487.241	0
487.44	-0.01
487.639	-0.01
487.838	-0
488.037	0
488.235	0.02
488.434	0
488.633	-0.03
488.831	0
489.03	0.01
489.229	0.01
489.427	0
489.626	0.04
489.825	0.03
490.023	-0.02
490.222	-0.01
490.42	0.02
490.619	0.01
490.817	0.01
491.016	-0.03
491.214	0.02
491.413	-0.02
491.611	-0.04
491.81	-0.01
492.008	-0.01
492.207	0.01
492.405	-0.02
492.604	-0.04
492.802	-0
493	-0.02
493.199	-0.03
493.397	-0
493.595	-0.01
493.794	-0.01
493.992	0.03
494.19	-0.01
494.388	-0.01
494.587	-0
494.785	-0.02
494.983	-0.05
495.181	-0.04
495.379	-0
495.578	-0.02
495.776	0.02
495.974	-0
496.172	-0.02
496.37	-0.03
496.568	-0.03
496.766	-0.01
496.964	0.02
497.162	-0
497.36	-0.01
497.558	-0.01
497.756	0.01
497.954	-0.01
498.152	-0.03
498.35	0.02
498.548	-0.04
498.746	0
498.944	-0.02
499.142	-0
499.34	-0.04
499.538	0.02
499.736	-0.02
499.933	0.02
500.131	0.04
500.329	-0.01
500.527	0.01
500.725	0.02
500.922	0.02
501.12	0
501.318	-0.01
501.516	-0.04
501.713	-0.01
501.911	-0.03
502.109	-0.01
502.306	0.01
502.504	-0.01
502.701	-0.03
502.899	-0.02
503.097	0.01
503.294	0.01
503.492	-0.02
503.689	0.01
503.887	0.01
504.084	0.03
504.282	-0.01
504.479	-0.03
504.677	-0.03
504.874	-0.03
505.072	-0.01
505.269	-0.01
505.466	-0.02
505.664	-0
505.861	-0.04
506.059	-0.06
506.256	0.01
506.453	-0.02
506.651	0.01
506.848	0.02
507.045	0.01
507.242	0
507.44	-0.02
507.637	0.01
507.834	-0.01
508.031	0.02
508.229	-0.04
508.426	0
508.623	0.02
508.82	-0.01
509.017	-0.02
509.214	-0.04
509.411	-0.01
509.608	-0.02
509.805	-0.01
510.003	-0.03
510.2	-0.02
510.397	0.01
510.594	-0.02
510.791	-0.01
510.988	0
511.184	0.01
511.381	-0
511.578	-0.03
511.775	0.02
511.972	-0.03
512.169	-0.02
512.366	-0.01
512.563	0.01
512.76	-0.03
512.956	-0.01
513.153	-0.03
513.35	-0.01
513.547	-0.03
513.744	-0.03
513.94	-0.05
514.137	0
514.334	0
514.53	0.01
514.727	0.01
514.924	0.05
515.12	-0.04
515.317	-0.04
515.514	-0.03
515.71	-0.03
515.907	-0.03
516.103	0
516.3	-0.02
516.497	0.02
516.693	0
516.89	-0.01
517.086	-0.02
517.283	0.05
517.479	0.01
517.676	-0.01
517.872	-0.02
518.068	-0.02
518.265	-0.02
518.461	-0.01
518.658	-0.05
518.854	-0
519.05	-0.02
519.247	-0.02
519.443	0.01
519.639	-0
519.836	-0.01
520.032	-0.01
520.228	-0.02
520.424	0.02
520.621	0.01
520.817	-0.02
521.013	0.01
521.209	-0.01
521.405	0.02
521.601	-0
521.798	0
521.994	0.01
522.19	-0.04
522.386	-0.04
522.582	-0.01
522.778	-0.01
522.974	-0.01
523.17	-0.02
523.366	-0.03
523.562	0.01
523.758	-0
523.954	-0.03
524.15	-0.02
524.346	-0.01
524.542	-0.03
524.738	-0.01
524.934	-0.02
525.129	-0.08
525.325	0
525.521	-0.01
525.717	0.01
525.913	-0.01
526.109	-0
526.304	0
526.5	-0.01
526.696	0.02
526.892	-0
527.087	0
527.283	-0.02
527.479	0.01
527.674	-0.01
527.87	-0.01
528.066	-0.02
528.261	-0
528.457	-0.01
528.653	0.01
528.848	-0.02
529.044	-0.01
529.239	-0.02
529.435	0.03
529.63	0.01
529.826	0.03
530.021	-0
530.217	0
530.412	-0.01
530.608	-0.02
530.803	-0.01
530.999	0
531.194	-0.05
531.389	0
531.585	-0.06
531.78	-0.01
531.975	-0.01
532.171	0.02
532.366	-0.03
532.561	-0.01
532.757	-0.03
532.952	-0.03
533.147	-0.02
533.342	-0
533.538	-0.02
533.733	0.01
533.928	0
534.123	-0.02
534.318	-0.04
534.513	0.01
534.709	-0
534.904	-0.02
535.099	-0.03
535.294	0
535.489	0.01
535.684	-0.02
535.879	-0.02
536.074	-0
536.269	-0.02
536.464	0.02
536.659	-0.02
536.854	-0.02
537.049	-0.01
537.244	0
537.439	-0.03
537.634	0.01
537.828	-0.01
538.023	-0.01
538.218	-0.04
538.413	0.01
538.608	-0.05
538.803	-0.01
538.997	-0.04
539.192	0.02
539.387	0.01
539.582	-0.01
539.776	-0.02
539.971	-0.02
540.166	-0.03
540.36	-0.05
540.555	-0.02
540.75	-0.02
540.944	-0.01
541.139	-0.04
541.334	-0.03
541.528	0
541.723	0.02
541.917	-0.02
542.112	-0.05
542.306	-0.01
542.501	-0.01
542.695	-0.01
542.89	-0.02
543.084	0.01
543.279	-0.01
543.473	-0.01
543.668	-0.01
543.862	-0.03
544.056	0
544.251	-0.01
544.445	-0.01
544.64	-0.02
544.834	-0.03
545.028	-0.02
545.222	-0.01
545.417	-0.01
545.611	-0.01
545.805	-0.02
546	-0.03
546.194	-0.02
546.388	-0.02
546.582	-0
546.776	-0
546.97	-0.02
547.165	0.01
547.359	0.01
547.553	-0.04
547.747	-0.03
547.941	-0
548.135	-0
548.329	0
548.523	-0
548.717	-0
548.911	-0.01
549.105	-0.01
549.299	-0.01
549.493	0
549.687	-0.01
549.881	0.01
550.075	-0.02
550.269	-0.03
550.463	-0
550.657	-0.02
550.85	-0.03
551.044	-0.04
551.238	-0
551.432	-0.04
551.626	-0.04
551.82	0
552.013	-0.02
552.207	0.01
552.401	0.02
552.594	-0.03
552.788	-0.02
552.982	-0.01
553.176	-0.03
553.369	0.02
553.563	-0.02
553.756	-0.05
553.95	-0.03
554.144	-0.01
554.337	0.01
554.531	-0.03
554.724	-0.01
554.918	-0.02
555.111	0.01
555.305	0
555.498	0.02
555.692	0.02
555.885	-0.04
556.079	0
556.272	-0.02
556.466	0.02
556.659	-0.01
556.852	-0.01
557.046	0.01
557.239	0.01
557.432	-0.04
557.626	-0.03
557.819	-0.01
558.012	0
558.206	-0.01
558.399	0.02
558.592	0.01
558.785	-0.01
558.979	0
559.172	-0.01
559.365	0
559.558	0
559.751	-0.01
559.944	0.02
560.138	-0.02
560.331	-0.01
560.524	-0.02
560.717	-0.01
560.91	-0.02
561.103	-0.01
561.296	0
561.489	-0.01
561.682	-0.01
561.875	0.03
562.068	-0.01
562.261	0
562.454	0.02
562.647	-0.02
562.84	0.01
563.032	-0.01
563.225	0.02
563.418	-0.01
563.611	-0.03
563.804	-0.02
563.997	-0.04
564.19	-0.03
564.382	-0.08
564.575	-0.01
564.768	0.01
564.961	-0.02
565.153	-0.02
565.346	0.01
565.539	0.01
565.731	0.03
565.924	-0
566.117	0.01
566.309	-0.01
566.502	-0.02
566.695	-0.02
566.887	-0.01
567.08	-0.03
567.272	-0.03
567.465	-0.01
567.657	-0.01
567.85	-0.02
568.042	-0.01
568.235	0.02
568.427	-0.02
568.62	-0.02
568.812	-0.01
569.005	-0.02
569.197	-0.03
569.389	-0.02
569.582	-0
569.774	-0.02
569.966	-0.04
570.159	-0.04
570.351	-0
570.543	-0.03
570.736	-0.02
570.928	-0.03
571.12	0
571.312	-0.02
571.505	-0.04
571.697	0.02
571.889	-0.05
572.081	-0.01
572.273	-0.03
572.465	0.02
572.658	-0.01
572.85	-0.02
573.042	-0.01
573.234	-0.01
573.426	0.04
573.618	-0.03
573.81	0.02
574.002	0.02
574.194	0.02
574.386	-0.04
574.578	-0.07
574.77	-0.05
574.962	0
575.154	-0.04
575.346	-0
575.538	-0.01
575.729	-0.02
575.921	-0.01
576.113	-0.03
576.305	0
576.497	-0.03
576.689	-0.02
576.88	-0.01
577.072	-0.02
577.264	-0.03
577.456	0
577.647	-0.05
577.839	-0.02
578.031	0.02
578.223	-0.03
578.414	-0.04
578.606	0.02
578.798	-0.01
578.989	-0.03
579.181	-0.01
579.372	-0.02
579.564	-0.02
579.755	-0
579.947	-0.02
580.139	0.03
580.33	-0.08
580.522	-0.04
580.713	-0.09
580.905	0.01
581.096	-0
581.287	-0.02
581.479	-0.01
581.67	0
581.862	-0.02
582.053	-0.02
582.244	-0.05
582.436	-0.04
582.627	-0.02
582.818	-0.03
583.01	-0.04
583.201	0.01
583.392	0.02
583.583	-0
583.775	-0.03
583.966	-0.03
584.157	-0.03
584.348	-0.02
584.54	-0.06
584.731	-0
584.922	0
585.113	-0.03
585.304	0.01
585.495	0.01
585.686	-0.01
585.877	0.02
586.068	-0.02
586.259	0.01
586.45	-0.01
586.641	-0.03
586.832	-0.08
587.023	-0.02
587.214	-0.03
587.405	-0.01
587.596	-0.03
587.787	0.01
587.978	-0
588.169	-0.02
588.36	-0.01
588.551	0
588.742	-0.03
588.932	-0.02
589.123	0
589.314	0.02
589.505	0.02
589.696	0.01
589.886	-0.02
590.077	-0.05
590.268	-0.01
590.458	-0.03
590.649	-0.08
590.84	-0.01
591.03	-0.02
591.221	-0.05
591.412	-0.03
591.602	0
591.793	0.01
591.984	-0.07
592.174	-0.01
592.365	0.05
592.555	-0.03
592.746	0.01
592.936	0.01
593.127	0.02
593.317	0.04
593.508	-0.03
593.698	-0.02
593.889	0.02
594.079	0.01
594.269	-0.03
594.46	-0.01
594.65	-0.01
594.84	-0.01
595.031	-0.05
595.221	-0.01
595.411	-0.04
595.602	0.04
595.792	-0.02
595.982	-0.03
596.172	0.03
596.363	0
596.553	-0.01
596.743	-0.01
596.933	-0.02
597.123	0.01
597.314	-0.03
597.504	-0.04
597.694	-0
597.884	-0.02
598.074	-0
598.264	-0.06
598.454	-0.01
598.644	-0.02
598.834	-0.01
599.024	-0.06
599.214	-0.03
599.404	0.01
599.594	-0.03
599.784	-0.03
599.974	0.04
600.164	0.02
600.354	-0.04
600.544	-0.06
600.734	0
600.924	0.02
601.114	-0.03
601.303	-0.01
601.493	-0.01
601.683	-0.01
601.873	-0.03
602.063	-0.05
602.252	0.02
602.442	-0.05
602.632	-0.02
602.821	-0.05
603.011	-0
603.201	-0.02
603.39	-0.04
603.58	-0.01
603.77	-0
603.959	0.03
604.149	-0.02
604.339	-0.03
604.528	0.03
604.718	0.01
604.907	-0.01
605.097	-0.04
605.286	-0.07
605.476	-0.01
605.665	0.01
605.855	-0.03
606.044	0.04
606.234	0
606.423	-0.01
606.612	-0.04
606.802	-0.02
606.991	-0
607.181	0
607.37	-0.05
607.559	-0.01
607.749	-0.03
607.938	-0.02
608.127	-0.02
608.316	-0.04
608.506	-0.04
608.695	-0
608.884	-0.03
609.073	-0.01
609.263	0.03
609.452	0.01
609.641	-0.01
609.83	-0.02
610.019	-0.03
610.208	-0.02
610.397	0
610.586	0.01
610.775	-0.04
610.965	-0
611.154	-0.01
611.343	-0.01
611.532	-0.02
611.721	-0.03
611.91	-0.03
612.099	0
612.287	-0.02
612.476	-0.05
612.665	-0
612.854	-0.05
613.043	0.04
613.232	0.02
613.421	-0.03
613.61	0.01
613.798	-0
613.987	0
614.176	-0.02
614.365	0.01
614.554	-0
614.742	0.03
614.931	-0.03
615.12	0.02
615.309	-0.03
615.497	0.02
615.686	-0.03
615.875	-0.01
616.063	0.01
616.252	-0.02
616.44	-0.01
616.629	-0.01
616.818	0.01
617.006	-0.01
617.195	-0.03
617.383	-0.01
617.572	-0
617.76	-0.02
617.949	0
618.137	0.01
618.326	0.02
618.514	-0.04
618.703	-0.03
618.891	0.05
619.079	-0.07
619.268	0
619.456	-0
619.644	0.03
619.833	0.02
620.021	-0.04
620.209	-0.04
620.398	0.05
620.586	-0.02
620.774	0.03
620.962	-0.01
621.151	0.02
621.339	0
621.527	-0.05
621.715	-0.04
621.903	-0.03
622.092	-0.06
622.28	-0.01
622.468	-0.01
622.656	0
622.844	0.02
623.032	-0.02
623.22	-0.04
623.408	0.01
623.596	-0
623.784	0.02
623.972	-0.02
624.16	0
624.348	0.03
624.536	-0.01
624.724	-0.02
624.912	0.04
625.1	0.03
625.288	-0.02
625.476	-0.03
625.664	0.01
625.851	-0.01
626.039	-0.01
626.227	0.02
626.415	-0.02
626.603	-0.04
626.79	0
626.978	0.02
627.166	0.03
627.354	0.02
627.541	-0.03
627.729	-0.06
627.917	0.03
628.104	0
628.292	0.01
628.48	-0
628.667	0.03
628.855	0.02
629.042	0.01
629.23	0.01
629.418	-0
629.605	-0.01
629.793	0.02
629.98	-0.01
630.168	0.01
630.355	0.01
630.543	0.03
630.73	-0.01
630.917	0.06
631.105	0.08
631.292	-0.03
631.48	0.03
631.667	0.09
631.854	0.04
632.042	0.03
632.229	-0.01
632.416	0.04
632.604	0.01
632.791	-0
632.978	0.05
633.165	0.05
633.353	0.07
633.54	0.05
633.727	-0
633.914	-0
634.101	-0.05
634.289	0.05
634.476	0.01
634.663	-0
634.85	0.03
635.037	-0.05
635.224	-0.04
635.411	0.06
635.598	0.06
635.785	0.01
635.972	0.04
636.159	0.04
636.346	0.03
636.533	0.05
636.72	0.03
636.907	-0
637.094	0.06
637.281	0.05
637.468	0.05
637.655	0.05
637.842	0.02
638.029	0.02
638.215	0.09
638.402	0.03
638.589	0.01
638.776	0.02
638.963	0.02
639.149	0.06
639.336	0.09
639.523	0.02
639.709	0.04
639.896	0.06
640.083	0.09
640.27	0.07
640.456	0.04
640.643	0.06
640.829	0.02
641.016	0.06
641.203	-0
641.389	0.1
641.576	0.08
641.762	0.08
641.949	0.04
642.135	0.08
642.322	0.05
642.508	0.02
642.695	0.06
642.881	0.06
643.068	0.05
643.254	0.05
643.441	0.12
643.627	0.06
643.813	0.06
644	0.12
644.186	0.04
644.372	0.09
644.559	0.11
644.745	0.09
644.931	0.07
645.118	0.1
645.304	0.08
645.49	0.07
645.676	0.07
645.862	0.12
646.049	0.18
646.235	0.1
646.421	0.19
646.607	0.17
646.793	0.11
646.979	0.08
647.165	0.12
647.352	0.14
647.538	0.15
647.724	0.13
647.91	0.1
648.096	0.16
648.282	0.17
648.468	0.15
648.654	0.18
648.84	0.11
649.026	0.15
649.212	0.18
649.397	0.11
649.583	0.11
649.769	0.18
649.955	0.15
650.141	0.2
650.327	0.22
650.513	0.15
650.698	0.19
650.884	0.12
651.07	0.22
651.256	0.18
651.442	0.17
651.627	0.18
651.813	0.23
651.999	0.2
652.184	0.23
652.37	0.22
652.556	0.21
652.741	0.25
652.927	0.18
653.113	0.23
653.298	0.24
653.484	0.22
653.669	0.2
653.855	0.23
654.04	0.27
654.226	0.25
654.412	0.22
654.597	0.21
654.782	0.24
654.968	0.27
655.153	0.22
655.339	0.23
655.524	0.26
655.71	0.26
655.895	0.28
656.08	0.3
656.266	0.33
656.451	0.28
656.636	0.26
656.822	0.29
657.007	0.22
657.192	0.27
657.378	0.25
657.563	0.3
657.748	0.3
657.933	0.3
658.118	0.28
658.304	0.29
658.489	0.32
658.674	0.27
658.859	0.29
659.044	0.28
659.229	0.31
659.414	0.24
659.599	0.27
659.785	0.25
659.97	0.27
660.155	0.29
660.34	0.26
660.525	0.24
660.71	0.22
660.895	0.28
661.08	0.24
661.264	0.21
661.449	0.25
661.634	0.25
661.819	0.23
662.004	0.23
662.189	0.15
662.374	0.17
662.559	0.12
662.743	0.12
662.928	0.12
663.113	0.11
663.298	0.09
663.483	0.1
663.667	0.13
663.852	0.09
664.037	0.19
664.221	0.13
664.406	0.15
664.591	0.16
664.775	0.13
664.96	0.12
665.145	0.09
665.329	0.07
665.514	0.08
665.698	0.09
665.883	0.03
666.068	0.11
666.252	0.1
666.437	0.02
666.621	0.08
666.806	0.08
666.99	0.04
667.174	0.01
667.359	0.1
667.543	0.04
667.728	-0
667.912	-0.04
668.096	0.08
668.281	-0.02
668.465	0.02
668.649	-0
668.834	-0.02
669.018	0.01
669.202	0.03
669.387	-0.02
669.571	0.07
669.755	-0
669.939	0.02
670.124	0.02
670.308	0.07
670.492	0.06
670.676	0.05
670.86	0.01
671.044	-0.01
671.228	0.03
671.413	-0.03
671.597	0
671.781	0.01
671.965	0.05
672.149	-0
672.333	-0.04
672.517	-0.02
672.701	-0.01
672.885	0.01
673.069	-0.04
673.253	0.01
673.437	0.03
673.621	-0.08
673.804	0
673.988	0.03
674.172	-0.03
674.356	-0.07
674.54	-0.02
674.724	0.07
674.908	-0.01
675.091	0.02
675.275	-0.03
675.459	0.02
675.643	0.04
675.826	0.01
676.01	0.03
676.194	-0.05
676.377	0.02
676.561	0
676.745	0.01
676.928	0.02
677.112	0.04
677.296	-0.03
677.479	-0.07
677.663	-0.06
677.846	0.01
678.03	-0.05
678.213	-0.05
678.397	-0
678.58	-0.01
678.764	0.01
678.947	-0.02
679.131	-0.05
679.314	0.03
679.498	0.01
679.681	-0.01
679.865	0.05
680.048	-0.03
680.231	0
680.415	0.01
680.598	-0.08
680.781	-0.03
680.965	-0.02
681.148	0.01
681.331	-0.02
681.514	0.02
681.698	-0.03
681.881	0.01
682.064	-0.04
682.247	-0.07
682.43	-0.07
682.614	-0.01
682.797	0.04
682.98	-0.02
683.163	-0.06
683.346	-0.02
683.529	-0.02
683.712	-0.07
683.895	-0.02
684.078	-0.09
684.261	-0.03
684.444	-0.04
684.627	-0
684.81	-0.06
684.993	-0.01
685.176	0.03
685.359	-0.05
685.542	-0.02
685.725	0.03
685.908	-0.02
686.091	-0.03
686.274	0.01
686.457	-0.01
686.639	-0.05
686.822	0.02
687.005	-0.02
687.188	-0.01
687.371	0.11
687.553	0.05
687.736	0.01
687.919	0.06
688.102	0.03
688.284	-0.04
688.467	0.01
688.65	-0.05
688.832	-0.04
689.015	0
689.197	-0.08
689.38	0.04
689.563	-0
689.745	-0.05
689.928	-0.05
690.11	0.01
690.293	0
690.475	-0.09
690.658	-0.03
690.84	0.04
691.023	-0
691.205	-0.05
691.388	-0.03
691.57	0.01
691.752	-0.01
691.935	-0.08
692.117	-0.05
692.3	0.04
692.482	-0.05
692.664	-0.04
692.847	0.02
693.029	0.03
693.211	0.01
693.393	-0.04
693.576	-0.02
693.758	0.01
693.94	-0.1
694.122	-0.08
694.304	-0.03
694.487	-0.03
694.669	0.02
694.851	-0.1
695.033	-0.02
695.215	-0.02
695.397	-0.04
695.579	-0.03
695.761	-0.08
695.943	-0.08
696.125	0.09
696.308	0.02
696.49	-0.12
696.671	0.06
696.853	-0.08
697.035	0.08
697.217	-0.01
697.399	0.04
697.581	-0.07
697.763	-0
697.945	-0.06
698.127	0.02
698.309	0.08
698.491	0.03
698.672	0.02
698.854	0.06
699.036	0.07
699.218	-0.05
699.399	0.04
699.581	-0.02
699.763	0
699.945	-0.05
700.126	-0
700.308	-0.02
700.49	-0.04
700.671	-0.12
700.853	-0.09
701.035	-0.06
701.216	0
701.398	-0.02
701.579	-0.03
701.761	-0.01
701.943	-0.06
702.124	-0.06
702.306	-0.05
702.487	0.13
702.669	0
702.85	-0.03
703.031	-0.11
703.213	0.06
703.394	0.04
703.576	-0.06
703.757	0.04
703.938	0.04
704.12	0.11
704.301	0.04
704.483	-0.06
704.664	-0
704.845	0.07
705.026	0.02
705.208	-0.01
705.389	0
705.57	-0.01
705.751	-0.04
705.933	-0.02
706.114	0.05
706.295	0.01
706.476	-0.1
706.657	0.05
706.838	-0.03
707.02	0.07
707.201	-0.07
707.382	-0.09
707.563	-0.02
707.744	0
707.925	-0.05
708.106	-0.11
708.287	0.03
708.468	0.04
708.649	-0.01
708.83	-0.02
709.011	-0.08
709.192	-0.02
709.373	-0.15
709.554	-0.02
709.734	0.02
709.915	0.01
710.096	-0.06
710.277	-0.13
710.458	-0.01
710.639	0.01
710.819	-0.13
711	-0.02
711.181	0.05
711.362	0.03
711.542	-0.07
711.723	-0.09
711.904	-0.01
712.085	0.06
712.265	-0.02
712.446	-0.08
712.627	-0.04
712.807	-0.04
712.988	-0.11
713.168	-0.07
713.349	0.03
713.53	-0.21
713.71	-0.04
713.891	-0.07
714.071	-0.03
714.252	-0.09
714.432	-0.06
714.613	-0.13
714.793	-0.05
714.974	0.02
715.154	0.02
715.334	0.02
715.515	0.08
715.695	-0.14
715.876	-0.09
716.056	-0.04
716.236	-0.03
716.417	-0.04
716.597	-0.08
716.777	0.13
716.957	-0.09
717.138	0.01
717.318	-0.06
717.498	-0.11
717.678	0.02
717.859	0.08
718.039	-0.08
718.219	-0.01
718.399	0.06
718.579	-0.13
718.759	-0.1
718.939	0.01
719.12	-0.04
719.3	-0.02
719.48	-0.23
719.66	-0.13
719.84	0.06
720.02	-0.02
720.2	-0.06
720.38	0.02
720.56	0.03
720.74	-0.04
720.92	0.02
721.1	0.03
721.279	0.03
721.459	0.04
721.639	-0.17
721.819	-0.04
721.999	-0.01
722.179	-0.04
722.359	-0.13
722.538	-0.09
722.718	0
722.898	-0.06
723.078	-0.07
723.257	-0.04
723.437	0.04
723.617	-0.03
723.797	-0.03
723.976	-0.06
724.156	-0.06
724.336	0.07
724.515	0.1
724.695	-0.13
724.874	-0.01
725.054	0.08
725.234	-0.03
725.413	-0.01
725.593	0.01
725.772	-0.02
725.952	-0.08
726.131	-0.03
726.311	-0.03
726.49	-0.04
726.67	-0.12
726.849	-0.04
727.028	-0.04
727.208	-0.04
727.387	-0.04
727.567	-0.14
727.746	-0.09
727.925	-0.1
728.105	-0.12
728.284	-0.09
728.463	-0.05
728.643	-0.03
728.822	-0.17
729.001	-0.03
729.18	0.06
729.359	0.04
729.539	-0.07
729.718	0.02
729.897	0.03
730.076	-0.15
730.255	-0.14
730.434	0.08
730.614	0.06
730.793	-0.02
730.972	-0.05
731.151	0.03
731.33	0.01
731.509	0.03
731.688	-0.02
731.867	-0.04
732.046	-0.16
732.225	0.1
732.404	-0.06
732.583	-0.11
732.762	-0.06
732.941	-0.02
733.12	0.01
733.298	-0.08
733.477	0
733.656	-0.01
733.835	-0.13
734.014	0.09
734.193	0.04
734.371	0.06
734.55	-0.05
734.729	-0.25
734.908	-0.01
735.086	0.01
735.265	0.01
735.444	-0.2
735.623	-0.18
735.801	-0.12
735.98	-0.01
736.159	-0.03
736.337	-0.01
736.516	-0.06
736.694	0.07
736.873	-0.07
737.052	-0.03
737.23	0.07
737.409	-0.09
737.587	0.09
737.766	-0.13
737.944	-0.13
738.123	-0.12
738.301	0.06
738.479	-0.1
738.658	0.03
738.836	-0.17
739.015	0.05
739.193	0.04
739.371	-0.12
739.55	0
739.728	-0.05
739.906	0.01
740.085	0.1
740.263	-0.11
740.441	-0.21
740.62	0.17
740.798	0.03
740.976	-0.15
741.154	-0.14
741.332	-0.07
741.511	-0.05
741.689	0.01
741.867	0.03
742.045	0.02
742.223	0.01
742.401	-0.17
742.579	-0.13
742.757	-0
742.935	-0.19
743.114	-0
743.292	-0.04
743.47	-0.01
743.648	-0.02
743.826	-0.11
744.004	-0.05
744.181	-0.03
744.359	-0.07
744.537	-0.05
744.715	-0.14
744.893	0
745.071	0
745.249	-0.08
745.427	-0.05
745.605	-0.05
745.782	-0.01
745.96	0.03
746.138	-0.06
746.316	-0.04
746.493	-0.08
746.671	0.07
746.849	0.03
747.027	0.05
747.204	-0.2
747.382	0.03
747.56	-0.1
747.737	-0
747.915	-0.07
748.093	0.06
748.27	-0.08
748.448	-0.14
748.625	-0.12
748.803	-0.11
748.98	-0.06
749.158	-0.09
749.335	0.02
749.513	-0.02
749.69	-0.07
749.868	-0.1
750.045	-0.01
750.223	-0.15
750.4	-0.23
750.578	0.18
750.755	0.01
750.932	-0.12
751.11	0.1
751.287	-0.15
751.464	0.09
751.642	-0.08
751.819	-0.08
751.996	-0.09
752.173	-0.07
752.351	-0.08
752.528	-0.14
752.705	-0.04
752.882	-0.14
753.06	0.06
753.237	0.07
753.414	0.11
753.591	0.12
753.768	-0.2
753.945	-0.05
754.122	-0.06
754.299	0.05
754.476	-0.13
754.654	-0.05
754.831	-0.01
755.008	-0.01
755.185	-0.1
755.362	-0.11
755.539	-0.06
755.716	-0.16
755.892	-0.08
756.069	-0.14
756.246	-0.09
756.423	-0.03
756.6	0.1
756.777	-0.07
756.954	0.1
757.131	0
757.307	-0.13
757.484	-0.12
757.661	-0.11
757.838	0.04
758.015	-0.09
758.191	0.09
758.368	-0.04
758.545	0.06
758.721	0.05
758.898	-0.11
759.075	-0.07
759.251	0.11
759.428	0.04
759.605	-0.22
759.781	0.04
759.958	0.02
760.134	0.04
760.311	-0.07
760.488	0.08
760.664	-0.05
760.841	-0.03
761.017	-0.14
761.194	0.07
761.37	0.14
761.547	-0.03
761.723	0.03
761.899	0.15
762.076	-0.04
762.252	-0.13
762.429	-0.08
762.605	-0.01
762.781	0.01
762.958	0.05
763.134	-0.16
763.31	-0.11
763.486	0.01
763.663	-0.17
763.839	-0.02
764.015	-0.16
764.191	-0.03
764.368	-0.09
764.544	-0.08
764.72	-0.07
764.896	0.06
765.072	-0.02
765.248	-0.07
765.425	0.01
765.601	-0.07
765.777	-0.01
765.953	-0.16
766.129	-0.03
766.305	-0.21
766.481	-0.03
766.657	0.09
766.833	0.09
767.009	-0.21
767.185	-0.23
767.361	-0.12
767.537	-0.22
767.713	0.17
767.889	-0.06
768.065	0.05
768.24	-0.3
768.416	-0.06
768.592	-0.12
768.768	-0.07
768.944	-0.02
769.12	-0.13
769.295	-0.18
769.471	0.06
769.647	-0.05
769.823	0.08
769.998	-0.1
770.174	-0.24
770.35	0.23
770.525	0.14
770.701	-0.07
770.877	-0
771.052	-0.09
771.228	0.1
771.403	0.07
771.579	-0.02
771.755	0.24
771.93	-0.21
772.106	-0.08
772.281	-0.31
772.457	-0.07
772.632	0.03
772.808	-0.05
772.983	-0.05
773.159	-0.15
773.334	-0.02
773.509	-0.14
773.685	-0.15
773.86	0.21
774.036	0.19
774.211	-0.13
774.386	0.11
774.562	-0.04
774.737	-0.04
774.912	-0.17
775.087	0
775.263	-0.06
775.438	-0.02
775.613	-0.14
775.788	-0.07
775.964	0.11
776.139	0.39
776.314	-0.12
776.489	0.1
776.664	-0.01
776.839	-0.01
777.014	0.03
777.19	0.1
777.365	0.22
777.54	0.09
777.715	-0.03
777.89	-0.03
778.065	-0.18
778.24	-0.01
778.415	0.06
778.59	-0.16
778.765	0.06
778.94	0.03
779.115	-0.1
779.289	-0.04
779.464	-0.16
779.639	-0.21
779.814	-0.28
779.989	-0.28
780.164	0.25
780.339	-0.01
780.513	-0.17
780.688	-0.19
780.863	-0
781.038	0.02
781.212	-0.28
781.387	0
781.562	0.2
781.737	0.01
781.911	0.04
782.086	-0.24
782.261	0.09
782.435	0.15
782.61	-0.15
782.784	-0.2
782.959	-0.11
783.134	-0.08
783.308	-0.26
783.483	-0.11
783.657	0.39
783.832	-0.21
784.006	-0.35
784.181	-0
784.355	0.22
784.53	-0.28
784.704	-0.23
784.878	0.06
785.053	0.09
785.227	-0.01
785.402	0.5
785.576	-0.42
785.75	-0.11
785.925	-0.28
786.099	-0.04
786.273	-0.16
786.448	0.06
786.622	0.2
786.796	-0.06
786.97	-0.12
787.145	0.18
787.319	-0.29
787.493	-0.09
787.667	-0.27
787.841	-0.05
788.015	0.27
788.19	0.03
788.364	-0.04
788.538	0.06
788.712	0.11
788.886	-0.12
789.06	0.05
789.234	0.12
789.408	-0.43
789.582	-0.02
789.756	-0.17
789.93	-0.37
790.104	-0.07
790.278	-0.08
790.452	-0.19
790.626	0.05
790.8	-0.25
790.973	0.13
791.147	0.15
791.321	0.28
791.495	-0.06
791.669	0.07
791.843	-0.02
792.016	-0.17
792.19	0.26
792.364	-0.11
792.538	0.3
792.711	0.22
792.885	-0.26
793.059	-0.24
793.233	-0.5
793.406	-0.09
793.58	-0.03
793.754	0.11
793.927	-0.11
794.101	-0.09
794.274	-0.16
794.448	0.1
794.622	-0.36
794.795	0.21
794.969	-0.17
795.142	0.01
795.316	-0.23
795.489	-0.17
795.663	0.07
795.836	0.11
796.009	-0.26
796.183	0.32
796.356	-0.06
796.53	0.13
796.703	-0.04
796.876	0.38
797.05	-0.21
797.223	-0.18
797.396	-0.11
797.57	-0.1
797.743	0.29
797.916	-0.17
798.09	-0.07
798.263	-0.08
798.436	-0.05
798.609	-0.21
798.782	-0.08
798.956	0.08
799.129	-0.32
799.302	-0.24
799.475	0.07
799.648	-0.38
799.821	-0.18
799.994	-0.02
800.167	-0.19
800.34	0.13
800.514	-0.07
800.687	0.01
800.86	-0.19
801.033	0.16
801.206	0.02
801.379	-0.22
801.551	0.22
801.724	0.16
801.897	0.23
802.07	-0.34
802.243	-0.39
802.416	-0.13
802.589	-0.41
802.762	-0.3
802.935	-0.14
803.107	0.17
803.28	0.23
803.453	0.27
803.626	-0.07
803.798	-0.27
803.971	-0.39
804.144	0.05
804.317	-0.18
804.489	0.06
804.662	-0.07
804.835	-0.02
805.007	-0.32
805.18	0.3
805.353	0.05
805.525	-0.26
805.698	0.01
805.87	0.03
806.043	0.04
806.215	-0.39
806.388	-0.33
806.56	0.16
806.733	0.3
806.905	0.02
807.078	-0.05
807.25	-0.31
807.423	-0.13
807.595	-0.21
807.768	-0.06
807.94	0.44
808.112	0.32
808.285	-0.3
808.457	-0.16
808.629	-0.04
808.802	0.22
808.974	0.28
809.146	-0.25
809.318	-0.41
809.491	-0.06
809.663	-0.07
809.835	-0.07
810.007	0.12
810.18	-0.23
810.352	-0.39
810.524	-0.56
810.696	0.05
810.868	0.09
811.04	-0.16
811.212	0.16
811.384	0.06
811.556	-0.22
811.728	-0.15
811.901	0.72
812.073	-0.04
812.245	0.05
812.417	0.05
812.589	-0.59
812.76	-0.05
812.932	-0.14
813.104	0.51
813.276	-0.25
813.448	0.33
813.62	0.13
813.792	0.1
813.964	-0.34
814.136	0
814.307	-0.49
814.479	-0.48
814.651	-0.33
814.823	0.81
814.995	-0.28
815.166	-0.08
815.338	-0.35
815.51	-0.32
815.681	0.55
815.853	-0.32
816.025	-0.27
816.196	0.12
816.368	-0.17
816.54	-0.63
816.711	-0.63
816.883	0.22
817.054	0.65
817.226	-0.62
817.398	0.19
817.569	-0.19
817.741	-0.11
817.912	-0.35
818.084	-0.17
818.255	0.67
818.426	-0.36
818.598	-0.17
818.769	-0.34
818.941	0.05
819.112	-0.03
819.283	0.2
819.455	-0.49
819.626	-0.24
819.798	0.15
819.969	-0.34
820.14	-0.01
820.311	-0.05
820.483	0.19
820.654	0.37
820.825	-0.08
820.996	-0.16
821.168	-0.38
821.339	-0.53
821.51	-0.48
821.681	-0.27
821.852	-0.11
822.023	-0.38
822.195	-1.14
822.366	0.15
822.537	-0.18
822.708	-0.19
822.879	-0.11
823.05	0.57
823.221	0.06
823.392	-0.11
823.563	-0.26
823.734	-0.44
823.905	-0.17
824.076	-0.23
824.247	-0.51
824.418	-0.6
824.589	0.12
824.759	-0.36
824.93	0.05
825.101	-1.09
825.272	-0.3
825.443	0.96
825.614	0.67
825.784	-1.21
825.955	0.62
826.126	0.48
826.297	0.08
826.467	0.61
826.638	0.41
826.809	-1.16
826.98	-0.49
827.15	-0.1
827.321	-0.43
827.492	0.39
827.662	0.09
827.833	0.66
828.003	0.15
828.174	-0.53
828.345	-0.69
828.515	0.81
828.686	0.06
828.856	-0.48
829.027	-0.13
829.197	0.39
829.368	0.07
829.538	-0.3
829.709	-0.5
829.879	0.03
830.049	-0.26
830.22	-0.12
830.39	-0.05
830.56	0.03
830.731	-0.26
830.901	-0.56
831.072	-0.39
831.242	-0.08
831.412	0.08
831.582	-0.45
831.753	-0.31
831.923	0.27
832.093	-0.13
832.263	0.02
832.434	-0.82
832.604	-0.81
832.774	0.08
832.944	-0.58
833.114	-0.34
833.284	0.16
833.454	-0.94
833.624	-0.35
833.795	-0.66
833.965	-0.02
834.135	0.11
834.305	-0.65
834.475	-0.38
834.645	-0.07
834.815	-0.79
834.985	-0.66
835.155	-0.78
835.325	0.22
835.494	-0.28
835.664	-0.61
835.834	-0.24
836.004	-0.05
836.174	0.03
836.344	0.01
836.514	-0.71
836.684	-0.21
836.853	-0.7
837.023	-0.33
837.193	-0.58
837.363	0.97
837.532	0.06
837.702	-0.51
837.872	0.15
838.041	0.38
838.211	1.41
838.381	-1.34
838.55	-0.43
838.72	1.24
838.89	0.72
839.059	-0.22
839.229	-0.16
839.398	0.51
839.568	-0.72
839.738	-0.02
839.907	0.58
840.077	-0.17
840.246	-0.14
840.416	-0.48
840.585	-1.18
840.755	0.69
840.924	-0.24
841.093	-0.7
841.263	0.13
841.432	0.65
841.602	-0.68
841.771	-1.05
841.94	-0.83
842.11	1.55
842.279	0.9
842.448	-0.52
842.617	-0.56
842.787	0.92
842.956	-1.18
843.125	-0.34
843.294	0.35
843.464	0.8
843.633	-0.79
843.802	-0.7
843.971	-0.11
844.14	0.26
844.309	0.45
844.479	-0.43
844.648	-1.18
844.817	-0.03
844.986	-0.33
845.155	-0.31
845.324	-0.92
845.493	-0.13
845.662	-1.08
845.831	0.31
846	-0.84
846.169	-0.22
846.338	0.48
846.507	0.08
846.676	0.01
846.844	-0.5
847.013	0.15
847.182	-0.07
847.351	-1.61
847.52	-0.57
847.689	-0.69
847.858	-0.03
848.026	0.2
848.195	0.03
848.364	-0.61
848.533	-1.07
848.701	-0.28
848.87	-0.59
849.039	0.4
849.207	0.78
849.376	-0.05
849.545	0.26
849.713	-0.9
849.882	-0.49
850.051	-0.19
850.219	-0.09
850.388	-0.38
850.556	-0.78
850.725	-0.94
850.893	0.44
851.062	-0.38
851.23	-0.07
851.399	-0.79
851.567	-0.99
851.736	-0.68
851.904	-0.53
852.073	-0.85
852.241	-0.21
852.41	0.16
852.578	-0.25
852.746	-0.89
852.915	0.24
853.083	-1.33
853.251	-1.02
853.42	0.4
853.588	0.56
853.756	0.41
853.924	-0.31
854.093	-1
854.261	0.31
854.429	-1.31
854.597	-0.02
854.765	-1.18
854.934	0.36
855.102	0.7
855.27	-0.33
855.438	0.56
855.606	0.12
855.774	1.73
855.942	-1.53
856.11	-2.07
856.278	0.13
856.446	0.44
856.614	0.39
856.782	-0.49
856.95	0.75
857.118	-0.14
857.286	0.13
857.454	-1.2
857.622	1.31
857.79	0.54
857.958	-0.81
858.126	-0.46
858.294	-1.86
858.462	-0.6
858.629	-1.12
858.797	-0.96
858.965	0.43
859.133	0.09
859.301	-1.48
859.468	-0.78
859.636	-1.48
859.804	1.59
859.971	0.46
860.139	-1.2
860.307	1.73
860.474	0.51
860.642	-1.1
860.81	-0.64
860.977	-1.17
861.145	0.59
861.313	-1.38
861.48	-0.22
861.648	-0.03
861.815	-0.34
861.983	-1.3
862.15	-0.95
862.318	0.43
862.485	0.39
862.653	-0.45
862.82	-1.11
862.988	1.46
863.155	-0.04
863.322	-1.83
863.49	-1.93
863.657	-0.93
863.824	1.81
863.992	-0.87
864.159	0.29
864.326	-0.17
864.494	-1.84
864.661	2.08
864.828	-1.86
864.996	0.75
865.163	0.42
865.33	-0.93
865.497	-2.93
865.664	-0.78
865.832	-2.3
865.999	-1.17
866.166	-1.44
866.333	-0.44
866.5	-1.28
866.667	0.43
866.834	-1.05
867.001	0.19
867.168	-1.95
867.335	0.11
867.502	-2.27
867.669	0.95
867.836	2.22
868.003	0.25
868.17	0.52
868.337	0.82
868.504	0.76
868.671	-1.22
868.838	-1.62
869.005	0.98
869.172	0.96
869.339	-0.21
869.505	-0.4
869.672	0.72
869.839	1.76
870.006	0.2
870.173	-1.86
870.339	-0.4
870.506	2.77
870.673	-1.6
870.84	0.3
871.006	-0.43
871.173	-0.78
871.34	0.48
871.506	-1.79
871.673	1.12
871.839	-1.41
872.006	-0.36
872.173	0.21
872.339	0.49
872.506	1.78
872.672	0.13
872.839	-2.28
873.005	0.66
873.172	2.36
873.338	-0.19
873.505	0.16
873.671	0.32
873.838	0.52
874.004	-1.98
874.171	-1.88
874.337	-0.86
874.503	-0.09
874.67	-0.97
874.836	-0.88
875.002	2.07
875.169	0.43
875.335	-0.86
875.501	-1.42
875.668	-1.52
875.834	0.4
876	0.4
876.166	1.05
876.332	1.04
876.499	1.98
876.665	0.09
876.831	-0.39
876.997	2.17
877.163	1.37
877.329	-1.51
877.495	-0.97
877.662	-0.13
877.828	0.07
877.994	-0.78
878.16	-2.22
878.326	-2.61
878.492	-0.04
878.658	-1.97
878.824	0.74
878.99	0.94
879.156	-1.72
879.322	2.5
879.487	-0.62
879.653	0.5
879.819	0.07
879.985	-0.34
880.151	1.75
880.317	1.02
880.483	-0.56
880.648	2.01
880.814	-2.45
880.98	-0.12
881.146	-2.2
881.312	-1.45
881.477	-0.51
881.643	-1.17
881.809	1.84
881.974	1.95
882.14	-1.83
882.306	-1.15
882.471	1.31
882.637	-0.16
882.803	0.69
882.968	0.39
883.134	2.56
883.299	1.6
883.465	-1.07
883.63	1.26
883.796	1.23
883.961	0.18
884.127	2.17
884.292	-3.59
884.458	-2.72
884.623	-2.71
