Data from Apollo_Calib_20240827__AbsoluteIrradiance__460__06-49-02-914.txt Node

Date: Wed Aug 28 06:49:02 BST 2024
User: biology
Spectrometer: FLMT08252
Trigger mode: 0
Integration Time (sec): 5.000000E-1
Scans to average: 5
Electric dark correction enabled: true
Nonlinearity correction enabled: false
Boxcar width: 0
XAxis mode: Wavelengths
Number of Pixels in Spectrum: 3648
>>>>>Begin Spectral Data<<<<<
179.588	-0
179.809	-0
180.03	-0
180.251	-0
180.473	-0
180.694	0
180.915	0
181.136	-0
181.357	0
181.578	-0
181.799	-0
182.02	-0
182.241	-0
182.462	-0
182.683	0
182.904	-0
183.125	-0
183.346	0
183.567	0
183.788	-0
184.009	-0
184.23	-0
184.451	0
184.672	-0
184.892	-0
185.113	0
185.334	0
185.555	-0
185.776	-0
185.996	-0
186.217	-0
186.438	0
186.659	-0
186.879	0
187.1	-0
187.321	-0
187.541	-0
187.762	-0
187.983	0
188.203	-0
188.424	0
188.644	-0
188.865	-0
189.086	-0
189.306	-0
189.527	-0
189.747	-0
189.968	-0
190.188	-0
190.409	-0
190.629	0
190.849	-0
191.07	-0
191.29	0
191.511	-0
191.731	-0
191.951	-0
192.172	-0
192.392	-0
192.612	-0
192.833	-0
193.053	-0
193.273	0
193.493	-0
193.714	-0
193.934	0
194.154	0
194.374	0
194.594	-0
194.815	0
195.035	-0
195.255	-0
195.475	-0
195.695	0
195.915	0
196.135	-0
196.355	0
196.575	0
196.795	-0
197.015	-0
197.235	-0
197.455	-0
197.675	0
197.895	-0
198.115	-0
198.335	0
198.555	-0
198.775	-0
198.995	-0
199.214	0
199.434	-0
199.654	-0
199.874	-0
200.094	-1.84
200.313	-0.47
200.533	-0.39
200.753	-1.06
200.973	0.23
201.192	-0.24
201.412	-1.02
201.632	-0.48
201.851	0.8
202.071	-0.83
202.291	-0.62
202.51	-1.32
202.73	0.39
202.95	-0.31
203.169	-0.63
203.389	-0.24
203.608	-0.02
203.828	-1.13
204.047	-0.43
204.267	0.36
204.486	-0.58
204.706	-0.3
204.925	-0.14
205.145	-0.36
205.364	0.36
205.583	0.63
205.803	-0.22
206.022	-0.65
206.242	-0.12
206.461	-0.36
206.68	-0.46
206.9	-0.1
207.119	0.44
207.338	0.45
207.557	-0.27
207.777	-0.36
207.996	-0.2
208.215	0.11
208.434	-0.71
208.654	-0.42
208.873	-0.21
209.092	0.21
209.311	-0.22
209.53	-0.36
209.749	-0.4
209.968	-0.7
210.187	-0.11
210.407	-0.64
210.626	-0.07
210.845	-0.09
211.064	-0.08
211.283	-0.5
211.502	0
211.721	-0.21
211.94	-0.19
212.159	-0.11
212.377	0.02
212.596	0.01
212.815	-0.23
213.034	0.37
213.253	0.03
213.472	0.17
213.691	-0.36
213.91	-0.33
214.128	-0.32
214.347	0.24
214.566	-0.55
214.785	-0.63
215.003	0.32
215.222	0
215.441	-0.12
215.66	-0.43
215.878	-0.23
216.097	-0.03
216.316	-0.37
216.534	-0.1
216.753	-0.04
216.972	-0.24
217.19	-0.09
217.409	-0.28
217.627	-0.37
217.846	-0.3
218.064	-0.03
218.283	-0.25
218.501	0.23
218.72	0.05
218.938	-0.37
219.157	-0.18
219.375	0.15
219.594	0.05
219.812	-0.21
220.031	-0.34
220.249	0.08
220.467	0.3
220.686	-0.17
220.904	-0.28
221.122	-0.28
221.341	0.29
221.559	-0.1
221.777	-0.26
221.995	-0.16
222.214	-0.12
222.432	-0.09
222.65	0.16
222.868	-0.02
223.086	-0
223.305	0.03
223.523	-0.17
223.741	0.15
223.959	-0.25
224.177	-0.34
224.395	-0.19
224.613	-0.09
224.831	0.06
225.049	-0.19
225.267	-0.05
225.485	-0.02
225.703	-0.22
225.921	-0.15
226.139	-0.19
226.357	-0.03
226.575	-0.13
226.793	-0.11
227.011	0.42
227.229	-0.01
227.447	0.07
227.665	-0.15
227.883	-0.36
228.1	-0.09
228.318	-0.09
228.536	-0.39
228.754	-0.18
228.972	0.21
229.189	-0.01
229.407	-0.19
229.625	-0.13
229.843	0
230.06	-0.08
230.278	-0.13
230.496	-0.03
230.713	-0.11
230.931	0.04
231.149	-0.08
231.366	-0.3
231.584	-0.14
231.801	0.31
232.019	-0.04
232.236	-0.23
232.454	-0.25
232.671	-0.03
232.889	-0.07
233.106	-0.23
233.324	-0.05
233.541	-0.05
233.759	-0.13
233.976	-0.1
234.194	-0.1
234.411	-0.05
234.628	-0.16
234.846	-0.17
235.063	0
235.28	-0.05
235.498	-0.16
235.715	-0.12
235.932	0.14
236.149	-0.06
236.367	-0.11
236.584	-0.05
236.801	-0.14
237.018	-0.01
237.236	-0.05
237.453	-0.23
237.67	0.1
237.887	-0.13
238.104	-0.15
238.321	-0.21
238.538	-0.09
238.755	0.03
238.973	-0.19
239.19	-0.08
239.407	0.06
239.624	-0.11
239.841	-0.28
240.058	-0.21
240.275	-0.06
240.492	-0.09
240.709	-0.06
240.925	-0.1
241.142	0.02
241.359	-0.18
241.576	-0.17
241.793	-0.2
242.01	-0.15
242.227	0.05
242.444	-0.11
242.66	0.02
242.877	-0.1
243.094	-0.09
243.311	-0.05
243.527	-0.09
243.744	-0.02
243.961	0.02
244.178	-0.1
244.394	-0.13
244.611	0
244.828	0.08
245.044	-0.11
245.261	-0.08
245.477	0.05
245.694	-0.03
245.911	-0.14
246.127	0.02
246.344	0.08
246.56	-0.01
246.777	-0.1
246.993	-0.02
247.21	-0.02
247.426	0.02
247.643	-0.05
247.859	-0.09
248.076	-0.1
248.292	0.15
248.508	-0.06
248.725	0.03
248.941	-0
249.157	0.02
249.374	-0.12
249.59	-0.04
249.806	-0.08
250.023	-0.04
250.239	-0.15
250.455	-0.13
250.671	-0.06
250.888	-0.01
251.104	-0.04
251.32	-0.01
251.536	-0.11
251.752	-0.09
251.969	-0.04
252.185	-0
252.401	0.15
252.617	0.13
252.833	-0.11
253.049	-0.09
253.265	-0.06
253.481	0.02
253.697	-0.05
253.913	-0.19
254.129	-0.02
254.345	-0.12
254.561	-0.06
254.777	-0.03
254.993	0.01
255.209	-0.02
255.425	-0.11
255.641	-0.07
255.857	-0.02
256.073	-0.06
256.288	-0.08
256.504	-0.1
256.72	0.01
256.936	0.08
257.152	-0.08
257.367	-0.11
257.583	-0.07
257.799	0.01
258.015	-0.09
258.23	-0.12
258.446	0.09
258.662	-0.08
258.877	-0.08
259.093	-0.1
259.309	-0.06
259.524	-0.01
259.74	-0.08
259.955	-0.21
260.171	-0.08
260.387	-0.08
260.602	0.04
260.818	-0.04
261.033	-0.12
261.249	-0.1
261.464	-0.04
261.68	-0.12
261.895	-0.07
262.11	0.08
262.326	-0.07
262.541	-0.1
262.757	0.03
262.972	0
263.187	-0.01
263.403	-0.02
263.618	0.02
263.833	-0.08
264.049	-0.11
264.264	-0.09
264.479	0.03
264.694	0.06
264.91	-0.15
265.125	-0.03
265.34	0.02
265.555	0.12
265.77	-0.01
265.986	-0.02
266.201	0.03
266.416	0.12
266.631	-0.07
266.846	-0.09
267.061	0.04
267.276	0.03
267.491	-0.15
267.706	0.01
267.921	0
268.136	-0.03
268.351	-0.03
268.566	-0.12
268.781	0
268.996	0.08
269.211	0
269.426	-0.17
269.641	-0.02
269.856	-0
270.071	-0.09
270.285	-0.13
270.5	0.05
270.715	0.05
270.93	-0.05
271.145	-0.04
271.359	0.02
271.574	-0.08
271.789	-0.01
272.004	-0.03
272.218	-0.11
272.433	0.02
272.648	-0.08
272.862	0.09
273.077	-0.07
273.292	-0.09
273.506	-0.09
273.721	-0.07
273.936	-0.04
274.15	0.08
274.365	-0.04
274.579	-0.03
274.794	-0.01
275.008	0.08
275.223	-0.1
275.437	-0.04
275.652	-0
275.866	0.01
276.081	-0.06
276.295	0.01
276.509	-0.04
276.724	-0.07
276.938	-0.02
277.153	-0
277.367	0.03
277.581	-0.04
277.796	-0.11
278.01	-0.09
278.224	0
278.438	0.04
278.653	-0.1
278.867	-0.08
279.081	-0.01
279.295	-0.03
279.51	0.01
279.724	-0.09
279.938	0.03
280.152	-0
280.366	-0.08
280.58	-0.04
280.794	0.02
281.008	-0.03
281.222	0.05
281.437	0.07
281.651	-0.01
281.865	0.04
282.079	-0.03
282.293	-0.12
282.507	-0.03
282.721	-0.06
282.935	-0.01
283.148	-0.07
283.362	-0
283.576	-0.14
283.79	-0.04
284.004	-0.08
284.218	0.01
284.432	-0.07
284.646	-0.09
284.859	-0.05
285.073	-0.06
285.287	0.04
285.501	-0.03
285.714	-0.06
285.928	-0.02
286.142	-0.05
286.356	-0.06
286.569	-0.06
286.783	0.05
286.997	0.01
287.21	-0.05
287.424	-0
287.637	-0.02
287.851	-0.07
288.065	0.05
288.278	-0.06
288.492	-0.05
288.705	-0.02
288.919	0.04
289.132	-0.08
289.346	-0.01
289.559	-0.12
289.773	-0.06
289.986	-0.04
290.2	-0.01
290.413	0
290.626	-0.07
290.84	-0.01
291.053	-0.02
291.267	0.05
291.48	0
291.693	-0.03
291.906	-0.08
292.12	-0.03
292.333	-0.06
292.546	-0.01
292.76	0.06
292.973	-0.07
293.186	-0.04
293.399	-0.03
293.612	0.04
293.826	-0.03
294.039	-0.01
294.252	-0.02
294.465	-0.01
294.678	-0
294.891	-0.02
295.104	-0.01
295.317	-0.05
295.53	-0.01
295.743	-0.03
295.956	-0
296.169	0.05
296.382	0.01
296.595	-0.01
296.808	-0.09
297.021	0
297.234	-0
297.447	-0.02
297.66	0.03
297.873	0.06
298.086	0
298.299	-0.08
298.511	-0.02
298.724	-0.07
298.937	-0.05
299.15	-0.01
299.363	0.01
299.575	0.01
299.788	-0.01
300.001	-0.03
300.213	-0.09
300.426	-0.02
300.639	-0.04
300.852	-0.03
301.064	0.01
301.277	0.03
301.489	-0
301.702	0.02
301.915	-0.02
302.127	-0.02
302.34	-0.01
302.552	-0.02
302.765	-0.03
302.977	0.02
303.19	-0.07
303.402	-0.05
303.615	-0.02
303.827	-0.04
304.04	-0.08
304.252	0.04
304.464	-0.01
304.677	0.07
304.889	0.02
305.102	-0.03
305.314	-0.08
305.526	0.04
305.739	0.01
305.951	-0.06
306.163	-0.04
306.375	0.05
306.588	-0.02
306.8	-0.04
307.012	-0.05
307.224	-0.03
307.436	0.08
307.649	-0.12
307.861	-0.01
308.073	-0.02
308.285	-0.02
308.497	-0.09
308.709	-0.06
308.921	-0
309.133	0.03
309.346	0.03
309.558	-0.01
309.77	0.06
309.982	0.04
310.194	0.02
310.406	-0.05
310.617	0.07
310.829	-0.02
311.041	0.04
311.253	-0.05
311.465	-0.05
311.677	-0.05
311.889	-0.01
312.101	-0.04
312.313	-0.03
312.524	0.01
312.736	-0.05
312.948	0
313.16	0.04
313.372	0.04
313.583	-0.01
313.795	-0.02
314.007	-0.01
314.218	0.02
314.43	-0.02
314.642	-0.08
314.853	-0.1
315.065	0.02
315.277	-0.03
315.488	-0.03
315.7	0.03
315.912	0.03
316.123	-0.06
316.335	-0.03
316.546	0.04
316.758	-0.03
316.969	-0.05
317.181	0
317.392	-0.01
317.604	0.01
317.815	-0.06
318.026	-0.09
318.238	-0.03
318.449	0.03
318.661	-0.1
318.872	-0.07
319.083	-0.07
319.295	-0.01
319.506	-0.02
319.717	-0.04
319.929	0.01
320.14	0.03
320.351	-0.02
320.562	-0.03
320.774	0.01
320.985	0
321.196	-0.08
321.407	-0.05
321.618	0.01
321.829	-0.02
322.041	0
322.252	-0.02
322.463	-0.01
322.674	0.02
322.885	-0.06
323.096	-0.01
323.307	-0.06
323.518	-0.01
323.729	-0.01
323.94	-0.02
324.151	-0.07
324.362	0.01
324.573	-0.02
324.784	-0.07
324.995	0.06
325.206	0.02
325.417	-0.04
325.628	-0.03
325.838	0
326.049	-0.02
326.26	0.01
326.471	-0.02
326.682	-0.04
326.892	-0.06
327.103	-0.11
327.314	-0.04
327.525	-0.01
327.735	0.01
327.946	-0.02
328.157	-0.04
328.368	0.05
328.578	-0.05
328.789	-0.01
328.999	0.02
329.21	-0.06
329.421	0.02
329.631	-0.07
329.842	-0.03
330.052	-0.04
330.263	0.03
330.473	0.03
330.684	-0.02
330.894	-0.05
331.105	-0.03
331.315	-0.02
331.526	-0.1
331.736	0.06
331.947	0.01
332.157	-0.03
332.367	-0.03
332.578	0
332.788	0.05
332.999	-0.02
333.209	-0.02
333.419	-0.06
333.629	-0.02
333.84	0.02
334.05	-0.04
334.26	0.07
334.47	-0.03
334.681	0.05
334.891	-0.06
335.101	-0
335.311	0.08
335.521	-0.03
335.732	-0.08
335.942	0.05
336.152	0.01
336.362	-0.02
336.572	-0.02
336.782	-0.04
336.992	-0
337.202	-0.03
337.412	-0.06
337.622	0.03
337.832	-0.04
338.042	-0.04
338.252	-0.06
338.462	-0.04
338.672	-0.04
338.882	-0.01
339.092	-0.02
339.302	0.03
339.511	0.01
339.721	-0.04
339.931	-0.06
340.141	0.02
340.351	0.01
340.561	0.02
340.77	-0.02
340.98	0
341.19	-0.01
341.4	-0.05
341.609	-0.05
341.819	-0.05
342.029	-0.06
342.238	-0
342.448	-0.01
342.658	0.02
342.867	-0.04
343.077	-0.02
343.286	0.01
343.496	-0.03
343.706	0.02
343.915	-0.07
344.125	-0
344.334	-0.01
344.544	-0.1
344.753	-0.01
344.963	-0.01
345.172	-0.04
345.381	0.01
345.591	-0.08
345.8	-0.04
346.01	0.04
346.219	0.01
346.428	-0.19
346.638	-0.01
346.847	-0.06
347.056	0.02
347.266	-0.03
347.475	-0.04
347.684	-0
347.893	-0.03
348.103	-0.05
348.312	-0.03
348.521	-0.03
348.73	-0.03
348.94	-0.02
349.149	-0.01
349.358	-0.03
349.567	-0.08
349.776	-0.03
349.985	-0.05
350.194	-0.01
350.403	0.02
350.612	-0.05
350.821	-0.04
351.03	-0.03
351.239	-0.07
351.448	-0.02
351.657	-0.03
351.866	0.04
352.075	-0.02
352.284	0.03
352.493	-0.08
352.702	0.06
352.911	0
353.12	-0.01
353.329	-0.04
353.538	-0.01
353.746	-0.02
353.955	-0.01
354.164	-0
354.373	-0.04
354.582	0
354.79	0
354.999	-0.02
355.208	-0.04
355.416	0.04
355.625	-0.05
355.834	-0.06
356.042	0.01
356.251	-0.01
356.46	-0.04
356.668	-0
356.877	0.08
357.085	0.05
357.294	-0.1
357.503	0.06
357.711	-0.02
357.92	0.09
358.128	-0.03
358.337	-0.03
358.545	0
358.754	-0.02
358.962	0.03
359.17	-0.05
359.379	0.01
359.587	-0.03
359.796	-0.03
360.004	-0.02
360.212	0.02
360.421	0.02
360.629	-0.04
360.837	-0.03
361.046	0
361.254	0.03
361.462	-0.03
361.67	-0.02
361.879	0.02
362.087	0.04
362.295	-0
362.503	-0.04
362.711	-0.06
362.92	-0.02
363.128	-0.02
363.336	-0.06
363.544	-0.07
363.752	-0.03
363.96	-0.06
364.168	-0.04
364.376	-0.01
364.584	0.03
364.792	-0.01
365	-0
365.208	-0.01
365.416	0.01
365.624	0.02
365.832	-0.02
366.04	0.07
366.248	0.01
366.456	0.02
366.664	0
366.872	-0.01
367.079	-0.05
367.287	-0.04
367.495	-0.03
367.703	-0.03
367.911	-0.02
368.118	-0.03
368.326	-0.02
368.534	-0.04
368.742	0.08
368.949	-0.07
369.157	-0.06
369.365	0.04
369.572	-0
369.78	-0.06
369.988	0.01
370.195	0.01
370.403	0.03
370.61	-0.07
370.818	-0
371.026	0.03
371.233	-0.06
371.441	0.02
371.648	-0.06
371.856	-0
372.063	-0
372.271	-0.04
372.478	-0.06
372.685	-0.03
372.893	-0.01
373.1	-0.02
373.308	-0.04
373.515	0.09
373.722	0.02
373.93	-0.03
374.137	-0.02
374.344	0.04
374.552	0.04
374.759	0.01
374.966	0.01
375.173	0.01
375.381	0.02
375.588	-0
375.795	-0.08
376.002	-0.04
376.209	-0.06
376.417	-0.05
376.624	0.02
376.831	-0.02
377.038	-0.02
377.245	-0.11
377.452	-0.01
377.659	-0.03
377.866	-0.04
378.073	-0.04
378.28	0.01
378.487	-0
378.694	0.02
378.901	-0.02
379.108	-0.03
379.315	0
379.522	0.05
379.729	-0.03
379.936	-0
380.143	-0.06
380.35	-0.03
380.557	-0.01
380.763	-0.04
380.97	-0.04
381.177	0
381.384	-0
381.591	0.01
381.797	0.01
382.004	0.03
382.211	0.01
382.418	0.01
382.624	0.02
382.831	-0
383.038	-0.07
383.244	0
383.451	0.01
383.658	-0.02
383.864	-0
384.071	-0.04
384.277	0.01
384.484	-0.01
384.69	0.01
384.897	-0.01
385.103	-0.03
385.31	-0.07
385.516	-0.02
385.723	-0.06
385.929	-0.03
386.136	-0.04
386.342	-0.03
386.549	-0.06
386.755	0.03
386.961	0.04
387.168	-0.05
387.374	0.02
387.58	-0.01
387.787	-0.01
387.993	0.01
388.199	-0.05
388.406	-0.02
388.612	0.01
388.818	-0.03
389.024	-0.07
389.231	-0
389.437	0.03
389.643	0.01
389.849	-0.03
390.055	-0.06
390.261	0.01
390.467	-0.02
390.674	-0.07
390.88	-0.04
391.086	0
391.292	-0.05
391.498	-0.03
391.704	0.01
391.91	-0.05
392.116	-0.04
392.322	-0.13
392.528	-0.02
392.734	-0.04
392.94	0
393.146	-0.05
393.352	-0.02
393.557	-0.07
393.763	0.01
393.969	-0.01
394.175	-0.03
394.381	-0.01
394.587	-0.09
394.792	-0.05
394.998	-0.04
395.204	0.03
395.41	-0.06
395.615	0.02
395.821	-0.03
396.027	-0
396.233	-0.05
396.438	0.01
396.644	0.06
396.85	0.01
397.055	-0.06
397.261	-0.01
397.466	0.09
397.672	-0.04
397.878	0.02
398.083	0.02
398.289	-0.06
398.494	-0.02
398.7	-0.03
398.905	-0.1
399.111	0.01
399.316	-0.06
399.522	-0.05
399.727	-0.05
399.932	-0.03
400.138	-0.05
400.343	0.05
400.549	-0.01
400.754	0
400.959	-0.01
401.165	-0.01
401.37	-0.03
401.575	-0.03
401.78	-0.02
401.986	-0.06
402.191	-0.03
402.396	-0.05
402.601	-0.05
402.807	-0.03
403.012	0.01
403.217	-0
403.422	-0.05
403.627	-0.03
403.832	-0.05
404.037	0.01
404.243	-0
404.448	-0.06
404.653	-0.04
404.858	-0.03
405.063	0.03
405.268	-0.06
405.473	-0.04
405.678	-0.06
405.883	0.08
406.088	0.04
406.293	-0.11
406.498	-0.06
406.703	0.01
406.907	-0.01
407.112	-0.07
407.317	-0.01
407.522	0
407.727	-0.04
407.932	-0.03
408.136	0.09
408.341	-0.03
408.546	0.01
408.751	0
408.956	-0
409.16	0
409.365	-0.08
409.57	-0.06
409.774	-0.01
409.979	-0.01
410.184	-0.02
410.388	-0.07
410.593	0.04
410.798	-0.03
411.002	-0.04
411.207	-0.09
411.411	0.06
411.616	-0.09
411.82	-0.01
412.025	-0.02
412.229	-0.05
412.434	0.03
412.638	-0.01
412.843	-0.05
413.047	0.01
413.252	-0.05
413.456	-0.06
413.66	0.02
413.865	-0.07
414.069	0.03
414.273	-0.07
414.478	-0.04
414.682	-0.05
414.886	-0.08
415.091	-0.07
415.295	-0.07
415.499	-0.01
415.703	-0.01
415.908	0.03
416.112	-0.09
416.316	0.02
416.52	-0.04
416.724	-0.08
416.929	-0.05
417.133	0.08
417.337	-0.04
417.541	-0.05
417.745	-0.04
417.949	-0.03
418.153	0.02
418.357	-0.06
418.561	0.05
418.765	-0.06
418.969	0.08
419.173	0.01
419.377	-0.01
419.581	0.03
419.785	-0.08
419.989	-0.09
420.193	-0.1
420.397	-0.04
420.601	-0.03
420.804	0.03
421.008	-0.05
421.212	-0.04
421.416	0.02
421.62	-0.07
421.823	-0.02
422.027	0.06
422.231	-0.02
422.435	-0.07
422.638	-0.02
422.842	-0.04
423.046	-0.08
423.249	0.02
423.453	-0.01
423.657	0.01
423.86	-0.02
424.064	-0.02
424.268	0.03
424.471	0.02
424.675	0.06
424.878	0.04
425.082	-0.03
425.285	-0.03
425.489	0.01
425.692	0.01
425.896	-0.09
426.099	0
426.303	-0.04
426.506	-0.07
426.71	0
426.913	0
427.116	0.08
427.32	-0.02
427.523	-0.01
427.726	0.03
427.93	-0.11
428.133	-0.05
428.336	-0.1
428.54	-0.07
428.743	0.01
428.946	-0.03
429.149	-0.07
429.353	-0.02
429.556	-0.06
429.759	-0.06
429.962	-0.09
430.165	0
430.368	-0.05
430.571	-0.07
430.775	0.01
430.978	-0.04
431.181	-0.02
431.384	-0.01
431.587	-0.05
431.79	-0.01
431.993	-0.11
432.196	-0.06
432.399	-0.05
432.602	-0.03
432.805	-0.05
433.008	-0.04
433.211	-0.11
433.414	0.03
433.616	-0.04
433.819	-0.04
434.022	-0.14
434.225	0.03
434.428	-0.01
434.631	0.11
434.833	-0.03
435.036	-0.04
435.239	0.01
435.442	-0
435.645	-0.04
435.847	-0.03
436.05	0.01
436.253	-0.04
436.455	-0.07
436.658	0.01
436.861	0.02
437.063	-0.03
437.266	-0.06
437.468	-0.01
437.671	0.06
437.874	-0.01
438.076	-0.08
438.279	-0.08
438.481	-0.02
438.684	-0.05
438.886	0.02
439.089	-0.13
439.291	-0.01
439.494	0
439.696	-0.09
439.899	-0.08
440.101	-0.07
440.303	-0.09
440.506	-0.03
440.708	-0.07
440.91	-0.01
441.113	0
441.315	0.01
441.517	-0.05
441.72	0
441.922	-0.05
442.124	-0.07
442.326	-0.06
442.529	0.03
442.731	-0.04
442.933	0.06
443.135	-0.06
443.337	-0.06
443.539	-0.02
443.742	-0.07
443.944	-0.01
444.146	-0.03
444.348	-0.04
444.55	-0.01
444.752	-0.04
444.954	-0.12
445.156	-0.05
445.358	-0.07
445.56	0.02
445.762	-0.06
445.964	-0.04
446.166	-0.05
446.368	-0.09
446.57	-0.01
446.772	-0.03
446.974	-0.05
447.175	-0.03
447.377	-0.08
447.579	-0.07
447.781	-0.13
447.983	0
448.184	-0.02
448.386	-0.01
448.588	-0.11
448.79	-0.04
448.991	-0.05
449.193	-0.06
449.395	-0.02
449.597	-0.02
449.798	0.02
450	0.01
450.202	-0.08
450.403	-0.04
450.605	0.01
450.806	-0.01
451.008	-0.1
451.21	-0.04
451.411	-0
451.613	-0.04
451.814	-0.05
452.016	-0.05
452.217	-0.05
452.419	-0.06
452.62	-0.05
452.821	-0.02
453.023	0.05
453.224	0.01
453.426	-0.1
453.627	0
453.828	0.01
454.03	-0.09
454.231	-0.01
454.432	-0.11
454.634	-0
454.835	-0.02
455.036	-0.07
455.238	0.03
455.439	0.03
455.64	-0.07
455.841	-0.06
456.042	0.08
456.244	0.03
456.445	-0.08
456.646	-0.11
456.847	-0.06
457.048	-0
457.249	0.05
457.45	0.14
457.651	-0.11
457.852	-0.01
458.054	-0.02
458.255	-0.07
458.456	-0.01
458.657	-0.01
458.858	-0.05
459.058	-0.01
459.259	0.01
459.46	-0.01
459.661	-0.09
459.862	0.05
460.063	-0.01
460.264	0.01
460.465	-0.11
460.666	0.09
460.866	-0.08
461.067	-0.05
461.268	-0.03
461.469	-0.02
461.67	-0.04
461.87	-0.05
462.071	-0.07
462.272	-0.03
462.473	-0.01
462.673	-0.01
462.874	-0.1
463.075	-0.01
463.275	-0.07
463.476	-0.03
463.676	-0.03
463.877	0.01
464.078	-0.04
464.278	0.02
464.479	-0.04
464.679	-0.04
464.88	-0.04
465.08	0.04
465.281	-0.1
465.481	-0.03
465.682	-0.02
465.882	0
466.083	-0.06
466.283	-0.04
466.483	0
466.684	-0.07
466.884	-0.06
467.085	-0.04
467.285	0.05
467.485	-0.08
467.686	-0.05
467.886	-0.08
468.086	-0.06
468.286	-0.03
468.487	-0
468.687	-0.07
468.887	-0.03
469.087	-0.01
469.287	-0.05
469.488	-0.09
469.688	-0.04
469.888	-0.02
470.088	0.03
470.288	0.01
470.488	0.04
470.688	-0.05
470.888	-0.05
471.088	-0.07
471.288	0.07
471.488	-0.03
471.688	-0.02
471.888	-0.06
472.088	0.01
472.288	0.02
472.488	-0.07
472.688	-0.02
472.888	-0.01
473.088	-0
473.288	-0.06
473.488	0.01
473.688	0.04
473.887	-0.04
474.087	-0.02
474.287	-0.01
474.487	-0.04
474.687	-0.01
474.886	-0.03
475.086	-0.01
475.286	0.01
475.486	-0.01
475.685	-0.01
475.885	-0.05
476.085	-0.03
476.284	0.02
476.484	-0.03
476.684	0
476.883	0.03
477.083	-0
477.282	-0.03
477.482	0.04
477.681	0.04
477.881	-0.01
478.08	-0.05
478.28	-0.02
478.479	0.03
478.679	0.04
478.878	-0.07
479.078	-0.03
479.277	-0.03
479.477	-0.03
479.676	0
479.875	-0.02
480.075	-0.08
480.274	0
480.473	-0.01
480.673	-0.02
480.872	0.02
481.071	0
481.271	0.01
481.47	-0.04
481.669	-0.01
481.868	-0.06
482.067	-0.04
482.267	-0.07
482.466	-0.04
482.665	-0.05
482.864	-0.06
483.063	-0.06
483.262	-0.01
483.461	0.01
483.661	0.02
483.86	-0.03
484.059	0.02
484.258	-0.01
484.457	-0.03
484.656	-0.01
484.855	0.04
485.054	-0.05
485.253	-0.05
485.452	-0.05
485.651	-0.01
485.849	-0
486.048	-0.05
486.247	-0.03
486.446	-0
486.645	-0.04
486.844	-0.03
487.043	-0.02
487.241	0.01
487.44	-0.04
487.639	-0.03
487.838	-0.09
488.037	0
488.235	0.02
488.434	-0
488.633	-0.05
488.831	-0
489.03	0.01
489.229	0.01
489.427	-0.02
489.626	0.03
489.825	0.03
490.023	-0.02
490.222	-0.02
490.42	-0.02
490.619	0
490.817	0
491.016	-0.01
491.214	0.04
491.413	0.01
491.611	-0.02
491.81	0
492.008	0.03
492.207	-0.02
492.405	0
492.604	-0.05
492.802	-0.01
493	0
493.199	-0.03
493.397	-0.01
493.595	-0.01
493.794	-0.03
493.992	0.03
494.19	-0.02
494.388	0.01
494.587	-0.01
494.785	-0.03
494.983	-0.03
495.181	-0.01
495.379	-0.04
495.578	-0.02
495.776	-0
495.974	-0
496.172	-0.05
496.37	-0.02
496.568	-0.04
496.766	-0.01
496.964	0.03
497.162	-0.02
497.36	-0.03
497.558	0.01
497.756	-0.01
497.954	-0
498.152	-0.03
498.35	-0.01
498.548	-0.01
498.746	-0.02
498.944	-0.05
499.142	-0
499.34	-0.05
499.538	-0.03
499.736	-0.04
499.933	0.04
500.131	0.02
500.329	0.01
500.527	0.01
500.725	0.03
500.922	-0.01
501.12	-0
501.318	-0
501.516	-0.03
501.713	-0
501.911	-0
502.109	-0.05
502.306	-0.01
502.504	-0.03
502.701	-0.05
502.899	-0.03
503.097	0.01
503.294	-0.01
503.492	-0.02
503.689	0.01
503.887	0
504.084	0.02
504.282	-0.02
504.479	-0.05
504.677	-0.01
504.874	-0.03
505.072	-0.02
505.269	-0.01
505.466	-0
505.664	-0.01
505.861	-0.03
506.059	-0.04
506.256	-0.01
506.453	-0.04
506.651	0.02
506.848	0
507.045	-0
507.242	-0.01
507.44	-0.03
507.637	-0.02
507.834	-0.04
508.031	-0
508.229	-0.02
508.426	-0.01
508.623	0.01
508.82	-0.02
509.017	-0.06
509.214	-0.02
509.411	-0.02
509.608	-0.05
509.805	-0.01
510.003	-0.03
510.2	-0.01
510.397	0.02
510.594	-0.04
510.791	-0.02
510.988	-0.02
511.184	0
511.381	-0.01
511.578	-0.03
511.775	-0
511.972	-0.02
512.169	-0.01
512.366	-0.01
512.563	-0.01
512.76	-0.04
512.956	0
513.153	-0.02
513.35	-0.01
513.547	-0.01
513.744	-0.01
513.94	-0.05
514.137	0
514.334	-0
514.53	-0.01
514.727	0.01
514.924	0.03
515.12	-0.04
515.317	-0.05
515.514	-0.03
515.71	-0.01
515.907	-0.01
516.103	-0.03
516.3	0.02
516.497	0
516.693	0.03
516.89	0.01
517.086	-0.03
517.283	-0
517.479	0
517.676	-0.01
517.872	-0
518.068	-0.02
518.265	-0.03
518.461	-0.03
518.658	-0.03
518.854	-0.01
519.05	-0.04
519.247	-0.03
519.443	0.01
519.639	0.01
519.836	-0.02
520.032	-0.01
520.228	-0
520.424	0.02
520.621	0.01
520.817	-0.02
521.013	-0.01
521.209	0
521.405	0.05
521.601	-0.01
521.798	-0
521.994	0.02
522.19	-0.01
522.386	-0.04
522.582	-0.02
522.778	-0.02
522.974	-0.03
523.17	0
523.366	0.01
523.562	-0.01
523.758	-0.02
523.954	-0.02
524.15	-0.02
524.346	0.01
524.542	-0.03
524.738	-0.03
524.934	-0.03
525.129	-0.03
525.325	0
525.521	-0.02
525.717	0.01
525.913	-0
526.109	0.01
526.304	-0.03
526.5	-0.01
526.696	0.02
526.892	-0.03
527.087	-0
527.283	-0.02
527.479	0
527.674	-0.04
527.87	-0.02
528.066	-0.01
528.261	0.01
528.457	0.02
528.653	-0.02
528.848	-0.04
529.044	-0
529.239	-0.03
529.435	0.02
529.63	-0.01
529.826	0.02
530.021	0.01
530.217	0.01
530.412	-0.02
530.608	-0.03
530.803	-0.03
530.999	-0.04
531.194	-0.05
531.389	-0
531.585	-0.05
531.78	-0.02
531.975	-0.02
532.171	0.01
532.366	-0.02
532.561	-0.02
532.757	-0.03
532.952	-0.02
533.147	0.01
533.342	-0.03
533.538	-0.01
533.733	0.02
533.928	-0
534.123	-0.02
534.318	-0.03
534.513	-0.03
534.709	-0.01
534.904	-0.02
535.099	-0.02
535.294	-0.01
535.489	-0.02
535.684	-0.02
535.879	-0.04
536.074	0.01
536.269	-0.05
536.464	-0.01
536.659	-0.02
536.854	-0.01
537.049	-0.01
537.244	-0
537.439	-0.02
537.634	0.01
537.828	-0.03
538.023	-0.04
538.218	-0.06
538.413	-0.01
538.608	-0.04
538.803	0
538.997	-0.06
539.192	0
539.387	0.01
539.582	-0.01
539.776	0
539.971	-0.02
540.166	-0.01
540.36	-0.04
540.555	-0.03
540.75	-0.01
540.944	-0.01
541.139	-0.05
541.334	-0.01
541.528	-0.01
541.723	-0.01
541.917	-0.01
542.112	-0.04
542.306	-0.02
542.501	-0.03
542.695	-0.01
542.89	-0.04
543.084	-0.01
543.279	-0.02
543.473	-0.02
543.668	-0.01
543.862	-0.03
544.056	0
544.251	-0.02
544.445	-0.01
544.64	-0.03
544.834	-0.04
545.028	0
545.222	-0.01
545.417	0.02
545.611	-0.02
545.805	0.01
546	-0.05
546.194	-0.03
546.388	-0.02
546.582	0.02
546.776	-0.02
546.97	-0.01
547.165	0
547.359	0.01
547.553	-0.03
547.747	-0.02
547.941	-0
548.135	-0.02
548.329	-0.01
548.523	0.02
548.717	-0.01
548.911	-0.02
549.105	-0.01
549.299	-0
549.493	-0.01
549.687	-0
549.881	-0.01
550.075	-0.01
550.269	-0.05
550.463	0.03
550.657	-0.02
550.85	-0
551.044	-0.04
551.238	-0.02
551.432	-0.03
551.626	-0.04
551.82	0
552.013	-0.02
552.207	-0.01
552.401	0.01
552.594	0
552.788	-0.03
552.982	-0
553.176	-0.02
553.369	0.01
553.563	0.02
553.756	-0.05
553.95	-0.06
554.144	-0.03
554.337	-0
554.531	-0.01
554.724	-0.01
554.918	-0.03
555.111	0.01
555.305	-0
555.498	0.05
555.692	0.01
555.885	-0.04
556.079	0
556.272	-0.03
556.466	0.02
556.659	-0.02
556.852	-0.02
557.046	-0.01
557.239	0.02
557.432	-0.03
557.626	-0.01
557.819	-0
558.012	0.02
558.206	-0
558.399	0
558.592	0
558.785	-0.02
558.979	-0.02
559.172	-0.01
559.365	0.01
559.558	-0.01
559.751	-0.04
559.944	-0
560.138	-0.03
560.331	-0.04
560.524	-0.04
560.717	-0.01
560.91	-0.02
561.103	-0.01
561.296	0.01
561.489	-0
561.682	0
561.875	0.03
562.068	-0
562.261	-0.01
562.454	0.03
562.647	-0.02
562.84	0.01
563.032	-0.01
563.225	-0.02
563.418	-0
563.611	-0.03
563.804	-0.01
563.997	-0.02
564.19	-0.05
564.382	-0.01
564.575	-0.02
564.768	-0.02
564.961	-0.02
565.153	-0.03
565.346	-0.01
565.539	0.02
565.731	0.02
565.924	-0
566.117	0
566.309	-0.02
566.502	-0.04
566.695	0.01
566.887	-0
567.08	-0.03
567.272	-0.04
567.465	-0.02
567.657	-0
567.85	-0.01
568.042	0.01
568.235	0.01
568.427	-0.02
568.62	-0.02
568.812	-0.01
569.005	-0.02
569.197	-0.06
569.389	0.01
569.582	-0.01
569.774	-0
569.966	-0.03
570.159	-0.04
570.351	-0.01
570.543	-0.03
570.736	0
570.928	-0.04
571.12	-0.02
571.312	-0.02
571.505	-0.04
571.697	0.02
571.889	-0.02
572.081	-0.02
572.273	-0.03
572.465	0.03
572.658	-0.02
572.85	0
573.042	-0.03
573.234	-0.01
573.426	0.03
573.618	-0.04
573.81	-0
574.002	0.02
574.194	0.03
574.386	-0.06
574.578	-0.07
574.77	-0.04
574.962	-0.01
575.154	-0.03
575.346	-0.04
575.538	0.01
575.729	-0.02
575.921	-0.03
576.113	-0.02
576.305	0.01
576.497	-0.01
576.689	-0.03
576.88	-0.04
577.072	0.01
577.264	-0.03
577.456	-0.01
577.647	-0.08
577.839	-0.01
578.031	0.02
578.223	-0.06
578.414	-0.04
578.606	0.01
578.798	-0.02
578.989	-0.03
579.181	-0.01
579.372	-0.02
579.564	-0.01
579.755	0.01
579.947	-0.01
580.139	0.02
580.33	-0.07
580.522	-0.03
580.713	-0.07
580.905	-0.03
581.096	0
581.287	-0.01
581.479	-0.02
581.67	0
581.862	-0.01
582.053	-0.03
582.244	-0.05
582.436	-0.03
582.627	-0.03
582.818	-0.04
583.01	-0.06
583.201	0.01
583.392	0.02
583.583	-0.01
583.775	-0.03
583.966	-0.03
584.157	-0.02
584.348	-0.05
584.54	-0.05
584.731	0.01
584.922	0.01
585.113	-0.04
585.304	-0.01
585.495	0.01
585.686	-0
585.877	0
586.068	-0.01
586.259	-0.03
586.45	-0.01
586.641	-0.04
586.832	-0.07
587.023	-0.01
587.214	-0.02
587.405	-0.01
587.596	-0.04
587.787	0.04
587.978	-0.02
588.169	-0.03
588.36	-0.04
588.551	-0.02
588.742	-0.04
588.932	-0.01
589.123	-0.01
589.314	-0
589.505	0.01
589.696	0
589.886	-0.05
590.077	-0.06
590.268	-0.02
590.458	-0.03
590.649	-0.09
590.84	0.01
591.03	-0.04
591.221	-0.04
591.412	-0.05
591.602	-0.02
591.793	0
591.984	-0.04
592.174	-0.04
592.365	0.04
592.555	-0.05
592.746	-0.01
592.936	-0.02
593.127	0.02
593.317	0.01
593.508	-0.04
593.698	-0.01
593.889	-0.01
594.079	-0.01
594.269	-0.04
594.46	-0.04
594.65	-0.01
594.84	0
595.031	-0.03
595.221	-0.03
595.411	-0.06
595.602	0.03
595.792	-0.04
595.982	-0.01
596.172	0.05
596.363	-0.02
596.553	-0.03
596.743	-0.03
596.933	-0.03
597.123	0.03
597.314	-0.02
597.504	-0.03
597.694	0.04
597.884	-0.02
598.074	-0.04
598.264	-0.03
598.454	-0.01
598.644	-0.01
598.834	-0.01
599.024	-0.07
599.214	-0.03
599.404	0.02
599.594	-0.03
599.784	-0.02
599.974	0.02
600.164	0.01
600.354	-0.04
600.544	-0.05
600.734	-0.03
600.924	0.04
601.114	-0.05
601.303	-0.02
601.493	-0.02
601.683	-0.01
601.873	-0.01
602.063	-0.08
602.252	0.04
602.442	-0.06
602.632	-0.05
602.821	-0.04
603.011	0.01
603.201	-0
603.39	-0.02
603.58	-0.03
603.77	0.03
603.959	0
604.149	-0.01
604.339	-0.03
604.528	0.01
604.718	-0
604.907	-0.03
605.097	-0.03
605.286	-0.06
605.476	-0
605.665	0.02
605.855	-0.01
606.044	0.02
606.234	0.01
606.423	-0.02
606.612	-0.03
606.802	-0
606.991	0.02
607.181	-0.01
607.37	-0.03
607.559	-0.03
607.749	-0.04
607.938	-0.02
608.127	-0.03
608.316	-0.03
608.506	0
608.695	-0.03
608.884	-0.03
609.073	-0.02
609.263	-0.01
609.452	-0
609.641	-0.02
609.83	-0.06
610.019	-0.01
610.208	-0.04
610.397	-0.03
610.586	-0
610.775	-0.04
610.965	-0.02
611.154	-0.03
611.343	0.01
611.532	0.02
611.721	-0.02
611.91	-0.04
612.099	0.03
612.287	-0.04
612.476	-0.03
612.665	-0.02
612.854	-0.04
613.043	0.01
613.232	-0.01
613.421	-0.03
613.61	0.01
613.798	-0.02
613.987	0.01
614.176	-0.03
614.365	0.02
614.554	-0.01
614.742	0.05
614.931	-0.01
615.12	0.05
615.309	-0.03
615.497	0.02
615.686	-0.04
615.875	-0.01
616.063	0
616.252	-0.03
616.44	-0.02
616.629	-0
616.818	0.03
617.006	0.01
617.195	0.03
617.383	0.01
617.572	-0.01
617.76	-0.02
617.949	-0.03
618.137	0.05
618.326	0.01
618.514	-0.06
618.703	-0.02
618.891	0.06
619.079	-0.06
619.268	0
619.456	-0.04
619.644	0.08
619.833	0
620.021	-0.03
620.209	-0.05
620.398	0.03
620.586	-0
620.774	0.01
620.962	-0.02
621.151	0.06
621.339	-0
621.527	-0.04
621.715	-0.03
621.903	-0.02
622.092	-0.08
622.28	0.02
622.468	-0.01
622.656	0
622.844	0.02
623.032	-0.01
623.22	-0.05
623.408	0.01
623.596	0.01
623.784	0.02
623.972	0
624.16	-0.04
624.348	0.05
624.536	-0.03
624.724	-0.02
624.912	0.02
625.1	0.01
625.288	-0.03
625.476	-0.04
625.664	0.05
625.851	-0.01
626.039	-0
626.227	0.02
626.415	-0.05
626.603	-0.07
626.79	-0.01
626.978	-0.02
627.166	0.01
627.354	-0
627.541	-0.06
627.729	-0.07
627.917	0.04
628.104	0.06
628.292	0
628.48	-0
628.667	0
628.855	0
629.042	-0.01
629.23	-0.02
629.418	-0.02
629.605	-0.03
629.793	-0.03
629.98	-0.02
630.168	-0.01
630.355	-0.03
630.543	0.02
630.73	-0.04
630.917	0.02
631.105	0.04
631.292	-0.03
631.48	-0.06
631.667	0.05
631.854	0.01
632.042	-0.04
632.229	-0.07
632.416	-0
632.604	-0.05
632.791	-0.05
632.978	-0
633.165	0.03
633.353	0.04
633.54	0.02
633.727	-0.08
633.914	-0.04
634.101	-0.07
634.289	0.02
634.476	-0.05
634.663	-0.04
634.85	-0.01
635.037	-0.05
635.224	-0.08
635.411	-0
635.598	0.03
635.785	-0
635.972	-0.03
636.159	-0.01
636.346	-0.06
636.533	-0.02
636.72	-0.04
636.907	-0.04
637.094	-0
637.281	-0.01
637.468	0
637.655	-0.01
637.842	-0.03
638.029	-0.07
638.215	-0.02
638.402	-0.02
638.589	-0.04
638.776	-0.02
638.963	-0.07
639.149	0.01
639.336	0.02
639.523	-0.03
639.709	-0.02
639.896	-0.02
640.083	0.03
640.27	0.01
640.456	-0.03
640.643	0
640.829	-0.03
641.016	-0.04
641.203	-0.04
641.389	-0.02
641.576	-0.01
641.762	-0.02
641.949	-0.04
642.135	-0.03
642.322	-0.03
642.508	-0.04
642.695	-0.04
642.881	-0.03
643.068	-0.04
643.254	-0.01
643.441	0.01
643.627	-0.01
643.813	-0.03
644	0.04
644.186	-0.04
644.372	-0.04
644.559	0.04
644.745	-0.02
644.931	-0.03
645.118	-0.04
645.304	-0.03
645.49	-0.05
645.676	-0.02
645.862	-0.04
646.049	-0
646.235	-0.02
646.421	0
646.607	0.04
646.793	-0.03
646.979	-0.05
647.165	-0.01
647.352	-0.01
647.538	0.03
647.724	-0
647.91	-0.02
648.096	0.03
648.282	0.02
648.468	-0.01
648.654	-0.03
648.84	-0.02
649.026	-0.02
649.212	-0.05
649.397	-0.08
649.583	-0.05
649.769	-0.03
649.955	-0.03
650.141	-0.04
650.327	0.05
650.513	-0.06
650.698	-0.02
650.884	-0.09
651.07	-0.04
651.256	-0.03
651.442	-0.04
651.627	-0.03
651.813	-0.02
651.999	-0.02
652.184	-0.01
652.37	-0.03
652.556	-0.04
652.741	0.04
652.927	-0.09
653.113	-0.03
653.298	-0.03
653.484	-0.03
653.669	-0.08
653.855	-0.02
654.04	-0.02
654.226	-0.02
654.412	-0.02
654.597	-0.03
654.782	-0.02
654.968	0
655.153	0.02
655.339	-0.04
655.524	-0.09
655.71	0.01
655.895	-0.03
656.08	-0.03
656.266	0.02
656.451	0.01
656.636	-0.07
656.822	-0.03
657.007	-0.04
657.192	-0.03
657.378	-0.09
657.563	-0.04
657.748	-0.01
657.933	-0.01
658.118	-0.03
658.304	-0.02
658.489	-0.01
658.674	-0.03
658.859	-0.03
659.044	-0.02
659.229	-0.02
659.414	-0.05
659.599	-0.04
659.785	-0.09
659.97	-0.04
660.155	-0.02
660.34	-0.02
660.525	-0.04
660.71	-0.04
660.895	-0.05
661.08	-0.07
661.264	-0.03
661.449	0.02
661.634	0.05
661.819	0.01
662.004	0.01
662.189	-0.1
662.374	-0.02
662.559	-0.06
662.743	-0.09
662.928	-0.06
663.113	-0.05
663.298	-0.07
663.483	-0.06
663.667	-0.01
663.852	-0.05
664.037	-0.02
664.221	-0.07
664.406	-0.03
664.591	-0.01
664.775	-0.02
664.96	0.01
665.145	-0.02
665.329	0.02
665.514	-0.07
665.698	-0.03
665.883	-0.13
666.068	0.04
666.252	-0.03
666.437	-0.06
666.621	-0.03
666.806	0.01
666.99	0.01
667.174	-0.07
667.359	0.01
667.543	-0.02
667.728	-0.02
667.912	-0.08
668.096	0.01
668.281	-0.04
668.465	-0.05
668.649	-0
668.834	-0.09
669.018	-0.04
669.202	-0.05
669.387	-0.07
669.571	-0.01
669.755	-0.05
669.939	-0.02
670.124	-0.03
670.308	0.03
670.492	0.01
670.676	-0.01
670.86	-0.04
671.044	-0.09
671.228	0.01
671.413	-0.08
671.597	-0.03
671.781	-0.05
671.965	-0.01
672.149	-0.03
672.333	-0.04
672.517	-0.08
672.701	0
672.885	-0.04
673.069	-0.09
673.253	0.02
673.437	-0.01
673.621	-0.07
673.804	-0.05
673.988	0.01
674.172	-0.06
674.356	-0.03
674.54	-0.05
674.724	0.03
674.908	-0.03
675.091	-0.02
675.275	-0.02
675.459	0
675.643	0.01
675.826	-0.03
676.01	-0.05
676.194	-0.06
676.377	-0.02
676.561	-0.04
676.745	-0.03
676.928	0.01
677.112	-0.01
677.296	-0.03
677.479	-0.05
677.663	-0.05
677.846	-0.01
678.03	-0.01
678.213	-0.04
678.397	0.02
678.58	0
678.764	-0.07
678.947	-0.04
679.131	-0.07
679.314	0.02
679.498	-0.03
679.681	-0.02
679.865	0.01
680.048	-0.03
680.231	-0.03
680.415	-0.02
680.598	-0.02
680.781	-0.04
680.965	-0
681.148	-0.01
681.331	-0.06
681.514	-0
681.698	-0.05
681.881	-0
682.064	-0.03
682.247	-0
682.43	-0.09
682.614	-0.01
682.797	-0.02
682.98	0.05
683.163	-0.07
683.346	-0.04
683.529	-0.05
683.712	-0.05
683.895	0.03
684.078	-0.09
684.261	-0.01
684.444	-0.03
684.627	-0.04
684.81	-0.04
684.993	0
685.176	-0.03
685.359	-0.12
685.542	-0.04
685.725	0.04
685.908	-0.05
686.091	-0.01
686.274	-0.03
686.457	0.01
686.639	-0.07
686.822	-0.02
687.005	0.02
687.188	0
687.371	0.05
687.553	-0.03
687.736	-0.01
687.919	0.08
688.102	0.04
688.284	-0.08
688.467	-0.04
688.65	0.01
688.832	-0.02
689.015	-0.03
689.197	-0.09
689.38	0.09
689.563	0.06
689.745	-0.06
689.928	-0.06
690.11	-0.03
690.293	-0.01
690.475	-0.09
690.658	0.01
690.84	-0.04
691.023	-0.02
691.205	-0.05
691.388	-0.03
691.57	0.01
691.752	0.02
691.935	-0.08
692.117	-0.04
692.3	-0.03
692.482	-0.05
692.664	-0.02
692.847	-0.02
693.029	0.02
693.211	0
693.393	-0.08
693.576	-0.03
693.758	-0
693.94	-0.05
694.122	-0.1
694.304	-0.04
694.487	-0.01
694.669	0.03
694.851	-0.05
695.033	-0.03
695.215	-0.07
695.397	-0.07
695.579	-0.03
695.761	-0.05
695.943	-0.09
696.125	0.02
696.308	-0.04
696.49	-0.13
696.671	0.13
696.853	-0
697.035	0.08
697.217	-0.07
697.399	0.02
697.581	-0.09
697.763	-0.06
697.945	-0.07
698.127	-0.02
698.309	0.05
698.491	-0.03
698.672	0.01
698.854	0.02
699.036	0.06
699.218	-0.06
699.399	0.03
699.581	-0
699.763	-0.03
699.945	-0.03
700.126	-0.08
700.308	-0.07
700.49	-0.01
700.671	-0.1
700.853	-0.06
701.035	-0.05
701.216	-0.02
701.398	-0.07
701.579	-0.07
701.761	0
701.943	-0.04
702.124	-0.11
702.306	-0.06
702.487	0.11
702.669	-0
702.85	-0.09
703.031	-0.07
703.213	0.04
703.394	0.05
703.576	-0.07
703.757	0.01
703.938	0.02
704.12	0.09
704.301	-0.05
704.483	-0.09
704.664	0.04
704.845	0.01
705.026	-0.03
705.208	-0.06
705.389	0.01
705.57	0.02
705.751	-0.07
705.933	-0.06
706.114	0.06
706.295	0.02
706.476	-0.09
706.657	0.01
706.838	0.02
707.02	-0
707.201	-0.02
707.382	-0.07
707.563	-0.03
707.744	-0.04
707.925	-0.06
708.106	-0.08
708.287	0
708.468	0.02
708.649	-0.04
708.83	-0.03
709.011	-0.05
709.192	-0.01
709.373	-0.08
709.554	-0.05
709.734	0.04
709.915	0.06
710.096	0.03
710.277	-0.15
710.458	-0.02
710.639	-0.01
710.819	-0.15
711	-0.03
711.181	0.04
711.362	0.01
711.542	-0.06
711.723	-0.06
711.904	0.07
712.085	0.04
712.265	-0.01
712.446	-0.1
712.627	-0.1
712.807	-0.08
712.988	-0.03
713.168	-0.12
713.349	-0.01
713.53	-0.12
713.71	-0.08
713.891	-0.15
714.071	-0.03
714.252	-0.09
714.432	-0.03
714.613	-0.14
714.793	-0.02
714.974	0.05
715.154	-0.01
715.334	0.01
715.515	0.04
715.695	-0.12
715.876	-0
716.056	-0.11
716.236	-0.02
716.417	-0.03
716.597	-0.1
716.777	0.08
716.957	-0.08
717.138	-0.07
717.318	-0
717.498	-0.17
717.678	-0.03
717.859	-0.05
718.039	-0.09
718.219	-0.06
718.399	0.06
718.579	-0.09
718.759	-0.14
718.939	0.05
719.12	-0.04
719.3	0.02
719.48	-0.19
719.66	-0.19
719.84	0.09
720.02	-0.03
720.2	-0.11
720.38	-0.03
720.56	0.09
720.74	-0.01
720.92	-0.1
721.1	0.16
721.279	0.02
721.459	-0.02
721.639	-0.14
721.819	-0.06
721.999	-0.06
722.179	-0.01
722.359	-0.1
722.538	-0.05
722.718	-0.01
722.898	-0.06
723.078	0.02
723.257	-0.06
723.437	-0.03
723.617	-0.01
723.797	-0.1
723.976	-0.03
724.156	-0.01
724.336	0.04
724.515	0.11
724.695	-0.2
724.874	0.01
725.054	-0.01
725.234	-0.11
725.413	0.02
725.593	-0.07
725.772	-0.07
725.952	-0.08
726.131	-0.06
726.311	-0.09
726.49	-0.05
726.67	-0.1
726.849	-0.06
727.028	-0.02
727.208	-0.07
727.387	-0.03
727.567	-0.07
727.746	-0.08
727.925	-0.1
728.105	-0.16
728.284	-0.06
728.463	-0.06
728.643	-0.02
728.822	-0.15
729.001	-0.03
729.18	0.01
729.359	-0.02
729.539	-0.07
729.718	-0
729.897	-0.02
730.076	-0.02
730.255	-0.2
730.434	0.01
730.614	-0.05
730.793	-0.01
730.972	-0.03
731.151	0
731.33	0.05
731.509	-0.01
731.688	-0.08
731.867	-0.04
732.046	-0.24
732.225	0.02
732.404	-0.19
732.583	-0.12
732.762	-0.04
732.941	-0.01
733.12	-0.04
733.298	-0.18
733.477	0.06
733.656	-0.11
733.835	-0.2
734.014	0.07
734.193	-0.04
734.371	-0.06
734.55	-0.02
734.729	-0.16
734.908	-0.07
735.086	0
735.265	-0.08
735.444	-0.23
735.623	-0.08
735.801	-0.1
735.98	-0.06
736.159	-0.05
736.337	0
736.516	-0.12
736.694	-0.06
736.873	-0.17
737.052	0.19
737.23	0.06
737.409	-0.02
737.587	0.12
737.766	-0.21
737.944	-0.08
738.123	-0.05
738.301	-0.04
738.479	-0.19
738.658	-0.1
738.836	-0.19
739.015	-0.05
739.193	0.04
739.371	-0.16
739.55	-0.16
739.728	-0.21
739.906	0.06
740.085	0.03
740.263	-0.02
740.441	-0.24
740.62	0.13
740.798	-0.03
740.976	-0.14
741.154	-0.16
741.332	-0.04
741.511	-0.08
741.689	-0.12
741.867	-0.06
742.045	-0.05
742.223	-0.1
742.401	-0.19
742.579	-0.1
742.757	0.02
742.935	-0.2
743.114	-0.13
743.292	-0.12
743.47	-0.03
743.648	-0.03
743.826	-0.17
744.004	-0.04
744.181	-0.11
744.359	-0.05
744.537	-0.02
744.715	-0.06
744.893	0
745.071	-0.1
745.249	-0.11
745.427	-0.09
745.605	0.06
745.782	0.02
745.96	0.03
746.138	0.02
746.316	0.04
746.493	-0.06
746.671	0.07
746.849	-0.04
747.027	0.18
747.204	-0.13
747.382	0.01
747.56	-0.13
747.737	-0.04
747.915	-0.11
748.093	-0.06
748.27	-0.04
748.448	-0.17
748.625	-0.21
748.803	-0.12
748.98	-0.13
749.158	-0.07
749.335	-0.04
749.513	-0.06
749.69	-0.11
749.868	-0.1
750.045	-0.01
750.223	-0.14
750.4	-0.27
750.578	0.1
750.755	-0.06
750.932	-0.19
751.11	0.03
751.287	-0.26
751.464	0.1
751.642	-0.17
751.819	-0.08
751.996	-0.05
752.173	-0.13
752.351	-0.13
752.528	-0.01
752.705	-0.04
752.882	-0.14
753.06	-0.07
753.237	0.02
753.414	0.14
753.591	0.11
753.768	-0.01
753.945	-0.14
754.122	-0.13
754.299	-0.01
754.476	-0.19
754.654	-0.01
754.831	0.02
755.008	0.06
755.185	-0.12
755.362	-0.16
755.539	-0.05
755.716	-0.09
755.892	-0.04
756.069	-0.03
756.246	-0.15
756.423	-0.08
756.6	0.09
756.777	-0.03
756.954	-0.01
757.131	-0.05
757.307	-0.2
757.484	-0.1
757.661	-0.06
757.838	-0.06
758.015	-0.17
758.191	0.02
758.368	-0.01
758.545	0.12
758.721	0.05
758.898	-0.04
759.075	-0.02
759.251	-0.01
759.428	0.03
759.605	-0.14
759.781	-0.12
759.958	-0.04
760.134	-0.1
760.311	-0.14
760.488	0.01
760.664	0.06
760.841	-0.14
761.017	-0.16
761.194	0.03
761.37	-0.02
761.547	-0.08
761.723	-0.01
761.899	0.09
762.076	-0.21
762.252	-0.11
762.429	-0.03
762.605	0.05
762.781	0.05
762.958	0.04
763.134	-0.01
763.31	0
763.486	0.11
763.663	-0.32
763.839	-0.04
764.015	-0.33
764.191	-0.13
764.368	0.01
764.544	-0.11
764.72	0.07
764.896	0.04
765.072	0.01
765.248	-0.13
765.425	-0.11
765.601	-0.01
765.777	-0.01
765.953	-0.19
766.129	-0.09
766.305	-0.26
766.481	0.03
766.657	-0.1
766.833	0.05
767.009	-0.19
767.185	-0.12
767.361	-0.04
767.537	-0.26
767.713	0.15
767.889	-0.05
768.065	-0.17
768.24	0.05
768.416	0.07
768.592	-0.11
768.768	-0.22
768.944	-0.03
769.12	-0.1
769.295	-0.12
769.471	-0.1
769.647	-0.06
769.823	-0.06
769.998	-0.19
770.174	-0.17
770.35	0.33
770.525	0.16
770.701	-0.06
770.877	0.02
771.052	-0.14
771.228	0.04
771.403	-0.09
771.579	0.02
771.755	0.18
771.93	-0.1
772.106	-0.18
772.281	-0.34
772.457	-0.1
772.632	0.04
772.808	-0.27
772.983	-0.09
773.159	-0.21
773.334	-0.01
773.509	-0.01
773.685	-0.11
773.86	0.31
774.036	0.13
774.211	-0.13
774.386	-0.24
774.562	0.07
774.737	0.15
774.912	-0.23
775.087	-0.03
775.263	-0.03
775.438	-0.26
775.613	-0.13
775.788	-0.06
775.964	0.15
776.139	0.43
776.314	-0.24
776.489	0.04
776.664	-0.11
776.839	-0.13
777.014	0.03
777.19	-0.02
777.365	0.01
777.54	0.1
777.715	-0.27
777.89	-0.05
778.065	-0.15
778.24	-0.15
778.415	0.1
778.59	-0.17
778.765	-0.03
778.94	0.08
779.115	-0.15
779.289	-0.11
779.464	-0.01
779.639	-0.03
779.814	-0.15
779.989	-0.3
780.164	0.02
780.339	-0.01
780.513	-0.07
780.688	-0.1
780.863	-0.22
781.038	-0.04
781.212	-0.13
781.387	-0.18
781.562	0.1
781.737	-0.11
781.911	0.19
782.086	-0.24
782.261	-0.08
782.435	0.16
782.61	-0.12
782.784	-0.07
782.959	-0.02
783.134	-0.24
783.308	-0.08
783.483	-0.21
783.657	0.28
783.832	0.03
784.006	-0.33
784.181	-0.07
784.355	0.14
784.53	-0.31
784.704	-0.27
784.878	0.21
785.053	0.03
785.227	0
785.402	0.21
785.576	-0.27
785.75	0.01
785.925	-0.25
786.099	-0.06
786.273	-0.3
786.448	0.04
786.622	-0.1
786.796	-0.2
786.97	-0.25
787.145	0.37
787.319	-0.48
787.493	-0.27
787.667	-0.35
787.841	-0.33
788.015	0.26
788.19	-0.21
788.364	-0.17
788.538	0.16
788.712	0.19
788.886	-0.1
789.06	0.08
789.234	0.04
789.408	-0.41
789.582	-0.17
789.756	-0.14
789.93	-0.16
790.104	-0.09
790.278	-0.18
790.452	-0.12
790.626	0.13
790.8	-0.14
790.973	-0.13
791.147	0.11
791.321	0.34
791.495	0.06
791.669	-0.11
791.843	-0.1
792.016	-0.06
792.19	0.21
792.364	-0.38
792.538	0.46
792.711	0.18
792.885	-0.2
793.059	-0.42
793.233	-0.56
793.406	0.19
793.58	-0.2
793.754	-0.23
793.927	0.13
794.101	0.27
794.274	-0.05
794.448	0.31
794.622	-0.38
794.795	0.13
794.969	-0.27
795.142	0.06
795.316	-0.18
795.489	-0.21
795.663	0.2
795.836	-0.11
796.009	-0.3
796.183	0.22
796.356	-0.1
796.53	-0.11
796.703	-0.15
796.876	0.48
797.05	-0.31
797.223	-0.19
797.396	0.08
797.57	-0.13
797.743	0.38
797.916	-0.07
798.09	-0.19
798.263	0.34
798.436	-0.02
798.609	-0.23
798.782	-0.19
798.956	-0.11
799.129	-0.13
799.302	-0.28
799.475	-0.1
799.648	-0.32
799.821	0.08
799.994	0.11
800.167	-0.28
800.34	-0.12
800.514	0.04
800.687	-0.43
800.86	0.02
801.033	0.18
801.206	0.03
801.379	-0.42
801.551	0.33
801.724	0.2
801.897	0.22
802.07	0.03
802.243	-0.37
802.416	0.24
802.589	0.06
802.762	-0.08
802.935	-0.29
803.107	0.09
803.28	-0.09
803.453	0.49
803.626	-0.38
803.798	-0.16
803.971	-0.52
804.144	-0.06
804.317	0.02
804.489	0.01
804.662	0.05
804.835	0.02
805.007	-0.56
805.18	0.13
805.353	0.12
805.525	-0.6
805.698	-0.3
805.87	0.05
806.043	0.09
806.215	-0.57
806.388	-0.15
806.56	-0.31
806.733	0.33
806.905	-0.01
807.078	-0.24
807.25	-0.61
807.423	-0.03
807.595	-0.26
807.768	-0.12
807.94	0.12
808.112	-0.02
808.285	-0.2
808.457	-0.07
808.629	-0.31
808.802	-0.05
808.974	-0.03
809.146	-0.14
809.318	-0.61
809.491	0.13
809.663	0.16
809.835	-0.58
810.007	0.18
810.18	-0.05
810.352	-0.51
810.524	-0.47
810.696	0.15
810.868	0.41
811.04	0.17
811.212	-0.38
811.384	0.09
811.556	-0.1
811.728	-0.32
811.901	0.32
812.073	-0.35
812.245	0.23
812.417	-0.21
812.589	-1.09
812.76	-0.09
812.932	-0.12
813.104	0.14
813.276	-0.53
813.448	0.25
813.62	-0.18
813.792	0.1
813.964	-0.06
814.136	0.08
814.307	-0.43
814.479	-0.07
814.651	-0.21
814.823	0.56
814.995	-0.16
815.166	-0.28
815.338	-0.38
815.51	-0.96
815.681	0.7
815.853	-0.17
816.025	-0.44
816.196	0.25
816.368	-0.13
816.54	-0.79
816.711	-0.25
816.883	-0.41
817.054	0.59
817.226	-0.81
817.398	-0.18
817.569	-0.17
817.741	-0.02
817.912	-0.21
818.084	-0.4
818.255	0
818.426	-0.32
818.598	-0.23
818.769	-0.35
818.941	-0.01
819.112	0.99
819.283	0.23
819.455	-0.15
819.626	-0.15
819.798	0.23
819.969	-0.18
820.14	-0.03
820.311	-0.71
820.483	0.02
820.654	0.3
820.825	-0.32
820.996	-0.46
821.168	-0.63
821.339	-0.11
821.51	-0.32
821.681	-0.16
821.852	-0.25
822.023	-0.78
822.195	-1.19
822.366	0.24
822.537	-0.34
822.708	-0.15
822.879	-0.45
823.05	0.24
823.221	-0.41
823.392	0.22
823.563	-0.35
823.734	0.24
823.905	0.13
824.076	-0.52
824.247	-0.71
824.418	-0.51
824.589	0.48
824.759	-0.6
824.93	-0.32
825.101	-1.11
825.272	-0.39
825.443	0.58
825.614	-0.08
825.784	-0.84
825.955	1.11
826.126	0.58
826.297	-0.08
826.467	-0.16
826.638	0.24
826.809	-1.56
826.98	-0.41
827.15	-0.4
827.321	-0.02
827.492	0.45
827.662	-0.53
827.833	0.61
828.003	0.47
828.174	-1.37
828.345	-0.25
828.515	0.27
828.686	-0.44
828.856	-0.23
829.027	-0.49
829.197	0.03
829.368	0.14
829.538	-0.51
829.709	-0.59
829.879	0.23
830.049	-0.39
830.22	-0.15
830.39	0.22
830.56	0.25
830.731	-0.43
830.901	-0.58
831.072	-0.78
831.242	-0.21
831.412	-0.1
831.582	-0.2
831.753	-1
831.923	-0.1
832.093	-0.6
832.263	-0.38
832.434	-0.57
832.604	-0.33
832.774	0.06
832.944	-0.6
833.114	-0.69
833.284	0.1
833.454	-0.53
833.624	-0.73
833.795	-0.4
833.965	0.35
834.135	-0.08
834.305	-0.9
834.475	-0.51
834.645	-0.57
834.815	-1.07
834.985	-0.74
835.155	-0.94
835.325	0.17
835.494	0.02
835.664	-0.52
835.834	-1.11
836.004	-0.32
836.174	-0.13
836.344	-0.05
836.514	-0.86
836.684	-0.23
836.853	-0.16
837.023	0.2
837.193	-0.46
837.363	0.11
837.532	0.37
837.702	-0.24
837.872	-0.54
838.041	0.46
838.211	0.8
838.381	-1.35
838.55	-0.46
838.72	1.21
838.89	0.93
839.059	-0.01
839.229	-1.11
839.398	0.39
839.568	-0.38
839.738	-0.23
839.907	0.9
840.077	-0.32
840.246	-0.76
840.416	-0.75
840.585	-1.22
840.755	0.97
840.924	1.23
841.093	-0.84
841.263	-0.72
841.432	-0.23
841.602	-1.27
841.771	-1.73
841.94	-0.24
842.11	1.58
842.279	0.77
842.448	-0.95
842.617	0.2
842.787	-0.02
842.956	-1.16
843.125	-0.35
843.294	0.21
843.464	0.77
843.633	0.01
843.802	-1.59
843.971	-0.15
844.14	0.38
844.309	0.65
844.479	-1.24
844.648	-0.96
844.817	-0.63
844.986	0.18
845.155	-0.68
845.324	-0.72
845.493	0.56
845.662	-0.22
845.831	0.27
846	-0.35
846.169	-0.12
846.338	1.16
846.507	-0.28
846.676	0.1
846.844	-1.17
847.013	0.73
847.182	0.11
847.351	-1.39
847.52	0.12
847.689	0.59
847.858	-0.36
848.026	-1.09
848.195	0.34
848.364	-1.01
848.533	-0.69
848.701	-1.16
848.87	0.06
849.039	-0.07
849.207	0.06
849.376	1.34
849.545	0.47
849.713	-1.6
849.882	-0.1
850.051	-0.51
850.219	0.6
850.388	0.32
850.556	-1.33
850.725	-1.74
850.893	-0.3
851.062	-0.77
851.23	0.15
851.399	-1.2
851.567	-0.73
851.736	-0.32
851.904	-1.33
852.073	-0.23
852.241	1.17
852.41	-0.06
852.578	-1.25
852.746	-0.17
852.915	-0.22
853.083	-0.89
853.251	-1.05
853.42	-0.34
853.588	0.26
853.756	-0.06
853.924	-0.32
854.093	-0.9
854.261	-0.76
854.429	-0.62
854.597	0.38
854.765	-1.7
854.934	0.14
855.102	0.63
855.27	-0.11
855.438	0.84
855.606	1.05
855.774	0.28
855.942	-1.01
856.11	-1.28
856.278	-0.15
856.446	0.73
856.614	-0.1
856.782	-0.87
856.95	0.39
857.118	-0.09
857.286	-0.44
857.454	-1.91
857.622	0.39
857.79	-0.38
857.958	-1.51
858.126	-0.86
858.294	-2.83
858.462	-0.64
858.629	-0.81
858.797	-1.01
858.965	-0.47
859.133	0.25
859.301	-0.67
859.468	-0.24
859.636	-0.68
859.804	0.45
859.971	0.52
860.139	-0.19
860.307	1.55
860.474	0.7
860.642	0.22
860.81	-0.94
860.977	-1.47
861.145	0.4
861.313	-1.32
861.48	0.3
861.648	0.78
861.815	0.55
861.983	-2.22
862.15	-0.92
862.318	0.45
862.485	0.47
862.653	-0.85
862.82	-0.9
862.988	1.16
863.155	0.6
863.322	-1.65
863.49	-1.61
863.657	-1.36
863.824	1.65
863.992	-1.78
864.159	0.07
864.326	0.24
864.494	-0.41
864.661	2
864.828	-2.6
864.996	0.41
865.163	1.07
865.33	-1.15
865.497	-2.76
865.664	-1.21
865.832	-2.47
865.999	-1.02
866.166	-1.57
866.333	-0.75
866.5	-1.08
866.667	-1.35
866.834	-1.24
867.001	0.87
867.168	-2.51
867.335	0.65
867.502	-1.9
867.669	-0.67
867.836	1.51
868.003	-1.01
868.17	1.49
868.337	-0.91
868.504	1.19
868.671	-1.58
868.838	-1.44
869.005	0.32
869.172	1.36
869.339	-0.33
869.505	-1.12
869.672	-0.41
869.839	1.84
870.006	-0.09
870.173	-3.07
870.339	-0.71
870.506	2.15
870.673	-1.72
870.84	1.89
871.006	-0.06
871.173	-1.42
871.34	0.46
871.506	-2.68
871.673	0.24
871.839	-2.06
872.006	0.72
872.173	-0.56
872.339	0.78
872.506	1.95
872.672	-1.15
872.839	-2.26
873.005	-0.6
873.172	2.02
873.338	0.4
873.505	0.18
873.671	-0.13
873.838	0.34
874.004	-2.4
874.171	-0.91
874.337	-1.35
874.503	-0.34
874.67	-0.02
874.836	-0.36
875.002	1.35
875.169	1.39
875.335	-0.16
875.501	-2
875.668	-1.44
875.834	-0.57
876	0.6
876.166	-0.23
876.332	0.11
876.499	0.61
876.665	-1.54
876.831	0.71
876.997	2
877.163	1.58
877.329	-0.59
877.495	-0.02
877.662	1.45
877.828	0.04
877.994	-1.14
878.16	-3.03
878.326	0.46
878.492	-0.35
878.658	-0.39
878.824	1.3
878.99	1.54
879.156	-1.43
879.322	0.8
879.487	-2.02
879.653	-0.8
879.819	-1.6
879.985	-2.36
880.151	-0.65
880.317	-0.65
880.483	-1.61
880.648	1.27
880.814	-3.25
880.98	-0.07
881.146	-2.8
881.312	-2.21
881.477	-1.3
881.643	-0.86
881.809	0.72
881.974	1.47
882.14	-4.77
882.306	-0.87
882.471	1.36
882.637	-1.03
882.803	1.89
882.968	1.08
883.134	2.58
883.299	-1.33
883.465	-1.01
883.63	-0.15
883.796	-0.73
883.961	0.68
884.127	-0.3
884.292	-4.75
884.458	-2.88
884.623	-2.88
