Data from Apollo_Calib_20240827__AbsoluteIrradiance__125__01-14-00-783.txt Node

Date: Wed Aug 28 01:14:00 BST 2024
User: biology
Spectrometer: FLMT08252
Trigger mode: 0
Integration Time (sec): 5.000000E-1
Scans to average: 5
Electric dark correction enabled: true
Nonlinearity correction enabled: false
Boxcar width: 0
XAxis mode: Wavelengths
Number of Pixels in Spectrum: 3648
>>>>>Begin Spectral Data<<<<<
179.588	-0
179.809	-0
180.03	-0
180.251	-0
180.473	-0
180.694	0
180.915	0
181.136	-0
181.357	0
181.578	0
181.799	-0
182.02	-0
182.241	-0
182.462	-0
182.683	0
182.904	-0
183.125	0
183.346	0
183.567	0
183.788	-0
184.009	-0
184.23	0
184.451	0
184.672	-0
184.892	-0
185.113	0
185.334	0
185.555	-0
185.776	-0
185.996	0
186.217	0
186.438	0
186.659	-0
186.879	0
187.1	0
187.321	-0
187.541	-0
187.762	-0
187.983	-0
188.203	0
188.424	0
188.644	-0
188.865	0
189.086	-0
189.306	-0
189.527	0
189.747	0
189.968	-0
190.188	0
190.409	-0
190.629	0
190.849	-0
191.07	-0
191.29	0
191.511	0
191.731	-0
191.951	-0
192.172	-0
192.392	-0
192.612	-0
192.833	-0
193.053	0
193.273	0
193.493	0
193.714	0
193.934	0
194.154	0
194.374	0
194.594	0
194.815	0
195.035	0
195.255	0
195.475	-0
195.695	0
195.915	0
196.135	-0
196.355	0
196.575	0
196.795	-0
197.015	-0
197.235	-0
197.455	-0
197.675	0
197.895	-0
198.115	-0
198.335	0
198.555	-0
198.775	0
198.995	0
199.214	0
199.434	0
199.654	-0
199.874	-0
200.094	0.84
200.313	-0.62
200.533	-0.31
200.753	-0.55
200.973	0.71
201.192	0.6
201.412	-0.74
201.632	-0.31
201.851	0.61
202.071	-0.35
202.291	-0.2
202.51	-0.52
202.73	0.41
202.95	0.07
203.169	-0.22
203.389	0.16
203.608	0.51
203.828	-0.76
204.047	-0.56
204.267	-0.03
204.486	0.09
204.706	0.24
204.925	0.05
205.145	-0.37
205.364	0.43
205.583	0.56
205.803	-0.27
206.022	-0.41
206.242	-0.1
206.461	0.19
206.68	-0.5
206.9	0.29
207.119	0.44
207.338	0.32
207.557	-0.24
207.777	0.03
207.996	-0.15
208.215	0.51
208.434	0.03
208.654	-0.4
208.873	0.19
209.092	0.29
209.311	-0.09
209.53	-0.01
209.749	-0.18
209.968	-0.4
210.187	-0.26
210.407	-0.5
210.626	-0.34
210.845	0.35
211.064	0.08
211.283	-0.16
211.502	0.02
211.721	0.13
211.94	-0.01
212.159	0.09
212.377	0.12
212.596	0.16
212.815	0
213.034	0.02
213.253	0.17
213.472	0.14
213.691	-0.14
213.91	-0.25
214.128	0
214.347	0.27
214.566	-0.33
214.785	-0.27
215.003	0.21
215.222	-0.03
215.441	0.03
215.66	-0.37
215.878	-0.07
216.097	-0.08
216.316	-0.18
216.534	-0.08
216.753	0.03
216.972	-0.2
217.19	-0.14
217.409	-0.19
217.627	-0.21
217.846	-0.09
218.064	-0.08
218.283	-0.2
218.501	0.25
218.72	0.19
218.938	-0.26
219.157	-0.14
219.375	0.17
219.594	-0.17
219.812	-0.2
220.031	-0.18
220.249	0.2
220.467	0.31
220.686	-0.07
220.904	-0.17
221.122	-0.04
221.341	0.25
221.559	0
221.777	-0.24
221.995	-0.14
222.214	0.13
222.432	-0.05
222.65	0.08
222.868	0.05
223.086	-0.01
223.305	0.09
223.523	-0.17
223.741	0.31
223.959	-0.17
224.177	-0.27
224.395	-0.07
224.613	-0
224.831	0.09
225.049	-0.06
225.267	-0.15
225.485	-0.02
225.703	-0.02
225.921	0.06
226.139	-0.04
226.357	0.11
226.575	-0.06
226.793	-0.17
227.011	0.43
227.229	0.01
227.447	0.16
227.665	-0.04
227.883	-0.21
228.1	-0.13
228.318	0.12
228.536	-0.24
228.754	-0.15
228.972	0.1
229.189	0.12
229.407	-0.02
229.625	-0.1
229.843	0.24
230.06	0.09
230.278	-0.07
230.496	-0.03
230.713	0.07
230.931	0.07
231.149	-0.05
231.366	-0.14
231.584	0.03
231.801	0.34
232.019	-0.1
232.236	-0.1
232.454	-0.1
232.671	-0.02
232.889	-0.02
233.106	-0.15
233.324	-0.02
233.541	-0.08
233.759	-0.05
233.976	-0.03
234.194	0.02
234.411	-0.01
234.628	-0.08
234.846	-0.08
235.063	-0
235.28	-0.09
235.498	-0.01
235.715	-0.11
235.932	0.21
236.149	0
236.367	0.01
236.584	0.05
236.801	-0.02
237.018	0.1
237.236	-0.04
237.453	-0.2
237.67	0.1
237.887	-0.05
238.104	-0.01
238.321	-0.08
238.538	-0.1
238.755	0.13
238.973	-0.14
239.19	0
239.407	0.06
239.624	0.03
239.841	-0.14
240.058	-0.12
240.275	0.11
240.492	0.03
240.709	0
240.925	-0.05
241.142	0.09
241.359	-0.07
241.576	-0.01
241.793	-0.04
242.01	-0.01
242.227	0.1
242.444	0.04
242.66	0.08
242.877	0.01
243.094	-0.08
243.311	0.02
243.527	-0.02
243.744	-0.07
243.961	-0.01
244.178	-0.08
244.394	0.03
244.611	0.19
244.828	0.15
245.044	-0.04
245.261	-0.02
245.477	0.06
245.694	0.04
245.911	-0.05
246.127	0.02
246.344	0.05
246.56	0.06
246.777	-0.06
246.993	0.04
247.21	-0.03
247.426	0.02
247.643	0
247.859	-0.15
248.076	-0.02
248.292	0.12
248.508	-0.01
248.725	-0.01
248.941	0.03
249.157	0.05
249.374	-0.03
249.59	-0.01
249.806	-0
250.023	-0.03
250.239	-0.08
250.455	-0.03
250.671	0.03
250.888	0.04
251.104	0.09
251.32	-0.1
251.536	-0.02
251.752	-0.04
251.969	0.05
252.185	-0.03
252.401	0.22
252.617	0.07
252.833	-0.11
253.049	-0.01
253.265	0.04
253.481	-0.01
253.697	-0.03
253.913	-0.09
254.129	-0.03
254.345	-0.02
254.561	-0.08
254.777	-0.04
254.993	0.04
255.209	0.02
255.425	-0.08
255.641	-0.05
255.857	0.05
256.073	0.04
256.288	-0.03
256.504	-0.14
256.72	-0.01
256.936	0.09
257.152	-0.02
257.367	-0.03
257.583	-0.06
257.799	0.08
258.015	-0.05
258.23	-0.03
258.446	0.12
258.662	0.01
258.877	-0.06
259.093	-0.09
259.309	-0.03
259.524	0.03
259.74	0
259.955	-0.15
260.171	0
260.387	0.02
260.602	0.07
260.818	0.03
261.033	-0.07
261.249	0.02
261.464	-0.03
261.68	-0.12
261.895	0.01
262.11	0.08
262.326	-0.03
262.541	-0.08
262.757	0.08
262.972	0.03
263.187	-0.01
263.403	0
263.618	0.02
263.833	-0.02
264.049	-0.08
264.264	0.02
264.479	0.04
264.694	0.09
264.91	-0.05
265.125	-0.01
265.34	0.06
265.555	0.12
265.77	0.1
265.986	-0.11
266.201	0.06
266.416	0.06
266.631	-0.01
266.846	0.02
267.061	0.05
267.276	0.07
267.491	-0.09
267.706	0.06
267.921	0.06
268.136	0.04
268.351	-0
268.566	-0.02
268.781	0.05
268.996	0.08
269.211	-0.01
269.426	-0.05
269.641	-0.01
269.856	0.02
270.071	-0.01
270.285	-0.04
270.5	0.07
270.715	0.06
270.93	-0.01
271.145	0.04
271.359	0.02
271.574	-0.04
271.789	-0.03
272.004	-0.07
272.218	-0.01
272.433	0.02
272.648	-0.1
272.862	0.07
273.077	0.01
273.292	0.01
273.506	-0.04
273.721	-0.05
273.936	-0.02
274.15	0.03
274.365	-0.07
274.579	0.05
274.794	0.04
275.008	0.06
275.223	-0.06
275.437	-0
275.652	-0.01
275.866	-0.03
276.081	-0.03
276.295	0.06
276.509	0.03
276.724	-0.02
276.938	-0.02
277.153	0.03
277.367	0.04
277.581	-0.02
277.796	-0.04
278.01	-0.03
278.224	0.03
278.438	0.09
278.653	-0.03
278.867	-0.04
279.081	-0.02
279.295	-0.02
279.51	-0.03
279.724	-0.08
279.938	0.06
280.152	0.06
280.366	-0.01
280.58	0.03
280.794	0.01
281.008	0.04
281.222	0.06
281.437	0.11
281.651	0.03
281.865	0.12
282.079	-0.02
282.293	-0.1
282.507	-0.04
282.721	-0.04
282.935	0.01
283.148	-0.05
283.362	-0.02
283.576	-0.09
283.79	-0
284.004	-0.06
284.218	0.05
284.432	-0.01
284.646	0.03
284.859	0.02
285.073	-0.05
285.287	0.02
285.501	-0.03
285.714	-0.05
285.928	0.08
286.142	0.05
286.356	-0.02
286.569	-0.03
286.783	0.07
286.997	0
287.21	0.03
287.424	0.03
287.637	0.01
287.851	-0.03
288.065	0.06
288.278	-0.03
288.492	0.06
288.705	0.02
288.919	0.01
289.132	-0.07
289.346	0.07
289.559	-0.04
289.773	-0.04
289.986	-0.02
290.2	-0.03
290.413	0.03
290.626	-0.03
290.84	0.01
291.053	0.04
291.267	0.11
291.48	-0.03
291.693	-0
291.906	-0.01
292.12	-0.04
292.333	-0.03
292.546	-0.02
292.76	0.08
292.973	0.04
293.186	0.04
293.399	-0.02
293.612	0.02
293.826	0.03
294.039	-0.03
294.252	-0.01
294.465	0.07
294.678	0.04
294.891	0.07
295.104	-0.03
295.317	0.01
295.53	0.02
295.743	-0.03
295.956	-0.01
296.169	0.08
296.382	0.04
296.595	0.02
296.808	-0.06
297.021	0.05
297.234	0.02
297.447	-0.01
297.66	0.04
297.873	0.07
298.086	-0.02
298.299	-0.05
298.511	-0.09
298.724	-0.02
298.937	-0.06
299.15	-0.04
299.363	-0.02
299.575	0.05
299.788	0.02
300.001	0.04
300.213	0.01
300.426	-0.02
300.639	-0.05
300.852	-0
301.064	0.02
301.277	0.07
301.489	0.06
301.702	0.01
301.915	0
302.127	-0.01
302.34	0.01
302.552	0.04
302.765	-0.02
302.977	0.05
303.19	-0.03
303.402	-0.03
303.615	0.02
303.827	-0.02
304.04	0.01
304.252	0.01
304.464	-0.04
304.677	0.09
304.889	0.02
305.102	-0.02
305.314	-0.02
305.526	0.03
305.739	0.05
305.951	-0.01
306.163	-0.01
306.375	0.08
306.588	-0.06
306.8	0
307.012	-0.05
307.224	0.02
307.436	0.06
307.649	-0.05
307.861	0.02
308.073	0.04
308.285	0.01
308.497	-0.03
308.709	-0.02
308.921	0.02
309.133	0.06
309.346	0.02
309.558	-0
309.77	0.07
309.982	0.06
310.194	0.08
310.406	-0.03
310.617	0.05
310.829	-0
311.041	0.03
311.253	-0.02
311.465	0.02
311.677	-0.01
311.889	0.01
312.101	0.03
312.313	0.05
312.524	0.07
312.736	-0.05
312.948	-0.01
313.16	0.04
313.372	0.05
313.583	0.02
313.795	-0
314.007	-0
314.218	0.05
314.43	-0.02
314.642	-0.02
314.853	-0.05
315.065	0.03
315.277	0.02
315.488	0.01
315.7	0.04
315.912	-0.02
316.123	-0.01
316.335	0.03
316.546	0.11
316.758	0.01
316.969	-0.02
317.181	0.04
317.392	0.04
317.604	0.03
317.815	-0.02
318.026	-0.02
318.238	-0.02
318.449	0.01
318.661	-0.06
318.872	-0.02
319.083	-0.04
319.295	0.03
319.506	0.01
319.717	0.06
319.929	0.03
320.14	0.04
320.351	0.05
320.562	-0.01
320.774	-0.02
320.985	0.01
321.196	-0.06
321.407	-0.01
321.618	0.04
321.829	0.03
322.041	0.04
322.252	-0.01
322.463	0.02
322.674	0.03
322.885	-0.05
323.096	-0
323.307	-0
323.518	0.02
323.729	-0.01
323.94	0.01
324.151	-0.01
324.362	0.05
324.573	-0
324.784	-0.03
324.995	0.06
325.206	0.02
325.417	-0.01
325.628	-0
325.838	0.02
326.049	0.02
326.26	0.02
326.471	0.01
326.682	0.05
326.892	0.02
327.103	-0.02
327.314	-0.01
327.525	0.04
327.735	0.02
327.946	-0.05
328.157	-0.03
328.368	0
328.578	0
328.789	0.05
328.999	0.03
329.21	-0.01
329.421	0.01
329.631	-0.02
329.842	-0.02
330.052	0.01
330.263	0.05
330.473	0.05
330.684	0.03
330.894	-0
331.105	0.05
331.315	0
331.526	-0.05
331.736	0.05
331.947	0.02
332.157	-0.01
332.367	-0
332.578	0.07
332.788	0.08
332.999	0.01
333.209	0.05
333.419	-0.02
333.629	-0
333.84	0.06
334.05	-0.01
334.26	0.08
334.47	-0
334.681	0.08
334.891	-0.01
335.101	0.04
335.311	0.07
335.521	0.03
335.732	-0
335.942	0.05
336.152	0.02
336.362	0.04
336.572	0.02
336.782	0.04
336.992	-0
337.202	0.01
337.412	-0.06
337.622	0.06
337.832	-0
338.042	-0
338.252	-0.01
338.462	-0.02
338.672	0
338.882	0.03
339.092	0
339.302	0.07
339.511	0.04
339.721	-0
339.931	-0.04
340.141	0.06
340.351	0.06
340.561	0.03
340.77	0.03
340.98	0.04
341.19	0.03
341.4	-0.03
341.609	-0.04
341.819	0
342.029	-0
342.238	0.04
342.448	0.01
342.658	0.02
342.867	0.03
343.077	0.02
343.286	-0.01
343.496	0.01
343.706	0.06
343.915	-0.03
344.125	0.01
344.334	0.03
344.544	-0.05
344.753	-0.01
344.963	-0.01
345.172	0
345.381	0.01
345.591	-0.05
345.8	0.01
346.01	0.02
346.219	0.06
346.428	-0.14
346.638	0.03
346.847	-0.03
347.056	0.07
347.266	0
347.475	0.02
347.684	0.04
347.893	0.03
348.103	0.02
348.312	-0.03
348.521	0.02
348.73	0.05
348.94	0.05
349.149	0.01
349.358	0.01
349.567	-0.03
349.776	-0.07
349.985	-0.03
350.194	0.01
350.403	0.05
350.612	-0.03
350.821	0.02
351.03	0.02
351.239	-0.04
351.448	-0
351.657	-0.01
351.866	0.09
352.075	0.02
352.284	0.07
352.493	-0.04
352.702	0.05
352.911	0.01
353.12	0.04
353.329	-0.01
353.538	0.05
353.746	0.01
353.955	0.03
354.164	0.03
354.373	-0.01
354.582	0.02
354.79	0.03
354.999	0.04
355.208	-0.02
355.416	0.06
355.625	-0.02
355.834	0.03
356.042	0.04
356.251	0.02
356.46	0.01
356.668	0.03
356.877	0.11
357.085	0.04
357.294	-0.06
357.503	0.02
357.711	0.03
357.92	0.12
358.128	0.02
358.337	-0.03
358.545	0.06
358.754	-0.02
358.962	0.05
359.17	0.04
359.379	0.05
359.587	0.05
359.796	-0
360.004	0.05
360.212	0.02
360.421	0.06
360.629	-0.01
360.837	0.01
361.046	0.05
361.254	0.14
361.462	0.07
361.67	-0
361.879	0.07
362.087	0.08
362.295	0.02
362.503	-0
362.711	0.01
362.92	0.01
363.128	0.02
363.336	-0.02
363.544	-0.03
363.752	0.03
363.96	0.02
364.168	-0.02
364.376	0.02
364.584	0.03
364.792	0.05
365	0.04
365.208	0.03
365.416	0.06
365.624	0.05
365.832	0.01
366.04	0.07
366.248	0.07
366.456	0.03
366.664	0.03
366.872	0.04
367.079	0.04
367.287	0.04
367.495	0.08
367.703	0.06
367.911	0.06
368.118	0.08
368.326	0.07
368.534	0.03
368.742	0.16
368.949	0.06
369.157	0.09
369.365	0.15
369.572	0.1
369.78	0.08
369.988	0.18
370.195	0.2
370.403	0.16
370.61	0.2
370.818	0.22
371.026	0.31
371.233	0.21
371.441	0.3
371.648	0.3
371.856	0.35
372.063	0.34
372.271	0.35
372.478	0.43
372.685	0.44
372.893	0.5
373.1	0.5
373.308	0.54
373.515	0.67
373.722	0.67
373.93	0.68
374.137	0.72
374.344	0.83
374.552	0.82
374.759	0.85
374.966	0.92
375.173	0.94
375.381	1.09
375.588	1.07
375.795	1.04
376.002	1.16
376.209	1.19
376.417	1.27
376.624	1.35
376.831	1.41
377.038	1.47
377.245	1.46
377.452	1.65
377.659	1.73
377.866	1.77
378.073	1.91
378.28	1.96
378.487	2.12
378.694	2.18
378.901	2.25
379.108	2.35
379.315	2.45
379.522	2.56
379.729	2.64
379.936	2.73
380.143	2.84
380.35	3.01
380.557	3.13
380.763	3.13
380.97	3.28
381.177	3.42
381.384	3.63
381.591	3.78
381.797	3.8
382.004	3.95
382.211	4.12
382.418	4.14
382.624	4.23
382.831	4.27
383.038	4.46
383.244	4.45
383.451	4.44
383.658	4.42
383.864	4.52
384.071	4.45
384.277	4.57
384.484	4.54
384.69	4.47
384.897	4.37
385.103	4.44
385.31	4.33
385.516	4.22
385.723	4.14
385.929	4.1
386.136	3.87
386.342	3.83
386.549	3.71
386.755	3.6
386.961	3.58
387.168	3.43
387.374	3.23
387.58	3.19
387.787	2.97
387.993	2.91
388.199	2.75
388.406	2.62
388.612	2.46
388.818	2.37
389.024	2.26
389.231	2.22
389.437	2.25
389.643	2.14
389.849	2.1
390.055	1.98
390.261	1.86
390.467	1.91
390.674	1.75
390.88	1.76
391.086	1.69
391.292	1.61
391.498	1.64
391.704	1.52
391.91	1.46
392.116	1.43
392.322	1.31
392.528	1.4
392.734	1.27
392.94	1.29
393.146	1.24
393.352	1.24
393.557	1.1
393.763	1.13
393.969	1.13
394.175	1.08
394.381	1.05
394.587	0.93
394.792	0.93
394.998	1
395.204	1
395.41	0.78
395.615	0.86
395.821	0.84
396.027	0.85
396.233	0.76
396.438	0.77
396.644	0.81
396.85	0.69
397.055	0.7
397.261	0.64
397.466	0.69
397.672	0.6
397.878	0.65
398.083	0.53
398.289	0.5
398.494	0.56
398.7	0.52
398.905	0.39
399.111	0.52
399.316	0.41
399.522	0.44
399.727	0.39
399.932	0.4
400.138	0.45
400.343	0.41
400.549	0.39
400.754	0.35
400.959	0.39
401.165	0.35
401.37	0.37
401.575	0.42
401.78	0.35
401.986	0.32
402.191	0.33
402.396	0.29
402.601	0.34
402.807	0.28
403.012	0.27
403.217	0.31
403.422	0.28
403.627	0.28
403.832	0.22
404.037	0.29
404.243	0.27
404.448	0.26
404.653	0.23
404.858	0.28
405.063	0.29
405.268	0.23
405.473	0.19
405.678	0.23
405.883	0.33
406.088	0.25
406.293	0.19
406.498	0.12
406.703	0.22
406.907	0.18
407.112	0.16
407.317	0.2
407.522	0.22
407.727	0.15
407.932	0.18
408.136	0.23
408.341	0.19
408.546	0.09
408.751	0.18
408.956	0.15
409.16	0.18
409.365	0.14
409.57	0.14
409.774	0.11
409.979	0.16
410.184	0.14
410.388	0.07
410.593	0.19
410.798	0.15
411.002	0.1
411.207	0.15
411.411	0.12
411.616	0.09
411.82	0.12
412.025	0.1
412.229	0.09
412.434	0.19
412.638	0.13
412.843	0.12
413.047	0.15
413.252	0.08
413.456	0.07
413.66	0.14
413.865	0.08
414.069	0.17
414.273	0.06
414.478	0.06
414.682	0.07
414.886	0.04
415.091	0.05
415.295	0
415.499	0.1
415.703	0.07
415.908	0.08
416.112	0.01
416.316	0.13
416.52	0.06
416.724	0.03
416.929	0.07
417.133	0.16
417.337	0.05
417.541	0.05
417.745	0.08
417.949	0.11
418.153	0.1
418.357	0.06
418.561	0.12
418.765	0.07
418.969	0.18
419.173	0.16
419.377	0.06
419.581	0.16
419.785	0.01
419.989	-0.01
420.193	0.09
420.397	0.03
420.601	0.07
420.804	0.08
421.008	0.08
421.212	0.07
421.416	0.09
421.62	0.03
421.823	0.05
422.027	0.14
422.231	0.05
422.435	0.04
422.638	0.05
422.842	0.06
423.046	-0
423.249	0.09
423.453	0.13
423.657	0.11
423.86	0.03
424.064	0.04
424.268	0.15
424.471	0.07
424.675	0.18
424.878	0.09
425.082	0.03
425.285	0.1
425.489	0.07
425.692	0.09
425.896	0.01
426.099	0.06
426.303	0.03
426.506	-0
426.71	0.1
426.913	0.15
427.116	0.13
427.32	0.01
427.523	0.06
427.726	0.16
427.93	-0.02
428.133	0.05
428.336	-0.01
428.54	-0.01
428.743	0.08
428.946	0.07
429.149	0.07
429.353	0.11
429.556	0.06
429.759	0.07
429.962	0.01
430.165	0.04
430.368	0.06
430.571	0.04
430.775	0.07
430.978	0.04
431.181	0.09
431.384	0.06
431.587	0.03
431.79	0.04
431.993	0.08
432.196	0.09
432.399	0.06
432.602	0.13
432.805	0.07
433.008	0.07
433.211	-0.03
433.414	0.07
433.616	0.08
433.819	0.08
434.022	0.03
434.225	0.18
434.428	0.13
434.631	0.17
434.833	0.06
435.036	0.04
435.239	0.13
435.442	0.1
435.645	0.03
435.847	0.07
436.05	0.13
436.253	0.08
436.455	0.05
436.658	0.08
436.861	0.17
437.063	0.04
437.266	0.09
437.468	0.11
437.671	0.17
437.874	0.09
438.076	0.06
438.279	0
438.481	0.08
438.684	0.04
438.886	0.11
439.089	-0.01
439.291	0.07
439.494	0.15
439.696	0.04
439.899	0.08
440.101	0.1
440.303	0.01
440.506	0.14
440.708	0.1
440.91	0.12
441.113	0.01
441.315	0.11
441.517	0.07
441.72	0.12
441.922	0.05
442.124	0.05
442.326	0.1
442.529	0.15
442.731	0.08
442.933	0.18
443.135	0.06
443.337	0.08
443.539	0.08
443.742	0.06
443.944	0.05
444.146	0.04
444.348	0.08
444.55	0.05
444.752	0.09
444.954	0.05
445.156	0.11
445.358	0.04
445.56	0.13
445.762	0.05
445.964	0.07
446.166	0.08
446.368	0.09
446.57	0.15
446.772	0.12
446.974	0.07
447.175	0.12
447.377	0.06
447.579	0.15
447.781	0.03
447.983	0.18
448.184	0.08
448.386	0.12
448.588	0.06
448.79	0.08
448.991	0.04
449.193	0.08
449.395	0.06
449.597	0.16
449.798	0.11
450	0.15
450.202	0.11
450.403	0.13
450.605	0.12
450.806	0.08
451.008	-0
451.21	0.11
451.411	0.04
451.613	0.07
451.814	0.09
452.016	0.08
452.217	0.09
452.419	0.11
452.62	0.09
452.821	0.11
453.023	0.15
453.224	0.12
453.426	0.09
453.627	0.15
453.828	0.13
454.03	0.08
454.231	0.13
454.432	0.03
454.634	0.14
454.835	0.02
455.036	0.02
455.238	0.11
455.439	0.09
455.64	0.03
455.841	0.01
456.042	0.18
456.244	0.14
456.445	0.07
456.646	0.01
456.847	0.04
457.048	0.12
457.249	0.11
457.45	0.29
457.651	-0.01
457.852	0.12
458.054	0.05
458.255	0.02
458.456	0.1
458.657	0.07
458.858	0.02
459.058	0.05
459.259	0.12
459.46	0.02
459.661	0.02
459.862	0.17
460.063	0.03
460.264	0.09
460.465	0.01
460.666	0.13
460.866	0.04
461.067	0.02
461.268	0.03
461.469	0.05
461.67	0.02
461.87	0.08
462.071	0.04
462.272	0.04
462.473	0.07
462.673	0.08
462.874	-0.01
463.075	0.05
463.275	0.03
463.476	0.1
463.676	0.04
463.877	0.01
464.078	0.04
464.278	0.09
464.479	0.05
464.679	0.09
464.88	0.03
465.08	0.09
465.281	0
465.481	0.04
465.682	0.05
465.882	0.09
466.083	0.06
466.283	0.07
466.483	0.03
466.684	0.02
466.884	0.01
467.085	0.02
467.285	0.05
467.485	-0.01
467.686	0
467.886	-0
468.086	0.01
468.286	0.04
468.487	0.04
468.687	-0.04
468.887	0.07
469.087	0.05
469.287	0.02
469.488	-0.02
469.688	0.08
469.888	0.04
470.088	0.08
470.288	0.07
470.488	0.07
470.688	0
470.888	-0
471.088	-0.02
471.288	0.07
471.488	0.07
471.688	0.06
471.888	0
472.088	0.05
472.288	0.06
472.488	-0.03
472.688	-0
472.888	-0.01
473.088	0.04
473.288	0.04
473.488	0.03
473.688	0.1
473.887	0.02
474.087	-0.02
474.287	0.04
474.487	0.01
474.687	0.07
474.886	-0
475.086	0.01
475.286	0.05
475.486	-0.03
475.685	0.03
475.885	0
476.085	-0
476.284	0.08
476.484	0.03
476.684	0.04
476.883	0.09
477.083	0.04
477.282	0
477.482	0.06
477.681	0.1
477.881	0.01
478.08	-0.01
478.28	-0.04
478.479	0.04
478.679	0.1
478.878	-0.01
479.078	0.02
479.277	0.01
479.477	0.04
479.676	0.07
479.875	0
480.075	-0.04
480.274	0.03
480.473	0.03
480.673	-0.01
480.872	0.03
481.071	0.04
481.271	0.03
481.47	-0.01
481.669	0.01
481.868	0.02
482.067	0.01
482.267	-0.01
482.466	-0.02
482.665	0.01
482.864	-0.03
483.063	-0.01
483.262	0.03
483.461	0.06
483.661	0.06
483.86	0.03
484.059	0.01
484.258	0.01
484.457	0
484.656	0.03
484.855	0.04
485.054	-0.03
485.253	-0.02
485.452	-0.02
485.651	0
485.849	0.01
486.048	0.02
486.247	-0.03
486.446	0.03
486.645	-0.01
486.844	-0.01
487.043	0.01
487.241	0.03
487.44	-0.01
487.639	-0.01
487.838	0.05
488.037	0.04
488.235	0.07
488.434	0
488.633	-0.02
488.831	0.04
489.03	0.05
489.229	0.01
489.427	0.01
489.626	0.06
489.825	0.05
490.023	0
490.222	0
490.42	0.05
490.619	0.01
490.817	0.04
491.016	0.01
491.214	0.04
491.413	-0.01
491.611	-0.01
491.81	0.01
492.008	0.04
492.207	0.03
492.405	0.03
492.604	-0.03
492.802	-0.01
493	-0
493.199	0
493.397	0.01
493.595	-0.01
493.794	0.01
493.992	0.05
494.19	0.01
494.388	0.02
494.587	-0.01
494.785	0.02
494.983	-0.01
495.181	0.01
495.379	-0.01
495.578	0
495.776	0.01
495.974	0.01
496.172	0
496.37	0
496.568	0
496.766	-0.04
496.964	0.03
497.162	0.01
497.36	-0.01
497.558	0.01
497.756	0.03
497.954	0.01
498.152	-0.02
498.35	0.03
498.548	0.01
498.746	0.01
498.944	0
499.142	0
499.34	-0.02
499.538	0.03
499.736	-0.01
499.933	0.02
500.131	0.06
500.329	0.03
500.527	0.03
500.725	0.05
500.922	0.01
501.12	0.01
501.318	0.02
501.516	-0.02
501.713	0.03
501.911	0.01
502.109	-0.02
502.306	0.02
502.504	0.01
502.701	0.01
502.899	0
503.097	0.04
503.294	0
503.492	-0
503.689	0.01
503.887	0.02
504.084	0.07
504.282	0
504.479	-0.02
504.677	0.02
504.874	-0.02
505.072	0.02
505.269	0.01
505.466	0.02
505.664	0.01
505.861	-0.04
506.059	-0
506.256	0.03
506.453	0.01
506.651	0.04
506.848	0.03
507.045	0.02
507.242	-0
507.44	0
507.637	0.02
507.834	0
508.031	0.03
508.229	-0.01
508.426	0.01
508.623	0.04
508.82	0
509.017	-0.01
509.214	-0.01
509.411	-0.01
509.608	-0.02
509.805	0.01
510.003	-0.02
510.2	-0.01
510.397	0.04
510.594	-0.02
510.791	-0.02
510.988	0.02
511.184	0.01
511.381	0.01
511.578	-0.03
511.775	0.03
511.972	-0.02
512.169	-0.01
512.366	-0
512.563	0.02
512.76	0
512.956	0.01
513.153	0
513.35	-0
513.547	0.02
513.744	0.02
513.94	-0.03
514.137	0.03
514.334	0.01
514.53	0.01
514.727	0.02
514.924	0.03
515.12	-0.02
515.317	-0.01
515.514	-0
515.71	-0.01
515.907	-0.01
516.103	0
516.3	0.01
516.497	0.04
516.693	0.03
516.89	0.02
517.086	-0.01
517.283	0.04
517.479	0.03
517.676	-0.01
517.872	-0.01
518.068	-0.01
518.265	-0.01
518.461	-0
518.658	-0.02
518.854	0.02
519.05	-0
519.247	-0.03
519.443	0.01
519.639	0.02
519.836	0.02
520.032	0.01
520.228	-0.01
520.424	0.05
520.621	0.03
520.817	0
521.013	0.02
521.209	-0
521.405	0.03
521.601	-0
521.798	0.02
521.994	0.02
522.19	0.01
522.386	-0.01
522.582	-0.01
522.778	0.02
522.974	0.02
523.17	0.01
523.366	0.03
523.562	0.03
523.758	0.01
523.954	-0
524.15	-0.01
524.346	0.03
524.542	-0
524.738	-0.02
524.934	0
525.129	0.01
525.325	0.02
525.521	0
525.717	0.01
525.913	0.01
526.109	-0
526.304	0.01
526.5	0.01
526.696	0.03
526.892	0.01
527.087	0
527.283	-0.02
527.479	0.01
527.674	-0.01
527.87	-0.01
528.066	-0
528.261	0.01
528.457	-0.01
528.653	0
528.848	0
529.044	0.01
529.239	0.01
529.435	0.04
529.63	0.01
529.826	0.06
530.021	0.02
530.217	0.02
530.412	0
530.608	0
530.803	0.01
530.999	-0
531.194	-0.03
531.389	0.02
531.585	-0.04
531.78	0.01
531.975	0.02
532.171	0.04
532.366	0
532.561	-0
532.757	-0
532.952	-0.02
533.147	0.02
533.342	0.01
533.538	-0.02
533.733	0.03
533.928	-0.01
534.123	0.01
534.318	-0.01
534.513	0.02
534.709	0.01
534.904	-0.02
535.099	-0.02
535.294	-0
535.489	0.02
535.684	-0.02
535.879	-0.01
536.074	0.02
536.269	-0
536.464	0.03
536.659	0.01
536.854	-0.01
537.049	0.04
537.244	0.01
537.439	-0.02
537.634	0.03
537.828	0.01
538.023	-0.01
538.218	-0.02
538.413	0
538.608	-0.05
538.803	0.01
538.997	-0.01
539.192	0.04
539.387	0.02
539.582	0.03
539.776	0.01
539.971	0
540.166	-0.03
540.36	-0.03
540.555	0.02
540.75	0
540.944	-0.01
541.139	-0.03
541.334	-0.03
541.528	0.02
541.723	0.03
541.917	0
542.112	-0.04
542.306	0.02
542.501	-0.02
542.695	0.01
542.89	-0.02
543.084	-0.01
543.279	0.01
543.473	0.01
543.668	-0
543.862	0.01
544.056	0.04
544.251	0.02
544.445	0.01
544.64	0
544.834	-0.02
545.028	0
545.222	0.02
545.417	0.02
545.611	0.02
545.805	0.01
546	0.01
546.194	-0
546.388	-0.02
546.582	0.02
546.776	0.01
546.97	0.01
547.165	-0
547.359	0.01
547.553	-0.02
547.747	0.01
547.941	-0
548.135	0.01
548.329	0.03
548.523	0.03
548.717	-0
548.911	-0.01
549.105	-0.01
549.299	0.03
549.493	0.02
549.687	-0
549.881	0.02
550.075	0
550.269	-0.02
550.463	0.01
550.657	0
550.85	0
551.044	-0.01
551.238	-0
551.432	-0.01
551.626	0.01
551.82	-0
552.013	0
552.207	0.01
552.401	0.02
552.594	-0.01
552.788	-0.01
552.982	0.01
553.176	-0.02
553.369	0
553.563	0.01
553.756	-0.01
553.95	-0.04
554.144	-0.02
554.337	0.01
554.531	0.01
554.724	0
554.918	0.02
555.111	0.01
555.305	0.02
555.498	0.08
555.692	0.05
555.885	0.01
556.079	0.01
556.272	-0
556.466	0.01
556.659	0
556.852	0
557.046	-0
557.239	0.01
557.432	-0.03
557.626	-0.01
557.819	0.02
558.012	0.02
558.206	0.02
558.399	0.02
558.592	0.01
558.785	-0.01
558.979	0.02
559.172	0.02
559.365	0.04
559.558	0.02
559.751	-0.01
559.944	-0
560.138	0.01
560.331	-0.01
560.524	0.01
560.717	0.01
560.91	-0.01
561.103	0.02
561.296	0.01
561.489	0
561.682	0.01
561.875	0.02
562.068	0.01
562.261	-0.02
562.454	0.04
562.647	0.02
562.84	0.03
563.032	-0
563.225	0.02
563.418	-0.01
563.611	-0.01
563.804	-0.01
563.997	-0
564.19	-0.03
564.382	-0
564.575	-0.01
564.768	0.01
564.961	-0
565.153	-0.01
565.346	0.01
565.539	0.04
565.731	0.03
565.924	0.03
566.117	0.01
566.309	0.03
566.502	-0
566.695	0
566.887	0.02
567.08	-0.02
567.272	0
567.465	-0
567.657	0.01
567.85	0
568.042	0.01
568.235	0.04
568.427	0.01
568.62	-0
568.812	0.02
569.005	-0.01
569.197	-0.04
569.389	0.03
569.582	0.03
569.774	0.01
569.966	-0
570.159	-0.03
570.351	0.01
570.543	-0.02
570.736	0
570.928	-0.01
571.12	0.01
571.312	-0.01
571.505	-0.02
571.697	0.04
571.889	-0.03
572.081	-0
572.273	-0.02
572.465	0.02
572.658	0.01
572.85	0.02
573.042	0.02
573.234	-0.01
573.426	0.02
573.618	-0.03
573.81	0.01
574.002	0.03
574.194	0.04
574.386	-0.02
574.578	-0.05
574.77	-0.02
574.962	-0.01
575.154	-0.03
575.346	0
575.538	0
575.729	-0.03
575.921	0
576.113	0.01
576.305	0.03
576.497	-0.02
576.689	-0
576.88	0
577.072	0.01
577.264	-0
577.456	-0.01
577.647	-0.06
577.839	-0.02
578.031	0.05
578.223	-0.03
578.414	-0.02
578.606	-0.02
578.798	-0.02
578.989	-0.01
579.181	-0.01
579.372	-0.01
579.564	-0.01
579.755	0
579.947	0.02
580.139	0.01
580.33	-0.01
580.522	-0.02
580.713	-0.06
580.905	0
581.096	0.03
581.287	0
581.479	-0.01
581.67	0.01
581.862	0.01
582.053	-0.02
582.244	-0.02
582.436	0
582.627	0.01
582.818	-0.02
583.01	-0.03
583.201	0.02
583.392	0.01
583.583	0
583.775	-0
583.966	-0.03
584.157	-0.02
584.348	0
584.54	-0.02
584.731	0.01
584.922	0.02
585.113	-0.02
585.304	0.04
585.495	0.05
585.686	0
585.877	0
586.068	0.04
586.259	0.02
586.45	0.02
586.641	-0.02
586.832	-0.04
587.023	0.01
587.214	-0.01
587.405	0.03
587.596	-0.02
587.787	0.04
587.978	0.03
588.169	-0.01
588.36	0.01
588.551	0.01
588.742	-0.05
588.932	-0
589.123	-0.01
589.314	0.02
589.505	0.02
589.696	0.01
589.886	-0.05
590.077	-0.07
590.268	0.01
590.458	-0.05
590.649	-0.03
590.84	0
591.03	-0.03
591.221	-0.02
591.412	-0.03
591.602	0.02
591.793	0.03
591.984	-0.02
592.174	0.03
592.365	0.06
592.555	-0.02
592.746	0.03
592.936	0.02
593.127	0.01
593.317	0.01
593.508	-0.01
593.698	-0.04
593.889	0.02
594.079	-0.01
594.269	-0
594.46	-0
594.65	0.01
594.84	0
595.031	-0.02
595.221	-0
595.411	-0.04
595.602	0.01
595.792	-0.02
595.982	-0.02
596.172	0.04
596.363	0.01
596.553	0.02
596.743	0.01
596.933	0.01
597.123	0.02
597.314	-0.03
597.504	-0.02
597.694	0.04
597.884	0.04
598.074	-0.01
598.264	-0.02
598.454	-0.02
598.644	0.01
598.834	-0.01
599.024	-0.06
599.214	-0
599.404	0.03
599.594	-0.01
599.784	-0.02
599.974	0.03
600.164	0.03
600.354	-0.01
600.544	-0.04
600.734	0.01
600.924	0.02
601.114	-0.01
601.303	-0
601.493	0.02
601.683	0
601.873	0.01
602.063	-0.04
602.252	0.02
602.442	-0.06
602.632	0
602.821	-0.03
603.011	0.04
603.201	-0.02
603.39	-0.01
603.58	0
603.77	0.05
603.959	0.06
604.149	0.01
604.339	-0.01
604.528	0.05
604.718	-0
604.907	-0.01
605.097	-0.02
605.286	-0.04
605.476	0.03
605.665	-0.01
605.855	0.01
606.044	0.04
606.234	0.03
606.423	-0.02
606.612	-0.02
606.802	0.02
606.991	0.03
607.181	0.01
607.37	-0.03
607.559	0.02
607.749	-0.03
607.938	-0.01
608.127	-0.02
608.316	-0.03
608.506	0.02
608.695	0
608.884	-0.03
609.073	0.01
609.263	-0
609.452	0.02
609.641	0.02
609.83	-0.02
610.019	0.02
610.208	-0.03
610.397	0.03
610.586	-0.02
610.775	-0.02
610.965	-0.01
611.154	-0.04
611.343	-0.01
611.532	0.01
611.721	-0.03
611.91	-0.02
612.099	0.03
612.287	-0.03
612.476	-0.03
612.665	-0.01
612.854	-0.01
613.043	0.03
613.232	0.01
613.421	-0.06
613.61	-0
613.798	-0.04
613.987	0.03
614.176	-0.01
614.365	0.02
614.554	0.01
614.742	0.02
614.931	-0.03
615.12	0.02
615.309	-0.02
615.497	0.04
615.686	-0.04
615.875	-0.01
616.063	0.02
616.252	-0.01
616.44	-0.01
616.629	0
616.818	-0.01
617.006	-0.01
617.195	-0
617.383	0.01
617.572	-0.01
617.76	-0
617.949	0.01
618.137	0.02
618.326	0.02
618.514	-0.03
618.703	-0.04
618.891	0.01
619.079	-0.08
619.268	0.01
619.456	-0.01
619.644	0.03
619.833	0
620.021	-0.01
620.209	-0.03
620.398	0.01
620.586	0
620.774	0.02
620.962	0
621.151	0.05
621.339	0.03
621.527	-0.03
621.715	-0.03
621.903	-0.04
622.092	0.01
622.28	0.01
622.468	-0.03
622.656	0
622.844	0.01
623.032	0
623.22	-0.06
623.408	-0
623.596	-0
623.784	-0.01
623.972	-0.01
624.16	-0.02
624.348	0.06
624.536	-0
624.724	-0.01
624.912	0.06
625.1	0.05
625.288	-0.02
625.476	-0.03
625.664	0.03
625.851	-0.03
626.039	0.01
626.227	0.01
626.415	-0
626.603	-0.06
626.79	0.02
626.978	0.02
627.166	0.03
627.354	0.02
627.541	-0.03
627.729	-0.05
627.917	0.03
628.104	0
628.292	0.01
628.48	0.01
628.667	-0
628.855	0.01
629.042	0.01
629.23	0.01
629.418	0.02
629.605	-0.03
629.793	-0
629.98	-0.01
630.168	0.01
630.355	-0.01
630.543	0.03
630.73	-0.01
630.917	0.04
631.105	0.06
631.292	-0.01
631.48	0
631.667	0.08
631.854	0.05
632.042	-0.01
632.229	-0.05
632.416	-0
632.604	0.01
632.791	0.01
632.978	0.03
633.165	0.03
633.353	0.07
633.54	0.03
633.727	-0.05
633.914	0
634.101	-0.08
634.289	0.07
634.476	-0
634.663	-0.04
634.85	0.02
635.037	-0.06
635.224	-0.02
635.411	0.01
635.598	0.03
635.785	0.01
635.972	0
636.159	0.02
636.346	0
636.533	-0.01
636.72	-0
636.907	0.03
637.094	0.04
637.281	0.02
637.468	0.04
637.655	0.02
637.842	0.03
638.029	-0.01
638.215	0.05
638.402	0.03
638.589	0.01
638.776	-0
638.963	-0
639.149	0.08
639.336	0.09
639.523	0.03
639.709	0.01
639.896	-0
640.083	0.08
640.27	0.04
640.456	0.01
640.643	0.03
640.829	-0.02
641.016	0.04
641.203	-0.04
641.389	0.05
641.576	0.04
641.762	-0
641.949	-0.03
642.135	0.05
642.322	0.04
642.508	-0.01
642.695	0.03
642.881	0.07
643.068	0.01
643.254	0.04
643.441	0.05
643.627	0.02
643.813	-0.01
644	0.08
644.186	0.01
644.372	0.03
644.559	0.08
644.745	0
644.931	0.03
645.118	0.07
645.304	0.03
645.49	0.02
645.676	0.02
645.862	0.07
646.049	0.08
646.235	0.04
646.421	0.11
646.607	0.07
646.793	0.06
646.979	0.03
647.165	0.04
647.352	0.06
647.538	0.07
647.724	0.08
647.91	0.06
648.096	0.07
648.282	0.08
648.468	0.05
648.654	0.07
648.84	0.08
649.026	0.06
649.212	0.07
649.397	0.06
649.583	0.04
649.769	0.13
649.955	0.08
650.141	0.11
650.327	0.12
650.513	0.07
650.698	0.11
650.884	-0.01
651.07	0.09
651.256	0.06
651.442	0.08
651.627	0.07
651.813	0.06
651.999	0.08
652.184	0.09
652.37	0.07
652.556	0.05
652.741	0.12
652.927	0
653.113	0.04
653.298	0.12
653.484	0.06
653.669	0.03
653.855	0.08
654.04	0.1
654.226	0.08
654.412	0.08
654.597	0.05
654.782	0.06
654.968	0.14
655.153	0.12
655.339	0.08
655.524	0.05
655.71	0.1
655.895	0.12
656.08	0.07
656.266	0.15
656.451	0.14
656.636	0.05
656.822	0.1
657.007	0.07
657.192	0.09
657.378	0.04
657.563	0.12
657.748	0.13
657.933	0.14
658.118	0.07
658.304	0.12
658.489	0.14
658.674	0.14
658.859	0.07
659.044	0.13
659.229	0.12
659.414	0.11
659.599	0.1
659.785	0.06
659.97	0.09
660.155	0.12
660.34	0.14
660.525	0.09
660.71	0.08
660.895	0.13
661.08	0.08
661.264	0.05
661.449	0.11
661.634	0.12
661.819	0.11
662.004	0.12
662.189	0.03
662.374	0.05
662.559	0.03
662.743	0.04
662.928	0.08
663.113	0.04
663.298	-0.02
663.483	0.06
663.667	0.08
663.852	0.05
664.037	0.1
664.221	0.04
664.406	0.07
664.591	0.09
664.775	0.07
664.96	-0
665.145	0.03
665.329	0.04
665.514	-0
665.698	0.02
665.883	-0.01
666.068	0.09
666.252	0.05
666.437	-0.03
666.621	-0
666.806	0.04
666.99	0.03
667.174	0
667.359	0.08
667.543	-0
667.728	-0.02
667.912	-0.05
668.096	0.05
668.281	-0.01
668.465	0.03
668.649	0.01
668.834	-0.02
669.018	0.01
669.202	0.02
669.387	-0.02
669.571	0.07
669.755	-0.06
669.939	0
670.124	0.02
670.308	0.09
670.492	0.03
670.676	0.01
670.86	-0
671.044	0
671.228	0.02
671.413	-0.01
671.597	-0.04
671.781	-0.07
671.965	0.01
672.149	-0
672.333	0.02
672.517	-0.04
672.701	0.04
672.885	-0.01
673.069	-0.07
673.253	0.04
673.437	-0.02
673.621	-0
673.804	0.02
673.988	-0.02
674.172	-0.01
674.356	-0.05
674.54	-0.04
674.724	0.1
674.908	-0.05
675.091	0.05
675.275	-0.04
675.459	0.01
675.643	0.03
675.826	0.01
676.01	-0.01
676.194	-0.05
676.377	-0.02
676.561	0.02
676.745	-0
676.928	0.02
677.112	0.04
677.296	-0.03
677.479	-0.01
677.663	-0.02
677.846	0.02
678.03	-0.05
678.213	-0.02
678.397	0.01
678.58	0.02
678.764	-0.04
678.947	-0.03
679.131	-0.05
679.314	0.01
679.498	-0.05
679.681	0.01
679.865	0.04
680.048	-0.01
680.231	0.02
680.415	0
680.598	-0.06
680.781	-0.02
680.965	-0.02
681.148	0
681.331	0.01
681.514	0.04
681.698	-0.06
681.881	-0.02
682.064	0.01
682.247	-0.04
682.43	-0.04
682.614	0.04
682.797	0.02
682.98	0.05
683.163	-0.04
683.346	0.06
683.529	-0.04
683.712	-0.09
683.895	0.02
684.078	-0.05
684.261	-0.06
684.444	0.02
684.627	-0
684.81	-0.01
684.993	0.01
685.176	0.05
685.359	-0.05
685.542	-0.05
685.725	0.05
685.908	-0.03
686.091	-0
686.274	0.01
686.457	0
686.639	-0.02
686.822	0
687.005	0.02
687.188	0.02
687.371	0.08
687.553	0.02
687.736	0.06
687.919	0.05
688.102	0.02
688.284	0.01
688.467	0.01
688.65	-0.02
688.832	0.01
689.015	-0.01
689.197	-0.06
689.38	0.06
689.563	0.04
689.745	-0.06
689.928	-0.03
690.11	-0.02
690.293	-0
690.475	-0.04
690.658	0.05
690.84	-0
691.023	0.02
691.205	0
691.388	0.01
691.57	0.01
691.752	0.05
691.935	-0.01
692.117	-0
692.3	-0.01
692.482	0.01
692.664	-0.02
692.847	0.02
693.029	0.04
693.211	0.03
693.393	0.02
693.576	-0.02
693.758	0
693.94	-0.05
694.122	-0.03
694.304	-0.02
694.487	0.01
694.669	0.07
694.851	-0.08
695.033	-0.01
695.215	-0.02
695.397	-0.07
695.579	-0.01
695.761	0
695.943	-0.06
696.125	0.06
696.308	0
696.49	-0.09
696.671	0.11
696.853	-0.02
697.035	0.08
697.217	-0.02
697.399	-0.01
697.581	-0.05
697.763	-0.05
697.945	-0.02
698.127	0.03
698.309	0.04
698.491	0.01
698.672	0.04
698.854	0.04
699.036	0.1
699.218	-0.02
699.399	0.06
699.581	0.03
699.763	0
699.945	-0.02
700.126	-0.03
700.308	-0.01
700.49	0.02
700.671	-0.01
700.853	-0.04
701.035	-0.04
701.216	-0.04
701.398	-0.05
701.579	-0.02
701.761	0.02
701.943	-0.02
702.124	-0.05
702.306	-0.02
702.487	0.12
702.669	-0
702.85	-0.08
703.031	-0.12
703.213	0.07
703.394	0.02
703.576	-0.02
703.757	0.09
703.938	0.02
704.12	0.11
704.301	0.04
704.483	-0.03
704.664	0.02
704.845	0.1
705.026	-0.01
705.208	0.03
705.389	-0.04
705.57	0
705.751	0.01
705.933	-0.03
706.114	0.06
706.295	0.02
706.476	-0.05
706.657	0.09
706.838	-0.02
707.02	0.05
707.201	-0.02
707.382	-0.04
707.563	0.02
707.744	-0.1
707.925	-0.05
708.106	-0.07
708.287	0.02
708.468	0.05
708.649	-0.05
708.83	0.04
709.011	-0.05
709.192	0.03
709.373	-0.02
709.554	-0.04
709.734	0.08
709.915	0.03
710.096	-0.04
710.277	-0.09
710.458	-0.01
710.639	-0
710.819	-0.12
711	-0.03
711.181	0.04
711.362	0.04
711.542	-0.02
711.723	0.03
711.904	0.09
712.085	0.03
712.265	0.05
712.446	-0.03
712.627	0.04
712.807	0.02
712.988	-0.03
713.168	-0.1
713.349	0.05
713.53	-0.03
713.71	-0.07
713.891	-0.09
714.071	0.04
714.252	0.02
714.432	-0.03
714.613	-0.07
714.793	-0
714.974	0.08
715.154	0.09
715.334	0.1
715.515	0.07
715.695	-0.13
715.876	0.02
716.056	0.02
716.236	0.03
716.417	0.01
716.597	0
716.777	0.11
716.957	-0.04
717.138	0.03
717.318	0.1
717.498	-0.03
717.678	-0.01
717.859	0.01
718.039	-0.09
718.219	0.03
718.399	0.08
718.579	-0.05
718.759	-0.02
718.939	0.07
719.12	0.07
719.3	0.05
719.48	-0.13
719.66	-0.08
719.84	0.13
720.02	0.03
720.2	-0.03
720.38	0.02
720.56	0.11
720.74	-0
720.92	0.13
721.1	0.11
721.279	0.1
721.459	0.08
721.639	-0.12
721.819	0.06
721.999	0.02
722.179	0.01
722.359	-0.04
722.538	0.06
722.718	0.07
722.898	-0.03
723.078	0.04
723.257	0.03
723.437	0.07
723.617	0.06
723.797	0.04
723.976	0.07
724.156	0.07
724.336	0.07
724.515	0.19
724.695	-0.08
724.874	0.05
725.054	0.08
725.234	-0.04
725.413	0.08
725.593	0.05
725.772	-0.04
725.952	0.04
726.131	0.02
726.311	0.06
726.49	0.05
726.67	-0.03
726.849	0.06
727.028	0.16
727.208	0.04
727.387	0.1
727.567	-0.01
727.746	0.07
727.925	0.07
728.105	-0.05
728.284	0.04
728.463	0.05
728.643	0.06
728.822	-0
729.001	0.07
729.18	0.06
729.359	0.03
729.539	0.02
729.718	0.06
729.897	0.09
730.076	0.02
730.255	-0.03
730.434	0.07
730.614	0
730.793	0.16
730.972	0.13
731.151	0.06
731.33	0.21
731.509	0.14
731.688	0.06
731.867	0.09
732.046	-0.09
732.225	0.28
732.404	0.05
732.583	0.04
732.762	0.13
732.941	0.19
733.12	0.11
733.298	0.06
733.477	0.13
733.656	0.06
733.835	-0.01
734.014	0.24
734.193	0.11
734.371	0.21
734.55	0.17
734.729	-0.02
734.908	0.15
735.086	0.1
735.265	0.17
735.444	0.01
735.623	0.02
735.801	-0.06
735.98	0.05
736.159	0.04
736.337	0.17
736.516	0.2
736.694	0.14
736.873	0.03
737.052	0.25
737.23	0.14
737.409	-0.02
737.587	0.26
737.766	-0.12
737.944	-0.09
738.123	0.16
738.301	0.15
738.479	0.02
738.658	0.1
738.836	-0.11
739.015	0.09
739.193	0.23
739.371	-0.03
739.55	0.12
739.728	-0.09
739.906	0.13
740.085	0.28
740.263	0.03
740.441	-0.15
740.62	0.21
740.798	0.19
740.976	0
741.154	-0.08
741.332	0.2
741.511	0.03
741.689	0.09
741.867	0.11
742.045	0.03
742.223	0.06
742.401	-0.04
742.579	-0.04
742.757	0.09
742.935	-0.11
743.114	-0
743.292	-0.03
743.47	0.02
743.648	0.1
743.826	-0.1
744.004	0.04
744.181	0.09
744.359	-0.05
744.537	-0
744.715	0.07
744.893	0.08
745.071	-0.03
745.249	-0.05
745.427	0.01
745.605	0.19
745.782	0.04
745.96	0.16
746.138	-0
746.316	0.12
746.493	0.05
746.671	0.02
746.849	-0.03
747.027	0.16
747.204	-0.02
747.382	0.02
747.56	-0.09
747.737	0.03
747.915	-0.06
748.093	-0.01
748.27	-0.08
748.448	-0.14
748.625	-0.03
748.803	-0.1
748.98	0.06
749.158	0
749.335	0.05
749.513	0.03
749.69	-0.07
749.868	-0.02
750.045	-0
750.223	0.03
750.4	-0.06
750.578	0.21
750.755	-0.04
750.932	-0.18
751.11	0.08
751.287	-0.18
751.464	0.06
751.642	-0.15
751.819	0
751.996	0.03
752.173	-0.07
752.351	-0.06
752.528	0
752.705	-0.02
752.882	-0.07
753.06	-0.06
753.237	0.01
753.414	0.21
753.591	0.09
753.768	-0.04
753.945	-0.04
754.122	0.02
754.299	0.01
754.476	0.03
754.654	0.02
754.831	-0.03
755.008	0.09
755.185	-0.13
755.362	-0.18
755.539	-0.06
755.716	-0.16
755.892	-0.11
756.069	0.05
756.246	-0.03
756.423	-0.02
756.6	0.05
756.777	0.03
756.954	0.18
757.131	-0.02
757.307	-0.1
757.484	-0.14
757.661	-0.02
757.838	-0.03
758.015	-0.09
758.191	0.03
758.368	0.08
758.545	0.05
758.721	0.01
758.898	-0.03
759.075	0.11
759.251	0.12
759.428	0.06
759.605	-0.14
759.781	0.04
759.958	0.11
760.134	0.11
760.311	-0.13
760.488	0.11
760.664	0.23
760.841	-0.08
761.017	-0.07
761.194	0.07
761.37	0.04
761.547	-0.04
761.723	-0.15
761.899	0.1
762.076	-0.01
762.252	-0.08
762.429	-0.08
762.605	0.07
762.781	-0.02
762.958	0.05
763.134	-0
763.31	-0.12
763.486	0.16
763.663	-0.12
763.839	0.03
764.015	-0.18
764.191	0
764.368	0.09
764.544	-0.17
764.72	-0.04
764.896	0.07
765.072	-0.03
765.248	-0.08
765.425	-0.03
765.601	-0
765.777	0.03
765.953	-0.21
766.129	-0.01
766.305	-0.13
766.481	-0.05
766.657	0.06
766.833	0.12
767.009	-0.21
767.185	-0.04
767.361	0.04
767.537	-0.15
767.713	0.09
767.889	-0.18
768.065	0.1
768.24	-0.27
768.416	0.11
768.592	-0.08
768.768	-0.05
768.944	-0.06
769.12	0.01
769.295	-0.08
769.471	-0.07
769.647	-0.01
769.823	0.06
769.998	-0.03
770.174	-0.26
770.35	0.29
770.525	0.16
770.701	0.05
770.877	-0.07
771.052	0.01
771.228	0.15
771.403	0.07
771.579	0.01
771.755	0.22
771.93	-0.3
772.106	-0.18
772.281	-0.21
772.457	0.03
772.632	0.04
772.808	-0.22
772.983	-0.05
773.159	-0.22
773.334	0.14
773.509	-0.05
773.685	-0.1
773.86	0.28
774.036	0.26
774.211	0.01
774.386	-0.11
774.562	-0.1
774.737	0.15
774.912	-0.09
775.087	0.05
775.263	0.04
775.438	0.01
775.613	0.02
775.788	0.08
775.964	0.21
776.139	0.18
776.314	-0.2
776.489	0
776.664	-0.11
776.839	0.05
777.014	0.13
777.19	0.21
777.365	0.31
777.54	0.12
777.715	-0.16
777.89	0.02
778.065	-0.2
778.24	-0.08
778.415	0.19
778.59	-0.12
778.765	-0.1
778.94	-0.05
779.115	0.05
779.289	-0.12
779.464	-0.16
779.639	-0.16
779.814	-0.2
779.989	-0.33
780.164	0.09
780.339	-0.03
780.513	-0.24
780.688	-0.21
780.863	0.08
781.038	0.31
781.212	-0.05
781.387	-0
781.562	0.17
781.737	-0.14
781.911	-0.09
782.086	0.05
782.261	-0.11
782.435	0.29
782.61	-0.11
782.784	-0.09
782.959	-0.06
783.134	-0.01
783.308	-0.1
783.483	-0.06
783.657	0.26
783.832	0.12
784.006	-0.34
784.181	-0.2
784.355	0.15
784.53	0.05
784.704	-0.07
784.878	0.11
785.053	0.06
785.227	0.01
785.402	0.32
785.576	-0.12
785.75	-0.16
785.925	-0.01
786.099	0.17
786.273	0.11
786.448	0.23
786.622	0.1
786.796	0.01
786.97	-0.09
787.145	0.43
787.319	-0.42
787.493	0.01
787.667	-0.37
787.841	-0.02
788.015	0.08
788.19	0.01
788.364	0.11
788.538	0.09
788.712	0.23
788.886	-0.18
789.06	0.02
789.234	0.11
789.408	-0.17
789.582	-0.16
789.756	-0.2
789.93	0.01
790.104	-0.05
790.278	-0.14
790.452	-0.18
790.626	0.12
790.8	-0.17
790.973	0.11
791.147	0.17
791.321	0.19
791.495	-0
791.669	0.04
791.843	0.16
792.016	-0.03
792.19	0.24
792.364	-0.33
792.538	0.43
792.711	0.25
792.885	0.07
793.059	-0.23
793.233	-0.4
793.406	0.19
793.58	-0.03
793.754	0.03
793.927	-0.29
794.101	0.07
794.274	0.25
794.448	-0
794.622	-0.16
794.795	0.45
794.969	-0.11
795.142	0.19
795.316	-0.1
795.489	-0.13
795.663	0.45
795.836	-0.02
796.009	-0.2
796.183	0.32
796.356	0.14
796.53	-0.05
796.703	0.01
796.876	0.5
797.05	-0.17
797.223	-0.21
797.396	-0.08
797.57	0.09
797.743	0.24
797.916	-0.05
798.09	-0.05
798.263	0.02
798.436	-0
798.609	-0.12
798.782	-0.1
798.956	0.01
799.129	-0.08
799.302	-0.15
799.475	0.08
799.648	-0.12
799.821	-0.09
799.994	0.06
800.167	-0.28
800.34	0.13
800.514	0.02
800.687	-0.18
800.86	-0.16
801.033	-0.04
801.206	0.29
801.379	-0.04
801.551	0.2
801.724	0.34
801.897	0.33
802.07	0.03
802.243	-0.3
802.416	-0.27
802.589	-0.08
802.762	0.04
802.935	0.11
803.107	0.14
803.28	0.5
803.453	0.26
803.626	-0.2
803.798	0.05
803.971	-0.19
804.144	-0.06
804.317	0.29
804.489	0.28
804.662	-0.2
804.835	0.1
805.007	-0.05
805.18	0.28
805.353	0.22
805.525	-0.31
805.698	-0.08
805.87	0.39
806.043	0.18
806.215	-0.49
806.388	-0.14
806.56	0.04
806.733	0.27
806.905	0.18
807.078	-0.1
807.25	-0.43
807.423	0.33
807.595	-0
807.768	0.04
807.94	0.16
808.112	0.35
808.285	0.01
808.457	-0.12
808.629	-0.05
808.802	0.11
808.974	-0.03
809.146	-0.14
809.318	-0.18
809.491	-0.03
809.663	0.03
809.835	-0.42
810.007	0.24
810.18	0.09
810.352	-0.26
810.524	-0.09
810.696	0.15
810.868	0.31
811.04	0.05
811.212	-0.11
811.384	0.34
811.556	-0.16
811.728	-0.09
811.901	0.47
812.073	-0.11
812.245	0.58
812.417	0.18
812.589	-0.51
812.76	0.06
812.932	0.21
813.104	0.3
813.276	-0.29
813.448	0.5
813.62	0.14
813.792	-0.09
813.964	-0.03
814.136	-0.02
814.307	0.11
814.479	-0.21
814.651	0.23
814.823	0.45
814.995	-0.04
815.166	-0.04
815.338	-0.49
815.51	-0.43
815.681	0.92
815.853	-0.14
816.025	0.11
816.196	0.12
816.368	-0.41
816.54	-0.87
816.711	-0.53
816.883	0.27
817.054	0.93
817.226	-0.22
817.398	0.61
817.569	-0.02
817.741	0.22
817.912	-0.12
818.084	0.34
818.255	0.42
818.426	-0.23
818.598	-0.05
818.769	-0.22
818.941	0.34
819.112	0.57
819.283	0.24
819.455	-0.43
819.626	0.15
819.798	0.11
819.969	0.16
820.14	-0.01
820.311	-0.68
820.483	-0.15
820.654	0.09
820.825	-0.01
820.996	-0.14
821.168	-0.44
821.339	0.02
821.51	-0.35
821.681	0.24
821.852	0.06
822.023	-0.05
822.195	0
822.366	0.27
822.537	-0.03
822.708	-0.2
822.879	-0.38
823.05	0.27
823.221	-0.39
823.392	0.01
823.563	-0.19
823.734	0.05
823.905	0.25
824.076	-0.18
824.247	-0.43
824.418	-0.16
824.589	0.38
824.759	-0.06
824.93	-0.18
825.101	-0.56
825.272	0.54
825.443	0.46
825.614	0.35
825.784	-1.17
825.955	0.49
826.126	0.33
826.297	-0.39
826.467	0.58
826.638	0.45
826.809	-0.86
826.98	0.19
827.15	0.28
827.321	0.12
827.492	0.37
827.662	0.21
827.833	0.99
828.003	0.01
828.174	-0.29
828.345	-0.96
828.515	0.59
828.686	0.41
828.856	-0.03
829.027	0.19
829.197	-0.3
829.368	-0.25
829.538	-0.31
829.709	-0.26
829.879	0.02
830.049	-0.24
830.22	-0.6
830.39	0.14
830.56	0.26
830.731	-0.35
830.901	-0.13
831.072	-0.02
831.242	0.06
831.412	0.28
831.582	-0.3
831.753	-1.05
831.923	0.42
832.093	0.06
832.263	-0.47
832.434	-0.17
832.604	-0.79
832.774	-0.07
832.944	0.17
833.114	-0.25
833.284	0.06
833.454	-1
833.624	-0.45
833.795	-0.09
833.965	0.92
834.135	0.29
834.305	-0.89
834.475	-0.41
834.645	-0.16
834.815	-0.67
834.985	-0.08
835.155	-0.44
835.325	0.21
835.494	0.17
835.664	-0.48
835.834	-0.68
836.004	0.22
836.174	0.06
836.344	0.14
836.514	-0.45
836.684	-0.38
836.853	-0.2
837.023	0.25
837.193	-0.85
837.363	0.84
837.532	1.06
837.702	-0.64
837.872	-0.53
838.041	0.44
838.211	1.06
838.381	-0.18
838.55	0.39
838.72	1.59
838.89	1.45
839.059	-0.3
839.229	-0.67
839.398	0.99
839.568	0.36
839.738	0.41
839.907	0.95
840.077	0.24
840.246	0.18
840.416	-0.16
840.585	-0.73
840.755	0.62
840.924	0.48
841.093	-0.53
841.263	-0.31
841.432	0.44
841.602	-0.84
841.771	-0.82
841.94	-0.39
842.11	1.8
842.279	0.77
842.448	0.01
842.617	0.32
842.787	1.07
842.956	-1.12
843.125	0.35
843.294	-0
843.464	1.09
843.633	-0.1
843.802	-0.75
843.971	0.71
844.14	0.13
844.309	1.03
844.479	-0.03
844.648	-0.25
844.817	-0.34
844.986	-0.09
845.155	0.01
845.324	0.03
845.493	-0.11
845.662	-1.01
845.831	0.15
846	-0.57
846.169	-0.77
846.338	0.67
846.507	-0.38
846.676	0.26
846.844	0.25
847.013	1.16
847.182	0.19
847.351	-0.48
847.52	-0.3
847.689	0.28
847.858	-0.02
848.026	-0.64
848.195	-0.58
848.364	0.58
848.533	-0.39
848.701	-0.47
848.87	0.06
849.039	0.23
849.207	1.18
849.376	-0.54
849.545	0.74
849.713	-0.23
849.882	-0.74
850.051	0.12
850.219	-0.14
850.388	1.29
850.556	-0.91
850.725	-0.42
850.893	0.26
851.062	0.39
851.23	0.56
851.399	-1.26
851.567	-0.74
851.736	-0.13
851.904	-0.9
852.073	-0.67
852.241	0.64
852.41	-0.45
852.578	-0.51
852.746	-1.46
852.915	1.39
853.083	0.37
853.251	-1.29
853.42	-0.45
853.588	1.29
853.756	1.12
853.924	-0.72
854.093	-0.1
854.261	-0.52
854.429	-0.39
854.597	-0.19
854.765	-1.58
854.934	0.78
855.102	0.77
855.27	-0.46
855.438	0.69
855.606	2.06
855.774	0.55
855.942	-1
856.11	-0.7
856.278	-0.32
856.446	1.92
856.614	0.88
856.782	-0.9
856.95	1.1
857.118	-0.15
857.286	0.31
857.454	-0.18
857.622	-0.15
857.79	0.36
857.958	-0.9
858.126	0.25
858.294	-2.05
858.462	0.12
858.629	-0.07
858.797	-1.03
858.965	0.66
859.133	0.16
859.301	0.86
859.468	-0.49
859.636	-1.89
859.804	0.46
859.971	-0.17
860.139	-0.53
860.307	0.97
860.474	0.01
860.642	-0.75
860.81	0.83
860.977	-0.19
861.145	0.98
861.313	-0.44
861.48	-0.62
861.648	0.62
861.815	-0.31
861.983	-1.7
862.15	-0.17
862.318	0.24
862.485	1.4
862.653	-0.41
862.82	-1.23
862.988	1.27
863.155	1.29
863.322	-2.26
863.49	-1.25
863.657	0.05
863.824	0.97
863.992	-0.07
864.159	0.27
864.326	0.59
864.494	-1.12
864.661	2.05
864.828	-0.6
864.996	1.31
865.163	1.96
865.33	-0.15
865.497	-1.89
865.664	-1.5
865.832	-2.15
865.999	-0.39
866.166	0.1
866.333	0.04
866.5	0.49
866.667	-0.35
866.834	-0.47
867.001	-0.42
867.168	-2.82
867.335	1.21
867.502	-1.22
867.669	0.53
867.836	2.59
868.003	-0.79
868.17	2.03
868.337	1.58
868.504	2.48
868.671	-1.04
868.838	-0.08
869.005	-0.56
869.172	0.1
869.339	0.62
869.505	1.4
869.672	-0.27
869.839	1.54
870.006	0.72
870.173	-2.31
870.339	0.61
870.506	2.13
870.673	-0.1
870.84	0.67
871.006	1.26
871.173	-1.36
871.34	-0.13
871.506	-1.39
871.673	0.35
871.839	-2.91
872.006	0.19
872.173	-0.65
872.339	0.46
872.506	1.52
872.672	-0.77
872.839	-1.3
873.005	1.26
873.172	2.5
873.338	-0.09
873.505	0.51
873.671	0.16
873.838	1.18
874.004	-1.6
874.171	-1.1
874.337	1.28
874.503	-0.13
874.67	0.17
874.836	-0.14
875.002	0.69
875.169	1.71
875.335	-0.11
875.501	-2.2
875.668	0.15
875.834	-0.54
876	-0.66
876.166	0.08
876.332	1.47
876.499	2.11
876.665	-1.37
876.831	-0.72
876.997	3.98
877.163	-0.45
877.329	-0.43
877.495	-0.41
877.662	2.48
877.828	-0.13
877.994	1.1
878.16	-3.41
878.326	-1.35
878.492	0.07
878.658	-1.49
878.824	1.66
878.99	0.2
879.156	3.01
879.322	1.95
879.487	-1.11
879.653	2.78
879.819	-0.29
879.985	-1.14
880.151	2.18
880.317	0.27
880.483	0.11
880.648	-0.94
880.814	-1.16
880.98	1.59
881.146	-3.1
881.312	-0.44
881.477	-1.11
881.643	1.82
881.809	0.54
881.974	2.98
882.14	-2.13
882.306	-1.04
882.471	1.46
882.637	-1.36
882.803	2.07
882.968	3.14
883.134	2.44
883.299	0.93
883.465	1.51
883.63	0.42
883.796	0.57
883.961	0.73
884.127	1.93
884.292	-2.49
884.458	-1.15
884.623	-1.15
