Data from Apollo_Calib_20240827__AbsoluteIrradiance__118__01-07-01-601.txt Node

Date: Wed Aug 28 01:07:01 BST 2024
User: biology
Spectrometer: FLMT08252
Trigger mode: 0
Integration Time (sec): 5.000000E-1
Scans to average: 5
Electric dark correction enabled: true
Nonlinearity correction enabled: false
Boxcar width: 0
XAxis mode: Wavelengths
Number of Pixels in Spectrum: 3648
>>>>>Begin Spectral Data<<<<<
179.588	-0
179.809	-0
180.03	-0
180.251	-0
180.473	-0
180.694	0
180.915	0
181.136	-0
181.357	0
181.578	-0
181.799	-0
182.02	-0
182.241	0
182.462	-0
182.683	0
182.904	-0
183.125	-0
183.346	0
183.567	0
183.788	-0
184.009	-0
184.23	0
184.451	-0
184.672	-0
184.892	-0
185.113	-0
185.334	0
185.555	-0
185.776	-0
185.996	0
186.217	0
186.438	0
186.659	-0
186.879	0
187.1	-0
187.321	-0
187.541	-0
187.762	0
187.983	0
188.203	0
188.424	0
188.644	-0
188.865	0
189.086	-0
189.306	-0
189.527	-0
189.747	0
189.968	-0
190.188	0
190.409	-0
190.629	0
190.849	-0
191.07	-0
191.29	-0
191.511	0
191.731	-0
191.951	-0
192.172	0
192.392	-0
192.612	-0
192.833	-0
193.053	-0
193.273	0
193.493	-0
193.714	-0
193.934	0
194.154	0
194.374	0
194.594	0
194.815	-0
195.035	0
195.255	-0
195.475	-0
195.695	0
195.915	0
196.135	-0
196.355	0
196.575	0
196.795	0
197.015	-0
197.235	0
197.455	-0
197.675	0
197.895	-0
198.115	-0
198.335	0
198.555	-0
198.775	0
198.995	-0
199.214	0
199.434	-0
199.654	-0
199.874	-0
200.094	0.55
200.313	-0.35
200.533	-0.04
200.753	-0.56
200.973	0.47
201.192	0.23
201.412	-0.57
201.632	-0.17
201.851	0.53
202.071	-0.92
202.291	-0.19
202.51	-0.6
202.73	-0.1
202.95	-0.09
203.169	-0.53
203.389	-0.05
203.608	-0.04
203.828	-0.7
204.047	-0.52
204.267	0.38
204.486	-0.09
204.706	0.06
204.925	-0.18
205.145	-0.07
205.364	0.36
205.583	0.45
205.803	-0.45
206.022	-0.64
206.242	0.03
206.461	-0.18
206.68	-0.35
206.9	-0.09
207.119	0.84
207.338	0.88
207.557	-0.18
207.777	0.15
207.996	-0.18
208.215	0.27
208.434	-0.14
208.654	-0.36
208.873	-0.11
209.092	0.28
209.311	0.04
209.53	-0.14
209.749	-0.09
209.968	-0.22
210.187	0.07
210.407	-0.32
210.626	-0.26
210.845	0.12
211.064	-0.12
211.283	-0.18
211.502	0.15
211.721	-0
211.94	-0.24
212.159	0.18
212.377	0.3
212.596	0.3
212.815	-0.05
213.034	-0.02
213.253	0.22
213.472	-0.06
213.691	-0.2
213.91	-0.19
214.128	-0.07
214.347	0.17
214.566	-0.43
214.785	-0.06
215.003	0.16
215.222	-0.01
215.441	0.08
215.66	-0.33
215.878	0.05
216.097	0.11
216.316	-0.23
216.534	-0.1
216.753	0.07
216.972	0.09
217.19	-0.21
217.409	-0.13
217.627	-0.26
217.846	-0.16
218.064	-0.07
218.283	-0.11
218.501	0.31
218.72	0.07
218.938	-0.23
219.157	-0.03
219.375	0.16
219.594	-0.18
219.812	-0.28
220.031	-0.21
220.249	0.22
220.467	0.25
220.686	-0.11
220.904	-0.05
221.122	-0.17
221.341	0.35
221.559	-0.04
221.777	-0.17
221.995	-0.11
222.214	0.05
222.432	-0.13
222.65	0.18
222.868	0.06
223.086	0.06
223.305	-0.06
223.523	-0.14
223.741	0.24
223.959	-0.11
224.177	-0.18
224.395	-0.03
224.613	-0.01
224.831	0.11
225.049	-0.11
225.267	-0.09
225.485	0.1
225.703	0.01
225.921	-0.03
226.139	-0.13
226.357	0.1
226.575	-0.01
226.793	-0.09
227.011	0.39
227.229	-0.1
227.447	0.11
227.665	-0.07
227.883	-0.12
228.1	-0.04
228.318	-0.02
228.536	-0.21
228.754	-0.18
228.972	0.04
229.189	0.01
229.407	-0.11
229.625	-0.15
229.843	0.21
230.06	0.11
230.278	0.07
230.496	0.03
230.713	0.02
230.931	0.17
231.149	0.03
231.366	-0.26
231.584	-0.09
231.801	0.17
232.019	0
232.236	-0.1
232.454	-0.21
232.671	0.07
232.889	-0.04
233.106	-0.03
233.324	-0.04
233.541	0.05
233.759	0.02
233.976	0.04
234.194	-0.05
234.411	0.05
234.628	-0.09
234.846	-0.07
235.063	0.1
235.28	-0.01
235.498	0.01
235.715	-0.03
235.932	0.11
236.149	0
236.367	-0.14
236.584	0.04
236.801	-0.07
237.018	0.1
237.236	0.06
237.453	-0.14
237.67	0.07
237.887	-0.01
238.104	0
238.321	-0.08
238.538	-0.04
238.755	0.15
238.973	-0.1
239.19	0.07
239.407	0.12
239.624	-0.09
239.841	-0.18
240.058	-0.04
240.275	0.03
240.492	-0.03
240.709	0.02
240.925	-0.1
241.142	-0
241.359	-0.05
241.576	-0.11
241.793	0.02
242.01	-0.08
242.227	-0.08
242.444	0.03
242.66	0.12
242.877	0.08
243.094	-0.01
243.311	0.04
243.527	0.04
243.744	-0
243.961	0.01
244.178	-0.07
244.394	-0.01
244.611	0.15
244.828	0.1
245.044	-0.06
245.261	-0.02
245.477	-0.01
245.694	0.1
245.911	-0.1
246.127	0.07
246.344	0.04
246.56	0.08
246.777	-0.08
246.993	0.06
247.21	-0.02
247.426	0.1
247.643	-0.07
247.859	-0
248.076	-0.13
248.292	0.16
248.508	-0.04
248.725	-0.01
248.941	0.07
249.157	0.15
249.374	-0.02
249.59	0.01
249.806	0.06
250.023	0.06
250.239	0
250.455	-0.08
250.671	-0.03
250.888	-0.03
251.104	0.01
251.32	-0.05
251.536	0.01
251.752	-0.01
251.969	0
252.185	0.1
252.401	0.11
252.617	-0
252.833	-0.04
253.049	-0.02
253.265	0.07
253.481	0.06
253.697	-0.04
253.913	-0.07
254.129	0.02
254.345	0.04
254.561	-0.01
254.777	-0.01
254.993	0.08
255.209	0.02
255.425	-0.08
255.641	-0.05
255.857	0.12
256.073	-0
256.288	-0.04
256.504	-0.08
256.72	0.04
256.936	0.12
257.152	0.06
257.367	-0.07
257.583	0.01
257.799	0.09
258.015	-0.08
258.23	-0.02
258.446	0.12
258.662	0.05
258.877	-0.07
259.093	-0.01
259.309	-0.01
259.524	-0
259.74	-0.02
259.955	-0.1
260.171	-0.03
260.387	0.01
260.602	0
260.818	0.05
261.033	-0.1
261.249	-0.01
261.464	-0.04
261.68	-0.05
261.895	-0.04
262.11	0.02
262.326	0.01
262.541	-0.1
262.757	0.03
262.972	0.05
263.187	-0
263.403	0.04
263.618	0.03
263.833	-0.02
264.049	-0.05
264.264	-0.06
264.479	0.04
264.694	0.07
264.91	-0.07
265.125	-0.05
265.34	0.04
265.555	0.17
265.77	0.05
265.986	-0.03
266.201	0.13
266.416	0.08
266.631	-0.05
266.846	0
267.061	-0.01
267.276	0.03
267.491	-0.14
267.706	-0.01
267.921	0.01
268.136	-0
268.351	-0.03
268.566	-0.03
268.781	0.04
268.996	-0.03
269.211	-0.04
269.426	-0.09
269.641	0
269.856	0.01
270.071	-0.07
270.285	-0.04
270.5	0.05
270.715	0.07
270.93	0.04
271.145	0.03
271.359	0.06
271.574	-0.06
271.789	0.03
272.004	-0.08
272.218	0.01
272.433	0.06
272.648	-0.11
272.862	0.01
273.077	0.04
273.292	0.01
273.506	-0.04
273.721	-0.02
273.936	0.04
274.15	0.01
274.365	-0.05
274.579	0.1
274.794	0.02
275.008	0.05
275.223	-0.07
275.437	0.01
275.652	0.01
275.866	0.03
276.081	0.03
276.295	0.07
276.509	0.06
276.724	0.03
276.938	-0
277.153	0
277.367	0.02
277.581	-0.06
277.796	0.02
278.01	-0.03
278.224	0.06
278.438	0.13
278.653	-0.06
278.867	-0.03
279.081	0.03
279.295	0
279.51	0.06
279.724	-0.06
279.938	0.01
280.152	-0.02
280.366	-0.04
280.58	0.03
280.794	0.07
281.008	0.04
281.222	0.1
281.437	0.15
281.651	0.04
281.865	0.11
282.079	0.01
282.293	-0.09
282.507	-0.06
282.721	0
282.935	-0.02
283.148	-0.11
283.362	-0.03
283.576	-0.03
283.79	0.04
284.004	-0.06
284.218	0.09
284.432	-0.06
284.646	-0.02
284.859	-0.01
285.073	-0.05
285.287	0.05
285.501	0
285.714	-0.02
285.928	0.04
286.142	0.01
286.356	-0.04
286.569	-0.01
286.783	0.03
286.997	0.03
287.21	0.02
287.424	-0
287.637	-0
287.851	-0.07
288.065	0.02
288.278	0.02
288.492	0.06
288.705	-0.02
288.919	0.01
289.132	-0.1
289.346	0.07
289.559	-0.06
289.773	-0.06
289.986	-0.02
290.2	0.03
290.413	0.02
290.626	-0.07
290.84	0.01
291.053	0.03
291.267	0.12
291.48	0.01
291.693	-0.04
291.906	-0.01
292.12	-0.03
292.333	-0.06
292.546	-0.05
292.76	0.04
292.973	0.02
293.186	0.06
293.399	-0.03
293.612	0.03
293.826	-0.03
294.039	-0.03
294.252	-0
294.465	0.04
294.678	0.04
294.891	0.02
295.104	-0.04
295.317	0
295.53	0.03
295.743	-0.01
295.956	-0
296.169	0.06
296.382	0.05
296.595	0.04
296.808	-0.04
297.021	0.09
297.234	0.07
297.447	-0.02
297.66	0.02
297.873	0.03
298.086	0.01
298.299	-0.05
298.511	-0.01
298.724	0.03
298.937	-0.02
299.15	-0.02
299.363	0
299.575	0.06
299.788	0.03
300.001	-0.03
300.213	-0
300.426	-0.01
300.639	0
300.852	-0.02
301.064	0.02
301.277	0.06
301.489	0.04
301.702	0.05
301.915	0.03
302.127	0
302.34	0.04
302.552	0.02
302.765	-0.02
302.977	0.05
303.19	-0.03
303.402	-0.02
303.615	-0.02
303.827	-0.02
304.04	-0.01
304.252	0.03
304.464	0.01
304.677	0.07
304.889	0.11
305.102	-0.04
305.314	-0.03
305.526	0.04
305.739	0.05
305.951	0
306.163	-0.03
306.375	0.09
306.588	-0.06
306.8	0
307.012	-0.05
307.224	0.02
307.436	0.05
307.649	-0.08
307.861	0.05
308.073	0.04
308.285	0.01
308.497	-0.05
308.709	0.04
308.921	0.03
309.133	0.04
309.346	-0.01
309.558	-0.02
309.77	0.02
309.982	-0.08
310.194	0.06
310.406	0.01
310.617	0.03
310.829	0.01
311.041	0.03
311.253	-0.03
311.465	-0.02
311.677	0
311.889	-0.04
312.101	-0.03
312.313	0.04
312.524	0.01
312.736	-0.03
312.948	-0.04
313.16	0.08
313.372	-0.01
313.583	-0
313.795	-0.01
314.007	0.01
314.218	0.04
314.43	0.04
314.642	-0.01
314.853	-0.07
315.065	0.06
315.277	0.03
315.488	0.02
315.7	0.04
315.912	0.06
316.123	0
316.335	-0.01
316.546	0.09
316.758	0.02
316.969	-0.03
317.181	0.02
317.392	0.04
317.604	0.08
317.815	-0.01
318.026	-0.06
318.238	-0.01
318.449	0.02
318.661	-0.09
318.872	-0.04
319.083	-0
319.295	0.05
319.506	-0.01
319.717	0.01
319.929	-0.02
320.14	0.02
320.351	-0
320.562	-0.01
320.774	0.01
320.985	-0.02
321.196	-0.01
321.407	-0.07
321.618	0.02
321.829	0.02
322.041	-0
322.252	-0.02
322.463	0.02
322.674	0.02
322.885	-0.06
323.096	0.03
323.307	-0.03
323.518	0.06
323.729	-0.03
323.94	0.01
324.151	-0.01
324.362	0.01
324.573	-0.01
324.784	0.02
324.995	0.08
325.206	-0
325.417	-0.02
325.628	-0.01
325.838	-0.02
326.049	0.01
326.26	0.03
326.471	-0.03
326.682	0.04
326.892	0.01
327.103	-0.05
327.314	-0.02
327.525	0.06
327.735	-0.01
327.946	-0.02
328.157	-0.01
328.368	0.01
328.578	-0.04
328.789	0.04
328.999	0.02
329.21	0.02
329.421	0.06
329.631	-0
329.842	0.02
330.052	0.02
330.263	0.04
330.473	0.08
330.684	0.03
330.894	-0.01
331.105	0.05
331.315	-0
331.526	-0.05
331.736	0.05
331.947	0.07
332.157	0.06
332.367	-0.06
332.578	0.04
332.788	0.06
332.999	0.04
333.209	-0.01
333.419	-0.03
333.629	0.05
333.84	0.05
334.05	0.02
334.26	0.05
334.47	0.04
334.681	0.04
334.891	0.03
335.101	0.03
335.311	0.06
335.521	-0.01
335.732	-0.03
335.942	0.08
336.152	0.04
336.362	0.04
336.572	-0.01
336.782	0.05
336.992	0.02
337.202	0.03
337.412	-0.05
337.622	0.03
337.832	0.02
338.042	-0.01
338.252	0
338.462	-0.06
338.672	0.03
338.882	-0.02
339.092	-0.02
339.302	0.1
339.511	0.04
339.721	0.01
339.931	-0.06
340.141	0.07
340.351	0.04
340.561	0.03
340.77	0.03
340.98	-0
341.19	0.04
341.4	-0.02
341.609	-0.03
341.819	0.01
342.029	-0.05
342.238	-0
342.448	-0.02
342.658	0.09
342.867	0.02
343.077	0.03
343.286	0.04
343.496	0.02
343.706	0.1
343.915	-0.02
344.125	0.03
344.334	0.04
344.544	-0.03
344.753	-0.01
344.963	0.01
345.172	0.02
345.381	-0.01
345.591	0.04
345.8	0.04
346.01	0.09
346.219	0.07
346.428	-0.1
346.638	0.02
346.847	-0.01
347.056	0.06
347.266	0
347.475	0
347.684	0.01
347.893	0.05
348.103	0.04
348.312	-0
348.521	0.01
348.73	0
348.94	0.04
349.149	-0.01
349.358	0
349.567	0.01
349.776	0.01
349.985	-0
350.194	0.03
350.403	0.02
350.612	-0.02
350.821	0.01
351.03	-0.02
351.239	-0.02
351.448	0.01
351.657	-0.03
351.866	0.07
352.075	0.02
352.284	0.02
352.493	-0.07
352.702	0.05
352.911	0.08
353.12	0.01
353.329	0
353.538	0.05
353.746	0.01
353.955	0
354.164	0.06
354.373	0.03
354.582	0.06
354.79	0.02
354.999	0.01
355.208	-0.01
355.416	0.03
355.625	-0.01
355.834	-0.04
356.042	0.02
356.251	-0.01
356.46	-0.02
356.668	0.06
356.877	0.11
357.085	0.05
357.294	-0.05
357.503	0.01
357.711	0.02
357.92	0.08
358.128	0.06
358.337	0.02
358.545	0.03
358.754	-0.01
358.962	0.06
359.17	0.03
359.379	0.04
359.587	0.07
359.796	0.03
360.004	0.06
360.212	0.03
360.421	0.06
360.629	0.03
360.837	-0.01
361.046	0.04
361.254	0.06
361.462	0.03
361.67	-0.01
361.879	0
362.087	0.08
362.295	0.04
362.503	0.01
362.711	-0
362.92	0
363.128	0
363.336	0.01
363.544	-0.02
363.752	0.01
363.96	0.02
364.168	0.02
364.376	0
364.584	0.05
364.792	0.03
365	0.05
365.208	0.02
365.416	0.01
365.624	0.07
365.832	0
366.04	0.12
366.248	0.06
366.456	0.06
366.664	0.11
366.872	0.03
367.079	0.04
367.287	0.07
367.495	0.05
367.703	0.06
367.911	0.07
368.118	0.06
368.326	0.1
368.534	0.06
368.742	0.15
368.949	0.06
369.157	0.09
369.365	0.16
369.572	0.14
369.78	0.12
369.988	0.17
370.195	0.17
370.403	0.19
370.61	0.19
370.818	0.21
371.026	0.29
371.233	0.24
371.441	0.29
371.648	0.3
371.856	0.37
372.063	0.37
372.271	0.36
372.478	0.43
372.685	0.42
372.893	0.5
373.1	0.54
373.308	0.52
373.515	0.68
373.722	0.56
373.93	0.66
374.137	0.73
374.344	0.81
374.552	0.83
374.759	0.82
374.966	0.85
375.173	0.91
375.381	1.05
375.588	1
375.795	0.98
376.002	1.11
376.209	1.12
376.417	1.23
376.624	1.29
376.831	1.38
377.038	1.43
377.245	1.48
377.452	1.52
377.659	1.69
377.866	1.66
378.073	1.84
378.28	1.88
378.487	2.04
378.694	2.04
378.901	2.21
379.108	2.21
379.315	2.42
379.522	2.48
379.729	2.53
379.936	2.65
380.143	2.78
380.35	2.88
380.557	3.04
380.763	3.14
380.97	3.19
381.177	3.35
381.384	3.47
381.591	3.61
381.797	3.61
382.004	3.78
382.211	3.93
382.418	3.94
382.624	4.09
382.831	4.06
383.038	4.23
383.244	4.23
383.451	4.18
383.658	4.11
383.864	4.32
384.071	4.13
384.277	4.26
384.484	4.19
384.69	4.1
384.897	4.05
385.103	3.98
385.31	3.98
385.516	3.88
385.723	3.79
385.929	3.71
386.136	3.53
386.342	3.44
386.549	3.3
386.755	3.35
386.961	3.21
387.168	3.05
387.374	2.92
387.58	2.86
387.787	2.67
387.993	2.59
388.199	2.42
388.406	2.42
388.612	2.19
388.818	2.1
389.024	2.07
389.231	2.02
389.437	1.96
389.643	1.93
389.849	1.9
390.055	1.75
390.261	1.66
390.467	1.65
390.674	1.65
390.88	1.54
391.086	1.57
391.292	1.48
391.498	1.47
391.704	1.43
391.91	1.36
392.116	1.24
392.322	1.11
392.528	1.26
392.734	1.18
392.94	1.17
393.146	1.08
393.352	1.13
393.557	0.98
393.763	1
393.969	1.03
394.175	0.94
394.381	0.93
394.587	0.86
394.792	0.85
394.998	0.89
395.204	0.81
395.41	0.72
395.615	0.76
395.821	0.74
396.027	0.73
396.233	0.72
396.438	0.68
396.644	0.73
396.85	0.71
397.055	0.64
397.261	0.59
397.466	0.67
397.672	0.53
397.878	0.56
398.083	0.5
398.289	0.45
398.494	0.5
398.7	0.47
398.905	0.34
399.111	0.51
399.316	0.35
399.522	0.38
399.727	0.37
399.932	0.36
400.138	0.35
400.343	0.38
400.549	0.28
400.754	0.32
400.959	0.32
401.165	0.31
401.37	0.3
401.575	0.26
401.78	0.28
401.986	0.28
402.191	0.25
402.396	0.29
402.601	0.28
402.807	0.3
403.012	0.24
403.217	0.29
403.422	0.22
403.627	0.23
403.832	0.21
404.037	0.25
404.243	0.23
404.448	0.21
404.653	0.19
404.858	0.28
405.063	0.26
405.268	0.17
405.473	0.11
405.678	0.17
405.883	0.32
406.088	0.24
406.293	0.11
406.498	0.14
406.703	0.21
406.907	0.13
407.112	0.16
407.317	0.18
407.522	0.26
407.727	0.11
407.932	0.1
408.136	0.26
408.341	0.09
408.546	0.17
408.751	0.17
408.956	0.13
409.16	0.19
409.365	0.17
409.57	0.12
409.774	0.15
409.979	0.16
410.184	0.15
410.388	0.09
410.593	0.2
410.798	0.15
411.002	0.08
411.207	0.11
411.411	0.12
411.616	0.06
411.82	0.12
412.025	0.15
412.229	0.07
412.434	0.15
412.638	0.07
412.843	0.08
413.047	0.1
413.252	0.09
413.456	0.06
413.66	0.15
413.865	0.04
414.069	0.17
414.273	0.1
414.478	0.07
414.682	0.03
414.886	0.05
415.091	0.01
415.295	0.03
415.499	0.09
415.703	0.02
415.908	0.11
416.112	-0.02
416.316	0.1
416.52	0.05
416.724	0.02
416.929	0.07
417.133	0.17
417.337	0.07
417.541	0.05
417.745	0.1
417.949	0.12
418.153	0.12
418.357	0.03
418.561	0.07
418.765	0.07
418.969	0.13
419.173	0.13
419.377	0.07
419.581	0.13
419.785	0.02
419.989	0.04
420.193	0.06
420.397	0.11
420.601	0.07
420.804	0.1
421.008	0.06
421.212	0.09
421.416	0.08
421.62	0.03
421.823	0.12
422.027	0.12
422.231	0.09
422.435	0.05
422.638	0.05
422.842	0.09
423.046	0.06
423.249	0.07
423.453	0.07
423.657	0.07
423.86	0.02
424.064	0.06
424.268	0.05
424.471	0.02
424.675	0.12
424.878	0.08
425.082	0.03
425.285	0.1
425.489	0.03
425.692	0.05
425.896	0.01
426.099	0.08
426.303	0.03
426.506	0.01
426.71	0.09
426.913	0.09
427.116	0.11
427.32	0.03
427.523	0.03
427.726	0.13
427.93	-0.02
428.133	0.05
428.336	0.05
428.54	0.04
428.743	0.06
428.946	0.13
429.149	0.08
429.353	0.05
429.556	0.06
429.759	0
429.962	0.03
430.165	0.03
430.368	0.07
430.571	0.03
430.775	0.09
430.978	0.05
431.181	0.06
431.384	0.07
431.587	0.05
431.79	0.04
431.993	0.1
432.196	0.04
432.399	0.05
432.602	0.12
432.805	0.04
433.008	0.04
433.211	0.01
433.414	0.07
433.616	0.09
433.819	0.06
434.022	-0.03
434.225	0.16
434.428	0.08
434.631	0.16
434.833	0.07
435.036	0.09
435.239	0.13
435.442	0.07
435.645	0.08
435.847	0.08
436.05	0.13
436.253	0.09
436.455	0.04
436.658	0.06
436.861	0.09
437.063	0.06
437.266	0.08
437.468	0.12
437.671	0.21
437.874	0.1
438.076	0.03
438.279	0
438.481	0.09
438.684	0.06
438.886	0.1
439.089	0.02
439.291	0.05
439.494	0.06
439.696	0.05
439.899	0.1
440.101	0.1
440.303	-0.01
440.506	0.1
440.708	0.1
440.91	0.14
441.113	0.02
441.315	0.12
441.517	0.01
441.72	0.12
441.922	0.09
442.124	0.01
442.326	0.07
442.529	0.14
442.731	0.05
442.933	0.13
443.135	0.08
443.337	0.07
443.539	0.05
443.742	0.07
443.944	0.07
444.146	0.01
444.348	0.06
444.55	0.11
444.752	0.04
444.954	0.05
445.156	0.1
445.358	0.11
445.56	0.15
445.762	0.04
445.964	0.12
446.166	0.07
446.368	0.07
446.57	0.14
446.772	0.13
446.974	0.07
447.175	0.09
447.377	0.02
447.579	0.06
447.781	0.04
447.983	0.17
448.184	0.09
448.386	0.07
448.588	0.05
448.79	0.11
448.991	0.05
449.193	0.08
449.395	0.1
449.597	0.17
449.798	0.12
450	0.1
450.202	0.13
450.403	0.1
450.605	0.11
450.806	0.05
451.008	0.02
451.21	0.06
451.411	0.07
451.613	0.06
451.814	0.09
452.016	0.08
452.217	0.1
452.419	0.09
452.62	0.09
452.821	0.11
453.023	0.11
453.224	0.12
453.426	0.06
453.627	0.11
453.828	0.11
454.03	0.04
454.231	0.14
454.432	0.03
454.634	0.16
454.835	0.05
455.036	0.06
455.238	0.15
455.439	0.18
455.64	0.03
455.841	0.05
456.042	0.14
456.244	0.06
456.445	0.03
456.646	0.03
456.847	0.02
457.048	0.12
457.249	0.12
457.45	0.24
457.651	0.05
457.852	0.13
458.054	0.08
458.255	0.04
458.456	0.12
458.657	0.06
458.858	0.03
459.058	0.06
459.259	0.14
459.46	0.04
459.661	0.02
459.862	0.12
460.063	0.06
460.264	0.04
460.465	0.03
460.666	0.17
460.866	0.09
461.067	0.08
461.268	-0.02
461.469	0.05
461.67	0.08
461.87	0.12
462.071	0.05
462.272	0.01
462.473	0.04
462.673	0.11
462.874	0.01
463.075	0.05
463.275	0.01
463.476	0.04
463.676	0.06
463.877	0.02
464.078	0.07
464.278	0.06
464.479	0.03
464.679	0.04
464.88	0.04
465.08	0.1
465.281	0
465.481	0.05
465.682	0.03
465.882	0.05
466.083	0.08
466.283	0.07
466.483	0.05
466.684	-0.04
466.884	0
467.085	0.01
467.285	0.12
467.485	0.02
467.686	0.05
467.886	0.01
468.086	0.05
468.286	0.03
468.487	0.04
468.687	0.01
468.887	0.02
469.087	0.11
469.287	0.02
469.488	0
469.688	0.04
469.888	0.03
470.088	0.09
470.288	0.09
470.488	0.08
470.688	-0.06
470.888	0.03
471.088	-0.01
471.288	0.03
471.488	0.05
471.688	0.07
471.888	0.01
472.088	0.11
472.288	0.07
472.488	0.01
472.688	-0.01
472.888	0.01
473.088	0.02
473.288	0.02
473.488	0
473.688	0.09
473.887	0.01
474.087	0
474.287	0.04
474.487	0
474.687	0.06
474.886	0.01
475.086	0.02
475.286	0.03
475.486	0.04
475.685	0.01
475.885	-0.01
476.085	0.02
476.284	0.04
476.484	-0.04
476.684	0.08
476.883	0.09
477.083	0.02
477.282	0
477.482	0.05
477.681	0.06
477.881	0.02
478.08	0.02
478.28	-0.02
478.479	0.04
478.679	0.11
478.878	-0.02
479.078	-0.02
479.277	0.01
479.477	0
479.676	0.01
479.875	0.04
480.075	-0.04
480.274	0.03
480.473	0.07
480.673	-0
480.872	0.06
481.071	0.01
481.271	0.04
481.47	-0
481.669	0.01
481.868	-0.01
482.067	-0.02
482.267	0.01
482.466	0
482.665	0.01
482.864	-0.03
483.063	-0.02
483.262	0.02
483.461	0.05
483.661	0.03
483.86	0.01
484.059	-0.01
484.258	0.02
484.457	0
484.656	0.02
484.855	0.05
485.054	-0.02
485.253	0
485.452	-0.01
485.651	0.03
485.849	0.03
486.048	-0.01
486.247	-0.02
486.446	0
486.645	0
486.844	-0.01
487.043	0.01
487.241	0.02
487.44	-0.01
487.639	-0
487.838	0.04
488.037	-0
488.235	0.04
488.434	0.01
488.633	-0.02
488.831	0.03
489.03	0.06
489.229	0.03
489.427	-0.01
489.626	0.06
489.825	0.05
490.023	0.02
490.222	0
490.42	0.05
490.619	0.05
490.817	0.03
491.016	0
491.214	0.05
491.413	-0
491.611	-0
491.81	0.01
492.008	0.01
492.207	0.02
492.405	0.01
492.604	-0.02
492.802	-0.02
493	0.02
493.199	-0.01
493.397	0.01
493.595	0.01
493.794	0
493.992	0.05
494.19	-0.01
494.388	0.02
494.587	-0
494.785	0.01
494.983	-0.01
495.181	0
495.379	0.02
495.578	-0.01
495.776	0.03
495.974	0.03
496.172	-0
496.37	-0.02
496.568	0.01
496.766	-0.01
496.964	0.03
497.162	0.03
497.36	-0.01
497.558	0.04
497.756	0.03
497.954	0.02
498.152	-0.02
498.35	0.01
498.548	0.01
498.746	0.01
498.944	-0.02
499.142	-0.02
499.34	-0.04
499.538	-0.01
499.736	-0
499.933	0.04
500.131	0.03
500.329	0.02
500.527	0.05
500.725	0.06
500.922	0.03
501.12	0.03
501.318	0
501.516	-0
501.713	0.03
501.911	-0.01
502.109	-0.02
502.306	0.01
502.504	0.01
502.701	-0.02
502.899	0.01
503.097	0.04
503.294	0.02
503.492	-0
503.689	0.03
503.887	0.02
504.084	0.03
504.282	0
504.479	-0.03
504.677	0
504.874	-0.02
505.072	0.01
505.269	0.01
505.466	0.03
505.664	0.01
505.861	-0.02
506.059	-0.01
506.256	0.01
506.453	-0.02
506.651	0.04
506.848	0.03
507.045	0
507.242	-0
507.44	-0.01
507.637	0.01
507.834	0.02
508.031	0.02
508.229	-0
508.426	0.01
508.623	0.02
508.82	0.01
509.017	-0.02
509.214	0.02
509.411	0.01
509.608	-0
509.805	-0.01
510.003	-0
510.2	0
510.397	0.02
510.594	-0.01
510.791	-0.03
510.988	0.02
511.184	0.05
511.381	0.03
511.578	-0.01
511.775	0.02
511.972	0
512.169	-0
512.366	0.01
512.563	0.04
512.76	-0
512.956	0.04
513.153	-0.01
513.35	0.02
513.547	0
513.744	-0.02
513.94	-0.02
514.137	0.02
514.334	0.02
514.53	0.02
514.727	0.02
514.924	0.02
515.12	-0.01
515.317	-0.02
515.514	-0
515.71	-0.01
515.907	-0.02
516.103	0
516.3	0.01
516.497	0.03
516.693	0.05
516.89	0.01
517.086	-0.01
517.283	0.02
517.479	0.02
517.676	-0
517.872	-0.01
518.068	0
518.265	0.01
518.461	0
518.658	-0.01
518.854	0.01
519.05	0.01
519.247	-0.03
519.443	-0.01
519.639	0.02
519.836	0
520.032	0
520.228	0.01
520.424	0.03
520.621	0.01
520.817	0.01
521.013	0.02
521.209	0.02
521.405	0.04
521.601	0.02
521.798	0.02
521.994	0.05
522.19	-0.01
522.386	-0.02
522.582	-0
522.778	-0.01
522.974	0
523.17	0
523.366	0.01
523.562	0.03
523.758	0.01
523.954	-0.01
524.15	-0.02
524.346	0.03
524.542	0
524.738	-0.01
524.934	-0
525.129	-0
525.325	0.03
525.521	0.01
525.717	0.02
525.913	0.01
526.109	-0
526.304	-0
526.5	0.01
526.696	0.01
526.892	-0.01
527.087	0.01
527.283	0
527.479	0.02
527.674	0.01
527.87	0
528.066	-0.01
528.261	0.02
528.457	0
528.653	-0
528.848	-0.01
529.044	0.01
529.239	-0
529.435	0.03
529.63	0.02
529.826	0.05
530.021	0.04
530.217	0.02
530.412	-0.01
530.608	-0.01
530.803	0
530.999	-0.01
531.194	-0.05
531.389	0.02
531.585	-0.03
531.78	-0.01
531.975	0.01
532.171	0.02
532.366	0.01
532.561	0.01
532.757	-0.02
532.952	-0.01
533.147	0.02
533.342	0.01
533.538	-0.01
533.733	0.04
533.928	0
534.123	-0.01
534.318	-0.03
534.513	0
534.709	-0.02
534.904	-0.02
535.099	-0.01
535.294	-0.03
535.489	0
535.684	0
535.879	-0.01
536.074	0.01
536.269	-0.03
536.464	0.02
536.659	0.01
536.854	-0
537.049	0.01
537.244	0
537.439	0
537.634	0.04
537.828	-0
538.023	0.01
538.218	-0.02
538.413	0.02
538.608	-0
538.803	0.01
538.997	-0.02
539.192	0.04
539.387	0.04
539.582	0.01
539.776	0.01
539.971	-0
540.166	0
540.36	-0.02
540.555	0.01
540.75	-0.01
540.944	0.03
541.139	-0.03
541.334	-0.01
541.528	0.04
541.723	0.02
541.917	0
542.112	-0.03
542.306	-0.01
542.501	-0
542.695	-0.01
542.89	-0
543.084	0.01
543.279	-0.01
543.473	0
543.668	0
543.862	-0
544.056	0.01
544.251	0.02
544.445	0.01
544.64	0.01
544.834	-0.03
545.028	0.01
545.222	0.03
545.417	0.02
545.611	0
545.805	0.01
546	0.01
546.194	-0.02
546.388	-0
546.582	0.02
546.776	0
546.97	-0
547.165	0
547.359	0.03
547.553	-0.03
547.747	0
547.941	0.01
548.135	0.03
548.329	0.04
548.523	0.02
548.717	0.01
548.911	-0.02
549.105	0
549.299	0
549.493	0.03
549.687	-0
549.881	0.02
550.075	-0.02
550.269	-0.01
550.463	0.02
550.657	-0.02
550.85	-0.01
551.044	-0.01
551.238	0
551.432	0.01
551.626	-0.03
551.82	0.01
552.013	-0.01
552.207	0.01
552.401	0.01
552.594	0.03
552.788	0.01
552.982	0.02
553.176	-0.01
553.369	0.02
553.563	0.02
553.756	-0.03
553.95	-0.02
554.144	-0.01
554.337	0.03
554.531	-0.01
554.724	-0
554.918	-0.03
555.111	0.04
555.305	-0
555.498	0.04
555.692	0.03
555.885	-0.01
556.079	0.01
556.272	-0.03
556.466	0.02
556.659	0.01
556.852	-0.01
557.046	0
557.239	0.02
557.432	-0
557.626	0
557.819	0.01
558.012	0.02
558.206	0.02
558.399	-0.02
558.592	-0
558.785	0.01
558.979	0.04
559.172	0.02
559.365	0.01
559.558	0.02
559.751	-0
559.944	-0.01
560.138	0
560.331	0.01
560.524	0.02
560.717	0.02
560.91	0.01
561.103	0.02
561.296	0.01
561.489	0.01
561.682	0.01
561.875	0.03
562.068	0.04
562.261	0.02
562.454	0.04
562.647	0.02
562.84	0.02
563.032	0.01
563.225	0.01
563.418	0.01
563.611	-0.02
563.804	-0.01
563.997	-0.01
564.19	-0.01
564.382	0.01
564.575	0.01
564.768	-0.01
564.961	0
565.153	-0.01
565.346	0.02
565.539	0.04
565.731	0.04
565.924	0.01
566.117	0.02
566.309	0.01
566.502	-0
566.695	-0
566.887	0.01
567.08	0.01
567.272	-0.01
567.465	-0
567.657	0.02
567.85	0.02
568.042	0
568.235	0.03
568.427	0.03
568.62	0.01
568.812	0.02
569.005	-0.01
569.197	-0.02
569.389	0.03
569.582	0.02
569.774	0.01
569.966	-0.03
570.159	-0.03
570.351	0.02
570.543	-0
570.736	0
570.928	-0.01
571.12	0.01
571.312	-0
571.505	-0.02
571.697	0.03
571.889	-0.03
572.081	-0.02
572.273	-0.02
572.465	0.03
572.658	0.01
572.85	0.03
573.042	-0.01
573.234	0.01
573.426	0.02
573.618	-0.02
573.81	0.02
574.002	0
574.194	0.05
574.386	-0.05
574.578	-0.06
574.77	0.01
574.962	-0
575.154	-0.04
575.346	0.01
575.538	0.02
575.729	-0.02
575.921	0.01
576.113	-0.01
576.305	0.05
576.497	-0.01
576.689	-0.01
576.88	-0.02
577.072	0.03
577.264	-0.01
577.456	-0
577.647	-0.05
577.839	0.03
578.031	0.06
578.223	-0.03
578.414	-0.03
578.606	0.02
578.798	-0.02
578.989	-0.01
579.181	0.01
579.372	0
579.564	0.02
579.755	-0
579.947	0
580.139	0.02
580.33	-0.04
580.522	-0.03
580.713	-0.06
580.905	-0
581.096	-0.01
581.287	0.02
581.479	0.02
581.67	-0
581.862	0.02
582.053	-0.02
582.244	-0.04
582.436	-0.01
582.627	-0
582.818	-0.03
583.01	-0.03
583.201	0.04
583.392	0.02
583.583	0.03
583.775	-0.01
583.966	0
584.157	-0.02
584.348	-0.01
584.54	-0.03
584.731	0.02
584.922	-0
585.113	-0.02
585.304	0.05
585.495	0.02
585.686	0
585.877	0.01
586.068	0
586.259	0.01
586.45	0.01
586.641	-0.01
586.832	-0.04
587.023	0.02
587.214	-0
587.405	0.01
587.596	-0.01
587.787	0.04
587.978	0.02
588.169	-0.02
588.36	-0.03
588.551	0
588.742	0.01
588.932	0.02
589.123	0.01
589.314	0.01
589.505	-0.01
589.696	0
589.886	-0.03
590.077	-0.03
590.268	0.01
590.458	-0.04
590.649	-0.04
590.84	0.04
591.03	-0.02
591.221	-0.03
591.412	-0.04
591.602	0.02
591.793	0.04
591.984	-0.03
592.174	-0.01
592.365	0.05
592.555	-0.02
592.746	0
592.936	0.01
593.127	0.03
593.317	0.02
593.508	-0.03
593.698	-0.02
593.889	0.02
594.079	0.01
594.269	-0.03
594.46	0
594.65	0.03
594.84	-0.01
595.031	-0.03
595.221	-0
595.411	-0.06
595.602	-0.01
595.792	0.01
595.982	-0.03
596.172	0.04
596.363	-0.01
596.553	-0
596.743	0.01
596.933	0.02
597.123	0.03
597.314	-0.03
597.504	-0.03
597.694	0.03
597.884	-0.01
598.074	-0.01
598.264	-0
598.454	0.01
598.644	-0.01
598.834	-0
599.024	-0.07
599.214	0.01
599.404	0
599.594	-0
599.784	-0.01
599.974	0.03
600.164	0.01
600.354	-0.03
600.544	-0.06
600.734	0.01
600.924	0.03
601.114	-0.01
601.303	-0.01
601.493	0.01
601.683	0
601.873	0.03
602.063	-0.04
602.252	0.04
602.442	-0.07
602.632	-0.02
602.821	-0.01
603.011	0.04
603.201	-0.02
603.39	-0.03
603.58	-0
603.77	0.01
603.959	0.01
604.149	0
604.339	-0
604.528	0.01
604.718	0.03
604.907	-0.03
605.097	0
605.286	-0.05
605.476	0.02
605.665	0.05
605.855	-0
606.044	0.06
606.234	-0.01
606.423	-0.02
606.612	-0.03
606.802	0
606.991	0.02
607.181	0
607.37	-0.03
607.559	-0.02
607.749	-0.04
607.938	0
608.127	0.01
608.316	0
608.506	-0.02
608.695	-0.01
608.884	-0.03
609.073	-0
609.263	0
609.452	0.01
609.641	-0.01
609.83	-0.04
610.019	-0.01
610.208	-0.03
610.397	0.02
610.586	-0
610.775	-0.03
610.965	-0.02
611.154	-0.01
611.343	-0.02
611.532	0.04
611.721	-0.02
611.91	-0.02
612.099	-0
612.287	-0.01
612.476	-0.03
612.665	0.02
612.854	-0.02
613.043	0.04
613.232	-0.03
613.421	-0.02
613.61	-0
613.798	0
613.987	0.03
614.176	-0.01
614.365	0.01
614.554	0.03
614.742	0.02
614.931	-0.02
615.12	0.02
615.309	-0.02
615.497	0.02
615.686	-0.02
615.875	-0.02
616.063	0.02
616.252	-0.04
616.44	-0.01
616.629	0
616.818	0.02
617.006	-0
617.195	-0.03
617.383	0.01
617.572	0.02
617.76	-0.03
617.949	-0.02
618.137	0.02
618.326	0.06
618.514	-0.02
618.703	-0.02
618.891	0.04
619.079	-0.03
619.268	0.02
619.456	-0.01
619.644	0.02
619.833	-0
620.021	-0.03
620.209	-0.05
620.398	-0.02
620.586	-0.01
620.774	0.01
620.962	0.01
621.151	0.06
621.339	0
621.527	-0.03
621.715	-0.02
621.903	-0.03
622.092	-0.03
622.28	0
622.468	-0.02
622.656	-0.01
622.844	0.03
623.032	-0.02
623.22	-0.05
623.408	0.01
623.596	0.01
623.784	0.02
623.972	-0.06
624.16	-0.03
624.348	0.03
624.536	-0.03
624.724	-0.01
624.912	0.05
625.1	0.03
625.288	-0.03
625.476	0.01
625.664	0.01
625.851	-0.06
626.039	-0.04
626.227	0.05
626.415	0
626.603	-0.06
626.79	-0
626.978	-0.03
627.166	0.02
627.354	-0
627.541	-0.02
627.729	-0.04
627.917	0.05
628.104	0.03
628.292	0.01
628.48	0.05
628.667	0
628.855	0.04
629.042	0.01
629.23	-0.02
629.418	-0.01
629.605	-0.01
629.793	-0.02
629.98	-0.01
630.168	0.03
630.355	-0.02
630.543	0.03
630.73	-0.05
630.917	0.06
631.105	0.05
631.292	0.01
631.48	0.01
631.667	0.07
631.854	0.04
632.042	0.02
632.229	-0.04
632.416	0.03
632.604	0.01
632.791	-0.03
632.978	0.02
633.165	-0.01
633.353	0.05
633.54	0.03
633.727	-0.04
633.914	-0
634.101	-0.07
634.289	0.04
634.476	-0.02
634.663	-0.02
634.85	0.04
635.037	-0.03
635.224	-0.05
635.411	0.03
635.598	0.05
635.785	0
635.972	0.02
636.159	0.06
636.346	0.01
636.533	0.01
636.72	-0
636.907	0
637.094	0.04
637.281	0
637.468	0.03
637.655	0.02
637.842	0.02
638.029	-0.01
638.215	0.06
638.402	0.01
638.589	-0
638.776	-0.01
638.963	0.02
639.149	0.05
639.336	0.06
639.523	-0.01
639.709	0.02
639.896	0.01
640.083	0.1
640.27	0.05
640.456	-0.01
640.643	0.03
640.829	-0.04
641.016	0.04
641.203	-0.01
641.389	0.03
641.576	0.05
641.762	0.02
641.949	0.02
642.135	0.06
642.322	0.02
642.508	-0.02
642.695	0.03
642.881	0.01
643.068	0.02
643.254	0.02
643.441	0.07
643.627	0.02
643.813	-0.01
644	0.08
644.186	-0.02
644.372	0.02
644.559	0.07
644.745	0.02
644.931	0.01
645.118	0.01
645.304	0.03
645.49	-0.01
645.676	0.02
645.862	0.03
646.049	0.1
646.235	0.06
646.421	0.09
646.607	0.1
646.793	0.02
646.979	0.01
647.165	0.05
647.352	0.04
647.538	0.06
647.724	0.03
647.91	0.04
648.096	0.06
648.282	0.09
648.468	0.04
648.654	0.05
648.84	0.04
649.026	0.03
649.212	0.06
649.397	0.05
649.583	-0.01
649.769	0.08
649.955	0.07
650.141	0.07
650.327	0.13
650.513	0.04
650.698	0.08
650.884	0.01
651.07	0.04
651.256	0.09
651.442	0.04
651.627	0.06
651.813	0.07
651.999	0.08
652.184	0.07
652.37	0.05
652.556	0.07
652.741	0.11
652.927	-0.01
653.113	0.04
653.298	0.1
653.484	0.08
653.669	0.02
653.855	0.05
654.04	0.1
654.226	0.11
654.412	0.08
654.597	0.06
654.782	0.08
654.968	0.11
655.153	0.1
655.339	0.06
655.524	0.03
655.71	0.09
655.895	0.06
656.08	0.09
656.266	0.1
656.451	0.09
656.636	0.01
656.822	0.11
657.007	0.07
657.192	0.08
657.378	0.04
657.563	0.1
657.748	0.12
657.933	0.09
658.118	0.07
658.304	0.05
658.489	0.14
658.674	0.11
658.859	0.08
659.044	0.09
659.229	0.13
659.414	0.11
659.599	0.07
659.785	0.06
659.97	0.09
660.155	0.12
660.34	0.09
660.525	0.12
660.71	0.07
660.895	0.11
661.08	0.1
661.264	0.07
661.449	0.14
661.634	0.12
661.819	0.14
662.004	0.14
662.189	0.01
662.374	0.1
662.559	0.06
662.743	0.01
662.928	0.09
663.113	0.04
663.298	0.01
663.483	0.06
663.667	0.07
663.852	0.03
664.037	0.13
664.221	0.03
664.406	0.11
664.591	0.02
664.775	0.04
664.96	0.06
665.145	0.07
665.329	0.08
665.514	-0
665.698	0.05
665.883	-0.03
666.068	0.11
666.252	0.03
666.437	0.03
666.621	0.05
666.806	0.08
666.99	-0
667.174	-0.02
667.359	0.05
667.543	0.01
667.728	0.04
667.912	-0.03
668.096	0.07
668.281	-0.01
668.465	0
668.649	0.02
668.834	-0.03
669.018	0.01
669.202	0.03
669.387	-0.03
669.571	0.07
669.755	-0.03
669.939	0.03
670.124	0.02
670.308	0.08
670.492	0.08
670.676	0.01
670.86	0.04
671.044	-0.03
671.228	0.02
671.413	-0.02
671.597	0.01
671.781	-0.04
671.965	0.03
672.149	0.02
672.333	0.02
672.517	-0.01
672.701	0.02
672.885	-0.01
673.069	-0.05
673.253	0.06
673.437	0.03
673.621	-0.01
673.804	-0.02
673.988	0.02
674.172	0.01
674.356	-0.04
674.54	-0.02
674.724	0.08
674.908	0.03
675.091	0.01
675.275	-0
675.459	0.05
675.643	0.09
675.826	0.03
676.01	0.06
676.194	-0
676.377	0.01
676.561	0.02
676.745	-0.03
676.928	0.05
677.112	0.07
677.296	-0.04
677.479	-0.04
677.663	-0.04
677.846	0.04
678.03	0.04
678.213	-0
678.397	-0.02
678.58	-0.01
678.764	0.01
678.947	-0.06
679.131	-0.02
679.314	0.01
679.498	-0.02
679.681	0.01
679.865	0.03
680.048	-0
680.231	-0.01
680.415	0.02
680.598	-0.05
680.781	-0
680.965	0
681.148	0.04
681.331	-0.05
681.514	0.03
681.698	-0.04
681.881	0.02
682.064	-0.01
682.247	-0.02
682.43	-0.04
682.614	-0.01
682.797	-0.01
682.98	0.06
683.163	-0.04
683.346	0.04
683.529	-0.03
683.712	-0.03
683.895	0.03
684.078	-0.06
684.261	-0.04
684.444	0.01
684.627	-0.01
684.81	-0.02
684.993	0.03
685.176	0
685.359	-0.06
685.542	-0.05
685.725	0.02
685.908	-0.02
686.091	-0.05
686.274	0.02
686.457	0
686.639	0.02
686.822	0.03
687.005	0.01
687.188	0.04
687.371	0.05
687.553	0.03
687.736	0.04
687.919	0.08
688.102	0.08
688.284	0.03
688.467	-0.03
688.65	-0.05
688.832	-0.04
689.015	-0.03
689.197	-0.07
689.38	0.07
689.563	0.07
689.745	-0
689.928	-0.04
690.11	-0.02
690.293	-0.01
690.475	-0.06
690.658	0.01
690.84	0.03
691.023	-0.01
691.205	0.02
691.388	-0.05
691.57	0.02
691.752	0.01
691.935	-0.12
692.117	-0.06
692.3	0.02
692.482	-0.04
692.664	0.03
692.847	0.02
693.029	0.04
693.211	0.05
693.393	-0.01
693.576	0
693.758	0
693.94	-0.08
694.122	-0.02
694.304	0.01
694.487	-0
694.669	0.09
694.851	-0.06
695.033	0.03
695.215	-0.07
695.397	-0.03
695.579	0.06
695.761	-0.03
695.943	-0.04
696.125	0.02
696.308	0.03
696.49	-0.1
696.671	0.08
696.853	-0
697.035	0.11
697.217	-0.04
697.399	0.02
697.581	-0.01
697.763	0
697.945	-0.04
698.127	-0.03
698.309	-0.08
698.491	-0.03
698.672	0.07
698.854	-0.01
699.036	0.02
699.218	-0.03
699.399	0.06
699.581	0.04
699.763	0
699.945	-0.03
700.126	-0.03
700.308	-0.01
700.49	0.02
700.671	-0.06
700.853	-0.03
701.035	-0
701.216	0
701.398	-0.06
701.579	-0.05
701.761	0.05
701.943	-0.06
702.124	-0.07
702.306	-0.06
702.487	0.11
702.669	0
702.85	-0.03
703.031	-0.1
703.213	0.1
703.394	0.01
703.576	0.03
703.757	0.06
703.938	0.02
704.12	0.13
704.301	-0.02
704.483	-0.05
704.664	-0.01
704.845	0.07
705.026	0.03
705.208	0.03
705.389	0.06
705.57	-0.01
705.751	-0.04
705.933	-0.02
706.114	0.04
706.295	0.01
706.476	-0.04
706.657	0.04
706.838	0.05
707.02	0.08
707.201	-0.03
707.382	-0.06
707.563	0.01
707.744	-0.01
707.925	-0.03
708.106	-0.05
708.287	0.05
708.468	0.12
708.649	-0
708.83	0.06
709.011	0
709.192	0.06
709.373	-0.04
709.554	0.01
709.734	0.05
709.915	0.02
710.096	0.03
710.277	-0.06
710.458	-0.01
710.639	-0.01
710.819	-0.11
711	0.02
711.181	0.05
711.362	0.05
711.542	0.07
711.723	0
711.904	0.04
712.085	-0
712.265	0.09
712.446	-0.03
712.627	0.02
712.807	0.01
712.988	0.02
713.168	-0.06
713.349	0.02
713.53	-0.1
713.71	-0.05
713.891	-0.03
714.071	0.03
714.252	-0.04
714.432	-0.09
714.613	-0.03
714.793	0
714.974	0.09
715.154	0.02
715.334	0.08
715.515	0.06
715.695	-0.03
715.876	-0
716.056	-0.04
716.236	0.01
716.417	0
716.597	-0.02
716.777	0.17
716.957	0.02
717.138	0.02
717.318	0.09
717.498	-0.04
717.678	0.01
717.859	0.03
718.039	-0.02
718.219	0.05
718.399	0.1
718.579	-0.04
718.759	-0.08
718.939	0.12
719.12	0.08
719.3	0.07
719.48	-0.07
719.66	-0.1
719.84	0.09
720.02	0.12
720.2	0.09
720.38	0.04
720.56	0.03
720.74	0.04
720.92	-0.03
721.1	0.08
721.279	0.06
721.459	-0.01
721.639	-0.03
721.819	0.07
721.999	0.01
722.179	0.04
722.359	-0.02
722.538	0
722.718	0.06
722.898	-0
723.078	-0.06
723.257	0.03
723.437	0.08
723.617	-0.03
723.797	0.01
723.976	0.01
724.156	0.01
724.336	0.05
724.515	0.09
724.695	-0.07
724.874	0.02
725.054	0.11
725.234	0.01
725.413	0.09
725.593	0.02
725.772	-0.04
725.952	0.08
726.131	0
726.311	0.11
726.49	0.02
726.67	-0.07
726.849	0
727.028	0.13
727.208	0.04
727.387	0.06
727.567	-0.04
727.746	0.07
727.925	-0.02
728.105	-0.05
728.284	0.03
728.463	-0.04
728.643	0.16
728.822	-0.08
729.001	0.02
729.18	0.08
729.359	0.14
729.539	0.01
729.718	0.09
729.897	0.05
730.076	0.02
730.255	-0.07
730.434	0.05
730.614	0.08
730.793	0.07
730.972	0.08
731.151	0.12
731.33	0.14
731.509	0.08
731.688	0.09
731.867	-0.01
732.046	-0.12
732.225	0.28
732.404	0.04
732.583	0.07
732.762	0.15
732.941	0.11
733.12	0.16
733.298	0.04
733.477	0.08
733.656	-0.02
733.835	-0.02
734.014	0.16
734.193	0.08
734.371	0.08
734.55	0.08
734.729	0.02
734.908	0.18
735.086	0.08
735.265	0.23
735.444	-0.03
735.623	0.12
735.801	-0.16
735.98	0.09
736.159	0.06
736.337	0.13
736.516	0.1
736.694	0.06
736.873	-0.02
737.052	0.13
737.23	0.12
737.409	0.04
737.587	0.2
737.766	0.03
737.944	0
738.123	0.12
738.301	0.03
738.479	0.07
738.658	0.13
738.836	-0.15
739.015	0.06
739.193	0.06
739.371	-0
739.55	0.11
739.728	0.08
739.906	0.13
740.085	0.17
740.263	0.1
740.441	-0.06
740.62	0.27
740.798	0.12
740.976	0.08
741.154	0.06
741.332	0.28
741.511	-0.06
741.689	0.09
741.867	0.12
742.045	-0.06
742.223	0.05
742.401	-0.01
742.579	-0.05
742.757	0.1
742.935	0.01
743.114	0.1
743.292	0.05
743.47	0.09
743.648	0.1
743.826	0.07
744.004	0.17
744.181	0.11
744.359	-0.05
744.537	0.05
744.715	0.12
744.893	-0.08
745.071	0
745.249	0.05
745.427	0.02
745.605	0.07
745.782	0.02
745.96	0.11
746.138	0.1
746.316	0.06
746.493	0
746.671	0.04
746.849	0.02
747.027	0.07
747.204	-0.11
747.382	0.04
747.56	-0.04
747.737	0.04
747.915	-0.14
748.093	0.12
748.27	-0.12
748.448	0
748.625	-0.09
748.803	-0.1
748.98	0.01
749.158	0.03
749.335	0.07
749.513	0.01
749.69	0.05
749.868	0.04
750.045	0.08
750.223	-0.08
750.4	-0.18
750.578	0.13
750.755	0
750.932	-0.1
751.11	0.21
751.287	-0.13
751.464	0.05
751.642	-0.07
751.819	0.07
751.996	0.03
752.173	-0
752.351	-0.03
752.528	0.09
752.705	0
752.882	-0.05
753.06	0.02
753.237	0.08
753.414	0.06
753.591	0.18
753.768	-0.01
753.945	-0.07
754.122	-0.1
754.299	0.07
754.476	0.02
754.654	0.01
754.831	0.07
755.008	0.02
755.185	0.01
755.362	-0.05
755.539	0.12
755.716	-0.1
755.892	-0.02
756.069	-0.05
756.246	-0.09
756.423	-0
756.6	0.1
756.777	0.03
756.954	0.23
757.131	-0.07
757.307	-0.03
757.484	-0.09
757.661	-0.06
757.838	0.04
758.015	-0.11
758.191	0.02
758.368	0.04
758.545	0.11
758.721	0.11
758.898	-0.07
759.075	-0.07
759.251	0.14
759.428	0.08
759.605	-0.16
759.781	-0.14
759.958	-0
760.134	-0.02
760.311	-0.1
760.488	0.2
760.664	0.16
760.841	-0.01
761.017	-0.17
761.194	0.06
761.37	0.02
761.547	0.1
761.723	-0.13
761.899	0.16
762.076	-0.14
762.252	-0.03
762.429	-0.05
762.605	0.12
762.781	-0.03
762.958	0.06
763.134	-0.03
763.31	-0.02
763.486	0.08
763.663	-0.3
763.839	0.06
764.015	-0.22
764.191	-0.17
764.368	-0
764.544	-0.01
764.72	0.03
764.896	0.09
765.072	0.04
765.248	0.01
765.425	-0.02
765.601	0.08
765.777	0.02
765.953	-0.22
766.129	0.03
766.305	-0.05
766.481	-0.08
766.657	-0.05
766.833	0.15
767.009	-0.2
767.185	-0.1
767.361	0
767.537	-0.16
767.713	0.17
767.889	0.04
768.065	0.03
768.24	-0.12
768.416	0.08
768.592	-0.24
768.768	-0.02
768.944	0.01
769.12	-0.2
769.295	-0.1
769.471	-0.05
769.647	-0
769.823	-0.06
769.998	-0.06
770.174	-0.15
770.35	0.23
770.525	0.28
770.701	0.07
770.877	0.01
771.052	-0.1
771.228	0.11
771.403	0.01
771.579	-0.1
771.755	0.23
771.93	-0.12
772.106	-0.1
772.281	-0.18
772.457	0.03
772.632	0.06
772.808	-0.17
772.983	-0.03
773.159	-0.16
773.334	0.11
773.509	0.13
773.685	0.04
773.86	0.22
774.036	0.09
774.211	-0.1
774.386	-0.08
774.562	0.07
774.737	-0.02
774.912	-0.1
775.087	0.15
775.263	-0.07
775.438	-0.02
775.613	-0.17
775.788	-0.02
775.964	0.16
776.139	0.26
776.314	-0.07
776.489	-0.12
776.664	0.05
776.839	-0.04
777.014	0.02
777.19	0.17
777.365	0.24
777.54	0.24
777.715	0.04
777.89	0.15
778.065	-0.14
778.24	-0.09
778.415	0.03
778.59	-0.2
778.765	-0.11
778.94	0.12
779.115	-0.04
779.289	-0.05
779.464	0.02
779.639	-0.02
779.814	-0.13
779.989	-0.05
780.164	0.22
780.339	0.01
780.513	-0.27
780.688	-0.2
780.863	0.01
781.038	0.34
781.212	-0.06
781.387	0.09
781.562	0.22
781.737	0.1
781.911	0.14
782.086	-0.05
782.261	-0.13
782.435	0.21
782.61	-0.03
782.784	0.11
782.959	0.11
783.134	-0.25
783.308	-0.11
783.483	0.02
783.657	0.55
783.832	0.15
784.006	-0.37
784.181	-0.01
784.355	0.05
784.53	-0.01
784.704	-0.2
784.878	0.18
785.053	0.2
785.227	0.34
785.402	0.19
785.576	-0
785.75	-0.19
785.925	0.11
786.099	0.07
786.273	0.03
786.448	0.07
786.622	0.02
786.796	-0.06
786.97	-0.16
787.145	0.31
787.319	-0.19
787.493	-0.07
787.667	-0.3
787.841	-0.06
788.015	0.02
788.19	-0.13
788.364	0.16
788.538	0.02
788.712	0.02
788.886	-0.05
789.06	0.18
789.234	0.2
789.408	-0.26
789.582	-0.12
789.756	-0.06
789.93	-0.36
790.104	-0.09
790.278	-0.07
790.452	-0.39
790.626	0.08
790.8	-0.18
790.973	0.09
791.147	0.23
791.321	0.26
791.495	-0.02
791.669	0.13
791.843	0.05
792.016	0.12
792.19	0.41
792.364	-0.12
792.538	0.35
792.711	0.44
792.885	-0.02
793.059	-0.15
793.233	-0.52
793.406	0.04
793.58	-0.11
793.754	0.04
793.927	-0.04
794.101	0.15
794.274	0.15
794.448	0.14
794.622	-0.04
794.795	0.19
794.969	-0.16
795.142	0.17
795.316	0.1
795.489	-0.14
795.663	0.26
795.836	-0.26
796.009	-0.28
796.183	0.34
796.356	0
796.53	0.17
796.703	-0.06
796.876	0.47
797.05	-0.15
797.223	-0.02
797.396	0.1
797.57	-0.06
797.743	0.2
797.916	0.13
798.09	-0.05
798.263	0.43
798.436	0.03
798.609	-0.12
798.782	-0.01
798.956	-0.22
799.129	-0.07
799.302	-0.07
799.475	-0.17
799.648	-0.4
799.821	-0.22
799.994	-0.07
800.167	-0.21
800.34	0.12
800.514	0.19
800.687	-0.15
800.86	0
801.033	-0.06
801.206	0.21
801.379	-0.23
801.551	0.48
801.724	0.39
801.897	0.51
802.07	-0.18
802.243	-0.56
802.416	-0.14
802.589	-0.1
802.762	0.03
802.935	0.29
803.107	0.16
803.28	0.27
803.453	-0.06
803.626	-0.23
803.798	0.14
803.971	-0.4
804.144	-0.2
804.317	0.27
804.489	0.31
804.662	-0.17
804.835	-0.09
805.007	-0.35
805.18	0.48
805.353	-0.08
805.525	-0.43
805.698	0.01
805.87	0.1
806.043	0.42
806.215	-0.07
806.388	-0.12
806.56	0.22
806.733	0.17
806.905	0.01
807.078	-0.33
807.25	0.2
807.423	0.14
807.595	0.12
807.768	0.36
807.94	0.34
808.112	0.11
808.285	0.16
808.457	-0.04
808.629	-0.14
808.802	0.28
808.974	-0.01
809.146	0.02
809.318	-0.59
809.491	0.19
809.663	0.26
809.835	-0.24
810.007	0.28
810.18	0.02
810.352	-0.2
810.524	-0.41
810.696	0.14
810.868	0.35
811.04	-0.11
811.212	-0.09
811.384	0.38
811.556	-0.2
811.728	-0.08
811.901	0.36
812.073	-0.19
812.245	0.11
812.417	-0.13
812.589	-0.51
812.76	-0.29
812.932	0.3
813.104	0.44
813.276	0.03
813.448	0.59
813.62	-0.16
813.792	0.17
813.964	-0.16
814.136	0.35
814.307	-0.33
814.479	-0.32
814.651	-0
814.823	0.59
814.995	-0.12
815.166	0.25
815.338	-0.31
815.51	-0.35
815.681	1.06
815.853	0.08
816.025	-0.07
816.196	0.36
816.368	-0.15
816.54	-0.24
816.711	-0.32
816.883	0.43
817.054	0.71
817.226	-0.52
817.398	0.42
817.569	-0.33
817.741	-0.04
817.912	-0.03
818.084	-0.38
818.255	0.01
818.426	-0.03
818.598	-0.16
818.769	-0.12
818.941	0.25
819.112	0.56
819.283	0.39
819.455	-0.47
819.626	-0.01
819.798	0.5
819.969	0.05
820.14	0.05
820.311	-0.43
820.483	0.1
820.654	0.12
820.825	-0.05
820.996	-0.13
821.168	-0.15
821.339	-0.23
821.51	-0.53
821.681	-0.33
821.852	0
822.023	-0.42
822.195	-0.64
822.366	0.35
822.537	0.06
822.708	0.18
822.879	-0.29
823.05	0.31
823.221	-0.06
823.392	0.46
823.563	-0.01
823.734	0.01
823.905	0.09
824.076	-0.09
824.247	-0.5
824.418	-0.47
824.589	0.45
824.759	0.1
824.93	-0.35
825.101	0.09
825.272	0.35
825.443	0.08
825.614	0.45
825.784	-1.08
825.955	0.72
826.126	0.67
826.297	-0.12
826.467	0.12
826.638	0.83
826.809	-1.13
826.98	-0.14
827.15	0.19
827.321	-0.02
827.492	0.87
827.662	-0.14
827.833	0.47
828.003	0.48
828.174	-0.35
828.345	-0.84
828.515	0.53
828.686	0.12
828.856	-0.04
829.027	0.09
829.197	-1
829.368	0.15
829.538	-0.22
829.709	-0.39
829.879	-0.08
830.049	0.04
830.22	-0.45
830.39	0.44
830.56	0.43
830.731	0.11
830.901	-0.32
831.072	0.14
831.242	0.37
831.412	0.08
831.582	0.6
831.753	-0.31
831.923	-0.05
832.093	-0.21
832.263	-0.78
832.434	-0.09
832.604	-0.31
832.774	-0.1
832.944	-0.35
833.114	0.12
833.284	0.02
833.454	-0.9
833.624	-0.65
833.795	-0.16
833.965	0.17
834.135	0.49
834.305	-0.47
834.475	-0.89
834.645	-0.52
834.815	-0.54
834.985	-0.84
835.155	-0.3
835.325	0.18
835.494	0.33
835.664	-0.25
835.834	-0.99
836.004	-0.22
836.174	0.28
836.344	-0.4
836.514	-1.28
836.684	-0.44
836.853	0.24
837.023	0.25
837.193	-0.13
837.363	0.84
837.532	0.72
837.702	-0.08
837.872	-0.72
838.041	0.4
838.211	1.37
838.381	-0.34
838.55	0.83
838.72	1.05
838.89	1.19
839.059	-0.04
839.229	-0.86
839.398	0.43
839.568	0.33
839.738	-0.08
839.907	0.91
840.077	0.34
840.246	-0.46
840.416	-1.05
840.585	-1.19
840.755	0.78
840.924	0.84
841.093	-0.08
841.263	-0.23
841.432	0.26
841.602	-0.86
841.771	-0.85
841.94	0.51
842.11	1.75
842.279	1.71
842.448	-0.26
842.617	-0.1
842.787	0.99
842.956	-0.46
843.125	0.2
843.294	0.65
843.464	0.55
843.633	-0.65
843.802	-0.88
843.971	-0.19
844.14	0.67
844.309	0.42
844.479	-0.81
844.648	-0.85
844.817	0.19
844.986	-0.2
845.155	-0.4
845.324	-0.17
845.493	0.59
845.662	-1.13
845.831	0.13
846	0.67
846.169	-0.58
846.338	1.7
846.507	1.16
846.676	0.28
846.844	-0.35
847.013	0.66
847.182	0.49
847.351	-0.98
847.52	-0.2
847.689	0.03
847.858	-0.22
848.026	-0.33
848.195	-0.43
848.364	-0.62
848.533	-0.19
848.701	-0.2
848.87	-0
849.039	0.82
849.207	0.52
849.376	-0.02
849.545	1.2
849.713	-0.09
849.882	-0.19
850.051	-0.06
850.219	0.76
850.388	0.38
850.556	-1.55
850.725	-1.23
850.893	0.28
851.062	-0.78
851.23	0.57
851.399	-1.2
851.567	-0.85
851.736	-0.2
851.904	-1.56
852.073	-1.01
852.241	0.72
852.41	0.35
852.578	-0.3
852.746	-0.02
852.915	0.46
853.083	0.93
853.251	-0.76
853.42	-0.78
853.588	-0.89
853.756	1.28
853.924	0.07
854.093	0.24
854.261	-1.74
854.429	-1.27
854.597	-0.27
854.765	-0.91
854.934	0.11
855.102	0.2
855.27	-0.65
855.438	-0.49
855.606	1.4
855.774	0.1
855.942	-0.86
856.11	-1.38
856.278	-0.75
856.446	1.11
856.614	-0.08
856.782	-0.59
856.95	0.6
857.118	-0.25
857.286	-1.19
857.454	-0.84
857.622	1.78
857.79	0.11
857.958	-0.41
858.126	-0.26
858.294	-3.16
858.462	-0.48
858.629	-1.06
858.797	-0.67
858.965	1.2
859.133	0.62
859.301	0.39
859.468	0.64
859.636	-0.52
859.804	1.38
859.971	0.05
860.139	-0.6
860.307	0.82
860.474	-0.53
860.642	-0.52
860.81	0.49
860.977	0.53
861.145	0.83
861.313	-0.31
861.48	0.26
861.648	-0.8
861.815	-0.15
861.983	-1.01
862.15	-0.5
862.318	0.8
862.485	1.35
862.653	-0.21
862.82	-0.32
862.988	1.62
863.155	1.63
863.322	-0.69
863.49	-1.03
863.657	-0.42
863.824	1.77
863.992	0.77
864.159	0.17
864.326	0.55
864.494	-2.01
864.661	2.53
864.828	-0.53
864.996	1.93
865.163	1.51
865.33	-1.16
865.497	-2.26
865.664	-0.23
865.832	-0.9
865.999	0.63
866.166	-1.14
866.333	0.78
866.5	-2.14
866.667	0.77
866.834	-1.03
867.001	1.82
867.168	-1.68
867.335	0.21
867.502	-2.03
867.669	0.73
867.836	1.72
868.003	-0.12
868.17	1.29
868.337	-1.59
868.504	1.97
868.671	-2.11
868.838	1.02
869.005	0.05
869.172	-0.36
869.339	-0.53
869.505	0.68
869.672	0.25
869.839	1.48
870.006	-0.02
870.173	-0.9
870.339	-0.02
870.506	1.99
870.673	-1.23
870.84	0.8
871.006	0.7
871.173	0.57
871.34	-0.08
871.506	-1.11
871.673	-0.45
871.839	-2.01
872.006	0.47
872.173	1.87
872.339	0.48
872.506	0.76
872.672	-0.32
872.839	-1.05
873.005	-0.3
873.172	2.78
873.338	0.1
873.505	-0.32
873.671	0.39
873.838	1.76
874.004	-1.05
874.171	-0.55
874.337	0.65
874.503	1.46
874.67	-0.43
874.836	-1.12
875.002	1.95
875.169	0.97
875.335	1.31
875.501	-1.42
875.668	1.32
875.834	0.48
876	-1.33
876.166	0.82
876.332	1.08
876.499	0.96
876.665	-1.58
876.831	-0.09
876.997	2.67
877.163	-0.15
877.329	0.42
877.495	0.2
877.662	1.61
877.828	1.03
877.994	-0.72
878.16	-2.44
878.326	-0.78
878.492	0.7
878.658	-1.02
878.824	0.33
878.99	1.92
879.156	-1.66
879.322	2.88
879.487	-0.73
879.653	-0.28
879.819	-0.56
879.985	-0.85
880.151	0.24
880.317	1.08
880.483	-0.49
880.648	1.83
880.814	-2.61
880.98	0.36
881.146	-2.36
881.312	0.24
881.477	0.75
881.643	0.43
881.809	1.86
881.974	0.36
882.14	-0.19
882.306	-0.38
882.471	2.88
882.637	-1.73
882.803	0.47
882.968	2.6
883.134	3.38
883.299	0.54
883.465	-0.5
883.63	0.56
883.796	0.62
883.961	0.21
884.127	1.06
884.292	-4.34
884.458	-0.68
884.623	-0.68
