Data from Apollo_Calib_20240827__AbsoluteIrradiance__672__10-21-02-428.txt Node

Date: Wed Aug 28 10:21:02 BST 2024
User: biology
Spectrometer: FLMT08252
Trigger mode: 0
Integration Time (sec): 5.000000E-1
Scans to average: 5
Electric dark correction enabled: true
Nonlinearity correction enabled: false
Boxcar width: 0
XAxis mode: Wavelengths
Number of Pixels in Spectrum: 3648
>>>>>Begin Spectral Data<<<<<
179.588	-0
179.809	-0
180.03	-0
180.251	-0
180.473	-0
180.694	0
180.915	0
181.136	-0
181.357	0
181.578	-0
181.799	-0
182.02	-0
182.241	0
182.462	-0
182.683	0
182.904	-0
183.125	-0
183.346	0
183.567	0
183.788	0
184.009	-0
184.23	0
184.451	0
184.672	0
184.892	0
185.113	0
185.334	0
185.555	-0
185.776	0
185.996	0
186.217	0
186.438	0
186.659	-0
186.879	0
187.1	0
187.321	-0
187.541	-0
187.762	0
187.983	-0
188.203	-0
188.424	0
188.644	-0
188.865	0
189.086	0
189.306	0
189.527	0
189.747	0
189.968	-0
190.188	0
190.409	0
190.629	0
190.849	-0
191.07	0
191.29	0
191.511	0
191.731	-0
191.951	-0
192.172	0
192.392	0
192.612	0
192.833	0
193.053	0
193.273	0
193.493	0
193.714	-0
193.934	0
194.154	0
194.374	0
194.594	0
194.815	0
195.035	-0
195.255	0
195.475	-0
195.695	0
195.915	0
196.135	0
196.355	0
196.575	0
196.795	0
197.015	-0
197.235	-0
197.455	-0
197.675	0
197.895	-0
198.115	-0
198.335	0
198.555	0
198.775	0
198.995	0
199.214	0
199.434	0
199.654	-0
199.874	-0
200.094	0.91
200.313	0.05
200.533	0.13
200.753	-0.29
200.973	1.28
201.192	0.44
201.412	-0.29
201.632	0.07
201.851	0.76
202.071	-0.22
202.291	-0.21
202.51	-0.67
202.73	0.65
202.95	-0.23
203.169	-0.6
203.389	0.51
203.608	0.25
203.828	0.01
204.047	0.28
204.267	0.74
204.486	0.33
204.706	0.61
204.925	0.51
205.145	-0.23
205.364	0.58
205.583	0.92
205.803	0.03
206.022	-0.2
206.242	0.24
206.461	-0.37
206.68	-0.13
206.9	0.42
207.119	0.9
207.338	0.83
207.557	0.18
207.777	0.14
207.996	0.13
208.215	0.64
208.434	0.13
208.654	-0.39
208.873	0.59
209.092	0.71
209.311	0.17
209.53	0.16
209.749	0
209.968	0.02
210.187	0.2
210.407	-0.38
210.626	-0.01
210.845	0.39
211.064	0.45
211.283	-0.13
211.502	0.47
211.721	0.29
211.94	-0.02
212.159	0.21
212.377	0.41
212.596	0.47
212.815	0.11
213.034	0.34
213.253	0.24
213.472	0.3
213.691	-0.06
213.91	-0.12
214.128	-0.17
214.347	0.26
214.566	-0.14
214.785	-0.25
215.003	0.3
215.222	0.11
215.441	-0.05
215.66	-0.05
215.878	0.06
216.097	0.12
216.316	-0.04
216.534	0.14
216.753	0.11
216.972	0.08
217.19	0.06
217.409	-0.09
217.627	0.08
217.846	0.04
218.064	-0.02
218.283	-0.01
218.501	0.52
218.72	0.27
218.938	0.04
219.157	-0.18
219.375	0.22
219.594	0.23
219.812	-0.09
220.031	0.01
220.249	0.57
220.467	0.36
220.686	0.15
220.904	-0.19
221.122	-0.17
221.341	0.26
221.559	0.27
221.777	-0.03
221.995	0.09
222.214	0.26
222.432	0.03
222.65	0.15
222.868	0.18
223.086	0.23
223.305	0.09
223.523	0.03
223.741	0.34
223.959	-0.08
224.177	-0.19
224.395	0.02
224.613	0.06
224.831	0.15
225.049	0.01
225.267	-0.14
225.485	0.08
225.703	0.14
225.921	0.1
226.139	0.03
226.357	0.07
226.575	0.15
226.793	0.14
227.011	0.65
227.229	0.11
227.447	0.15
227.665	-0.11
227.883	-0.04
228.1	0.14
228.318	0.2
228.536	-0.18
228.754	0.02
228.972	0.06
229.189	0.23
229.407	-0.03
229.625	-0
229.843	0.3
230.06	0.21
230.278	0.09
230.496	0.03
230.713	0.15
230.931	0.35
231.149	-0.03
231.366	-0.22
231.584	0.11
231.801	0.31
232.019	0.05
232.236	-0.05
232.454	0.01
232.671	0.11
232.889	0.05
233.106	-0.04
233.324	0.01
233.541	0.06
233.759	0.11
233.976	-0.06
234.194	0.07
234.411	0.01
234.628	-0.04
234.846	-0.04
235.063	0.05
235.28	0.1
235.498	0.01
235.715	0.04
235.932	0.17
236.149	-0.06
236.367	-0
236.584	0.12
236.801	0.04
237.018	0.25
237.236	0.08
237.453	-0.04
237.67	0.13
237.887	-0.05
238.104	0.09
238.321	-0.05
238.538	0.02
238.755	0.15
238.973	-0.08
239.19	0.02
239.407	0.03
239.624	0.06
239.841	-0.14
240.058	-0.03
240.275	0.05
240.492	-0.05
240.709	0.08
240.925	0.11
241.142	0.09
241.359	-0.01
241.576	-0.06
241.793	0.01
242.01	-0.01
242.227	0.09
242.444	0.19
242.66	0.1
242.877	0.12
243.094	-0.1
243.311	0.06
243.527	0.04
243.744	0.13
243.961	0.19
244.178	-0.02
244.394	0.02
244.611	0.15
244.828	0.21
245.044	-0.09
245.261	0.06
245.477	0.09
245.694	0.01
245.911	-0.04
246.127	0.05
246.344	0.03
246.56	0.1
246.777	0.02
246.993	0.05
247.21	0.09
247.426	0.14
247.643	0.06
247.859	-0.06
248.076	-0.07
248.292	0.21
248.508	0.03
248.725	0.12
248.941	0.08
249.157	0.08
249.374	-0.01
249.59	0.05
249.806	0.09
250.023	0.09
250.239	-0
250.455	0.01
250.671	0.05
250.888	0.05
251.104	0.01
251.32	-0.01
251.536	0.03
251.752	0.02
251.969	0.06
252.185	0.02
252.401	0.22
252.617	0.12
252.833	0.08
253.049	0.01
253.265	0.05
253.481	0.11
253.697	0.01
253.913	-0
254.129	0.02
254.345	0.05
254.561	-0.01
254.777	0.1
254.993	0.08
255.209	0.04
255.425	-0
255.641	-0.01
255.857	0.18
256.073	0.04
256.288	-0.01
256.504	0.01
256.72	0.06
256.936	0.09
257.152	0.05
257.367	-0.03
257.583	0.02
257.799	0.09
258.015	-0.05
258.23	-0.01
258.446	0.19
258.662	0.04
258.877	0.01
259.093	-0.02
259.309	0.09
259.524	0.08
259.74	-0.04
259.955	-0.13
260.171	0.02
260.387	0.06
260.602	0.11
260.818	0.1
261.033	-0.01
261.249	0.01
261.464	0.05
261.68	-0.1
261.895	0.05
262.11	0.08
262.326	0.02
262.541	-0.04
262.757	0.13
262.972	0.07
263.187	0.08
263.403	0.01
263.618	0.14
263.833	0.01
264.049	0.04
264.264	0.07
264.479	0.15
264.694	0.16
264.91	-0.04
265.125	0.02
265.34	0.1
265.555	0.19
265.77	0.05
265.986	0.03
266.201	0.13
266.416	0.15
266.631	0.02
266.846	0.08
267.061	0.02
267.276	0.02
267.491	-0.06
267.706	0.12
267.921	0.09
268.136	0.04
268.351	0.05
268.566	-0.04
268.781	0.15
268.996	0.12
269.211	-0.01
269.426	-0.05
269.641	0.01
269.856	0.08
270.071	-0
270.285	-0.05
270.5	0.13
270.715	0.09
270.93	0.04
271.145	0.02
271.359	0.06
271.574	-0.01
271.789	0.11
272.004	-0.01
272.218	-0.01
272.433	0.08
272.648	-0.02
272.862	0.1
273.077	-0.01
273.292	0.05
273.506	-0.04
273.721	0.04
273.936	0.03
274.15	0.1
274.365	-0.03
274.579	0.07
274.794	0.09
275.008	0.13
275.223	-0.03
275.437	0.06
275.652	0.12
275.866	0.02
276.081	0.07
276.295	0.04
276.509	0.07
276.724	0.05
276.938	0.06
277.153	0.07
277.367	0.22
277.581	0.03
277.796	0.01
278.01	-0
278.224	0.05
278.438	0.13
278.653	-0.01
278.867	-0.03
279.081	-0.11
279.295	-0.04
279.51	0.04
279.724	-0.05
279.938	0.1
280.152	0.04
280.366	0.01
280.58	0.05
280.794	0.11
281.008	0.1
281.222	0.06
281.437	0.1
281.651	0.13
281.865	0.1
282.079	0
282.293	-0.06
282.507	-0
282.721	0.05
282.935	0.09
283.148	-0.01
283.362	0.03
283.576	-0.03
283.79	0.09
284.004	0.01
284.218	0.07
284.432	0.02
284.646	0.01
284.859	-0.01
285.073	0.03
285.287	0.07
285.501	0.03
285.714	0.03
285.928	0.02
286.142	0.01
286.356	0.02
286.569	-0.05
286.783	0.14
286.997	0.05
287.21	0.03
287.424	0.04
287.637	-0.04
287.851	0.02
288.065	0.07
288.278	0.05
288.492	0.02
288.705	0.06
288.919	0.06
289.132	-0.05
289.346	0.08
289.559	-0.06
289.773	0.02
289.986	-0
290.2	0.02
290.413	0.05
290.626	-0.01
290.84	0.01
291.053	-0.02
291.267	0.12
291.48	0.01
291.693	-0.01
291.906	0
292.12	0.03
292.333	0.05
292.546	0.02
292.76	0.13
292.973	0.03
293.186	0.04
293.399	0.04
293.612	0.13
293.826	0.05
294.039	0.02
294.252	0.02
294.465	0.05
294.678	0.07
294.891	0.05
295.104	-0.03
295.317	0.03
295.53	0.07
295.743	0.05
295.956	0.04
296.169	0.1
296.382	0.07
296.595	0.06
296.808	-0.03
297.021	0.08
297.234	0.05
297.447	0.03
297.66	0.06
297.873	0.09
298.086	0.05
298.299	0.04
298.511	-0.03
298.724	0.05
298.937	-0.02
299.15	0.04
299.363	0.02
299.575	0.04
299.788	0.04
300.001	0.02
300.213	-0.03
300.426	0.05
300.639	0.03
300.852	0.04
301.064	0.08
301.277	0.1
301.489	0.07
301.702	0.04
301.915	0.04
302.127	0.04
302.34	0.05
302.552	0.06
302.765	-0
302.977	0.06
303.19	0
303.402	0.03
303.615	0
303.827	0
304.04	0.04
304.252	0.05
304.464	0.01
304.677	0.13
304.889	0.06
305.102	0
305.314	-0.06
305.526	0.07
305.739	0.07
305.951	0
306.163	-0.01
306.375	0.11
306.588	0.01
306.8	0
307.012	-0.01
307.224	0.04
307.436	0.09
307.649	-0.06
307.861	0.04
308.073	0.05
308.285	0.04
308.497	-0.01
308.709	0.01
308.921	0.06
309.133	0.08
309.346	0.05
309.558	0.02
309.77	0.09
309.982	0.12
310.194	0.06
310.406	0.02
310.617	0.1
310.829	0.05
311.041	0.03
311.253	0
311.465	0.06
311.677	-0.01
311.889	0.03
312.101	-0.01
312.313	0.07
312.524	0.07
312.736	-0.04
312.948	0.02
313.16	0.07
313.372	0.06
313.583	0.01
313.795	-0
314.007	0
314.218	0.08
314.43	0.02
314.642	-0.02
314.853	-0
315.065	0.07
315.277	0.02
315.488	0.07
315.7	0.08
315.912	0.03
316.123	0.02
316.335	0.03
316.546	0.12
316.758	0.02
316.969	0.02
317.181	0.03
317.392	0
317.604	0.08
317.815	-0.03
318.026	0.02
318.238	-0.01
318.449	0.04
318.661	-0.02
318.872	0.04
319.083	-0.02
319.295	0.04
319.506	0.01
319.717	0.03
319.929	0.02
320.14	0.03
320.351	-0.01
320.562	0.03
320.774	0.04
320.985	0.07
321.196	0.02
321.407	-0.01
321.618	0.08
321.829	0.06
322.041	0.03
322.252	0.04
322.463	0.02
322.674	0.05
322.885	-0.01
323.096	-0.01
323.307	0.03
323.518	0.01
323.729	0.01
323.94	-0.04
324.151	0.02
324.362	0.07
324.573	0.05
324.784	-0.01
324.995	0.1
325.206	0.07
325.417	0.02
325.628	0.01
325.838	0.02
326.049	0.01
326.26	0.05
326.471	0.03
326.682	0.11
326.892	0.01
327.103	-0.04
327.314	-0
327.525	0.1
327.735	0.04
327.946	0.02
328.157	-0.01
328.368	0.07
328.578	0.03
328.789	0.03
328.999	0.02
329.21	0.01
329.421	0.06
329.631	-0.02
329.842	0
330.052	0.08
330.263	0.07
330.473	0.03
330.684	0.01
330.894	0.01
331.105	0.07
331.315	0.02
331.526	-0.04
331.736	0.1
331.947	0.05
332.157	0.08
332.367	-0.02
332.578	0.05
332.788	0.11
332.999	0.07
333.209	0.03
333.419	-0.01
333.629	0.08
333.84	0.01
334.05	0.04
334.26	0.09
334.47	-0.04
334.681	0.09
334.891	-0.02
335.101	0.09
335.311	0.1
335.521	0.04
335.732	-0.03
335.942	0.14
336.152	0.07
336.362	0.05
336.572	0.01
336.782	0.07
336.992	0.01
337.202	0.04
337.412	-0.01
337.622	0.05
337.832	0.03
338.042	0.02
338.252	-0.01
338.462	0.02
338.672	0.03
338.882	-0.01
339.092	0.01
339.302	0.11
339.511	0.03
339.721	0
339.931	-0.03
340.141	0.1
340.351	0.05
340.561	0.05
340.77	0.01
340.98	0.03
341.19	0.02
341.4	0.05
341.609	-0.02
341.819	-0.04
342.029	-0.01
342.238	0.03
342.448	0.01
342.658	0.06
342.867	0.03
343.077	0.04
343.286	0.08
343.496	0.03
343.706	0.07
343.915	-0.02
344.125	0.02
344.334	0.03
344.544	0.01
344.753	0
344.963	-0.01
345.172	-0
345.381	-0.01
345.591	0.01
345.8	0.04
346.01	0.11
346.219	0.1
346.428	-0.11
346.638	0.03
346.847	0.06
347.056	0.08
347.266	0.01
347.475	0.01
347.684	0.02
347.893	0.04
348.103	0.04
348.312	-0
348.521	0.03
348.73	0.06
348.94	0.02
349.149	0.02
349.358	0.05
349.567	0.02
349.776	-0.01
349.985	0.03
350.194	0.04
350.403	0.06
350.612	-0.03
350.821	0
351.03	0.01
351.239	-0.01
351.448	0.03
351.657	0
351.866	0.11
352.075	0.02
352.284	0.11
352.493	0.02
352.702	0.08
352.911	0.04
353.12	0.02
353.329	-0.05
353.538	0.06
353.746	0.05
353.955	0.02
354.164	0.01
354.373	0.02
354.582	0.06
354.79	0.04
354.999	0.06
355.208	0
355.416	0.06
355.625	0
355.834	0.02
356.042	0.07
356.251	-0.01
356.46	-0.03
356.668	0.01
356.877	0.11
357.085	0.09
357.294	-0.05
357.503	0.04
357.711	0.03
357.92	0.14
358.128	0.03
358.337	0.01
358.545	0.03
358.754	-0
358.962	0.05
359.17	-0.01
359.379	0.02
359.587	0.09
359.796	0.01
360.004	0.07
360.212	0.03
360.421	0.1
360.629	0.03
360.837	0.03
361.046	0.04
361.254	0.11
361.462	0.02
361.67	-0
361.879	0.01
362.087	0.07
362.295	0.02
362.503	0.04
362.711	-0.02
362.92	0.01
363.128	0.02
363.336	0.01
363.544	-0.04
363.752	0.03
363.96	0.02
364.168	-0.03
364.376	0.03
364.584	0.05
364.792	0.06
365	0.04
365.208	0.03
365.416	0
365.624	0.05
365.832	0.02
366.04	0.07
366.248	0.03
366.456	0.03
366.664	0.06
366.872	0.01
367.079	0.03
367.287	0.06
367.495	0.03
367.703	0.03
367.911	-0.02
368.118	0.03
368.326	0
368.534	-0
368.742	0.08
368.949	-0.07
369.157	0.04
369.365	0
369.572	-0.04
369.78	-0
369.988	0.06
370.195	0.04
370.403	0.07
370.61	-0
370.818	0.03
371.026	0.06
371.233	-0.05
371.441	0.03
371.648	0
371.856	0.02
372.063	0.07
372.271	0.02
372.478	0.04
372.685	-0.02
372.893	0.07
373.1	-0.01
373.308	0.02
373.515	0.11
373.722	0.03
373.93	0.02
374.137	0.03
374.344	0.12
374.552	0.07
374.759	0.02
374.966	0.02
375.173	0.03
375.381	0.07
375.588	0.02
375.795	-0.04
376.002	-0.01
376.209	-0.03
376.417	0.02
376.624	-0
376.831	0.05
377.038	0.01
377.245	-0.01
377.452	0.02
377.659	0.02
377.866	-0.02
378.073	-0.01
378.28	0.02
378.487	0.09
378.694	0.05
378.901	-0.02
379.108	0.04
379.315	0.03
379.522	0.09
379.729	0.02
379.936	0.01
380.143	0.05
380.35	0.06
380.557	0.01
380.763	0.02
380.97	-0
381.177	0.06
381.384	0.01
381.591	-0.01
381.797	-0.01
382.004	0.07
382.211	-0
382.418	0
382.624	0.07
382.831	0.05
383.038	0.01
383.244	0.03
383.451	0.02
383.658	0.01
383.864	0.03
384.071	0.01
384.277	0.09
384.484	-0.05
384.69	0.06
384.897	0.04
385.103	0.02
385.31	-0.01
385.516	-0
385.723	-0.04
385.929	0.01
386.136	-0.01
386.342	0.03
386.549	0.02
386.755	0.06
386.961	0.06
387.168	0
387.374	-0
387.58	0.04
387.787	0.02
387.993	0.05
388.199	-0.01
388.406	-0.01
388.612	0
388.818	-0.01
389.024	-0.01
389.231	0.02
389.437	0.06
389.643	0.04
389.849	0.03
390.055	0.03
390.261	0.04
390.467	0.01
390.674	-0.02
390.88	-0
391.086	-0.01
391.292	-0
391.498	0.06
391.704	0.06
391.91	0.02
392.116	-0.01
392.322	-0.04
392.528	-0.02
392.734	0
392.94	0.03
393.146	-0.01
393.352	-0
393.557	0.02
393.763	-0
393.969	0.07
394.175	0.02
394.381	0.04
394.587	-0.04
394.792	-0.03
394.998	0.08
395.204	0.07
395.41	-0.01
395.615	0.06
395.821	0.01
396.027	0.04
396.233	0
396.438	-0
396.644	0.04
396.85	0.02
397.055	0.05
397.261	0.03
397.466	0
397.672	-0.02
397.878	0.07
398.083	0.03
398.289	-0.04
398.494	0.06
398.7	0
398.905	-0.04
399.111	0.08
399.316	-0.04
399.522	0.04
399.727	0.03
399.932	-0.02
400.138	0.03
400.343	0.08
400.549	0.03
400.754	0.02
400.959	0.03
401.165	-0
401.37	0.06
401.575	0.09
401.78	-0.01
401.986	-0.03
402.191	0.01
402.396	-0.03
402.601	0.07
402.807	0.03
403.012	0.05
403.217	0.09
403.422	0.04
403.627	0
403.832	-0.07
404.037	0.05
404.243	0.04
404.448	-0.02
404.653	0.01
404.858	0.05
405.063	0.03
405.268	-0.01
405.473	-0.03
405.678	-0.02
405.883	0.1
406.088	0.07
406.293	-0.05
406.498	-0.01
406.703	0.02
406.907	0.01
407.112	-0.02
407.317	0.02
407.522	0.08
407.727	-0.02
407.932	0.04
408.136	0.13
408.341	0.04
408.546	0.04
408.751	0.09
408.956	-0.01
409.16	0.07
409.365	0.04
409.57	0
409.774	0.03
409.979	0.05
410.184	0.02
410.388	-0.05
410.593	0.08
410.798	0.02
411.002	-0.02
411.207	0.01
411.411	0.02
411.616	0.03
411.82	-0.02
412.025	0.04
412.229	0.03
412.434	0.1
412.638	0.03
412.843	-0.01
413.047	0.05
413.252	0
413.456	-0.03
413.66	0.02
413.865	-0.02
414.069	0.09
414.273	-0.02
414.478	-0.02
414.682	-0.02
414.886	-0.02
415.091	-0.03
415.295	-0.02
415.499	0.04
415.703	0.01
415.908	0.08
416.112	-0.07
416.316	0.06
416.52	-0.04
416.724	0.02
416.929	0
417.133	0.09
417.337	0.04
417.541	-0.05
417.745	0.08
417.949	0.06
418.153	0.07
418.357	-0
418.561	0.04
418.765	0.02
418.969	0.09
419.173	0.07
419.377	-0.03
419.581	0.11
419.785	-0.02
419.989	-0
420.193	0.03
420.397	-0.04
420.601	0.06
420.804	0.1
421.008	0.05
421.212	0.07
421.416	0.05
421.62	-0.01
421.823	-0
422.027	0.11
422.231	0.07
422.435	0.01
422.638	0.07
422.842	0.02
423.046	-0.01
423.249	0.03
423.453	0.05
423.657	0.02
423.86	0.01
424.064	-0.02
424.268	0.11
424.471	-0
424.675	0.06
424.878	0.08
425.082	0.03
425.285	0.04
425.489	0.01
425.692	0.05
425.896	-0.03
426.099	0.04
426.303	-0.01
426.506	-0.03
426.71	0.04
426.913	0.06
427.116	0.01
427.32	0.01
427.523	0.03
427.726	0.1
427.93	-0.03
428.133	0.02
428.336	-0.01
428.54	-0.04
428.743	0.07
428.946	0.02
429.149	0.01
429.353	0.07
429.556	0.05
429.759	0.05
429.962	-0.03
430.165	0.02
430.368	0.03
430.571	-0.03
430.775	0.07
430.978	-0
431.181	0
431.384	0.04
431.587	-0.01
431.79	0.04
431.993	-0.04
432.196	-0
432.399	-0.01
432.602	0.08
432.805	0.01
433.008	-0.02
433.211	-0.07
433.414	0.03
433.616	0.02
433.819	-0.01
434.022	-0.02
434.225	0.08
434.428	0.03
434.631	0.14
434.833	0.01
435.036	0.01
435.239	0.04
435.442	0.02
435.645	0.02
435.847	0.01
436.05	0.08
436.253	0.01
436.455	-0.07
436.658	0
436.861	0.09
437.063	0.01
437.266	0.01
437.468	0.01
437.671	0.07
437.874	0
438.076	-0.04
438.279	-0.08
438.481	0.03
438.684	0.02
438.886	0.06
439.089	-0.08
439.291	0
439.494	0.05
439.696	-0.01
439.899	-0.03
440.101	0.07
440.303	-0.06
440.506	0.05
440.708	0.04
440.91	0.07
441.113	-0.03
441.315	0.08
441.517	-0.04
441.72	0.04
441.922	-0.02
442.124	-0.04
442.326	0.06
442.529	0.06
442.731	-0.03
442.933	0.11
443.135	-0.03
443.337	0.02
443.539	0.01
443.742	0.03
443.944	0.02
444.146	-0.02
444.348	-0.01
444.55	0.01
444.752	0
444.954	-0.07
445.156	0.03
445.358	-0.04
445.56	0.05
445.762	0
445.964	0
446.166	-0.02
446.368	-0
446.57	0.07
446.772	0
446.974	-0.01
447.175	0.05
447.377	-0.04
447.579	-0.07
447.781	-0.08
447.983	0.1
448.184	0.04
448.386	0.04
448.588	-0.02
448.79	0
448.991	0
449.193	0.01
449.395	-0
449.597	0.05
449.798	-0.01
450	0.05
450.202	0.03
450.403	-0.02
450.605	0.04
450.806	0.03
451.008	-0.03
451.21	-0.02
451.411	0.01
451.613	0.03
451.814	-0
452.016	0.03
452.217	0.02
452.419	0.06
452.62	0.01
452.821	0.03
453.023	0.09
453.224	0.05
453.426	0.01
453.627	0.05
453.828	0.05
454.03	0.03
454.231	-0.02
454.432	0.01
454.634	0.09
454.835	0
455.036	-0.04
455.238	0.01
455.439	0.09
455.64	0
455.841	-0.04
456.042	0.09
456.244	0.05
456.445	-0.02
456.646	-0.01
456.847	-0.03
457.048	0.02
457.249	0.06
457.45	0.23
457.651	-0.03
457.852	0.05
458.054	0.03
458.255	0
458.456	0.05
458.657	0.01
458.858	-0.01
459.058	-0
459.259	0.05
459.46	0.01
459.661	0.01
459.862	0.15
460.063	0.01
460.264	0.08
460.465	-0.04
460.666	0.1
460.866	0.02
461.067	0.02
461.268	-0
461.469	-0.02
461.67	0.01
461.87	-0.01
462.071	0
462.272	0.02
462.473	0.03
462.673	0.09
462.874	-0
463.075	0.03
463.275	-0.02
463.476	0.03
463.676	0.04
463.877	0.02
464.078	-0.02
464.278	0.06
464.479	0.01
464.679	0.06
464.88	-0.02
465.08	0.12
465.281	-0.02
465.481	0.01
465.682	-0.02
465.882	0.03
466.083	-0.03
466.283	0.03
466.483	0.02
466.684	-0.07
466.884	0.04
467.085	0.04
467.285	0.03
467.485	-0.03
467.686	0
467.886	-0.04
468.086	-0
468.286	-0.01
468.487	0.04
468.687	0
468.887	0.02
469.087	0.04
469.287	0.01
469.488	-0.04
469.688	0.05
469.888	0.03
470.088	0.04
470.288	0.05
470.488	0.05
470.688	-0.02
470.888	0.01
471.088	0.02
471.288	0.07
471.488	0.05
471.688	0
471.888	-0.03
472.088	0.07
472.288	0.05
472.488	-0.03
472.688	-0.03
472.888	-0.02
473.088	0.01
473.288	0.02
473.488	0.05
473.688	0.07
473.887	0
474.087	-0.01
474.287	0.02
474.487	-0.01
474.687	0.02
474.886	-0.02
475.086	0.03
475.286	0.04
475.486	0.03
475.685	0.03
475.885	-0.01
476.085	0.01
476.284	0.03
476.484	-0
476.684	0.01
476.883	0.05
477.083	0.04
477.282	0
477.482	0.09
477.681	0.07
477.881	0.02
478.08	-0.02
478.28	-0.01
478.479	0.05
478.679	0.08
478.878	-0
479.078	-0.02
479.277	-0.01
479.477	-0.02
479.676	0.05
479.875	-0
480.075	-0.05
480.274	0.01
480.473	0.04
480.673	-0.03
480.872	0.03
481.071	0.03
481.271	0.05
481.47	0
481.669	-0.01
481.868	-0.02
482.067	-0.03
482.267	0.01
482.466	-0.04
482.665	-0.02
482.864	-0.06
483.063	-0.04
483.262	0.02
483.461	0.04
483.661	0.07
483.86	0.01
484.059	0.01
484.258	-0.02
484.457	-0.02
484.656	-0
484.855	0.05
485.054	-0.03
485.253	-0.02
485.452	-0.03
485.651	0.02
485.849	-0.01
486.048	-0.01
486.247	0.01
486.446	-0.03
486.645	-0.02
486.844	-0.02
487.043	-0.02
487.241	0.01
487.44	-0
487.639	0
487.838	0.05
488.037	0.04
488.235	0.06
488.434	-0
488.633	-0.01
488.831	0.03
489.03	0.04
489.229	0.02
489.427	0
489.626	0.04
489.825	0.05
490.023	0.02
490.222	-0.01
490.42	0.02
490.619	0.03
490.817	-0
491.016	-0.01
491.214	0.03
491.413	-0.01
491.611	-0.01
491.81	-0
492.008	0.04
492.207	0.04
492.405	0.03
492.604	-0.02
492.802	0.01
493	0.02
493.199	-0.01
493.397	0.02
493.595	0
493.794	-0.01
493.992	0.05
494.19	0.01
494.388	0.02
494.587	-0.02
494.785	-0
494.983	0.01
495.181	0.02
495.379	-0
495.578	-0.02
495.776	0.01
495.974	0.03
496.172	-0.01
496.37	-0
496.568	-0.03
496.766	-0.01
496.964	0.04
497.162	0.02
497.36	-0.01
497.558	0.03
497.756	0.03
497.954	0.02
498.152	-0.01
498.35	0.03
498.548	0.01
498.746	0.01
498.944	0.01
499.142	0.01
499.34	-0.02
499.538	0.01
499.736	0.01
499.933	0.03
500.131	0.04
500.329	0.02
500.527	0.02
500.725	0.05
500.922	0.02
501.12	-0
501.318	0.04
501.516	-0.01
501.713	0.01
501.911	0.02
502.109	-0.02
502.306	0
502.504	0
502.701	-0.01
502.899	0.01
503.097	0.03
503.294	-0.01
503.492	0.01
503.689	0.02
503.887	0.01
504.084	0.07
504.282	0.02
504.479	-0.02
504.677	0.03
504.874	-0.02
505.072	0.01
505.269	-0.01
505.466	0.01
505.664	0.01
505.861	-0.04
506.059	-0.03
506.256	0.03
506.453	0.01
506.651	0.04
506.848	0.02
507.045	0.02
507.242	0.01
507.44	-0.01
507.637	0.01
507.834	-0
508.031	0.02
508.229	-0.01
508.426	0
508.623	0.02
508.82	0
509.017	-0.01
509.214	0.01
509.411	-0.02
509.608	-0.03
509.805	0.02
510.003	-0.01
510.2	-0.01
510.397	0.04
510.594	-0.01
510.791	-0
510.988	0
511.184	0.03
511.381	0
511.578	0.01
511.775	0.01
511.972	-0.02
512.169	-0.01
512.366	-0
512.563	0.02
512.76	-0.01
512.956	-0.01
513.153	0.01
513.35	0.01
513.547	-0.01
513.744	-0.02
513.94	-0.01
514.137	0.02
514.334	0.02
514.53	-0.01
514.727	0.01
514.924	0.05
515.12	-0
515.317	-0.03
515.514	0
515.71	-0.02
515.907	-0.01
516.103	0
516.3	0
516.497	0.03
516.693	0.04
516.89	0.02
517.086	-0.01
517.283	0.05
517.479	0.01
517.676	-0.01
517.872	0
518.068	0.01
518.265	-0.02
518.461	-0.01
518.658	-0.02
518.854	0
519.05	0
519.247	0.01
519.443	0.02
519.639	0.01
519.836	0.01
520.032	0.01
520.228	-0
520.424	0.05
520.621	0.02
520.817	0.02
521.013	0.03
521.209	0.01
521.405	0.04
521.601	-0
521.798	0
521.994	0.02
522.19	-0.01
522.386	-0.03
522.582	0.02
522.778	0.02
522.974	-0.01
523.17	0.01
523.366	0
523.562	0.03
523.758	0
523.954	-0.02
524.15	0.01
524.346	0.03
524.542	-0
524.738	-0.01
524.934	-0.03
525.129	-0.07
525.325	0.02
525.521	0.01
525.717	0.02
525.913	0.03
526.109	0.01
526.304	0.01
526.5	0
526.696	0.02
526.892	0.01
527.087	0.01
527.283	0.01
527.479	0.02
527.674	0
527.87	0
528.066	-0
528.261	0.02
528.457	0.01
528.653	0
528.848	0
529.044	0
529.239	0.02
529.435	0.03
529.63	0.01
529.826	0.05
530.021	0.01
530.217	-0
530.412	-0.01
530.608	-0.01
530.803	-0.01
530.999	-0
531.194	-0.05
531.389	0.01
531.585	-0.04
531.78	-0.01
531.975	0.01
532.171	0.04
532.366	-0.01
532.561	-0.01
532.757	-0.01
532.952	-0.01
533.147	0.03
533.342	-0.01
533.538	-0.01
533.733	0.03
533.928	-0.01
534.123	0.01
534.318	-0.03
534.513	0.01
534.709	0.01
534.904	-0.01
535.099	-0.01
535.294	0.01
535.489	0.01
535.684	0.01
535.879	-0.03
536.074	-0.02
536.269	-0.01
536.464	0.01
536.659	0.02
536.854	0.02
537.049	0.01
537.244	0.01
537.439	-0
537.634	0.03
537.828	-0
538.023	-0.01
538.218	-0.02
538.413	0.02
538.608	-0.02
538.803	0.01
538.997	-0.03
539.192	0.04
539.387	0.03
539.582	0.01
539.776	0.03
539.971	0
540.166	0
540.36	-0.02
540.555	0
540.75	-0.01
540.944	-0.01
541.139	-0.01
541.334	0.01
541.528	0.01
541.723	0.02
541.917	0
542.112	-0.02
542.306	0.01
542.501	-0.01
542.695	0.01
542.89	-0.01
543.084	-0
543.279	-0.01
543.473	-0.01
543.668	0.01
543.862	-0
544.056	0.02
544.251	0.01
544.445	0.01
544.64	0
544.834	-0.03
545.028	0.01
545.222	0.03
545.417	0.02
545.611	0.01
545.805	0.02
546	-0.01
546.194	0
546.388	-0.01
546.582	0.04
546.776	-0.01
546.97	-0.02
547.165	0.02
547.359	0.02
547.553	-0.02
547.747	0.02
547.941	0.01
548.135	0.01
548.329	0.03
548.523	0
548.717	-0
548.911	-0.03
549.105	0
549.299	-0.01
549.493	0.02
549.687	0.02
549.881	0.03
550.075	-0.01
550.269	-0.01
550.463	0.02
550.657	-0.02
550.85	0.02
551.044	-0.03
551.238	0
551.432	-0.01
551.626	-0.03
551.82	0.01
552.013	-0.04
552.207	0.01
552.401	0.01
552.594	0
552.788	0.01
552.982	0.02
553.176	-0.02
553.369	0.02
553.563	-0
553.756	-0.03
553.95	-0.01
554.144	0
554.337	0.04
554.531	-0.01
554.724	0.01
554.918	-0.01
555.111	0.01
555.305	0
555.498	0.05
555.692	0.03
555.885	-0
556.079	0.01
556.272	-0.01
556.466	0.04
556.659	-0.01
556.852	0.01
557.046	-0
557.239	0.04
557.432	-0.03
557.626	-0
557.819	-0
558.012	0.01
558.206	0.03
558.399	-0.02
558.592	0.02
558.785	0
558.979	0.01
559.172	0.02
559.365	0.03
559.558	0.04
559.751	0.01
559.944	0.02
560.138	-0.03
560.331	-0.03
560.524	-0.02
560.717	-0.02
560.91	-0.01
561.103	0.01
561.296	-0
561.489	-0.02
561.682	-0.01
561.875	0.02
562.068	-0
562.261	0
562.454	0.04
562.647	0.03
562.84	0.01
563.032	0.01
563.225	0.02
563.418	0.02
563.611	-0
563.804	0.01
563.997	-0.01
564.19	-0.02
564.382	-0.05
564.575	0.01
564.768	0.01
564.961	0.01
565.153	-0.02
565.346	0.04
565.539	0.03
565.731	0
565.924	0.04
566.117	0.01
566.309	0.01
566.502	-0.02
566.695	-0.01
566.887	0.01
567.08	-0.02
567.272	0
567.465	-0.02
567.657	-0.01
567.85	0.02
568.042	0.01
568.235	0.03
568.427	0.01
568.62	-0.02
568.812	0.03
569.005	0.01
569.197	-0.03
569.389	0.01
569.582	0.03
569.774	0.01
569.966	-0.02
570.159	-0.03
570.351	0
570.543	0
570.736	0.02
570.928	-0.02
571.12	0
571.312	-0.01
571.505	-0.03
571.697	0.04
571.889	0
572.081	0.02
572.273	-0.04
572.465	0.03
572.658	-0.01
572.85	0.03
573.042	-0.02
573.234	0.02
573.426	0.03
573.618	-0.02
573.81	0.01
574.002	0.06
574.194	0.03
574.386	-0.02
574.578	-0.06
574.77	-0
574.962	0.01
575.154	-0.02
575.346	-0
575.538	-0
575.729	-0.02
575.921	-0.03
576.113	-0.01
576.305	0.01
576.497	-0.01
576.689	0.04
576.88	-0.03
577.072	0.01
577.264	-0.02
577.456	0.01
577.647	-0.07
577.839	-0.01
578.031	0.04
578.223	-0.04
578.414	-0.03
578.606	0.01
578.798	0.02
578.989	-0.01
579.181	0.02
579.372	0.01
579.564	-0.01
579.755	0.02
579.947	0.02
580.139	0.03
580.33	-0.05
580.522	-0.05
580.713	-0.04
580.905	0.01
581.096	0.02
581.287	-0.01
581.479	0.02
581.67	0.02
581.862	0.01
582.053	-0.02
582.244	-0.03
582.436	0.01
582.627	0
582.818	-0.01
583.01	-0.04
583.201	0.05
583.392	0.04
583.583	-0.01
583.775	-0
583.966	-0.02
584.157	0.01
584.348	-0
584.54	-0.02
584.731	0.02
584.922	-0.02
585.113	-0.02
585.304	0
585.495	0.04
585.686	0.01
585.877	0.02
586.068	0.01
586.259	0.01
586.45	0.02
586.641	-0.02
586.832	-0.06
587.023	0.02
587.214	-0
587.405	0
587.596	-0.03
587.787	0.03
587.978	-0.01
588.169	-0.01
588.36	-0.02
588.551	0.02
588.742	-0
588.932	0.03
589.123	0.01
589.314	0.02
589.505	0.01
589.696	0.02
589.886	-0.01
590.077	-0.04
590.268	0
590.458	-0.03
590.649	-0.03
590.84	0.05
591.03	-0.01
591.221	-0.05
591.412	-0.03
591.602	0
591.793	0.02
591.984	-0.04
592.174	-0.02
592.365	0.08
592.555	-0.01
592.746	0.01
592.936	0.02
593.127	0.04
593.317	0.05
593.508	0.01
593.698	-0.01
593.889	0.01
594.079	-0
594.269	-0.02
594.46	-0.01
594.65	-0.01
594.84	-0.03
595.031	-0.05
595.221	-0.01
595.411	-0.04
595.602	0.01
595.792	0.01
595.982	-0.01
596.172	0.04
596.363	0.01
596.553	0
596.743	0
596.933	-0.01
597.123	0.03
597.314	-0
597.504	-0.01
597.694	0.01
597.884	0
598.074	-0.03
598.264	-0
598.454	0.03
598.644	0
598.834	0.01
599.024	-0.06
599.214	-0.02
599.404	0.02
599.594	-0.02
599.784	-0
599.974	0.03
600.164	0.04
600.354	-0.03
600.544	-0.03
600.734	-0.02
600.924	0.05
601.114	-0.03
601.303	0.02
601.493	0.01
601.683	-0.01
601.873	0
602.063	-0.02
602.252	0
602.442	-0.05
602.632	-0.02
602.821	-0.02
603.011	0.04
603.201	-0.01
603.39	-0.03
603.58	-0.03
603.77	0.01
603.959	0.07
604.149	0.01
604.339	0.02
604.528	0.03
604.718	0.04
604.907	-0
605.097	-0.02
605.286	-0.03
605.476	0.03
605.665	0.04
605.855	0.01
606.044	0.06
606.234	0.02
606.423	-0.01
606.612	-0.03
606.802	0
606.991	0.03
607.181	0.01
607.37	-0.02
607.559	-0.03
607.749	-0.05
607.938	0.02
608.127	-0
608.316	-0.02
608.506	0.02
608.695	-0.03
608.884	-0.02
609.073	-0
609.263	0.02
609.452	0.05
609.641	0.03
609.83	-0.03
610.019	0
610.208	-0.04
610.397	-0
610.586	0.04
610.775	-0.02
610.965	-0.03
611.154	0.01
611.343	-0.01
611.532	-0.01
611.721	-0.04
611.91	-0.03
612.099	0.02
612.287	0.02
612.476	-0.05
612.665	0.02
612.854	-0.03
613.043	0
613.232	0.01
613.421	-0.01
613.61	0.04
613.798	-0.02
613.987	0.02
614.176	0.01
614.365	0.04
614.554	-0.01
614.742	0.02
614.931	-0.03
615.12	-0
615.309	-0.02
615.497	0.01
615.686	-0.01
615.875	0.03
616.063	0.01
616.252	-0.01
616.44	-0.02
616.629	-0.02
616.818	-0.01
617.006	-0.01
617.195	-0.01
617.383	0.03
617.572	0.02
617.76	-0.01
617.949	-0.01
618.137	0.01
618.326	0.08
618.514	-0.03
618.703	-0.01
618.891	0.07
619.079	-0.03
619.268	0.01
619.456	-0
619.644	0.05
619.833	-0.02
620.021	0.02
620.209	-0.01
620.398	0
620.586	0
620.774	0.02
620.962	-0.01
621.151	0.07
621.339	0
621.527	-0.04
621.715	-0.01
621.903	-0.03
622.092	0.01
622.28	0.02
622.468	-0.01
622.656	0.01
622.844	0.01
623.032	0.03
623.22	-0.06
623.408	0.03
623.596	0
623.784	0.01
623.972	-0.02
624.16	-0.02
624.348	0.05
624.536	-0.01
624.724	-0.02
624.912	0.05
625.1	0.05
625.288	-0.01
625.476	-0
625.664	0.05
625.851	-0.03
626.039	-0
626.227	0.02
626.415	0.01
626.603	-0.05
626.79	-0.03
626.978	0.01
627.166	0.03
627.354	-0.02
627.541	-0.04
627.729	-0.02
627.917	0.04
628.104	0.07
628.292	0
628.48	0.02
628.667	0.03
628.855	0.01
629.042	0.01
629.23	-0.01
629.418	-0.03
629.605	0
629.793	-0.03
629.98	-0.02
630.168	0.02
630.355	0
630.543	0.02
630.73	-0.03
630.917	0.04
631.105	0.05
631.292	-0.03
631.48	0.01
631.667	0.07
631.854	-0.01
632.042	0
632.229	-0.06
632.416	-0
632.604	0.01
632.791	-0.02
632.978	0.04
633.165	0.02
633.353	0.07
633.54	0.01
633.727	-0.04
633.914	-0
634.101	-0.05
634.289	0
634.476	0
634.663	-0.01
634.85	0.01
635.037	-0.01
635.224	-0.05
635.411	0.04
635.598	0.06
635.785	0.02
635.972	0.02
636.159	0.01
636.346	-0.04
636.533	0
636.72	0.01
636.907	-0.01
637.094	0.04
637.281	0
637.468	0.01
637.655	0.02
637.842	0.02
638.029	-0.01
638.215	0.04
638.402	0.01
638.589	-0.04
638.776	-0.01
638.963	-0.02
639.149	0.05
639.336	0.11
639.523	-0.01
639.709	-0.02
639.896	-0
640.083	0.08
640.27	0.03
640.456	0
640.643	0.01
640.829	-0.01
641.016	0.02
641.203	0.01
641.389	0
641.576	0.04
641.762	0.01
641.949	-0.02
642.135	0.02
642.322	0.03
642.508	-0.03
642.695	0.02
642.881	0.01
643.068	-0.03
643.254	-0.01
643.441	0.05
643.627	-0.01
643.813	0
644	0.06
644.186	0
644.372	-0.03
644.559	0.07
644.745	0.03
644.931	-0.02
645.118	-0.01
645.304	0.01
645.49	-0.03
645.676	-0.01
645.862	0.01
646.049	0.06
646.235	0.01
646.421	0.07
646.607	0.08
646.793	-0.01
646.979	-0.02
647.165	0.03
647.352	0.03
647.538	0.04
647.724	0.01
647.91	-0
648.096	0.05
648.282	0.03
648.468	0.01
648.654	-0
648.84	0.05
649.026	0.03
649.212	0.01
649.397	0
649.583	-0.01
649.769	0.02
649.955	0.01
650.141	0.04
650.327	0.07
650.513	-0.04
650.698	0.01
650.884	-0.03
651.07	0.01
651.256	0.04
651.442	0.02
651.627	0.02
651.813	0.03
651.999	0.05
652.184	0.02
652.37	-0.01
652.556	-0.01
652.741	0.07
652.927	-0.03
653.113	0.02
653.298	0.03
653.484	-0.02
653.669	-0.03
653.855	0.03
654.04	0.04
654.226	0.07
654.412	-0.01
654.597	-0.04
654.782	0.02
654.968	0.07
655.153	0.04
655.339	0.04
655.524	-0.01
655.71	0.05
655.895	0
656.08	0.02
656.266	0.1
656.451	0.04
656.636	0.01
656.822	0.04
657.007	-0.02
657.192	0.01
657.378	-0.05
657.563	0.04
657.748	0.07
657.933	0.03
658.118	0.02
658.304	0.01
658.489	0.06
658.674	0.04
658.859	-0.01
659.044	0.03
659.229	0.04
659.414	-0.01
659.599	-0.01
659.785	0
659.97	0.04
660.155	0.05
660.34	0.07
660.525	0.02
660.71	0.02
660.895	0.04
661.08	0.02
661.264	-0.01
661.449	0.08
661.634	0.08
661.819	0.05
662.004	0.07
662.189	-0.03
662.374	0.01
662.559	0.01
662.743	0.01
662.928	0.04
663.113	0.02
663.298	-0.03
663.483	0.04
663.667	0.08
663.852	0.04
664.037	0.09
664.221	0.03
664.406	0.06
664.591	0.1
664.775	0.04
664.96	0.05
665.145	0.04
665.329	0.03
665.514	0.01
665.698	0.04
665.883	-0.04
666.068	0.1
666.252	0.06
666.437	0.01
666.621	0.03
666.806	0.09
666.99	0.02
667.174	0.05
667.359	0.09
667.543	0.03
667.728	0.05
667.912	0.01
668.096	0.1
668.281	0.04
668.465	0.04
668.649	0.04
668.834	0.03
669.018	0.03
669.202	0.04
669.387	0.02
669.571	0.08
669.755	0.05
669.939	0.07
670.124	0.08
670.308	0.16
670.492	0.07
670.676	0.07
670.86	0.08
671.044	0.08
671.228	0.1
671.413	0.06
671.597	0.04
671.781	0.07
671.965	0.11
672.149	0.06
672.333	0.05
672.517	0.06
672.701	0.1
672.885	0.09
673.069	0.03
673.253	0.12
673.437	0.07
673.621	0.07
673.804	0.06
673.988	0.1
674.172	0.07
674.356	0.16
674.54	0.06
674.724	0.17
674.908	0.09
675.091	0.1
675.275	0.12
675.459	0.17
675.643	0.18
675.826	0.15
676.01	0.12
676.194	0.09
676.377	0.12
676.561	0.11
676.745	0.1
676.928	0.15
677.112	0.14
677.296	0.09
677.479	0.1
677.663	0.11
677.846	0.1
678.03	0.13
678.213	0.1
678.397	0.12
678.58	0.12
678.764	0.08
678.947	0.09
679.131	0.08
679.314	0.17
679.498	0.12
679.681	0.16
679.865	0.15
680.048	0.2
680.231	0.15
680.415	0.13
680.598	0.18
680.781	0.1
680.965	0.17
681.148	0.16
681.331	0.2
681.514	0.18
681.698	0.15
681.881	0.17
682.064	0.16
682.247	0.15
682.43	0.13
682.614	0.2
682.797	0.24
682.98	0.18
683.163	0.15
683.346	0.19
683.529	0.18
683.712	0.16
683.895	0.24
684.078	0.14
684.261	0.16
684.444	0.2
684.627	0.24
684.81	0.19
684.993	0.18
685.176	0.32
685.359	0.21
685.542	0.22
685.725	0.29
685.908	0.24
686.091	0.22
686.274	0.26
686.457	0.27
686.639	0.24
686.822	0.3
687.005	0.26
687.188	0.33
687.371	0.32
687.553	0.29
687.736	0.31
687.919	0.34
688.102	0.34
688.284	0.26
688.467	0.33
688.65	0.3
688.832	0.3
689.015	0.32
689.197	0.25
689.38	0.38
689.563	0.4
689.745	0.29
689.928	0.31
690.11	0.37
690.293	0.37
690.475	0.32
690.658	0.39
690.84	0.35
691.023	0.38
691.205	0.34
691.388	0.36
691.57	0.38
691.752	0.41
691.935	0.36
692.117	0.39
692.3	0.4
692.482	0.45
692.664	0.4
692.847	0.49
693.029	0.49
693.211	0.52
693.393	0.48
693.576	0.43
693.758	0.5
693.94	0.44
694.122	0.45
694.304	0.44
694.487	0.51
694.669	0.63
694.851	0.46
695.033	0.49
695.215	0.54
695.397	0.54
695.579	0.55
695.761	0.51
695.943	0.52
696.125	0.66
696.308	0.6
696.49	0.45
696.671	0.72
696.853	0.68
697.035	0.86
697.217	0.57
697.399	0.71
697.581	0.67
697.763	0.68
697.945	0.62
698.127	0.74
698.309	0.61
698.491	0.76
698.672	0.75
698.854	0.8
699.036	0.83
699.218	0.8
699.399	0.82
699.581	0.87
699.763	0.84
699.945	0.73
700.126	0.77
700.308	0.86
700.49	0.82
700.671	0.82
700.853	0.87
701.035	0.86
701.216	0.92
701.398	0.88
701.579	0.96
701.761	1.05
701.943	0.89
702.124	0.92
702.306	1.04
702.487	1.13
702.669	1.03
702.85	1.02
703.031	1.03
703.213	1.2
703.394	1.15
703.576	1.11
703.757	1.34
703.938	1.18
704.12	1.33
704.301	1.25
704.483	1.15
704.664	1.31
704.845	1.35
705.026	1.35
705.208	1.35
705.389	1.33
705.57	1.37
705.751	1.37
705.933	1.48
706.114	1.5
706.295	1.5
706.476	1.36
706.657	1.67
706.838	1.52
707.02	1.61
707.201	1.54
707.382	1.54
707.563	1.68
707.744	1.63
707.925	1.57
708.106	1.63
708.287	1.73
708.468	1.77
708.649	1.83
708.83	1.85
709.011	1.78
709.192	1.89
709.373	1.88
709.554	1.94
709.734	1.97
709.915	2.06
710.096	2.07
710.277	1.86
710.458	2.03
710.639	2.16
710.819	2.04
711	2.15
711.181	2.33
711.362	2.28
711.542	2.32
711.723	2.35
711.904	2.39
712.085	2.41
712.265	2.35
712.446	2.44
712.627	2.52
712.807	2.56
712.988	2.55
713.168	2.54
713.349	2.77
713.53	2.51
713.71	2.68
713.891	2.7
714.071	2.74
714.252	2.94
714.432	2.94
714.613	2.86
714.793	3.1
714.974	3.16
715.154	3.21
715.334	3.24
715.515	3.25
715.695	3.15
715.876	3.32
716.056	3.3
716.236	3.33
716.417	3.47
716.597	3.47
716.777	3.7
716.957	3.65
717.138	3.67
717.318	3.62
717.498	3.76
717.678	3.86
717.859	3.95
718.039	4
718.219	3.99
718.399	4.17
718.579	4.17
718.759	4.26
718.939	4.41
719.12	4.4
719.3	4.35
719.48	4.38
719.66	4.4
719.84	4.75
720.02	4.69
720.2	4.83
720.38	4.81
720.56	5.09
720.74	5.03
720.92	5.08
721.1	5.29
721.279	5.26
721.459	5.36
721.639	5.43
721.819	5.56
721.999	5.53
722.179	5.56
722.359	5.58
722.538	5.86
722.718	5.84
722.898	6.09
723.078	6.07
723.257	6.12
723.437	6.36
723.617	6.27
723.797	6.44
723.976	6.5
724.156	6.79
724.336	6.65
724.515	6.93
724.695	6.81
724.874	6.99
725.054	7.03
725.234	7.03
725.413	7.32
725.593	7.28
725.772	7.44
725.952	7.59
726.131	7.52
726.311	7.62
726.49	7.75
726.67	7.87
726.849	7.82
727.028	8.11
727.208	8.04
727.387	8.17
727.567	8.28
727.746	8.46
727.925	8.42
728.105	8.48
728.284	8.6
728.463	8.54
728.643	8.98
728.822	8.86
729.001	8.94
729.18	9.33
729.359	9.41
729.539	9.53
729.718	9.44
729.897	9.74
730.076	9.83
730.255	9.85
730.434	9.97
730.614	10.05
730.793	10.29
730.972	10.34
731.151	10.41
731.33	10.68
731.509	10.55
731.688	10.49
731.867	10.98
732.046	10.69
732.225	11.19
732.404	10.95
732.583	11.17
732.762	11.48
732.941	11.64
733.12	11.68
733.298	11.79
733.477	11.95
733.656	11.93
733.835	11.94
734.014	12.21
734.193	12.2
734.371	12.3
734.55	12.47
734.729	12.21
734.908	12.59
735.086	12.9
735.265	12.87
735.444	12.56
735.623	13.23
735.801	13.03
735.98	13.2
736.159	13.22
736.337	13.4
736.516	13.38
736.694	13.08
736.873	13.17
737.052	13.64
737.23	13.41
737.409	13.25
737.587	13.58
737.766	13.28
737.944	13.27
738.123	13.54
738.301	13.47
738.479	13.28
738.658	13.32
738.836	12.96
739.015	13.17
739.193	13.04
739.371	12.76
739.55	12.52
739.728	12.52
739.906	12.92
740.085	12.59
740.263	12.52
740.441	11.94
740.62	12.32
740.798	11.84
740.976	11.53
741.154	11.14
741.332	11.31
741.511	11.06
741.689	10.63
741.867	10.75
742.045	10.38
742.223	10
742.401	9.65
742.579	9.45
742.757	9.61
742.935	9.21
743.114	9.03
743.292	8.85
743.47	8.68
743.648	8.5
743.826	8.28
744.004	8.05
744.181	7.95
744.359	7.32
744.537	7.3
744.715	6.99
744.893	6.95
745.071	6.74
745.249	6.49
745.427	6.26
745.605	6.1
745.782	5.88
745.96	5.91
746.138	5.66
746.316	5.47
746.493	5.25
746.671	5
746.849	4.83
747.027	4.71
747.204	4.64
747.382	4.49
747.56	4.29
747.737	4.24
747.915	4.03
748.093	4.01
748.27	3.66
748.448	3.68
748.625	3.54
748.803	3.29
748.98	3.26
749.158	3.25
749.335	3.26
749.513	3
749.69	2.8
749.868	2.72
750.045	2.95
750.223	2.66
750.4	2.39
750.578	2.77
750.755	2.44
750.932	2.21
751.11	2.45
751.287	2.19
751.464	2.32
751.642	2.02
751.819	2.17
751.996	2.04
752.173	1.93
752.351	1.81
752.528	1.81
752.705	1.64
752.882	1.83
753.06	1.64
753.237	1.63
753.414	1.81
753.591	1.7
753.768	1.44
753.945	1.45
754.122	1.32
754.299	1.39
754.476	1.31
754.654	1.29
754.831	1.38
755.008	1.31
755.185	1.23
755.362	1.06
755.539	1.1
755.716	0.94
755.892	1.05
756.069	1.09
756.246	0.99
756.423	0.98
756.6	0.98
756.777	0.81
756.954	0.94
757.131	0.96
757.307	0.87
757.484	0.86
757.661	0.79
757.838	0.67
758.015	0.66
758.191	0.81
758.368	0.74
758.545	0.83
758.721	0.73
758.898	0.58
759.075	0.79
759.251	0.69
759.428	0.7
759.605	0.48
759.781	0.53
759.958	0.53
760.134	0.6
760.311	0.62
760.488	0.68
760.664	0.6
760.841	0.45
761.017	0.37
761.194	0.45
761.37	0.43
761.547	0.4
761.723	0.48
761.899	0.63
762.076	0.32
762.252	0.44
762.429	0.43
762.605	0.46
762.781	0.41
762.958	0.38
763.134	0.24
763.31	0.17
763.486	0.53
763.663	0.22
763.839	0.3
764.015	0.21
764.191	0.23
764.368	0.26
764.544	0.3
764.72	0.38
764.896	0.34
765.072	0.29
765.248	0.26
765.425	0.21
765.601	0.18
765.777	0.23
765.953	0.03
766.129	0.08
766.305	0.09
766.481	0.37
766.657	0.22
766.833	0.44
767.009	0.12
767.185	0.18
767.361	0.19
767.537	0.14
767.713	0.25
767.889	0.13
768.065	0.21
768.24	-0.02
768.416	0.33
768.592	0.05
768.768	0.26
768.944	0.28
769.12	0.14
769.295	0.15
769.471	0.11
769.647	0.24
769.823	0.26
769.998	0.17
770.174	0.2
770.35	0.32
770.525	0.52
770.701	0.19
770.877	0.07
771.052	0.07
771.228	0.19
771.403	0.27
771.579	0.22
771.755	0.36
771.93	0.11
772.106	0.13
772.281	-0.02
772.457	0.15
772.632	0.07
772.808	-0.09
772.983	-0.05
773.159	0.07
773.334	0.33
773.509	0.1
773.685	0.04
773.86	0.28
774.036	0.32
774.211	0.03
774.386	0.06
774.562	0.11
774.737	0.14
774.912	0.13
775.087	0.18
775.263	0.02
775.438	0.16
775.613	-0.13
775.788	0.09
775.964	0.3
776.139	0.37
776.314	-0.01
776.489	0.13
776.664	0.11
776.839	0.05
777.014	0.33
777.19	0.23
777.365	0.31
777.54	0.29
777.715	-0.07
777.89	0.05
778.065	-0.09
778.24	-0.08
778.415	0.27
778.59	-0.15
778.765	0.16
778.94	0.26
779.115	0.01
779.289	0.03
779.464	0.14
779.639	-0.06
779.814	0.01
779.989	-0.08
780.164	0.4
780.339	0.14
780.513	0
780.688	0.14
780.863	0.16
781.038	0.28
781.212	-0.01
781.387	0.07
781.562	0.36
781.737	-0.08
781.911	0.33
782.086	-0.04
782.261	0.08
782.435	0.37
782.61	0.12
782.784	0.05
782.959	0.33
783.134	0.16
783.308	-0.17
783.483	0.05
783.657	0.38
783.832	0.29
784.006	-0.32
784.181	0.19
784.355	0.31
784.53	-0.07
784.704	0.02
784.878	0.26
785.053	0.27
785.227	0.18
785.402	0.5
785.576	-0.13
785.75	-0.08
785.925	0.04
786.099	0.21
786.273	0.13
786.448	0.13
786.622	0.29
786.796	0.26
786.97	-0.07
787.145	0.45
787.319	-0.26
787.493	-0.1
787.667	-0.44
787.841	0.12
788.015	0.38
788.19	0.14
788.364	0.08
788.538	0.21
788.712	0.16
788.886	0.03
789.06	0.26
789.234	0.1
789.408	-0.23
789.582	-0.03
789.756	0.06
789.93	-0.05
790.104	0.08
790.278	0.03
790.452	0.15
790.626	0.17
790.8	0.06
790.973	0.17
791.147	0.4
791.321	0.39
791.495	0.23
791.669	0.06
791.843	0.27
792.016	0.2
792.19	0.18
792.364	-0.14
792.538	0.5
792.711	0.17
792.885	0.17
793.059	-0.25
793.233	-0.4
793.406	0.39
793.58	0.2
793.754	0.06
793.927	0.21
794.101	0.32
794.274	0.02
794.448	0.05
794.622	-0.29
794.795	0.19
794.969	-0.12
795.142	0.48
795.316	-0.09
795.489	0
795.663	0.36
795.836	0.1
796.009	0.03
796.183	0.53
796.356	0.4
796.53	0.12
796.703	0.15
796.876	0.57
797.05	0.13
797.223	0.15
797.396	0.26
797.57	0
797.743	0.44
797.916	0.17
798.09	0.11
798.263	0.37
798.436	0.33
798.609	-0.16
798.782	-0.03
798.956	0.14
799.129	0.12
799.302	0.02
799.475	0.27
799.648	-0.3
799.821	-0.16
799.994	0.15
800.167	-0.04
800.34	0.01
800.514	-0.03
800.687	-0.14
800.86	-0.29
801.033	0.09
801.206	0.14
801.379	-0.03
801.551	0.36
801.724	0.18
801.897	0.66
802.07	0.04
802.243	-0.27
802.416	0.2
802.589	-0.21
802.762	0.2
802.935	0.3
803.107	0.41
803.28	0.13
803.453	0.57
803.626	-0.08
803.798	0.4
803.971	-0.05
804.144	-0.03
804.317	0.49
804.489	0.42
804.662	0.03
804.835	0.21
805.007	-0.22
805.18	0.37
805.353	0.35
805.525	-0.06
805.698	-0.11
805.87	0.28
806.043	0.43
806.215	-0.22
806.388	-0.11
806.56	0.12
806.733	0.37
806.905	0.08
807.078	-0.12
807.25	-0.26
807.423	0.11
807.595	0.12
807.768	0.09
807.94	0.24
808.112	-0.04
808.285	0.14
808.457	-0.19
808.629	0.05
808.802	0.33
808.974	0.1
809.146	0
809.318	-0.16
809.491	0.22
809.663	0.2
809.835	-0.06
810.007	0.36
810.18	0.05
810.352	0
810.524	-0.05
810.696	0.3
810.868	0.37
811.04	-0.02
811.212	-0.02
811.384	0.3
811.556	0.14
811.728	0.19
811.901	0.88
812.073	0.07
812.245	0.23
812.417	0.21
812.589	-0.51
812.76	0.4
812.932	0.44
813.104	0.71
813.276	0.15
813.448	0.26
813.62	0.28
813.792	0.4
813.964	0.23
814.136	0.32
814.307	-0.29
814.479	-0.05
814.651	-0.04
814.823	0.42
814.995	-0.16
815.166	0.36
815.338	-0.35
815.51	-0.36
815.681	0.93
815.853	0.63
816.025	-0.31
816.196	0.64
816.368	0.13
816.54	-0.02
816.711	-0.59
816.883	0.17
817.054	1.08
817.226	-0.24
817.398	0.44
817.569	0.03
817.741	-0.21
817.912	0.21
818.084	0.06
818.255	0.44
818.426	-0.15
818.598	0.36
818.769	-0.16
818.941	-0.1
819.112	0.52
819.283	0.64
819.455	-0
819.626	0.04
819.798	0.35
819.969	0.23
820.14	0.31
820.311	-0.03
820.483	0.08
820.654	0.37
820.825	0.13
820.996	-0.08
821.168	-0.63
821.339	0.01
821.51	-0.36
821.681	1.52
821.852	-0.11
822.023	-0.4
822.195	-0.17
822.366	0.79
822.537	0.36
822.708	0.15
822.879	-0.1
823.05	0.65
823.221	0.25
823.392	0.8
823.563	0.19
823.734	0.25
823.905	0.04
824.076	0.29
824.247	0.01
824.418	-0.13
824.589	0.49
824.759	0.21
824.93	0.07
825.101	-0.24
825.272	0.31
825.443	0.54
825.614	0.18
825.784	-0.68
825.955	1.09
826.126	0.75
826.297	0.76
826.467	0.75
826.638	0.97
826.809	-0.56
826.98	0.12
827.15	0.03
827.321	0.05
827.492	0.58
827.662	-0.14
827.833	0.8
828.003	0.57
828.174	-0.27
828.345	-0.56
828.515	0.49
828.686	0.96
828.856	0.03
829.027	0.35
829.197	0.58
829.368	0.74
829.538	-0.38
829.709	-0.25
829.879	0.13
830.049	0.28
830.22	-0.28
830.39	0.28
830.56	0.65
830.731	-0.89
830.901	-0.31
831.072	0.11
831.242	0.43
831.412	-0.04
831.582	-0.15
831.753	-0.17
831.923	0.67
832.093	0.03
832.263	0.07
832.434	-0.48
832.604	0.26
832.774	0.67
832.944	0.06
833.114	-0.17
833.284	0.35
833.454	-0.02
833.624	0.13
833.795	0.05
833.965	0.91
834.135	0.66
834.305	-1.15
834.475	-0.42
834.645	-0.34
834.815	-0.49
834.985	0.08
835.155	-0.82
835.325	0.58
835.494	0.93
835.664	0.07
835.834	-1.02
836.004	0.47
836.174	0.51
836.344	-0.3
836.514	-0.59
836.684	-0.16
836.853	0.15
837.023	0.54
837.193	0.09
837.363	0.69
837.532	0.44
837.702	0.3
837.872	-0.3
838.041	1.09
838.211	1.7
838.381	-0.75
838.55	0.49
838.72	1.21
838.89	1.54
839.059	-0.74
839.229	-0.26
839.398	1.29
839.568	0.06
839.738	0.24
839.907	1.16
840.077	0.59
840.246	-0.03
840.416	0.05
840.585	-1.13
840.755	1.56
840.924	1.1
841.093	-0.53
841.263	-0.46
841.432	0.51
841.602	0.23
841.771	-0.51
841.94	0.52
842.11	1.83
842.279	1.1
842.448	-0.17
842.617	0.36
842.787	1.44
842.956	-1.06
843.125	0.26
843.294	0.98
843.464	1.05
843.633	0.21
843.802	-0.91
843.971	-0.26
844.14	0.65
844.309	0.76
844.479	-0.23
844.648	-0.68
844.817	-0.31
844.986	0.42
845.155	0.11
845.324	-0.55
845.493	0.16
845.662	-0.52
845.831	0.78
846	0.43
846.169	-0.26
846.338	0.82
846.507	-0.02
846.676	-0.01
846.844	-0.47
847.013	0.64
847.182	0.25
847.351	-0.52
847.52	0.16
847.689	0.11
847.858	0.02
848.026	-0.32
848.195	1
848.364	-0.38
848.533	-0.94
848.701	-0.51
848.87	-0.32
849.039	0.91
849.207	2.14
849.376	0.89
849.545	0.84
849.713	0.08
849.882	0.6
850.051	-0.26
850.219	0.9
850.388	0.89
850.556	0.04
850.725	-0.5
850.893	0.21
851.062	0.62
851.23	0.9
851.399	-0.64
851.567	0.06
851.736	0.42
851.904	0.09
852.073	-0.4
852.241	1.62
852.41	0.83
852.578	-0.34
852.746	0.24
852.915	0.82
853.083	0.47
853.251	-1.07
853.42	-0.21
853.588	0.61
853.756	2.01
853.924	0
854.093	0.86
854.261	-0.27
854.429	-0.27
854.597	-0.33
854.765	-0.62
854.934	0.62
855.102	1.13
855.27	0.15
855.438	1.07
855.606	0.78
855.774	0.91
855.942	-0.74
856.11	-1.28
856.278	-0.02
856.446	1.72
856.614	0.14
856.782	-0.7
856.95	0.45
857.118	1.23
857.286	1.03
857.454	0.15
857.622	2.63
857.79	1.35
857.958	-0.47
858.126	0.16
858.294	-2.47
858.462	-0.03
858.629	0.05
858.797	-0.38
858.965	1.31
859.133	0.51
859.301	0.27
859.468	-0.15
859.636	0.05
859.804	2.54
859.971	1.63
860.139	-0.06
860.307	0.5
860.474	0.81
860.642	0.08
860.81	-1.14
860.977	0.73
861.145	1.16
861.313	0.1
861.48	-0.55
861.648	1.84
861.815	0.87
861.983	-0.76
862.15	0.45
862.318	1.67
862.485	1.2
862.653	-0.66
862.82	-2.33
862.988	0.56
863.155	1.33
863.322	-0.09
863.49	-0.31
863.657	-0.31
863.824	2.82
863.992	0.21
864.159	0.31
864.326	1.68
864.494	-0.44
864.661	3.56
864.828	-1.01
864.996	1.36
865.163	3.49
865.33	0.49
865.497	-2.73
865.664	0.69
865.832	-1.01
865.999	-0.71
866.166	-1.74
866.333	-0.23
866.5	0.35
866.667	0.96
866.834	0.3
867.001	2.57
867.168	-0.67
867.335	0.54
867.502	-2.07
867.669	0.95
867.836	3.55
868.003	1.04
868.17	1.15
868.337	0.32
868.504	2.29
868.671	-0.22
868.838	1.07
869.005	0.88
869.172	2
869.339	0.77
869.505	0.79
869.672	1.4
869.839	2.58
870.006	1.61
870.173	-0.53
870.339	1.99
870.506	2.4
870.673	-0.58
870.84	1.09
871.006	0.99
871.173	0.55
871.34	-0.08
871.506	-0.17
871.673	1.04
871.839	-1.06
872.006	-0.45
872.173	-0.16
872.339	1.13
872.506	2.24
872.672	2.51
872.839	-1.48
873.005	1.82
873.172	4.12
873.338	2.34
873.505	1.53
873.671	2.5
873.838	2.17
874.004	1.06
874.171	1.13
874.337	-0.15
874.503	0.67
874.67	1.07
874.836	0.09
875.002	4.29
875.169	1.76
875.335	-0.41
875.501	0.21
875.668	2.95
875.834	0.25
876	1.12
876.166	3.24
876.332	1.82
876.499	3.92
876.665	-0.07
876.831	1.1
876.997	2.84
877.163	2.25
877.329	0.43
877.495	2.24
877.662	1.27
877.828	1.03
877.994	1.35
878.16	-0.49
878.326	1.52
878.492	2.12
878.658	-0.2
878.824	1.92
878.99	3.15
879.156	1.72
879.322	3.85
879.487	0.34
879.653	1.52
879.819	1.61
879.985	0.13
880.151	1.98
880.317	2.72
880.483	1.07
880.648	2.47
880.814	-1.26
880.98	2.72
881.146	0.47
881.312	0.81
881.477	0.29
881.643	0.36
881.809	2.9
881.974	0.83
882.14	-0.8
882.306	0.98
882.471	2.51
882.637	0.36
882.803	2.61
882.968	5.11
883.134	3.39
883.299	0.17
883.465	2.06
883.63	1.37
883.796	4.76
883.961	2.47
884.127	1.08
884.292	-4.56
884.458	-1.53
884.623	-1.53
