Data from Apollo_Calib_20240827__AbsoluteIrradiance__646__09-55-00-889.txt Node

Date: Wed Aug 28 09:55:00 BST 2024
User: biology
Spectrometer: FLMT08252
Trigger mode: 0
Integration Time (sec): 5.000000E-1
Scans to average: 5
Electric dark correction enabled: true
Nonlinearity correction enabled: false
Boxcar width: 0
XAxis mode: Wavelengths
Number of Pixels in Spectrum: 3648
>>>>>Begin Spectral Data<<<<<
179.588	-0
179.809	-0
180.03	-0
180.251	-0
180.473	-0
180.694	0
180.915	0
181.136	-0
181.357	0
181.578	-0
181.799	-0
182.02	0
182.241	0
182.462	-0
182.683	0
182.904	-0
183.125	-0
183.346	0
183.567	0
183.788	0
184.009	-0
184.23	-0
184.451	0
184.672	0
184.892	-0
185.113	0
185.334	0
185.555	-0
185.776	-0
185.996	-0
186.217	0
186.438	0
186.659	-0
186.879	0
187.1	-0
187.321	-0
187.541	-0
187.762	-0
187.983	0
188.203	0
188.424	0
188.644	-0
188.865	0
189.086	-0
189.306	-0
189.527	-0
189.747	-0
189.968	-0
190.188	0
190.409	-0
190.629	0
190.849	-0
191.07	0
191.29	0
191.511	0
191.731	-0
191.951	-0
192.172	0
192.392	-0
192.612	-0
192.833	0
193.053	0
193.273	0
193.493	-0
193.714	0
193.934	0
194.154	0
194.374	0
194.594	0
194.815	0
195.035	0
195.255	0
195.475	0
195.695	0
195.915	0
196.135	0
196.355	0
196.575	0
196.795	0
197.015	-0
197.235	-0
197.455	-0
197.675	0
197.895	-0
198.115	-0
198.335	0
198.555	0
198.775	0
198.995	0
199.214	0
199.434	0
199.654	-0
199.874	0
200.094	0.84
200.313	-0.45
200.533	-0.08
200.753	-0.66
200.973	0.9
201.192	0.66
201.412	-0.48
201.632	-0.09
201.851	0.77
202.071	-0.57
202.291	-0.25
202.51	-0.26
202.73	0.67
202.95	-0.11
203.169	-0.34
203.389	-0.3
203.608	0.61
203.828	-0.96
204.047	0.11
204.267	0.01
204.486	0.08
204.706	0.34
204.925	-0.14
205.145	0.16
205.364	0.37
205.583	0.54
205.803	-0.2
206.022	-0.14
206.242	0.2
206.461	-0.26
206.68	-0.28
206.9	-0.01
207.119	0.57
207.338	0.35
207.557	0.08
207.777	-0.08
207.996	-0.25
208.215	0.44
208.434	-0.08
208.654	-0.44
208.873	0.51
209.092	0.6
209.311	-0.12
209.53	-0.09
209.749	0.2
209.968	-0.14
210.187	0.2
210.407	-0.39
210.626	0.04
210.845	0.36
211.064	-0.11
211.283	-0.01
211.502	0.4
211.721	-0.04
211.94	-0.05
212.159	0.1
212.377	0.26
212.596	0.21
212.815	0.03
213.034	0.09
213.253	0.44
213.472	0.34
213.691	0.18
213.91	-0.21
214.128	-0
214.347	0.21
214.566	-0.24
214.785	-0.4
215.003	0.09
215.222	-0.09
215.441	0.03
215.66	-0.21
215.878	-0.02
216.097	0.12
216.316	-0.05
216.534	0.04
216.753	0.2
216.972	-0.02
217.19	0.09
217.409	-0.07
217.627	-0.06
217.846	-0.03
218.064	0.05
218.283	-0.03
218.501	0.55
218.72	0.13
218.938	-0.18
219.157	-0.21
219.375	0.23
219.594	0.14
219.812	-0.2
220.031	-0.19
220.249	0.24
220.467	0.38
220.686	-0.07
220.904	-0.13
221.122	-0.18
221.341	0.39
221.559	0.06
221.777	-0.06
221.995	0.02
222.214	0.24
222.432	-0.05
222.65	0.18
222.868	0.08
223.086	0.07
223.305	0.09
223.523	0.08
223.741	0.22
223.959	-0.04
224.177	-0.24
224.395	0.03
224.613	0.02
224.831	0.04
225.049	-0.06
225.267	-0.01
225.485	0.06
225.703	-0.05
225.921	-0.05
226.139	0.11
226.357	0.16
226.575	0.06
226.793	-0.1
227.011	0.56
227.229	-0.07
227.447	0.1
227.665	0.01
227.883	-0.1
228.1	-0.05
228.318	0.09
228.536	-0.3
228.754	0.02
228.972	0.11
229.189	0.16
229.407	0.02
229.625	-0.14
229.843	0.24
230.06	0.1
230.278	-0.11
230.496	0.03
230.713	-0.02
230.931	0.25
231.149	-0.13
231.366	-0.12
231.584	0.01
231.801	0.41
232.019	0
232.236	-0.12
232.454	-0.22
232.671	0.09
232.889	0.01
233.106	-0.05
233.324	0.06
233.541	0.02
233.759	0.04
233.976	-0.07
234.194	0
234.411	0.02
234.628	-0.07
234.846	-0.05
235.063	0.01
235.28	0.01
235.498	-0.02
235.715	-0.04
235.932	0.21
236.149	0.01
236.367	-0.09
236.584	0
236.801	-0.04
237.018	0.08
237.236	0.05
237.453	-0.13
237.67	0.05
237.887	0.03
238.104	-0.12
238.321	-0.11
238.538	-0.02
238.755	0.09
238.973	-0.13
239.19	-0
239.407	0.07
239.624	0.07
239.841	-0.21
240.058	-0.05
240.275	0.08
240.492	-0.03
240.709	-0.04
240.925	-0.03
241.142	0.02
241.359	-0.07
241.576	-0.03
241.793	-0.03
242.01	-0.01
242.227	0.17
242.444	0.03
242.66	0.06
242.877	0.02
243.094	-0.06
243.311	-0.04
243.527	-0.01
243.744	0.03
243.961	0
244.178	-0.08
244.394	0.1
244.611	0.16
244.828	0.07
245.044	-0.1
245.261	-0.05
245.477	-0.01
245.694	0.11
245.911	0.04
246.127	0.02
246.344	0.12
246.56	0.05
246.777	-0.02
246.993	-0.01
247.21	-0.01
247.426	0.1
247.643	0.03
247.859	-0.06
248.076	0.01
248.292	0.17
248.508	0.04
248.725	-0.01
248.941	-0.01
249.157	0.13
249.374	0.01
249.59	-0
249.806	0.05
250.023	0.03
250.239	-0.05
250.455	-0.02
250.671	0.08
250.888	0.01
251.104	-0
251.32	-0.07
251.536	0
251.752	0.03
251.969	0.11
252.185	0.07
252.401	0.13
252.617	0.06
252.833	-0.09
253.049	0.05
253.265	0.01
253.481	0.04
253.697	-0.07
253.913	-0.07
254.129	0.01
254.345	0.02
254.561	-0.03
254.777	0.02
254.993	0.1
255.209	0.04
255.425	-0.04
255.641	-0.01
255.857	0.11
256.073	0.03
256.288	-0.09
256.504	-0
256.72	0.1
256.936	0.13
257.152	0.02
257.367	-0.07
257.583	-0.03
257.799	0.06
258.015	-0.06
258.23	-0.03
258.446	0.15
258.662	0.01
258.877	-0.04
259.093	-0.07
259.309	-0.02
259.524	0.09
259.74	0.01
259.955	-0.07
260.171	0.03
260.387	-0.03
260.602	0.08
260.818	0.08
261.033	-0.08
261.249	-0.07
261.464	0.02
261.68	-0.1
261.895	0.02
262.11	0.08
262.326	0.06
262.541	-0.06
262.757	0.08
262.972	0.06
263.187	0.02
263.403	-0.02
263.618	0.03
263.833	-0
264.049	-0.07
264.264	0.05
264.479	0.14
264.694	0.1
264.91	-0.07
265.125	-0.04
265.34	0.15
265.555	0.12
265.77	0.08
265.986	-0.02
266.201	0.09
266.416	0.08
266.631	0.01
266.846	-0.05
267.061	0.07
267.276	-0
267.491	-0.12
267.706	0.02
267.921	0.1
268.136	0.08
268.351	0.04
268.566	-0.08
268.781	0.11
268.996	0.04
269.211	0.04
269.426	-0.02
269.641	-0.05
269.856	0.03
270.071	-0.04
270.285	-0.11
270.5	0.1
270.715	0.13
270.93	0.02
271.145	-0.03
271.359	0.11
271.574	0.03
271.789	-0.01
272.004	-0.02
272.218	-0.03
272.433	0.06
272.648	-0.04
272.862	0.06
273.077	0.04
273.292	-0
273.506	-0
273.721	0.02
273.936	0.05
274.15	0.09
274.365	-0.04
274.579	-0.01
274.794	0.06
275.008	0.11
275.223	-0.04
275.437	0.01
275.652	0.09
275.866	0.04
276.081	0
276.295	0.08
276.509	0.04
276.724	-0.01
276.938	0.01
277.153	0.08
277.367	0.1
277.581	-0.02
277.796	-0.02
278.01	-0.07
278.224	0.02
278.438	0.17
278.653	-0.04
278.867	-0.02
279.081	-0.15
279.295	-0.05
279.51	0.07
279.724	-0.06
279.938	0.06
280.152	0.02
280.366	-0.03
280.58	0
280.794	0.06
281.008	0.08
281.222	0.07
281.437	0.16
281.651	0.03
281.865	0.12
282.079	0.02
282.293	-0.09
282.507	-0.05
282.721	-0.03
282.935	0
283.148	-0.05
283.362	-0.06
283.576	-0.02
283.79	-0.02
284.004	-0.09
284.218	0.11
284.432	-0.04
284.646	-0.01
284.859	-0
285.073	-0.02
285.287	0.02
285.501	0.01
285.714	0.03
285.928	0.02
286.142	0.02
286.356	0.02
286.569	0.03
286.783	0.05
286.997	0.04
287.21	0.04
287.424	-0
287.637	0.02
287.851	-0.03
288.065	0.02
288.278	0.01
288.492	0.05
288.705	0.04
288.919	0.03
289.132	-0.09
289.346	0.1
289.559	-0.05
289.773	-0.06
289.986	0.02
290.2	-0.02
290.413	0.11
290.626	-0.05
290.84	0
291.053	0.04
291.267	0.05
291.48	0.02
291.693	0.01
291.906	-0.02
292.12	-0.01
292.333	0.02
292.546	0.04
292.76	0.11
292.973	0.04
293.186	0.02
293.399	-0.02
293.612	0.07
293.826	0.01
294.039	0.04
294.252	0.01
294.465	0.04
294.678	0.09
294.891	-0
295.104	-0.03
295.317	-0.01
295.53	-0.02
295.743	-0.01
295.956	-0.02
296.169	0.09
296.382	0.08
296.595	-0.01
296.808	-0.03
297.021	0.06
297.234	0.09
297.447	0.01
297.66	0.05
297.873	0.07
298.086	0.05
298.299	-0.02
298.511	-0.07
298.724	0.02
298.937	-0.05
299.15	-0.02
299.363	0.05
299.575	0.05
299.788	0.08
300.001	-0.02
300.213	0
300.426	0.05
300.639	0.02
300.852	-0
301.064	0.05
301.277	0.07
301.489	0.04
301.702	0.04
301.915	0.02
302.127	0.02
302.34	0.02
302.552	0.02
302.765	-0.01
302.977	0.06
303.19	-0.03
303.402	-0.04
303.615	-0.02
303.827	-0.01
304.04	0
304.252	0.04
304.464	-0
304.677	0.11
304.889	0.06
305.102	-0.02
305.314	-0
305.526	0.04
305.739	0.05
305.951	-0
306.163	-0.02
306.375	0.08
306.588	-0.02
306.8	-0.02
307.012	-0.03
307.224	0.04
307.436	0.11
307.649	-0.07
307.861	0.01
308.073	0.02
308.285	-0.02
308.497	-0.02
308.709	0.01
308.921	0.02
309.133	0.06
309.346	-0.02
309.558	-0
309.77	0.02
309.982	0.07
310.194	0.06
310.406	-0.05
310.617	0.08
310.829	0.04
311.041	0.03
311.253	-0.03
311.465	-0.02
311.677	-0
311.889	0.02
312.101	-0.03
312.313	0.05
312.524	0.03
312.736	-0.03
312.948	0.02
313.16	0.09
313.372	0.04
313.583	0.07
313.795	-0
314.007	-0
314.218	0.02
314.43	-0
314.642	0.01
314.853	-0.03
315.065	0.05
315.277	0.02
315.488	-0.03
315.7	0.03
315.912	0.02
316.123	0.01
316.335	-0.03
316.546	0.08
316.758	0
316.969	-0.03
317.181	0.02
317.392	0.03
317.604	0.02
317.815	0.01
318.026	-0.04
318.238	-0
318.449	-0
318.661	-0.07
318.872	-0.03
319.083	-0.02
319.295	-0.01
319.506	-0.01
319.717	0.04
319.929	0.04
320.14	0.02
320.351	0
320.562	-0.01
320.774	0.01
320.985	0.01
321.196	-0.01
321.407	-0.06
321.618	0.02
321.829	0.03
322.041	0.03
322.252	0.01
322.463	0.04
322.674	-0
322.885	-0.03
323.096	-0.01
323.307	-0.03
323.518	0.04
323.729	0.02
323.94	-0.05
324.151	-0.04
324.362	0.03
324.573	0.03
324.784	-0.02
324.995	0.07
325.206	0.01
325.417	0
325.628	0.02
325.838	0.02
326.049	0.04
326.26	0.07
326.471	0.03
326.682	0.04
326.892	-0.01
327.103	-0.04
327.314	-0.04
327.525	0.02
327.735	-0.02
327.946	0.02
328.157	-0.02
328.368	0.03
328.578	-0.01
328.789	0.03
328.999	-0.01
329.21	0.01
329.421	0.02
329.631	-0
329.842	-0.02
330.052	0.04
330.263	0.06
330.473	0.03
330.684	0.03
330.894	-0.01
331.105	0.03
331.315	-0.03
331.526	-0.05
331.736	0.11
331.947	0.07
332.157	0.01
332.367	-0.02
332.578	0.03
332.788	0.04
332.999	0.06
333.209	0.03
333.419	-0.04
333.629	0.03
333.84	0.09
334.05	0.02
334.26	0.06
334.47	0.02
334.681	0.07
334.891	-0.02
335.101	0.03
335.311	0.13
335.521	0.01
335.732	-0.05
335.942	0.05
336.152	0.03
336.362	0.01
336.572	-0
336.782	0.05
336.992	0.02
337.202	-0.01
337.412	-0.05
337.622	0
337.832	0.01
338.042	0.02
338.252	-0.02
338.462	-0.01
338.672	0.03
338.882	-0.07
339.092	-0.01
339.302	0.04
339.511	0.02
339.721	-0.02
339.931	-0
340.141	0.02
340.351	0.08
340.561	0.03
340.77	0.02
340.98	0.04
341.19	0.01
341.4	-0.03
341.609	-0.02
341.819	0.03
342.029	-0.04
342.238	0.04
342.448	-0
342.658	0.02
342.867	0.01
343.077	0.03
343.286	-0
343.496	-0
343.706	0.07
343.915	-0.02
344.125	-0.01
344.334	0
344.544	-0.01
344.753	-0.02
344.963	-0.04
345.172	0.01
345.381	0.01
345.591	0
345.8	0.01
346.01	0.1
346.219	0.04
346.428	-0
346.638	0
346.847	0.03
347.056	0.09
347.266	-0.03
347.475	-0.03
347.684	0.04
347.893	0.07
348.103	0.03
348.312	0.02
348.521	-0.01
348.73	0.02
348.94	0
349.149	-0
349.358	-0.01
349.567	0
349.776	-0
349.985	-0.02
350.194	0.05
350.403	0.09
350.612	-0.05
350.821	0
351.03	-0.02
351.239	-0.02
351.448	0.01
351.657	-0.04
351.866	0.12
352.075	-0.02
352.284	0.04
352.493	-0.03
352.702	0.06
352.911	0.05
353.12	0.03
353.329	-0
353.538	0.03
353.746	0.03
353.955	-0.01
354.164	0.03
354.373	-0
354.582	0.01
354.79	0.04
354.999	0.01
355.208	0
355.416	0.07
355.625	-0.01
355.834	-0.03
356.042	0.04
356.251	0.05
356.46	-0.02
356.668	0.01
356.877	0.04
357.085	0.05
357.294	-0.08
357.503	-0.01
357.711	0.02
357.92	0.09
358.128	0
358.337	0.02
358.545	0.02
358.754	-0.03
358.962	0.01
359.17	0.01
359.379	0.04
359.587	0
359.796	0.02
360.004	0.07
360.212	0.03
360.421	0.05
360.629	0
360.837	-0.03
361.046	0.05
361.254	0.06
361.462	0
361.67	-0.03
361.879	0
362.087	0.02
362.295	0.02
362.503	0
362.711	-0.04
362.92	-0.02
363.128	-0.09
363.336	-0.04
363.544	-0.03
363.752	-0.02
363.96	0
364.168	-0.03
364.376	0
364.584	0.01
364.792	0.02
365	0.02
365.208	-0
365.416	0.01
365.624	0.05
365.832	0.01
366.04	0.09
366.248	0.03
366.456	0.05
366.664	0.02
366.872	0
367.079	-0
367.287	0.04
367.495	0.02
367.703	-0
367.911	0.03
368.118	0.01
368.326	0
368.534	-0.02
368.742	0.07
368.949	-0.05
369.157	-0.03
369.365	0.03
369.572	-0.01
369.78	0
369.988	0.07
370.195	0.02
370.403	0
370.61	-0
370.818	0.01
371.026	0.02
371.233	-0.01
371.441	0.02
371.648	-0.01
371.856	0.01
372.063	0.02
372.271	0.01
372.478	-0.04
372.685	-0.02
372.893	0.08
373.1	-0.02
373.308	-0.01
373.515	0.15
373.722	0.05
373.93	-0.03
374.137	0.02
374.344	0.06
374.552	0.05
374.759	0.02
374.966	-0
375.173	0.03
375.381	0.03
375.588	0.01
375.795	-0.04
376.002	0.01
376.209	-0.02
376.417	0.01
376.624	-0.03
376.831	0.03
377.038	-0.01
377.245	-0.03
377.452	0.04
377.659	0.02
377.866	-0.02
378.073	-0.01
378.28	0.03
378.487	0.02
378.694	0.06
378.901	0.03
379.108	0.03
379.315	0.05
379.522	0.08
379.729	0.01
379.936	-0.01
380.143	0.01
380.35	-0
380.557	0.02
380.763	0.05
380.97	0.02
381.177	0.05
381.384	0.05
381.591	-0.03
381.797	0.03
382.004	0.02
382.211	0.08
382.418	-0.02
382.624	0.06
382.831	0.04
383.038	-0.02
383.244	0.04
383.451	0.03
383.658	-0.01
383.864	0.01
384.071	-0
384.277	0.09
384.484	-0.02
384.69	0.04
384.897	-0
385.103	0.03
385.31	-0.01
385.516	-0.02
385.723	-0.03
385.929	-0.01
386.136	-0
386.342	0.04
386.549	0.02
386.755	0.07
386.961	0.03
387.168	-0.01
387.374	0.02
387.58	0.03
387.787	-0.01
387.993	0.05
388.199	-0.01
388.406	-0.02
388.612	-0.02
388.818	-0.05
389.024	-0.01
389.231	0.04
389.437	0.05
389.643	0.08
389.849	-0.01
390.055	0.06
390.261	-0.01
390.467	0.03
390.674	-0.06
390.88	0.01
391.086	-0.01
391.292	-0.02
391.498	0.07
391.704	-0
391.91	-0
392.116	-0.04
392.322	-0.05
392.528	0.07
392.734	0
392.94	0.04
393.146	-0.04
393.352	0.01
393.557	-0.01
393.763	-0.01
393.969	0.02
394.175	0.02
394.381	0.01
394.587	-0.02
394.792	0.01
394.998	0.03
395.204	0.03
395.41	-0.02
395.615	0.01
395.821	0.01
396.027	0.06
396.233	-0.02
396.438	-0
396.644	0.07
396.85	0.05
397.055	0.03
397.261	-0.01
397.466	0.06
397.672	-0
397.878	0.05
398.083	0.01
398.289	-0
398.494	0.02
398.7	0.03
398.905	-0.07
399.111	0.04
399.316	-0.05
399.522	0.03
399.727	0
399.932	-0.01
400.138	0.01
400.343	0.07
400.549	0.03
400.754	0.06
400.959	0.04
401.165	0.03
401.37	0.05
401.575	0.02
401.78	0.03
401.986	0.02
402.191	-0.02
402.396	0.01
402.601	0.05
402.807	-0.01
403.012	0.03
403.217	0.06
403.422	-0.02
403.627	-0.01
403.832	0.01
404.037	0.02
404.243	0.03
404.448	-0.02
404.653	-0.03
404.858	0.02
405.063	0.05
405.268	-0.03
405.473	-0.05
405.678	-0.03
405.883	0.11
406.088	0.02
406.293	-0.03
406.498	-0
406.703	0.08
406.907	-0.02
407.112	-0.01
407.317	0.02
407.522	0.01
407.727	-0.05
407.932	-0.02
408.136	0.04
408.341	-0.01
408.546	0.04
408.751	0.03
408.956	0.01
409.16	0.04
409.365	0.01
409.57	0.03
409.774	0.03
409.979	0.05
410.184	0
410.388	-0.04
410.593	0.08
410.798	-0.02
411.002	-0.04
411.207	-0.04
411.411	-0
411.616	0
411.82	0
412.025	0.01
412.229	-0.02
412.434	0.07
412.638	0.03
412.843	-0.02
413.047	0.02
413.252	-0.04
413.456	-0.03
413.66	0.04
413.865	-0.03
414.069	0.05
414.273	-0.02
414.478	-0.02
414.682	-0.05
414.886	-0.04
415.091	-0.01
415.295	-0.08
415.499	0.05
415.703	0.01
415.908	0.05
416.112	-0.09
416.316	0.05
416.52	-0.01
416.724	-0.03
416.929	-0.01
417.133	0.14
417.337	-0.02
417.541	-0.02
417.745	-0.07
417.949	-0.01
418.153	0.02
418.357	-0.04
418.561	0.08
418.765	-0.03
418.969	0.12
419.173	0.05
419.377	0.03
419.581	0.03
419.785	-0.03
419.989	-0.07
420.193	-0.05
420.397	-0
420.601	0.07
420.804	0.02
421.008	0.04
421.212	0.01
421.416	0.06
421.62	-0.01
421.823	-0
422.027	0.07
422.231	0.05
422.435	-0
422.638	0.05
422.842	0.01
423.046	-0.04
423.249	0.01
423.453	0.06
423.657	0.04
423.86	-0.02
424.064	-0.02
424.268	0.07
424.471	0.01
424.675	0.1
424.878	0.08
425.082	0.01
425.285	0.04
425.489	-0.02
425.692	-0.01
425.896	-0.05
426.099	0.02
426.303	-0.05
426.506	-0.06
426.71	0.02
426.913	0.06
427.116	0.06
427.32	-0.01
427.523	0
427.726	0.06
427.93	-0.07
428.133	0.02
428.336	-0.02
428.54	0.01
428.743	0.03
428.946	-0.02
429.149	-0.01
429.353	0.03
429.556	0.03
429.759	-0.04
429.962	-0.05
430.165	0.01
430.368	-0.01
430.571	-0.02
430.775	0.01
430.978	0.03
431.181	0.01
431.384	-0.05
431.587	-0.05
431.79	-0.04
431.993	-0.01
432.196	-0.01
432.399	-0.02
432.602	0.06
432.805	0
433.008	-0.04
433.211	-0.05
433.414	0.01
433.616	0.01
433.819	0.04
434.022	-0.1
434.225	0.08
434.428	0.01
434.631	0.05
434.833	0
435.036	0.01
435.239	0.05
435.442	0.03
435.645	-0.02
435.847	-0.01
436.05	0.06
436.253	0.02
436.455	-0.05
436.658	-0.02
436.861	0.05
437.063	-0.02
437.266	0.04
437.468	0.03
437.671	0.1
437.874	-0.01
438.076	-0.02
438.279	-0.05
438.481	0.01
438.684	-0.03
438.886	0.01
439.089	-0.1
439.291	-0.03
439.494	0.01
439.696	-0.03
439.899	0.02
440.101	0.02
440.303	-0.06
440.506	0.01
440.708	-0
440.91	0.03
441.113	-0.03
441.315	-0.01
441.517	-0.03
441.72	0.07
441.922	-0.05
442.124	-0.07
442.326	-0
442.529	0.1
442.731	-0.02
442.933	0.06
443.135	-0.01
443.337	-0.04
443.539	-0.04
443.742	-0.07
443.944	0.02
444.146	-0.03
444.348	-0.01
444.55	-0.04
444.752	0
444.954	-0.05
445.156	-0
445.358	-0.04
445.56	0.03
445.762	0.01
445.964	-0.06
446.166	-0.01
446.368	-0.06
446.57	0
446.772	0.02
446.974	-0.02
447.175	0.02
447.377	-0.04
447.579	-0.05
447.781	-0.08
447.983	0.02
448.184	0
448.386	0.04
448.588	-0.1
448.79	0.03
448.991	-0.03
449.193	-0.06
449.395	0
449.597	0.06
449.798	-0
450	0.04
450.202	-0.03
450.403	-0.05
450.605	0.07
450.806	-0
451.008	-0.09
451.21	0.02
451.411	0.04
451.613	0
451.814	0.03
452.016	0.03
452.217	0.01
452.419	0.06
452.62	0
452.821	-0.01
453.023	0.1
453.224	0.05
453.426	-0.01
453.627	0.01
453.828	0.03
454.03	0.04
454.231	0.06
454.432	-0.03
454.634	0.06
454.835	-0.05
455.036	-0.04
455.238	0.08
455.439	0.06
455.64	-0.03
455.841	-0.02
456.042	0.13
456.244	0.04
456.445	-0
456.646	-0.05
456.847	-0.07
457.048	0.05
457.249	0.03
457.45	0.19
457.651	-0.09
457.852	0.01
458.054	0.03
458.255	-0.01
458.456	0.02
458.657	0.02
458.858	-0.05
459.058	-0.03
459.259	0.01
459.46	0.02
459.661	-0.06
459.862	0.09
460.063	0.01
460.264	0.08
460.465	0.01
460.666	0.11
460.866	-0.04
461.067	0.01
461.268	-0.02
461.469	0.03
461.67	0.04
461.87	-0.01
462.071	-0.01
462.272	-0.02
462.473	-0.03
462.673	0.04
462.874	-0.05
463.075	0.08
463.275	-0.03
463.476	-0.02
463.676	0.01
463.877	-0
464.078	-0.06
464.278	-0.02
464.479	-0.04
464.679	-0.02
464.88	-0.04
465.08	0.08
465.281	-0.01
465.481	-0
465.682	-0.04
465.882	0.07
466.083	0.03
466.283	-0.01
466.483	-0.03
466.684	-0.09
466.884	-0.04
467.085	0.02
467.285	0.03
467.485	-0.06
467.686	-0.03
467.886	-0.03
468.086	-0.03
468.286	-0.03
468.487	0.02
468.687	-0.05
468.887	-0.02
469.087	0.02
469.287	-0.01
469.488	-0.06
469.688	0.03
469.888	0.06
470.088	0.06
470.288	0.04
470.488	0.02
470.688	-0.03
470.888	0.01
471.088	-0.02
471.288	0.05
471.488	0.02
471.688	0
471.888	-0.02
472.088	0.03
472.288	0
472.488	-0.04
472.688	-0.04
472.888	-0.03
473.088	0
473.288	0.02
473.488	0.03
473.688	0.09
473.887	0.02
474.087	-0.02
474.287	0.08
474.487	-0.03
474.687	0.03
474.886	-0.02
475.086	0.01
475.286	-0.01
475.486	-0
475.685	-0
475.885	-0.02
476.085	-0.01
476.284	0.03
476.484	0.01
476.684	0.01
476.883	0.05
477.083	0.03
477.282	-0
477.482	0.07
477.681	0.07
477.881	0.01
478.08	-0.03
478.28	-0.04
478.479	-0
478.679	0.07
478.878	-0.03
479.078	-0.01
479.277	-0.01
479.477	0.02
479.676	0.04
479.875	0.02
480.075	-0.06
480.274	0
480.473	0
480.673	-0.01
480.872	0.03
481.071	-0
481.271	0.03
481.47	-0
481.669	-0.03
481.868	-0.06
482.067	-0.01
482.267	-0.03
482.466	-0.03
482.665	-0.04
482.864	-0.04
483.063	-0.03
483.262	0.02
483.461	0.09
483.661	0.02
483.86	-0.03
484.059	0.03
484.258	0
484.457	-0.01
484.656	0.01
484.855	0.04
485.054	-0.03
485.253	-0.03
485.452	-0.01
485.651	0
485.849	0
486.048	-0.02
486.247	-0.04
486.446	0
486.645	-0.03
486.844	0.01
487.043	-0.03
487.241	0.01
487.44	-0.01
487.639	0.01
487.838	0.03
488.037	0
488.235	0.06
488.434	0.01
488.633	-0.01
488.831	0.01
489.03	0.02
489.229	0.02
489.427	-0.01
489.626	0.05
489.825	0.07
490.023	0
490.222	-0.01
490.42	0.03
490.619	0.04
490.817	0.01
491.016	-0
491.214	0.06
491.413	-0
491.611	-0.01
491.81	-0
492.008	0.01
492.207	0.01
492.405	-0
492.604	-0.03
492.802	0
493	-0
493.199	0.01
493.397	-0.01
493.595	0
493.794	-0.01
493.992	0.05
494.19	-0.01
494.388	0.05
494.587	0.02
494.785	0.02
494.983	-0
495.181	-0
495.379	-0
495.578	0
495.776	0.02
495.974	0.03
496.172	-0.02
496.37	-0.01
496.568	-0.03
496.766	-0.02
496.964	0.01
497.162	0.01
497.36	-0.03
497.558	0.02
497.756	0.04
497.954	-0.01
498.152	-0.04
498.35	0.01
498.548	-0.01
498.746	0.01
498.944	-0.02
499.142	0.01
499.34	-0.03
499.538	0.02
499.736	-0.01
499.933	0.04
500.131	0.03
500.329	0.02
500.527	0.06
500.725	0.02
500.922	0.02
501.12	0.01
501.318	0.01
501.516	-0.03
501.713	0.01
501.911	-0
502.109	-0.03
502.306	0.02
502.504	-0.01
502.701	-0.02
502.899	-0.01
503.097	0.02
503.294	-0
503.492	-0.04
503.689	0.04
503.887	0.01
504.084	0.04
504.282	0
504.479	-0.03
504.677	0
504.874	-0.03
505.072	0
505.269	-0.01
505.466	0.02
505.664	0.01
505.861	-0.03
506.059	-0.05
506.256	0
506.453	-0.02
506.651	0.04
506.848	0.04
507.045	0
507.242	0.03
507.44	0
507.637	-0
507.834	-0
508.031	0.02
508.229	-0.01
508.426	-0.01
508.623	0.01
508.82	-0.01
509.017	-0.02
509.214	0
509.411	0.01
509.608	-0.03
509.805	0.01
510.003	-0.02
510.2	-0.01
510.397	0.02
510.594	-0
510.791	-0.02
510.988	0.02
511.184	0.04
511.381	0.02
511.578	-0.03
511.775	0.02
511.972	-0.02
512.169	-0.02
512.366	-0.01
512.563	0.02
512.76	-0.03
512.956	0.01
513.153	-0.01
513.35	0.01
513.547	-0.01
513.744	-0.02
513.94	-0.03
514.137	0.02
514.334	-0.01
514.53	0.01
514.727	0.01
514.924	0.03
515.12	-0.02
515.317	-0.03
515.514	-0.01
515.71	-0.04
515.907	0.02
516.103	0.01
516.3	0
516.497	0.03
516.693	0.04
516.89	0.01
517.086	-0.02
517.283	0.04
517.479	-0
517.676	-0
517.872	-0.03
518.068	-0.02
518.265	-0.02
518.461	-0.01
518.658	-0.02
518.854	0.01
519.05	-0.02
519.247	-0.01
519.443	0
519.639	0.01
519.836	0
520.032	0.01
520.228	0.01
520.424	0.05
520.621	0.01
520.817	-0.01
521.013	0.02
521.209	0.01
521.405	0.05
521.601	0
521.798	0.01
521.994	0.06
522.19	0
522.386	-0.03
522.582	-0
522.778	0.01
522.974	-0.02
523.17	-0
523.366	-0
523.562	0.03
523.758	0
523.954	0
524.15	-0.02
524.346	0.01
524.542	-0.02
524.738	-0.01
524.934	-0.01
525.129	-0.07
525.325	0.02
525.521	0
525.717	0.02
525.913	-0.01
526.109	-0.01
526.304	0.01
526.5	0.01
526.696	0.02
526.892	-0.01
527.087	0
527.283	-0.01
527.479	0.01
527.674	0.01
527.87	-0.01
528.066	-0
528.261	0.01
528.457	0.02
528.653	-0.02
528.848	-0.02
529.044	0
529.239	0.01
529.435	0
529.63	0
529.826	0.03
530.021	-0.01
530.217	0.02
530.412	0
530.608	-0.03
530.803	-0.01
530.999	-0.02
531.194	-0.04
531.389	0
531.585	-0.04
531.78	-0
531.975	0.01
532.171	0.02
532.366	-0
532.561	0.01
532.757	-0.02
532.952	0.01
533.147	0.02
533.342	-0
533.538	0
533.733	0.04
533.928	-0
534.123	-0.01
534.318	-0.03
534.513	-0.01
534.709	-0
534.904	-0.02
535.099	-0.02
535.294	-0.01
535.489	0
535.684	-0.02
535.879	-0.05
536.074	0
536.269	-0.02
536.464	0.01
536.659	0.01
536.854	0
537.049	0.01
537.244	-0.01
537.439	-0
537.634	0.02
537.828	-0
538.023	-0.01
538.218	-0.01
538.413	0
538.608	-0.03
538.803	0
538.997	-0.04
539.192	0.02
539.387	0.02
539.582	0.03
539.776	0.01
539.971	-0.01
540.166	0.01
540.36	-0.02
540.555	0
540.75	-0.01
540.944	-0.01
541.139	-0.04
541.334	-0.01
541.528	0.02
541.723	0.01
541.917	-0
542.112	-0.04
542.306	-0.01
542.501	-0
542.695	0.01
542.89	-0.01
543.084	0.01
543.279	-0.01
543.473	0
543.668	-0
543.862	-0.02
544.056	0.01
544.251	0.01
544.445	-0
544.64	-0.01
544.834	-0.02
545.028	0.02
545.222	0.02
545.417	0.03
545.611	0.02
545.805	0.01
546	-0.01
546.194	-0.02
546.388	-0.01
546.582	0.03
546.776	-0.01
546.97	0
547.165	-0
547.359	0.01
547.553	-0.02
547.747	-0.01
547.941	0.01
548.135	0
548.329	0.01
548.523	0.01
548.717	0
548.911	-0.01
549.105	-0
549.299	0
549.493	0.03
549.687	0.02
549.881	-0
550.075	-0.01
550.269	-0.03
550.463	0.01
550.657	-0.03
550.85	-0
551.044	-0.02
551.238	0.01
551.432	-0
551.626	-0.02
551.82	-0
552.013	-0.01
552.207	0
552.401	0
552.594	-0
552.788	-0.01
552.982	-0.02
553.176	0.01
553.369	0.01
553.563	0.03
553.756	-0.04
553.95	-0.02
554.144	0.01
554.337	0.03
554.531	0
554.724	-0
554.918	-0.01
555.111	0.03
555.305	0.01
555.498	0.03
555.692	0.01
555.885	-0.02
556.079	0
556.272	-0.03
556.466	0.01
556.659	0.02
556.852	-0.02
557.046	-0.01
557.239	0.02
557.432	-0.01
557.626	-0.03
557.819	0.01
558.012	-0
558.206	0.01
558.399	0.01
558.592	-0
558.785	-0.01
558.979	0.02
559.172	0.01
559.365	0.02
559.558	-0.01
559.751	-0
559.944	-0.01
560.138	-0.01
560.331	-0
560.524	-0.03
560.717	0.01
560.91	-0.01
561.103	0.03
561.296	0.02
561.489	-0
561.682	0.01
561.875	0.03
562.068	-0
562.261	0.01
562.454	0.06
562.647	0.01
562.84	0.03
563.032	0.03
563.225	0.03
563.418	-0
563.611	-0.01
563.804	-0
563.997	-0.02
564.19	-0.02
564.382	-0.04
564.575	-0
564.768	-0.01
564.961	-0.03
565.153	-0.01
565.346	0.01
565.539	0.02
565.731	0.02
565.924	0.01
566.117	0.01
566.309	-0.01
566.502	-0.04
566.695	-0.01
566.887	0.01
567.08	-0.02
567.272	-0.02
567.465	-0.01
567.657	0.01
567.85	0.03
568.042	0.04
568.235	0.04
568.427	0.01
568.62	-0
568.812	0
569.005	0.02
569.197	-0.03
569.389	-0
569.582	0.03
569.774	-0
569.966	-0.03
570.159	-0.02
570.351	0.01
570.543	-0.02
570.736	0.01
570.928	-0.03
571.12	-0.01
571.312	-0.03
571.505	-0.01
571.697	0.02
571.889	-0.02
572.081	-0.01
572.273	-0.02
572.465	0.01
572.658	-0.03
572.85	0.05
573.042	-0
573.234	0
573.426	0.05
573.618	-0.03
573.81	0.01
574.002	0.03
574.194	0.06
574.386	-0.04
574.578	-0.09
574.77	-0
574.962	0
575.154	-0.05
575.346	-0.04
575.538	0.01
575.729	-0.04
575.921	0
576.113	-0.01
576.305	0.05
576.497	-0.02
576.689	0.01
576.88	0
577.072	0.04
577.264	-0.02
577.456	-0.01
577.647	-0.08
577.839	-0.01
578.031	0.02
578.223	-0.04
578.414	-0.02
578.606	0.01
578.798	-0
578.989	-0.02
579.181	-0.02
579.372	0.01
579.564	-0.01
579.755	0.02
579.947	0
580.139	0.03
580.33	-0.04
580.522	-0.01
580.713	-0.05
580.905	-0.01
581.096	-0
581.287	0
581.479	-0.02
581.67	-0.01
581.862	0.01
582.053	-0.03
582.244	-0.03
582.436	0
582.627	0
582.818	-0.03
583.01	-0.02
583.201	0.02
583.392	0.01
583.583	0.01
583.775	-0.01
583.966	-0.02
584.157	0
584.348	-0
584.54	-0.04
584.731	0.02
584.922	0.02
585.113	-0.01
585.304	0.01
585.495	0.02
585.686	-0.03
585.877	-0
586.068	0.01
586.259	0.01
586.45	-0.01
586.641	-0.02
586.832	-0.06
587.023	-0.01
587.214	-0.02
587.405	0
587.596	-0.02
587.787	0.02
587.978	0.02
588.169	-0.02
588.36	-0.01
588.551	-0.01
588.742	-0.02
588.932	0
589.123	0.01
589.314	0.02
589.505	-0
589.696	0.01
589.886	-0.02
590.077	-0.07
590.268	0.01
590.458	-0.03
590.649	-0.06
590.84	0.01
591.03	-0
591.221	-0.02
591.412	-0.03
591.602	0
591.793	0.03
591.984	-0.02
592.174	0
592.365	0.05
592.555	-0.02
592.746	0.02
592.936	0
593.127	0.02
593.317	0.03
593.508	-0.05
593.698	0
593.889	0.03
594.079	-0.01
594.269	-0.03
594.46	0
594.65	0
594.84	-0
595.031	-0.01
595.221	-0.02
595.411	-0.04
595.602	0.03
595.792	-0.02
595.982	-0.01
596.172	0.03
596.363	-0
596.553	-0
596.743	-0.01
596.933	-0.01
597.123	0.04
597.314	-0.02
597.504	-0.02
597.694	0.03
597.884	0.02
598.074	-0.01
598.264	-0.04
598.454	0.01
598.644	-0.02
598.834	-0.01
599.024	-0.04
599.214	-0.02
599.404	0.01
599.594	-0.01
599.784	-0.04
599.974	0.02
600.164	-0.01
600.354	-0.04
600.544	-0.02
600.734	0
600.924	0.02
601.114	-0.02
601.303	-0
601.493	0.01
601.683	-0.01
601.873	0
602.063	-0.03
602.252	0.05
602.442	-0.05
602.632	-0.02
602.821	-0.01
603.011	0.03
603.201	0
603.39	-0.02
603.58	-0.01
603.77	0.03
603.959	0.03
604.149	-0
604.339	-0.01
604.528	0.01
604.718	0.02
604.907	0.01
605.097	-0.02
605.286	-0.02
605.476	0.03
605.665	0.04
605.855	0.01
606.044	0.04
606.234	-0
606.423	0.02
606.612	-0.04
606.802	0.02
606.991	0.01
607.181	-0.02
607.37	-0.02
607.559	-0.03
607.749	-0.04
607.938	-0
608.127	-0
608.316	-0
608.506	0.01
608.695	-0.01
608.884	-0.01
609.073	0.02
609.263	0.01
609.452	0.01
609.641	0
609.83	-0.03
610.019	0
610.208	-0.04
610.397	-0.01
610.586	0.02
610.775	-0.02
610.965	-0.03
611.154	-0.01
611.343	-0
611.532	-0.01
611.721	-0.02
611.91	-0.01
612.099	0.03
612.287	-0
612.476	-0.04
612.665	0
612.854	-0.02
613.043	0.01
613.232	-0.02
613.421	-0.05
613.61	0.01
613.798	0
613.987	0
614.176	-0.01
614.365	0.03
614.554	-0
614.742	0.03
614.931	-0.03
615.12	0.02
615.309	-0.01
615.497	0.02
615.686	-0.03
615.875	-0.02
616.063	-0
616.252	-0.03
616.44	-0.01
616.629	-0.01
616.818	0
617.006	0.01
617.195	-0.03
617.383	0.02
617.572	-0.03
617.76	-0.03
617.949	-0.01
618.137	-0.01
618.326	0.05
618.514	-0.04
618.703	-0.03
618.891	0.03
619.079	-0.06
619.268	0
619.456	-0.01
619.644	0.06
619.833	-0
620.021	-0.02
620.209	-0.06
620.398	0.02
620.586	0
620.774	0.03
620.962	0.01
621.151	0.04
621.339	0.01
621.527	-0.03
621.715	-0.03
621.903	-0.03
622.092	-0.02
622.28	-0.01
622.468	-0.01
622.656	-0.01
622.844	0.03
623.032	-0.03
623.22	-0.07
623.408	0.03
623.596	0.02
623.784	-0
623.972	-0.04
624.16	0
624.348	0.03
624.536	-0.01
624.724	-0.01
624.912	0.03
625.1	0.02
625.288	-0.05
625.476	-0.03
625.664	-0
625.851	-0.07
626.039	0.02
626.227	0.01
626.415	0.02
626.603	-0.07
626.79	-0
626.978	0.03
627.166	0.01
627.354	-0
627.541	-0.02
627.729	-0.04
627.917	0.02
628.104	0.05
628.292	-0
628.48	-0.03
628.667	-0.01
628.855	0
629.042	0
629.23	0.02
629.418	-0
629.605	-0.01
629.793	-0.03
629.98	0
630.168	0.02
630.355	-0.01
630.543	0.01
630.73	-0.02
630.917	0.06
631.105	0.07
631.292	-0.03
631.48	0.01
631.667	0
631.854	0
632.042	-0.02
632.229	-0.04
632.416	0.02
632.604	0.02
632.791	-0.04
632.978	0.04
633.165	0.04
633.353	0.04
633.54	0.03
633.727	-0.03
633.914	-0.04
634.101	0.04
634.289	0.03
634.476	-0.02
634.663	-0.04
634.85	0
635.037	-0.04
635.224	-0.05
635.411	0.04
635.598	0.03
635.785	-0
635.972	-0.02
636.159	0.02
636.346	-0.05
636.533	0
636.72	-0.01
636.907	-0.02
637.094	0.01
637.281	-0.04
637.468	0.05
637.655	-0.04
637.842	0
638.029	-0
638.215	0
638.402	0.01
638.589	-0.04
638.776	-0.02
638.963	-0.03
639.149	0.02
639.336	0.04
639.523	-0.01
639.709	0.01
639.896	-0.01
640.083	0.07
640.27	0.01
640.456	-0.02
640.643	0.03
640.829	-0.05
641.016	0.01
641.203	-0.04
641.389	0.05
641.576	0.02
641.762	0.01
641.949	-0.02
642.135	0.02
642.322	0
642.508	-0.02
642.695	0.02
642.881	-0.01
643.068	-0.01
643.254	-0.01
643.441	0.03
643.627	0.01
643.813	-0.02
644	0.03
644.186	-0.03
644.372	-0.05
644.559	0.05
644.745	-0
644.931	-0.01
645.118	-0.01
645.304	-0
645.49	-0.02
645.676	-0.03
645.862	0.01
646.049	0.05
646.235	0.01
646.421	0.04
646.607	0.08
646.793	0.01
646.979	-0
647.165	0.03
647.352	0
647.538	0.02
647.724	-0.01
647.91	-0
648.096	0
648.282	0.05
648.468	0
648.654	-0
648.84	0.01
649.026	0.01
649.212	-0
649.397	-0.03
649.583	-0.03
649.769	0
649.955	0
650.141	0.02
650.327	0.08
650.513	-0.02
650.698	0.02
650.884	-0.05
651.07	-0.02
651.256	0.02
651.442	0.01
651.627	0.02
651.813	0.04
651.999	-0.03
652.184	0.04
652.37	0.01
652.556	0.02
652.741	0.01
652.927	-0.04
653.113	-0.02
653.298	0.01
653.484	-0.03
653.669	-0.02
653.855	-0.01
654.04	0.05
654.226	0.02
654.412	-0
654.597	-0.02
654.782	0.03
654.968	0.01
655.153	-0.01
655.339	-0.04
655.524	-0.04
655.71	0.06
655.895	-0.03
656.08	-0.02
656.266	0.03
656.451	0
656.636	-0.03
656.822	0.01
657.007	-0.02
657.192	-0.01
657.378	-0.03
657.563	-0.01
657.748	0.05
657.933	0
658.118	-0.04
658.304	0.01
658.489	0.05
658.674	0.02
658.859	-0.02
659.044	0
659.229	0
659.414	-0.01
659.599	0
659.785	-0.03
659.97	0.02
660.155	0.04
660.34	0
660.525	-0
660.71	-0.01
660.895	0.03
661.08	-0
661.264	0.03
661.449	0.05
661.634	0.08
661.819	0.03
662.004	0.05
662.189	-0.05
662.374	-0.02
662.559	-0.02
662.743	-0.07
662.928	-0.01
663.113	-0
663.298	-0.04
663.483	-0.01
663.667	0.02
663.852	-0.06
664.037	0.04
664.221	-0.02
664.406	0.04
664.591	0.04
664.775	0
664.96	-0.04
665.145	0.03
665.329	0
665.514	-0
665.698	-0
665.883	-0.06
666.068	0.09
666.252	0.01
666.437	-0
666.621	0.06
666.806	0.02
666.99	0.04
667.174	-0.03
667.359	0.03
667.543	-0.01
667.728	0.03
667.912	-0.04
668.096	0.08
668.281	-0
668.465	0.02
668.649	0.01
668.834	-0.03
669.018	0.01
669.202	0
669.387	-0.05
669.571	0.08
669.755	-0.03
669.939	-0.01
670.124	0.01
670.308	0.02
670.492	0.03
670.676	0
670.86	0.05
671.044	-0.03
671.228	0.05
671.413	-0.01
671.597	0.01
671.781	-0.03
671.965	0.07
672.149	0.01
672.333	0.01
672.517	0
672.701	0.07
672.885	0.05
673.069	-0.06
673.253	0.08
673.437	0.01
673.621	0.01
673.804	0.03
673.988	0.02
674.172	0.03
674.356	-0.03
674.54	0.07
674.724	0.08
674.908	-0
675.091	0.07
675.275	0.04
675.459	0.11
675.643	0.09
675.826	0.03
676.01	0.03
676.194	0.04
676.377	0.06
676.561	0.09
676.745	0.03
676.928	0.07
677.112	0.08
677.296	0.02
677.479	-0
677.663	0.04
677.846	0.08
678.03	0.05
678.213	0.02
678.397	0.07
678.58	0.06
678.764	0.05
678.947	-0.01
679.131	0.04
679.314	0.1
679.498	0.02
679.681	0.08
679.865	0.13
680.048	0.07
680.231	0.04
680.415	0.08
680.598	0.06
680.781	0.06
680.965	0.01
681.148	0.08
681.331	0.03
681.514	0.13
681.698	0.05
681.881	0.09
682.064	0.09
682.247	0.07
682.43	0
682.614	0.11
682.797	0.09
682.98	0.11
683.163	0.02
683.346	0.09
683.529	0.04
683.712	0.06
683.895	0.11
684.078	0.04
684.261	0.06
684.444	0.11
684.627	0.12
684.81	0.03
684.993	0.08
685.176	0.13
685.359	0.05
685.542	0.05
685.725	0.12
685.908	0.09
686.091	0.06
686.274	0.15
686.457	0.09
686.639	0.06
686.822	0.13
687.005	0.15
687.188	0.12
687.371	0.12
687.553	0.11
687.736	0.17
687.919	0.21
688.102	0.19
688.284	0.07
688.467	0.11
688.65	0.1
688.832	0.11
689.015	0.11
689.197	0.04
689.38	0.21
689.563	0.21
689.745	0.11
689.928	0.13
690.11	0.15
690.293	0.11
690.475	0.12
690.658	0.2
690.84	0.13
691.023	0.09
691.205	0.12
691.388	0.19
691.57	0.12
691.752	0.15
691.935	0.05
692.117	0.14
692.3	0.21
692.482	0.16
692.664	0.13
692.847	0.15
693.029	0.2
693.211	0.21
693.393	0.18
693.576	0.17
693.758	0.21
693.94	0.14
694.122	0.17
694.304	0.18
694.487	0.14
694.669	0.23
694.851	0.15
695.033	0.19
695.215	0.22
695.397	0.16
695.579	0.21
695.761	0.15
695.943	0.15
696.125	0.27
696.308	0.27
696.49	0.16
696.671	0.32
696.853	0.22
697.035	0.36
697.217	0.27
697.399	0.33
697.581	0.2
697.763	0.24
697.945	0.17
698.127	0.29
698.309	0.31
698.491	0.24
698.672	0.29
698.854	0.33
699.036	0.32
699.218	0.31
699.399	0.31
699.581	0.31
699.763	0.28
699.945	0.28
700.126	0.22
700.308	0.3
700.49	0.32
700.671	0.28
700.853	0.33
701.035	0.37
701.216	0.31
701.398	0.27
701.579	0.34
701.761	0.42
701.943	0.32
702.124	0.35
702.306	0.34
702.487	0.49
702.669	0.43
702.85	0.36
703.031	0.38
703.213	0.45
703.394	0.45
703.576	0.4
703.757	0.55
703.938	0.48
704.12	0.56
704.301	0.46
704.483	0.35
704.664	0.53
704.845	0.57
705.026	0.55
705.208	0.51
705.389	0.47
705.57	0.51
705.751	0.56
705.933	0.47
706.114	0.61
706.295	0.59
706.476	0.52
706.657	0.69
706.838	0.57
707.02	0.62
707.201	0.55
707.382	0.57
707.563	0.64
707.744	0.56
707.925	0.49
708.106	0.62
708.287	0.64
708.468	0.7
708.649	0.65
708.83	0.68
709.011	0.69
709.192	0.81
709.373	0.6
709.554	0.75
709.734	0.76
709.915	0.81
710.096	0.76
710.277	0.65
710.458	0.84
710.639	0.8
710.819	0.74
711	0.8
711.181	0.96
711.362	0.93
711.542	0.87
711.723	0.92
711.904	0.94
712.085	0.97
712.265	0.94
712.446	0.82
712.627	0.95
712.807	0.95
712.988	0.96
713.168	0.93
713.349	0.99
713.53	0.92
713.71	0.95
713.891	0.92
714.071	1.09
714.252	1.05
714.432	1.15
714.613	1.03
714.793	1.14
714.974	1.3
715.154	1.22
715.334	1.24
715.515	1.25
715.695	1.1
715.876	1.21
716.056	1.22
716.236	1.34
716.417	1.37
716.597	1.31
716.777	1.53
716.957	1.39
717.138	1.42
717.318	1.43
717.498	1.45
717.678	1.57
717.859	1.52
718.039	1.55
718.219	1.73
718.399	1.63
718.579	1.54
718.759	1.63
718.939	1.82
719.12	1.77
719.3	1.7
719.48	1.65
719.66	1.6
719.84	1.84
720.02	1.93
720.2	1.85
720.38	2
720.56	2.07
720.74	1.91
720.92	1.99
721.1	2.18
721.279	2.13
721.459	2.18
721.639	2.08
721.819	2.14
721.999	2.19
722.179	2.23
722.359	2.11
722.538	2.41
722.718	2.33
722.898	2.35
723.078	2.38
723.257	2.46
723.437	2.48
723.617	2.53
723.797	2.63
723.976	2.65
724.156	2.72
724.336	2.71
724.515	2.92
724.695	2.73
724.874	2.82
725.054	2.85
725.234	2.8
725.413	2.94
725.593	2.95
725.772	2.96
725.952	3.01
726.131	3.04
726.311	3.02
726.49	3.19
726.67	3.12
726.849	3.15
727.028	3.37
727.208	3.28
727.387	3.33
727.567	3.38
727.746	3.25
727.925	3.36
728.105	3.41
728.284	3.47
728.463	3.52
728.643	3.65
728.822	3.66
729.001	3.6
729.18	3.71
729.359	3.75
729.539	3.86
729.718	3.87
729.897	3.94
730.076	3.95
730.255	3.82
730.434	4.31
730.614	4.32
730.793	4.27
730.972	4.22
731.151	4.33
731.33	4.52
731.509	4.5
731.688	4.42
731.867	4.52
732.046	4.43
732.225	4.85
732.404	4.6
732.583	4.69
732.762	4.83
732.941	4.94
733.12	5.04
733.298	4.96
733.477	5.07
733.656	4.93
733.835	4.97
734.014	5.22
734.193	5.13
734.371	5.22
734.55	5.32
734.729	5.09
734.908	5.17
735.086	5.36
735.265	5.47
735.444	5.05
735.623	5.29
735.801	5.38
735.98	5.29
736.159	5.33
736.337	5.37
736.516	5.44
736.694	5.34
736.873	5.09
737.052	5.48
737.23	5.17
737.409	5.05
737.587	5.31
737.766	4.8
737.944	5.05
738.123	5.01
738.301	4.98
738.479	4.82
738.658	4.83
738.836	4.56
739.015	4.68
739.193	4.71
739.371	4.34
739.55	4.3
739.728	4.2
739.906	4.27
740.085	4.26
740.263	4.03
740.441	3.74
740.62	4.06
740.798	3.75
740.976	3.55
741.154	3.29
741.332	3.55
741.511	3.23
741.689	3.2
741.867	3.17
742.045	3.02
742.223	2.84
742.401	2.73
742.579	2.66
742.757	2.67
742.935	2.36
743.114	2.38
743.292	2.4
743.47	2.45
743.648	2.27
743.826	2.27
744.004	2.2
744.181	2.16
744.359	1.86
744.537	1.97
744.715	1.73
744.893	1.78
745.071	1.62
745.249	1.64
745.427	1.56
745.605	1.56
745.782	1.45
745.96	1.53
746.138	1.46
746.316	1.39
746.493	1.2
746.671	1.32
746.849	1.17
747.027	1.3
747.204	1.06
747.382	1.1
747.56	0.97
747.737	0.94
747.915	0.89
748.093	1
748.27	0.84
748.448	0.9
748.625	0.74
748.803	0.73
748.98	0.74
749.158	0.79
749.335	0.85
749.513	0.82
749.69	0.65
749.868	0.71
750.045	0.64
750.223	0.67
750.4	0.41
750.578	0.72
750.755	0.66
750.932	0.41
751.11	0.76
751.287	0.51
751.464	0.56
751.642	0.46
751.819	0.56
751.996	0.43
752.173	0.47
752.351	0.33
752.528	0.58
752.705	0.44
752.882	0.4
753.06	0.44
753.237	0.47
753.414	0.52
753.591	0.55
753.768	0.36
753.945	0.32
754.122	0.26
754.299	0.35
754.476	0.25
754.654	0.31
754.831	0.38
755.008	0.24
755.185	0.29
755.362	0.25
755.539	0.36
755.716	0.19
755.892	0.23
756.069	0.26
756.246	0.18
756.423	0.24
756.6	0.4
756.777	0.33
756.954	0.27
757.131	0.28
757.307	0.11
757.484	0.14
757.661	0.23
757.838	0.19
758.015	0.14
758.191	0.28
758.368	0.26
758.545	0.36
758.721	0.24
758.898	0.09
759.075	0.21
759.251	0.21
759.428	0.23
759.605	0.02
759.781	0.12
759.958	0.26
760.134	0.24
760.311	0.09
760.488	0.28
760.664	0.32
760.841	0.07
761.017	-0.01
761.194	0.22
761.37	0.27
761.547	0.3
761.723	0.02
761.899	0.19
762.076	-0
762.252	0.01
762.429	0.13
762.605	0.27
762.781	0.04
762.958	0.16
763.134	0.14
763.31	0.01
763.486	0.35
763.663	-0.11
763.839	0.2
764.015	-0.12
764.191	-0.08
764.368	0.13
764.544	0.07
764.72	0.14
764.896	0.18
765.072	0.18
765.248	0.09
765.425	0.03
765.601	0.13
765.777	0.02
765.953	-0.17
766.129	-0.09
766.305	0.02
766.481	0.14
766.657	0.08
766.833	0.18
767.009	-0.14
767.185	-0.02
767.361	-0.03
767.537	-0.05
767.713	0.28
767.889	0.01
768.065	0.15
768.24	-0.21
768.416	0.09
768.592	-0.07
768.768	-0.03
768.944	0.06
769.12	0.02
769.295	-0.04
769.471	0.09
769.647	0.06
769.823	0.13
769.998	0.11
770.174	-0.1
770.35	0.34
770.525	0.3
770.701	0.14
770.877	0.11
771.052	0.04
771.228	0
771.403	0.07
771.579	0.17
771.755	0.27
771.93	-0.02
772.106	-0.03
772.281	-0.12
772.457	0.01
772.632	0.17
772.808	-0
772.983	0.06
773.159	0.01
773.334	0.16
773.509	-0.05
773.685	0.06
773.86	0.35
774.036	0.12
774.211	-0.02
774.386	-0.09
774.562	0.12
774.737	0.13
774.912	-0.1
775.087	0.19
775.263	0.21
775.438	0.18
775.613	0.06
775.788	0.12
775.964	0.18
776.139	0.29
776.314	-0.07
776.489	0.05
776.664	0.05
776.839	0.08
777.014	0.21
777.19	0.22
777.365	0.25
777.54	0.25
777.715	-0.02
777.89	0.04
778.065	-0.15
778.24	0.17
778.415	0.1
778.59	-0.04
778.765	-0.04
778.94	0.14
779.115	0.12
779.289	0.07
779.464	0.06
779.639	0.08
779.814	-0.29
779.989	-0.1
780.164	0.17
780.339	0.2
780.513	-0.1
780.688	-0.1
780.863	0.08
781.038	0.09
781.212	0.04
781.387	0.1
781.562	0.33
781.737	-0.06
781.911	0.24
782.086	0.13
782.261	0.01
782.435	0.14
782.61	-0.16
782.784	-0.03
782.959	0.27
783.134	-0.08
783.308	-0.17
783.483	0.09
783.657	0.39
783.832	-0
784.006	-0.31
784.181	0
784.355	0.27
784.53	-0.14
784.704	0
784.878	0.23
785.053	0.12
785.227	0.13
785.402	0.18
785.576	0.03
785.75	0.01
785.925	-0.01
786.099	-0.08
786.273	0.13
786.448	0.06
786.622	0.35
786.796	0.06
786.97	0.09
787.145	0.56
787.319	-0.34
787.493	-0.03
787.667	-0.23
787.841	-0.06
788.015	0.37
788.19	-0.11
788.364	0.12
788.538	0.13
788.712	0.22
788.886	0.23
789.06	0.22
789.234	0.09
789.408	-0.06
789.582	0.07
789.756	0.03
789.93	-0.3
790.104	-0.03
790.278	-0.07
790.452	-0.07
790.626	0.21
790.8	-0.17
790.973	0.15
791.147	0.42
791.321	0.42
791.495	0.11
791.669	0.09
791.843	0.19
792.016	0.18
792.19	0.34
792.364	-0.27
792.538	0.44
792.711	0.4
792.885	0.09
793.059	-0.25
793.233	-0.38
793.406	0.28
793.58	0.17
793.754	0.31
793.927	-0
794.101	0.42
794.274	0.04
794.448	0.27
794.622	-0.16
794.795	0.39
794.969	-0.05
795.142	0.52
795.316	-0.08
795.489	0.1
795.663	0.27
795.836	-0.03
796.009	-0.2
796.183	0.33
796.356	0.38
796.53	0.34
796.703	0.02
796.876	0.47
797.05	-0.03
797.223	-0.06
797.396	0.16
797.57	0.28
797.743	0.26
797.916	-0.2
798.09	-0.11
798.263	0.2
798.436	0.09
798.609	-0.2
798.782	0.15
798.956	0.17
799.129	0.02
799.302	0.19
799.475	-0.01
799.648	-0.07
799.821	-0.19
799.994	0.25
800.167	-0.35
800.34	0.15
800.514	-0.03
800.687	-0.1
800.86	-0.1
801.033	0.14
801.206	-0.02
801.379	-0.2
801.551	0.25
801.724	0.41
801.897	0.25
802.07	-0.13
802.243	-0.47
802.416	0.18
802.589	-0.09
802.762	0.13
802.935	0.18
803.107	0.15
803.28	0.25
803.453	0.3
803.626	-0.14
803.798	0.18
803.971	-0.15
804.144	-0.01
804.317	0.1
804.489	0.13
804.662	-0.11
804.835	0.13
805.007	-0.26
805.18	0.28
805.353	0.13
805.525	-0.08
805.698	0.05
805.87	0.18
806.043	0.18
806.215	-0.18
806.388	0.11
806.56	0.53
806.733	0.13
806.905	-0.14
807.078	0.05
807.25	0.09
807.423	0.26
807.595	0.11
807.768	0.18
807.94	0.4
808.112	0.42
808.285	-0.31
808.457	0.17
808.629	0.03
808.802	0.28
808.974	0.16
809.146	-0.03
809.318	-0.18
809.491	0.15
809.663	0.12
809.835	-0.1
810.007	0.05
810.18	0.44
810.352	0.07
810.524	-0.37
810.696	0.05
810.868	0.23
811.04	0.21
811.212	0.02
811.384	0.39
811.556	0.07
811.728	0.33
811.901	0.54
812.073	0.12
812.245	0.51
812.417	-0
812.589	-0.33
812.76	-0.02
812.932	0.28
813.104	0.5
813.276	0.42
813.448	0.22
813.62	-0.11
813.792	0.16
813.964	0.06
814.136	0.39
814.307	-0.27
814.479	-0.09
814.651	0.16
814.823	1.15
814.995	-0.11
815.166	0.29
815.338	-0.27
815.51	-0.49
815.681	1.06
815.853	0.18
816.025	-0.01
816.196	0.55
816.368	0.53
816.54	-0.27
816.711	0.32
816.883	0.63
817.054	1.22
817.226	-0.97
817.398	0.4
817.569	0.08
817.741	-0.01
817.912	-0.34
818.084	0.09
818.255	0.06
818.426	-0.24
818.598	-0.35
818.769	-0.28
818.941	0.16
819.112	0.28
819.283	0.37
819.455	-0.08
819.626	-0.13
819.798	0.25
819.969	0.2
820.14	-0.07
820.311	-0.03
820.483	0.09
820.654	0.18
820.825	0.2
820.996	-0.01
821.168	-0.11
821.339	0.32
821.51	-0.58
821.681	-0.4
821.852	0.04
822.023	-0.18
822.195	-0.45
822.366	0.36
822.537	0.3
822.708	0.02
822.879	0.03
823.05	0.46
823.221	0.07
823.392	0.3
823.563	-0.16
823.734	0.1
823.905	-0.25
824.076	-0.41
824.247	0.01
824.418	-0.34
824.589	1.07
824.759	-0.06
824.93	-0.3
825.101	-0.74
825.272	0.04
825.443	0.45
825.614	0.38
825.784	-1.07
825.955	0.58
826.126	0.98
826.297	0.16
826.467	1.16
826.638	0.61
826.809	-0.67
826.98	-0.39
827.15	0.26
827.321	-0.61
827.492	0.73
827.662	0.03
827.833	1.07
828.003	0.17
828.174	-0.5
828.345	-0.78
828.515	0.63
828.686	0.26
828.856	-0.07
829.027	0.22
829.197	0.08
829.368	0.3
829.538	-0.18
829.709	-0.48
829.879	0.45
830.049	0.57
830.22	0.06
830.39	0.1
830.56	0.62
830.731	-0.02
830.901	-0.33
831.072	-0.35
831.242	0.38
831.412	-0.09
831.582	0.35
831.753	-0.19
831.923	0.27
832.093	-0.02
832.263	-0.02
832.434	-0.86
832.604	-0.46
832.774	0.88
832.944	0.28
833.114	-0.03
833.284	0.46
833.454	-0.53
833.624	-0.56
833.795	-0.22
833.965	0.29
834.135	0.44
834.305	-1.1
834.475	-0.59
834.645	0.09
834.815	-0.25
834.985	-0.24
835.155	0.07
835.325	0.82
835.494	0.75
835.664	-0.39
835.834	-0.33
836.004	0.13
836.174	0.19
836.344	0.51
836.514	-0.98
836.684	-0.42
836.853	0.12
837.023	0.14
837.193	0.14
837.363	0.87
837.532	0.76
837.702	0.17
837.872	-0.51
838.041	0.71
838.211	1.23
838.381	-0.96
838.55	0.58
838.72	1.55
838.89	0.92
839.059	-0.09
839.229	0.02
839.398	1.35
839.568	0.3
839.738	0.03
839.907	0.05
840.077	0.77
840.246	-0.07
840.416	-0.45
840.585	-0.18
840.755	1.23
840.924	0.91
841.093	-0.4
841.263	-0.14
841.432	0.75
841.602	-0.18
841.771	-0.19
841.94	-0.09
842.11	2.24
842.279	1.5
842.448	-0.43
842.617	-0.73
842.787	0.42
842.956	-0.4
843.125	-0.5
843.294	0.95
843.464	0.6
843.633	0.07
843.802	-1.07
843.971	0.47
844.14	0.79
844.309	0.55
844.479	-0.67
844.648	-0.35
844.817	0.1
844.986	0.08
845.155	-0.77
845.324	-0.36
845.493	-0.59
845.662	-0.54
845.831	0.87
846	0.6
846.169	-0.1
846.338	1.48
846.507	0.49
846.676	0.66
846.844	-0.44
847.013	0.57
847.182	-0.25
847.351	0.19
847.52	-0.39
847.689	0.45
847.858	0.09
848.026	-0.56
848.195	1.33
848.364	-0.01
848.533	-0.15
848.701	0.03
848.87	0.19
849.039	0.8
849.207	1.01
849.376	0.84
849.545	1.36
849.713	-0.1
849.882	-0.41
850.051	-0.4
850.219	0.25
850.388	0.82
850.556	-0.2
850.725	-0.53
850.893	0.36
851.062	0.56
851.23	1.43
851.399	-1.44
851.567	0.29
851.736	-0.13
851.904	-1
852.073	-0.19
852.241	0.68
852.41	-0.59
852.578	0.19
852.746	-0.58
852.915	1.08
853.083	-0.34
853.251	-0.85
853.42	0.72
853.588	0.49
853.756	0.75
853.924	0.36
854.093	0.93
854.261	0.49
854.429	-1.13
854.597	1.1
854.765	-1.12
854.934	-0.05
855.102	0.83
855.27	0.15
855.438	0.37
855.606	0.67
855.774	1.22
855.942	-1.05
856.11	-0.76
856.278	0.51
856.446	0.56
856.614	-0.17
856.782	-0.55
856.95	1.92
857.118	1.27
857.286	0.09
857.454	-1.32
857.622	1.51
857.79	0.22
857.958	-1.3
858.126	-0.02
858.294	-2.89
858.462	-0.11
858.629	-0.06
858.797	-0.64
858.965	0.61
859.133	0.44
859.301	-0.42
859.468	-0.04
859.636	0.12
859.804	1.39
859.971	1.26
860.139	0.01
860.307	1.26
860.474	0.55
860.642	0.44
860.81	-0.61
860.977	-0.08
861.145	1.1
861.313	0.05
861.48	1.26
861.648	1.29
861.815	0.49
861.983	-0.69
862.15	-0.09
862.318	1.9
862.485	0.92
862.653	-0.84
862.82	-0.11
862.988	0.75
863.155	1.18
863.322	-2.3
863.49	0.04
863.657	0.35
863.824	1.4
863.992	1.83
864.159	0.99
864.326	1.33
864.494	-0.68
864.661	3.31
864.828	-0.86
864.996	1.09
865.163	2.14
865.33	-0.47
865.497	-1.09
865.664	0.23
865.832	-1.06
865.999	-0
866.166	-1.54
866.333	-1.25
866.5	-1.25
866.667	-0.5
866.834	-0.71
867.001	1.19
867.168	0.64
867.335	0.84
867.502	-0.86
867.669	0.01
867.836	2.83
868.003	-1.35
868.17	0.52
868.337	2.44
868.504	2.63
868.671	-0.49
868.838	-1.73
869.005	-0.93
869.172	1.32
869.339	0.83
869.505	-0.43
869.672	-1.66
869.839	2.88
870.006	0.25
870.173	-1.39
870.339	1.2
870.506	3.22
870.673	-1.42
870.84	1.18
871.006	0.33
871.173	0.05
871.34	0.72
871.506	-0.92
871.673	1.72
871.839	-1.42
872.006	0.24
872.173	0.9
872.339	1.02
872.506	1.54
872.672	-0.73
872.839	-1.57
873.005	1.41
873.172	2.93
873.338	3.25
873.505	0.58
873.671	-1.62
873.838	2.74
874.004	-1.43
874.171	-0.05
874.337	0.8
874.503	0.38
874.67	0.34
874.836	0.14
875.002	2.05
875.169	0.92
875.335	1.74
875.501	1.63
875.668	2.73
875.834	0.71
876	1.03
876.166	1.87
876.332	1.18
876.499	2.51
876.665	1.1
876.831	2.39
876.997	5.16
877.163	2.37
877.329	0.64
877.495	0.91
877.662	1.1
877.828	1.86
877.994	1.21
878.16	-1.72
878.326	-0.08
878.492	-0.26
878.658	-0.63
878.824	0.59
878.99	1.32
879.156	-0.69
879.322	2.18
879.487	1.36
879.653	0.67
879.819	0.09
879.985	-0.8
880.151	1.56
880.317	0.8
880.483	1.83
880.648	2.39
880.814	0.02
880.98	1.7
881.146	-1.49
881.312	-0.12
881.477	-0.98
881.643	1.03
881.809	1.13
881.974	2.23
882.14	-1.56
882.306	0.64
882.471	3.29
882.637	1.12
882.803	1.57
882.968	3.14
883.134	5.51
883.299	0.71
883.465	-0.02
883.63	3.11
883.796	2.66
883.961	2.61
884.127	0.96
884.292	-2.84
884.458	-1.2
884.623	-1.2
