Data from Apollo_Calib_20240827__AbsoluteIrradiance__169__01-58-00-680.txt Node

Date: Wed Aug 28 01:58:00 BST 2024
User: biology
Spectrometer: FLMT08252
Trigger mode: 0
Integration Time (sec): 5.000000E-1
Scans to average: 5
Electric dark correction enabled: true
Nonlinearity correction enabled: false
Boxcar width: 0
XAxis mode: Wavelengths
Number of Pixels in Spectrum: 3648
>>>>>Begin Spectral Data<<<<<
179.588	-0
179.809	-0
180.03	-0
180.251	-0
180.473	-0
180.694	0
180.915	0
181.136	-0
181.357	0
181.578	-0
181.799	0
182.02	-0
182.241	-0
182.462	-0
182.683	0
182.904	0
183.125	-0
183.346	0
183.567	0
183.788	-0
184.009	-0
184.23	-0
184.451	0
184.672	-0
184.892	-0
185.113	0
185.334	0
185.555	-0
185.776	-0
185.996	0
186.217	0
186.438	-0
186.659	-0
186.879	0
187.1	-0
187.321	0
187.541	-0
187.762	0
187.983	0
188.203	-0
188.424	0
188.644	-0
188.865	-0
189.086	-0
189.306	-0
189.527	0
189.747	0
189.968	-0
190.188	0
190.409	0
190.629	0
190.849	-0
191.07	-0
191.29	0
191.511	0
191.731	-0
191.951	-0
192.172	0
192.392	0
192.612	-0
192.833	-0
193.053	0
193.273	0
193.493	-0
193.714	0
193.934	0
194.154	0
194.374	-0
194.594	0
194.815	0
195.035	0
195.255	0
195.475	-0
195.695	0
195.915	0
196.135	-0
196.355	0
196.575	0
196.795	0
197.015	-0
197.235	-0
197.455	-0
197.675	0
197.895	-0
198.115	-0
198.335	0
198.555	-0
198.775	-0
198.995	0
199.214	0
199.434	-0
199.654	-0
199.874	-0
200.094	1.56
200.313	-0.16
200.533	-1.03
200.753	-0.67
200.973	1.05
201.192	1.01
201.412	-0.8
201.632	-0.33
201.851	1.1
202.071	-0.23
202.291	-0.29
202.51	-0.26
202.73	0.3
202.95	-0.22
203.169	-0.73
203.389	0.13
203.608	-0.14
203.828	-0.51
204.047	-0.36
204.267	0.05
204.486	0.07
204.706	0.24
204.925	-0.56
205.145	-0.25
205.364	0.32
205.583	0.69
205.803	-0.31
206.022	-0.73
206.242	-0.17
206.461	0.01
206.68	-0.55
206.9	0.29
207.119	0.58
207.338	0.51
207.557	-0.26
207.777	-0.21
207.996	-0.25
208.215	0.58
208.434	-0.16
208.654	-0.46
208.873	0.02
209.092	0.54
209.311	0.1
209.53	-0.42
209.749	-0.2
209.968	-0.12
210.187	-0.27
210.407	-0.51
210.626	-0.07
210.845	0.06
211.064	0.12
211.283	-0.29
211.502	0.28
211.721	0.06
211.94	-0.21
212.159	0.02
212.377	0.37
212.596	0.21
212.815	-0.07
213.034	-0.1
213.253	-0.04
213.472	0.02
213.691	-0.22
213.91	-0.11
214.128	-0.24
214.347	0.28
214.566	-0.43
214.785	-0.39
215.003	-0.01
215.222	0.15
215.441	0.01
215.66	-0.18
215.878	-0.06
216.097	0.11
216.316	-0.3
216.534	-0.15
216.753	0.03
216.972	-0.06
217.19	0.05
217.409	-0.05
217.627	-0.12
217.846	0.02
218.064	0.05
218.283	-0.15
218.501	0.37
218.72	0.22
218.938	-0.23
219.157	-0.17
219.375	0.27
219.594	0.2
219.812	-0.09
220.031	-0.26
220.249	0.2
220.467	0.2
220.686	-0.1
220.904	-0.21
221.122	-0.24
221.341	0.36
221.559	-0.01
221.777	-0.11
221.995	0.01
222.214	0.14
222.432	-0.09
222.65	0.24
222.868	0.08
223.086	0.12
223.305	0.03
223.523	-0.02
223.741	0.26
223.959	-0.2
224.177	-0.21
224.395	-0.19
224.613	-0.01
224.831	0.19
225.049	-0.06
225.267	-0.12
225.485	0.05
225.703	0.02
225.921	0.04
226.139	-0.12
226.357	0.13
226.575	-0.03
226.793	-0.1
227.011	0.47
227.229	0.01
227.447	0.14
227.665	-0.09
227.883	-0.22
228.1	0.07
228.318	0.09
228.536	-0.33
228.754	-0.28
228.972	0.09
229.189	-0.04
229.407	-0.22
229.625	-0
229.843	0.16
230.06	0.09
230.278	-0.04
230.496	0.08
230.713	0.02
230.931	0.13
231.149	-0.1
231.366	-0.3
231.584	-0.15
231.801	0.27
232.019	-0.03
232.236	-0.15
232.454	-0.1
232.671	0.1
232.889	-0.01
233.106	-0.19
233.324	-0.1
233.541	-0.01
233.759	-0.07
233.976	-0.13
234.194	-0.01
234.411	-0.01
234.628	-0
234.846	0
235.063	-0.05
235.28	-0.04
235.498	-0.05
235.715	-0.16
235.932	0.11
236.149	-0.01
236.367	-0.14
236.584	0.02
236.801	-0.04
237.018	0.02
237.236	0.06
237.453	-0.13
237.67	0.15
237.887	-0.04
238.104	-0.08
238.321	-0.13
238.538	-0.05
238.755	0.14
238.973	-0.12
239.19	-0.02
239.407	-0.03
239.624	0.06
239.841	-0.15
240.058	0.02
240.275	0.04
240.492	-0.01
240.709	0.05
240.925	-0.04
241.142	0.01
241.359	-0.09
241.576	-0.07
241.793	-0.06
242.01	-0.05
242.227	0.12
242.444	0.05
242.66	0.05
242.877	0.02
243.094	-0.06
243.311	-0.03
243.527	0.01
243.744	0.03
243.961	0.05
244.178	-0.11
244.394	-0.05
244.611	0.1
244.828	0.12
245.044	-0.1
245.261	-0.02
245.477	-0.02
245.694	0.04
245.911	-0.09
246.127	0.01
246.344	0.14
246.56	0.09
246.777	-0.04
246.993	-0.06
247.21	0.01
247.426	-0.03
247.643	-0.07
247.859	-0.07
248.076	-0.11
248.292	0.27
248.508	0.02
248.725	-0.02
248.941	0.03
249.157	0.08
249.374	-0.07
249.59	0.01
249.806	-0.01
250.023	0.2
250.239	-0.05
250.455	-0.06
250.671	0.02
250.888	0.03
251.104	0.1
251.32	-0.04
251.536	-0.05
251.752	-0.02
251.969	0.02
252.185	0.03
252.401	0.2
252.617	0.09
252.833	-0.05
253.049	-0.04
253.265	0.01
253.481	0.1
253.697	-0.04
253.913	-0.04
254.129	-0.01
254.345	-0
254.561	-0.05
254.777	-0
254.993	0.04
255.209	0.03
255.425	-0.05
255.641	-0.07
255.857	0.06
256.073	0.03
256.288	-0.04
256.504	-0.03
256.72	0
256.936	0.12
257.152	-0.07
257.367	-0.1
257.583	0.05
257.799	0.12
258.015	-0.08
258.23	0.03
258.446	0.09
258.662	0.02
258.877	-0.08
259.093	-0.06
259.309	0.02
259.524	-0.03
259.74	-0.08
259.955	-0.09
260.171	0
260.387	0
260.602	0.06
260.818	0.02
261.033	-0.1
261.249	-0.06
261.464	-0.07
261.68	-0.17
261.895	0.06
262.11	0.09
262.326	-0.05
262.541	-0.08
262.757	0
262.972	0.07
263.187	0.03
263.403	-0.04
263.618	0.15
263.833	0.03
264.049	-0.03
264.264	-0.05
264.479	0.04
264.694	0.07
264.91	-0.14
265.125	0.02
265.34	0.07
265.555	0.15
265.77	0.02
265.986	-0.03
266.201	0.12
266.416	0.14
266.631	-0.05
266.846	-0.01
267.061	0
267.276	0.04
267.491	-0.15
267.706	0.02
267.921	0.08
268.136	0.02
268.351	-0.01
268.566	-0.02
268.781	0.07
268.996	0.1
269.211	0.02
269.426	-0.1
269.641	-0.05
269.856	0.1
270.071	-0.08
270.285	-0.07
270.5	0.11
270.715	0.06
270.93	0.01
271.145	0
271.359	0.07
271.574	-0.06
271.789	0.06
272.004	-0.05
272.218	-0.02
272.433	0.05
272.648	-0.08
272.862	0.08
273.077	-0
273.292	0.03
273.506	-0.02
273.721	0.02
273.936	0.03
274.15	0.08
274.365	0.01
274.579	0.08
274.794	0.01
275.008	0.05
275.223	-0.06
275.437	0.01
275.652	0.06
275.866	0.07
276.081	-0.06
276.295	0.07
276.509	-0.01
276.724	0.02
276.938	-0.03
277.153	0.05
277.367	0.05
277.581	-0.04
277.796	0.01
278.01	-0.04
278.224	0.09
278.438	0.15
278.653	-0
278.867	-0.06
279.081	-0.15
279.295	-0.01
279.51	0.03
279.724	-0.08
279.938	0.03
280.152	0.01
280.366	-0.03
280.58	0
280.794	0.1
281.008	0.04
281.222	0.09
281.437	0.09
281.651	0.04
281.865	0.08
282.079	0
282.293	-0.09
282.507	-0.01
282.721	-0.01
282.935	-0.04
283.148	-0.06
283.362	-0.06
283.576	-0.04
283.79	-0.03
284.004	-0.02
284.218	0.07
284.432	-0.05
284.646	-0.02
284.859	-0.05
285.073	-0.07
285.287	-0.01
285.501	-0.05
285.714	0.01
285.928	-0.02
286.142	-0.04
286.356	-0.02
286.569	0.02
286.783	0.08
286.997	0.1
287.21	-0.04
287.424	-0.02
287.637	-0.01
287.851	0.01
288.065	0.03
288.278	0.01
288.492	0
288.705	0.01
288.919	0.04
289.132	-0.06
289.346	0.05
289.559	-0.06
289.773	-0.05
289.986	-0.05
290.2	0.03
290.413	0.02
290.626	-0.01
290.84	0.02
291.053	0.02
291.267	0.07
291.48	-0
291.693	0.03
291.906	-0.01
292.12	-0.01
292.333	0
292.546	-0.02
292.76	0.12
292.973	0.02
293.186	0.02
293.399	-0.03
293.612	0.03
293.826	-0
294.039	0.02
294.252	0.03
294.465	0.03
294.678	0.02
294.891	0
295.104	-0.05
295.317	0.01
295.53	0.01
295.743	0.04
295.956	0.03
296.169	0.06
296.382	0.06
296.595	0.04
296.808	-0.05
297.021	0.09
297.234	0.06
297.447	0.04
297.66	0.06
297.873	0.07
298.086	0.04
298.299	0.02
298.511	-0.04
298.724	0.03
298.937	-0.05
299.15	-0.01
299.363	0.01
299.575	0.05
299.788	0.05
300.001	-0.03
300.213	0.01
300.426	-0.02
300.639	-0.04
300.852	-0.03
301.064	0.06
301.277	0.1
301.489	0.06
301.702	0.07
301.915	0.02
302.127	0.03
302.34	0.05
302.552	-0.01
302.765	-0.03
302.977	0.08
303.19	0
303.402	-0
303.615	0.03
303.827	-0.04
304.04	0.03
304.252	0.03
304.464	-0.01
304.677	0.14
304.889	0.04
305.102	-0.02
305.314	0
305.526	0.02
305.739	-0
305.951	-0.03
306.163	0
306.375	0.1
306.588	-0.01
306.8	0.01
307.012	-0.02
307.224	0.02
307.436	0.11
307.649	-0.09
307.861	0.04
308.073	0.01
308.285	-0.01
308.497	-0.01
308.709	0.03
308.921	0.02
309.133	0.08
309.346	0
309.558	-0.04
309.77	0.05
309.982	0.06
310.194	0.06
310.406	-0.02
310.617	0.08
310.829	0.02
311.041	0.05
311.253	-0.04
311.465	-0.01
311.677	0
311.889	0.06
312.101	-0.01
312.313	0.06
312.524	0.06
312.736	-0.03
312.948	-0.03
313.16	0.05
313.372	0.06
313.583	0.01
313.795	-0.03
314.007	-0.02
314.218	0.04
314.43	0
314.642	0.02
314.853	-0.06
315.065	0.04
315.277	0.01
315.488	0.03
315.7	0.05
315.912	0.04
316.123	-0.05
316.335	0.01
316.546	0.1
316.758	0
316.969	-0.03
317.181	0.02
317.392	0
317.604	0.07
317.815	-0.02
318.026	-0.02
318.238	-0.01
318.449	0.03
318.661	-0.07
318.872	-0.04
319.083	-0.02
319.295	0.07
319.506	-0.01
319.717	0.03
319.929	0.03
320.14	0
320.351	-0.01
320.562	-0.01
320.774	-0.06
320.985	-0.01
321.196	-0.03
321.407	-0.05
321.618	0.06
321.829	0.02
322.041	0.03
322.252	0.02
322.463	0.03
322.674	0.03
322.885	0.02
323.096	-0.06
323.307	0.01
323.518	0.04
323.729	-0.02
323.94	-0.01
324.151	0
324.362	0.01
324.573	0.01
324.784	-0.02
324.995	0.05
325.206	-0.02
325.417	-0.01
325.628	0.02
325.838	0.01
326.049	0.01
326.26	-0.01
326.471	-0.01
326.682	0.05
326.892	0.02
327.103	-0.05
327.314	-0.02
327.525	0.06
327.735	0.02
327.946	0.01
328.157	-0.03
328.368	0.04
328.578	-0.01
328.789	0.05
328.999	0.01
329.21	0.01
329.421	0.07
329.631	-0.05
329.842	-0.02
330.052	0.03
330.263	0.01
330.473	0.05
330.684	-0.02
330.894	0.02
331.105	0.01
331.315	0.01
331.526	-0.01
331.736	0.1
331.947	0.04
332.157	0.05
332.367	-0.05
332.578	0.08
332.788	0.09
332.999	0.04
333.209	0.03
333.419	-0.04
333.629	0.05
333.84	0.04
334.05	0.01
334.26	0.06
334.47	0.03
334.681	0.07
334.891	-0.03
335.101	0.06
335.311	0.06
335.521	0.02
335.732	-0.04
335.942	0.06
336.152	0.07
336.362	0.01
336.572	0.04
336.782	0.03
336.992	-0.02
337.202	0
337.412	-0.01
337.622	0.02
337.832	0.02
338.042	0
338.252	0.01
338.462	-0.01
338.672	0.03
338.882	0.04
339.092	0
339.302	0.06
339.511	0.04
339.721	-0.01
339.931	0
340.141	0.08
340.351	0.05
340.561	-0
340.77	-0
340.98	0.05
341.19	0.01
341.4	-0.03
341.609	-0.01
341.819	-0
342.029	-0.03
342.238	-0.02
342.448	0.01
342.658	0.04
342.867	-0.01
343.077	0.03
343.286	0
343.496	0.01
343.706	0.07
343.915	-0.04
344.125	0
344.334	0.03
344.544	-0.03
344.753	0.01
344.963	-0.02
345.172	-0.02
345.381	-0.01
345.591	-0
345.8	0.01
346.01	0.05
346.219	0.08
346.428	-0.08
346.638	-0
346.847	0
347.056	0.07
347.266	-0.01
347.475	0.03
347.684	0.07
347.893	0.05
348.103	0.02
348.312	0.02
348.521	0.04
348.73	0.03
348.94	0.02
349.149	-0.02
349.358	0.01
349.567	-0.03
349.776	-0.04
349.985	0
350.194	0.06
350.403	0.05
350.612	-0.05
350.821	-0.01
351.03	0.04
351.239	-0.06
351.448	0.01
351.657	-0.04
351.866	0.08
352.075	-0.01
352.284	0.02
352.493	-0.01
352.702	0.1
352.911	0.04
353.12	0.06
353.329	-0.01
353.538	0.03
353.746	0.02
353.955	-0.03
354.164	0.01
354.373	0.01
354.582	0.04
354.79	0.02
354.999	0.06
355.208	-0
355.416	0.07
355.625	-0.01
355.834	0.01
356.042	0.06
356.251	-0.02
356.46	-0.02
356.668	0.01
356.877	0.11
357.085	0.05
357.294	-0.06
357.503	0.01
357.711	0.02
357.92	0.15
358.128	0.04
358.337	0.01
358.545	0.02
358.754	-0.02
358.962	0.01
359.17	0.01
359.379	0.04
359.587	0.07
359.796	0.01
360.004	0.05
360.212	0.06
360.421	0.07
360.629	-0.01
360.837	0.02
361.046	0.06
361.254	0.13
361.462	0.02
361.67	0.02
361.879	0.01
362.087	0.1
362.295	0.02
362.503	-0.03
362.711	-0.02
362.92	0
363.128	-0.04
363.336	0
363.544	-0.01
363.752	0.01
363.96	-0.02
364.168	-0.02
364.376	0.03
364.584	0.04
364.792	0.07
365	0.05
365.208	0.03
365.416	0.04
365.624	0.02
365.832	-0
366.04	0.07
366.248	0
366.456	0.06
366.664	0.01
366.872	0.01
367.079	0.04
367.287	-0.02
367.495	0.02
367.703	0.03
367.911	0.02
368.118	0.03
368.326	0.02
368.534	0.01
368.742	0.09
368.949	-0
369.157	-0.03
369.365	0.04
369.572	-0.02
369.78	0.04
369.988	0.07
370.195	0.03
370.403	0.06
370.61	-0.02
370.818	0
371.026	0.07
371.233	0.02
371.441	0.03
371.648	0.01
371.856	0.07
372.063	0.04
372.271	0.01
372.478	-0.01
372.685	-0.02
372.893	0.09
373.1	0.01
373.308	0.01
373.515	0.08
373.722	0.06
373.93	0.02
374.137	0.07
374.344	0.11
374.552	0.09
374.759	0.05
374.966	0
375.173	0.05
375.381	0.05
375.588	0.04
375.795	-0.04
376.002	0.04
376.209	0.03
376.417	0.03
376.624	-0.01
376.831	0.05
377.038	0.04
377.245	0
377.452	0.03
377.659	0.04
377.866	0.03
378.073	0.01
378.28	0.01
378.487	0.09
378.694	0.08
378.901	-0.02
379.108	0.07
379.315	0.07
379.522	0.14
379.729	0.07
379.936	0.03
380.143	0.08
380.35	0.09
380.557	-0.01
380.763	0.04
380.97	0.04
381.177	0.07
381.384	0.06
381.591	-0
381.797	0.04
382.004	0.06
382.211	0.09
382.418	0.08
382.624	0.1
382.831	0.07
383.038	0
383.244	0.06
383.451	0.07
383.658	0.12
383.864	0.05
384.071	0.02
384.277	0.16
384.484	0.05
384.69	0.11
384.897	0.04
385.103	0.08
385.31	0.03
385.516	0.05
385.723	0.09
385.929	0.05
386.136	0.09
386.342	0.12
386.549	0.07
386.755	0.15
386.961	0.14
387.168	0.12
387.374	0.13
387.58	0.14
387.787	0.16
387.993	0.17
388.199	0.12
388.406	0.13
388.612	0.15
388.818	0.13
389.024	0.18
389.231	0.16
389.437	0.27
389.643	0.24
389.849	0.21
390.055	0.23
390.261	0.22
390.467	0.28
390.674	0.21
390.88	0.29
391.086	0.28
391.292	0.27
391.498	0.35
391.704	0.36
391.91	0.35
392.116	0.38
392.322	0.3
392.528	0.46
392.734	0.42
392.94	0.47
393.146	0.48
393.352	0.56
393.557	0.49
393.763	0.6
393.969	0.6
394.175	0.61
394.381	0.66
394.587	0.68
394.792	0.75
394.998	0.84
395.204	0.88
395.41	0.8
395.615	0.86
395.821	1.02
396.027	1.03
396.233	1.07
396.438	1.11
396.644	1.32
396.85	1.23
397.055	1.31
397.261	1.42
397.466	1.56
397.672	1.51
397.878	1.68
398.083	1.67
398.289	1.67
398.494	1.8
398.7	1.91
398.905	1.86
399.111	2.07
399.316	2.12
399.522	2.23
399.727	2.21
399.932	2.42
400.138	2.53
400.343	2.69
400.549	2.64
400.754	2.94
400.959	3.01
401.165	3.09
401.37	3.3
401.575	3.51
401.78	3.56
401.986	3.71
402.191	3.91
402.396	4.09
402.601	4.23
402.807	4.52
403.012	4.61
403.217	4.94
403.422	4.86
403.627	5.15
403.832	5.35
404.037	5.52
404.243	5.57
404.448	5.76
404.653	5.87
404.858	6.01
405.063	5.99
405.268	6.19
405.473	6.41
405.678	6.47
405.883	6.8
406.088	6.93
406.293	6.83
406.498	6.96
406.703	6.91
406.907	7.16
407.112	7.24
407.317	7.54
407.522	7.68
407.727	7.62
407.932	7.66
408.136	7.89
408.341	7.74
408.546	7.66
408.751	7.62
408.956	7.52
409.16	7.78
409.365	7.64
409.57	7.29
409.774	7.28
409.979	7.16
410.184	6.99
410.388	6.95
410.593	7.03
410.798	6.83
411.002	6.81
411.207	6.65
411.411	6.54
411.616	6.28
411.82	6.27
412.025	6.05
412.229	5.91
412.434	5.82
412.638	5.58
412.843	5.31
413.047	5.2
413.252	4.97
413.456	5.07
413.66	4.86
413.865	4.71
414.069	4.54
414.273	4.43
414.478	4.35
414.682	4.21
414.886	4.05
415.091	3.85
415.295	3.71
415.499	3.76
415.703	3.55
415.908	3.47
416.112	3.33
416.316	3.38
416.52	3.24
416.724	3.14
416.929	3.02
417.133	3.23
417.337	2.93
417.541	2.9
417.745	2.8
417.949	2.81
418.153	2.71
418.357	2.6
418.561	2.67
418.765	2.56
418.969	2.56
419.173	2.53
419.377	2.36
419.581	2.47
419.785	2.33
419.989	2.25
420.193	2.22
420.397	2.18
420.601	2.18
420.804	2.16
421.008	2.04
421.212	2
421.416	1.99
421.62	1.83
421.823	1.74
422.027	1.89
422.231	1.64
422.435	1.49
422.638	1.57
422.842	1.45
423.046	1.43
423.249	1.49
423.453	1.38
423.657	1.35
423.86	1.25
424.064	1.26
424.268	1.35
424.471	1.2
424.675	1.28
424.878	1.22
425.082	1.09
425.285	1.16
425.489	1.04
425.692	1.03
425.896	0.96
426.099	0.97
426.303	0.88
426.506	0.84
426.71	0.87
426.913	0.92
427.116	0.88
427.32	0.84
427.523	0.8
427.726	0.86
427.93	0.69
428.133	0.81
428.336	0.72
428.54	0.69
428.743	0.74
428.946	0.77
429.149	0.69
429.353	0.7
429.556	0.67
429.759	0.63
429.962	0.57
430.165	0.62
430.368	0.62
430.571	0.49
430.775	0.59
430.978	0.55
431.181	0.57
431.384	0.59
431.587	0.5
431.79	0.48
431.993	0.51
432.196	0.47
432.399	0.42
432.602	0.6
432.805	0.43
433.008	0.42
433.211	0.43
433.414	0.5
433.616	0.44
433.819	0.4
434.022	0.36
434.225	0.48
434.428	0.45
434.631	0.56
434.833	0.4
435.036	0.36
435.239	0.39
435.442	0.4
435.645	0.38
435.847	0.34
436.05	0.44
436.253	0.39
436.455	0.34
436.658	0.32
436.861	0.43
437.063	0.34
437.266	0.25
437.468	0.39
437.671	0.44
437.874	0.34
438.076	0.24
438.279	0.24
438.481	0.27
438.684	0.27
438.886	0.28
439.089	0.18
439.291	0.31
439.494	0.25
439.696	0.27
439.899	0.27
440.101	0.26
440.303	0.2
440.506	0.3
440.708	0.28
440.91	0.28
441.113	0.2
441.315	0.29
441.517	0.22
441.72	0.26
441.922	0.21
442.124	0.2
442.326	0.25
442.529	0.28
442.731	0.18
442.933	0.29
443.135	0.19
443.337	0.12
443.539	0.22
443.742	0.19
443.944	0.24
444.146	0.16
444.348	0.2
444.55	0.13
444.752	0.16
444.954	0.12
445.156	0.14
445.358	0.18
445.56	0.18
445.762	0.13
445.964	0.18
446.166	0.14
446.368	0.15
446.57	0.23
446.772	0.12
446.974	0.1
447.175	0.17
447.377	0.12
447.579	0.14
447.781	0.11
447.983	0.21
448.184	0.15
448.386	0.17
448.588	0.1
448.79	0.13
448.991	0.06
449.193	0.16
449.395	0.12
449.597	0.16
449.798	0.16
450	0.15
450.202	0.08
450.403	0.08
450.605	0.16
450.806	0.09
451.008	0.05
451.21	0.12
451.411	0.16
451.613	0.11
451.814	0.16
452.016	0.17
452.217	0.1
452.419	0.19
452.62	0.09
452.821	0.1
453.023	0.21
453.224	0.16
453.426	0.09
453.627	0.11
453.828	0.12
454.03	0.11
454.231	0.15
454.432	0.06
454.634	0.23
454.835	0.04
455.036	0.04
455.238	0.17
455.439	0.21
455.64	0.07
455.841	0.08
456.042	0.25
456.244	0.14
456.445	0.06
456.646	0.02
456.847	0.09
457.048	0.15
457.249	0.13
457.45	0.32
457.651	0.05
457.852	0.17
458.054	0.11
458.255	0.07
458.456	0.14
458.657	0.1
458.858	0.06
459.058	0.11
459.259	0.19
459.46	0.04
459.661	0.1
459.862	0.21
460.063	0.1
460.264	0.15
460.465	0.05
460.666	0.15
460.866	0.12
461.067	0.1
461.268	0.04
461.469	0.12
461.67	0.05
461.87	0.08
462.071	0.07
462.272	0.08
462.473	0.1
462.673	0.14
462.874	0.05
463.075	0.14
463.275	0.06
463.476	0.1
463.676	0.13
463.877	0.11
464.078	0.09
464.278	0.09
464.479	0.1
464.679	0.07
464.88	0.1
465.08	0.17
465.281	0.07
465.481	0.07
465.682	0.08
465.882	0.09
466.083	0.1
466.283	0.04
466.483	0.07
466.684	0.05
466.884	0.03
467.085	0.06
467.285	0.16
467.485	0.04
467.686	0.09
467.886	0.06
468.086	0.06
468.286	0.08
468.487	0.11
468.687	0.06
468.887	0.02
469.087	0.1
469.287	0.1
469.488	0.03
469.688	0.11
469.888	0.1
470.088	0.13
470.288	0.16
470.488	0.12
470.688	0.02
470.888	0.05
471.088	0.06
471.288	0.07
471.488	0.07
471.688	0.07
471.888	0.09
472.088	0.15
472.288	0.11
472.488	0.04
472.688	0.03
472.888	0.08
473.088	0.1
473.288	0.07
473.488	0.1
473.688	0.14
473.887	0.08
474.087	0.04
474.287	0.06
474.487	0.04
474.687	0.1
474.886	0.05
475.086	0.08
475.286	0.06
475.486	0.08
475.685	0.08
475.885	0.04
476.085	0.07
476.284	0.07
476.484	0.05
476.684	0.07
476.883	0.09
477.083	0.07
477.282	0.07
477.482	0.09
477.681	0.12
477.881	0.07
478.08	0.04
478.28	0.04
478.479	0.07
478.679	0.13
478.878	0.06
479.078	0.05
479.277	0.06
479.477	0.05
479.676	0.07
479.875	0.03
480.075	-0.02
480.274	0.05
480.473	0.05
480.673	0.02
480.872	0.09
481.071	0.06
481.271	0.07
481.47	0.02
481.669	0.04
481.868	0.07
482.067	0.01
482.267	-0.01
482.466	0
482.665	0.01
482.864	0.01
483.063	0.01
483.262	0.08
483.461	0.05
483.661	0.07
483.86	0.04
484.059	0.03
484.258	0.06
484.457	0.04
484.656	0.04
484.855	0.09
485.054	0.01
485.253	0.03
485.452	-0
485.651	0.04
485.849	0.03
486.048	0.01
486.247	-0.01
486.446	0.03
486.645	-0.02
486.844	0.02
487.043	0.02
487.241	0.06
487.44	0
487.639	0.01
487.838	0.07
488.037	0.05
488.235	0.06
488.434	0.02
488.633	0.01
488.831	0.05
489.03	0.05
489.229	0.04
489.427	0.03
489.626	0.05
489.825	0.1
490.023	0.03
490.222	0.01
490.42	0.06
490.619	0.07
490.817	0.05
491.016	-0
491.214	0.08
491.413	0.01
491.611	0.02
491.81	0.03
492.008	0.04
492.207	0.04
492.405	0.04
492.604	-0.01
492.802	0.02
493	0.04
493.199	0
493.397	0.02
493.595	0.03
493.794	0
493.992	0.03
494.19	0.04
494.388	0.06
494.587	0.02
494.785	0.03
494.983	-0.02
495.181	0.02
495.379	0.05
495.578	0.01
495.776	0.06
495.974	0.05
496.172	0.02
496.37	0.03
496.568	-0.01
496.766	0
496.964	0.05
497.162	0.02
497.36	0
497.558	0.06
497.756	0.04
497.954	0.04
498.152	0.02
498.35	0.03
498.548	0.02
498.746	0.02
498.944	0.01
499.142	0.02
499.34	0
499.538	0.03
499.736	0.01
499.933	0.06
500.131	0.05
500.329	0.02
500.527	0.05
500.725	0.06
500.922	0.04
501.12	0.04
501.318	0.04
501.516	0.01
501.713	0.04
501.911	0.02
502.109	0
502.306	0.02
502.504	0.01
502.701	0
502.899	0.02
503.097	0.08
503.294	0.02
503.492	0
503.689	0.03
503.887	0.05
504.084	0.05
504.282	0.03
504.479	-0.01
504.677	0.03
504.874	-0.03
505.072	0.01
505.269	0.03
505.466	0.03
505.664	0.04
505.861	-0.01
506.059	-0.02
506.256	0.03
506.453	-0.02
506.651	0.07
506.848	0.04
507.045	0.02
507.242	0.03
507.44	0.01
507.637	0.03
507.834	0
508.031	0.02
508.229	0
508.426	0.01
508.623	0.04
508.82	0.01
509.017	0
509.214	-0
509.411	0.03
509.608	-0.01
509.805	0.03
510.003	0.02
510.2	0.02
510.397	0.04
510.594	-0
510.791	0.01
510.988	0.01
511.184	0.04
511.381	0.03
511.578	-0.02
511.775	0.05
511.972	-0
512.169	0.03
512.366	0.01
512.563	0.02
512.76	-0.01
512.956	0.02
513.153	-0.02
513.35	0
513.547	0
513.744	-0.01
513.94	-0.01
514.137	0.02
514.334	0.03
514.53	0.02
514.727	0.02
514.924	0.04
515.12	0.02
515.317	-0.03
515.514	0
515.71	-0.03
515.907	-0.01
516.103	0.01
516.3	0.03
516.497	0.05
516.693	0.06
516.89	0.01
517.086	-0.01
517.283	0.06
517.479	0.04
517.676	-0
517.872	0.03
518.068	-0.02
518.265	-0
518.461	-0.01
518.658	-0.01
518.854	0.03
519.05	0
519.247	0.01
519.443	0.03
519.639	0.04
519.836	0.03
520.032	0
520.228	0.04
520.424	0.07
520.621	0.04
520.817	0.01
521.013	0.01
521.209	0
521.405	0.05
521.601	0.01
521.798	0.01
521.994	0.04
522.19	0.01
522.386	-0.01
522.582	0.02
522.778	0.02
522.974	-0.01
523.17	0.01
523.366	0.02
523.562	0.05
523.758	0.03
523.954	-0.01
524.15	-0
524.346	0.03
524.542	-0.01
524.738	-0.01
524.934	0.01
525.129	0.01
525.325	0.02
525.521	0.02
525.717	0.04
525.913	0.02
526.109	-0.01
526.304	0
526.5	0.01
526.696	0.04
526.892	0
527.087	0.02
527.283	0
527.479	0.02
527.674	-0
527.87	-0
528.066	-0
528.261	0.03
528.457	0.03
528.653	-0.01
528.848	0.01
529.044	0.03
529.239	0
529.435	0.04
529.63	0.02
529.826	0.04
530.021	0.02
530.217	0.04
530.412	0.01
530.608	-0.01
530.803	0
530.999	0.01
531.194	-0.04
531.389	0.02
531.585	-0.03
531.78	0.02
531.975	0.02
532.171	0.02
532.366	-0
532.561	0.01
532.757	-0
532.952	-0.01
533.147	0.03
533.342	0.01
533.538	0.01
533.733	0.05
533.928	0.01
534.123	-0.01
534.318	-0.03
534.513	-0
534.709	0.01
534.904	-0
535.099	0.01
535.294	0.02
535.489	0.02
535.684	-0
535.879	-0.02
536.074	-0.01
536.269	-0.03
536.464	0.01
536.659	-0
536.854	0.01
537.049	0
537.244	0.01
537.439	-0.01
537.634	0.02
537.828	-0.01
538.023	-0
538.218	-0.02
538.413	0.04
538.608	-0.02
538.803	-0
538.997	-0.02
539.192	0.04
539.387	-0.01
539.582	0.02
539.776	0
539.971	0.01
540.166	-0.01
540.36	-0.02
540.555	-0.02
540.75	-0
540.944	0
541.139	-0.03
541.334	-0.01
541.528	0.03
541.723	0.01
541.917	-0.01
542.112	-0.03
542.306	-0.01
542.501	-0.03
542.695	0.02
542.89	-0.01
543.084	0.01
543.279	-0.01
543.473	-0.01
543.668	0.02
543.862	0.01
544.056	0.02
544.251	-0.01
544.445	0.02
544.64	0.01
544.834	-0.02
545.028	0.01
545.222	0.02
545.417	0.02
545.611	0.01
545.805	0.01
546	-0
546.194	0.01
546.388	0
546.582	0.02
546.776	0.01
546.97	0
547.165	0.02
547.359	0.03
547.553	-0.03
547.747	0.03
547.941	-0.01
548.135	-0.01
548.329	0.04
548.523	0.04
548.717	-0.01
548.911	0.01
549.105	0.01
549.299	0.01
549.493	0.03
549.687	0
549.881	0.01
550.075	-0
550.269	-0.01
550.463	0.03
550.657	-0.01
550.85	0.02
551.044	-0.02
551.238	0.01
551.432	-0.02
551.626	-0.04
551.82	0.02
552.013	-0
552.207	0.01
552.401	0.01
552.594	0.02
552.788	0
552.982	0.01
553.176	-0.03
553.369	0.02
553.563	0.03
553.756	-0.03
553.95	-0.02
554.144	-0.01
554.337	0.01
554.531	0.01
554.724	0.01
554.918	-0
555.111	0.02
555.305	0.02
555.498	0.05
555.692	0.02
555.885	0
556.079	0.02
556.272	-0
556.466	0.05
556.659	0.01
556.852	0.01
557.046	-0.01
557.239	0.03
557.432	-0.02
557.626	-0
557.819	0
558.012	0.02
558.206	0.04
558.399	-0
558.592	-0.01
558.785	-0
558.979	0.03
559.172	0.01
559.365	0.01
559.558	0.03
559.751	-0
559.944	0.03
560.138	0.01
560.331	0
560.524	0
560.717	0
560.91	-0.03
561.103	0.01
561.296	0.03
561.489	-0
561.682	0.01
561.875	0.05
562.068	0
562.261	0.02
562.454	0.03
562.647	0.01
562.84	0.02
563.032	-0.01
563.225	0.01
563.418	-0.01
563.611	0
563.804	-0.01
563.997	-0.04
564.19	-0.04
564.382	0.01
564.575	-0.01
564.768	0.02
564.961	-0.02
565.153	0
565.346	0.03
565.539	0.03
565.731	0.02
565.924	0.01
566.117	0.02
566.309	0.02
566.502	0
566.695	0.01
566.887	0
567.08	-0
567.272	0
567.465	-0
567.657	0.01
567.85	0.01
568.042	0.02
568.235	0.02
568.427	0
568.62	0.01
568.812	0.01
569.005	0.01
569.197	-0.05
569.389	-0
569.582	0.04
569.774	-0.01
569.966	-0.04
570.159	-0.04
570.351	0.01
570.543	-0.01
570.736	-0.01
570.928	-0.02
571.12	-0
571.312	-0.02
571.505	-0.02
571.697	0.03
571.889	-0.03
572.081	-0.01
572.273	-0.03
572.465	0.01
572.658	-0
572.85	0.02
573.042	-0.01
573.234	-0.01
573.426	0.04
573.618	-0.01
573.81	-0
574.002	0.03
574.194	0.05
574.386	-0.03
574.578	-0.06
574.77	-0.02
574.962	-0
575.154	-0.01
575.346	-0.02
575.538	0.01
575.729	-0.02
575.921	-0
576.113	-0
576.305	0.03
576.497	-0.02
576.689	-0.01
576.88	-0.03
577.072	-0
577.264	-0.02
577.456	-0
577.647	-0.05
577.839	0.06
578.031	0.03
578.223	-0.05
578.414	-0.04
578.606	0.04
578.798	-0
578.989	-0.01
579.181	0.01
579.372	-0
579.564	0.01
579.755	-0.02
579.947	0.01
580.139	0.04
580.33	-0.06
580.522	0
580.713	-0.06
580.905	-0.01
581.096	0.01
581.287	-0.01
581.479	-0.01
581.67	0.03
581.862	-0.01
582.053	-0.02
582.244	-0.03
582.436	0
582.627	-0.01
582.818	-0.04
583.01	-0.04
583.201	0.04
583.392	0.02
583.583	0
583.775	-0.02
583.966	-0.03
584.157	-0.01
584.348	-0.02
584.54	-0.03
584.731	0.02
584.922	-0.01
585.113	-0.03
585.304	0
585.495	0.01
585.686	0.01
585.877	0
586.068	-0
586.259	0.02
586.45	0.01
586.641	-0.02
586.832	-0.06
587.023	0
587.214	-0.01
587.405	-0.02
587.596	-0.03
587.787	0.05
587.978	0.02
588.169	-0.02
588.36	-0.05
588.551	0.02
588.742	-0.01
588.932	0
589.123	0
589.314	0.01
589.505	0.01
589.696	0
589.886	-0.04
590.077	-0.05
590.268	-0
590.458	-0.04
590.649	-0.03
590.84	0.04
591.03	-0.03
591.221	-0.03
591.412	-0.05
591.602	0.04
591.793	0.03
591.984	-0.04
592.174	0
592.365	0.08
592.555	-0.03
592.746	0.01
592.936	0.02
593.127	-0
593.317	0.02
593.508	-0.01
593.698	-0.02
593.889	0.01
594.079	-0.01
594.269	-0.03
594.46	0
594.65	-0.01
594.84	-0
595.031	-0.04
595.221	-0.03
595.411	-0.04
595.602	0.03
595.792	-0.02
595.982	-0.01
596.172	0.06
596.363	-0
596.553	-0.01
596.743	-0.02
596.933	-0.01
597.123	0
597.314	-0.05
597.504	-0.01
597.694	0.04
597.884	-0.01
598.074	-0.01
598.264	-0.01
598.454	0.03
598.644	-0.02
598.834	-0
599.024	-0.08
599.214	-0.01
599.404	0.04
599.594	-0.01
599.784	-0.03
599.974	0.04
600.164	0.02
600.354	-0.04
600.544	-0.02
600.734	0.01
600.924	0.04
601.114	-0.03
601.303	0.01
601.493	0
601.683	-0
601.873	0.01
602.063	-0.03
602.252	0.04
602.442	-0.05
602.632	-0.02
602.821	-0.04
603.011	0.02
603.201	-0.01
603.39	-0.01
603.58	-0.02
603.77	0
603.959	-0.01
604.149	-0.01
604.339	-0.02
604.528	0.03
604.718	-0.01
604.907	-0.02
605.097	-0.02
605.286	-0.01
605.476	-0.01
605.665	0.03
605.855	0.02
606.044	0.06
606.234	0.02
606.423	0.01
606.612	-0.03
606.802	0
606.991	0.03
607.181	-0.01
607.37	-0.06
607.559	-0.02
607.749	-0.05
607.938	0
608.127	-0.02
608.316	-0.01
608.506	0.05
608.695	-0.01
608.884	-0.03
609.073	-0.01
609.263	0.01
609.452	0.02
609.641	0
609.83	-0.01
610.019	-0
610.208	-0.04
610.397	-0.03
610.586	0.03
610.775	-0.02
610.965	-0.02
611.154	-0.04
611.343	0.01
611.532	-0.03
611.721	-0.05
611.91	-0.06
612.099	0.03
612.287	-0.01
612.476	-0.03
612.665	0.02
612.854	-0.01
613.043	0.02
613.232	-0.02
613.421	-0.05
613.61	-0
613.798	-0.03
613.987	0.03
614.176	-0
614.365	0.04
614.554	0.03
614.742	0.03
614.931	-0.04
615.12	0.03
615.309	-0.03
615.497	0.03
615.686	-0.05
615.875	-0.03
616.063	0.03
616.252	-0.04
616.44	-0.04
616.629	-0
616.818	0.03
617.006	-0.05
617.195	0
617.383	0
617.572	-0.02
617.76	-0.02
617.949	-0.03
618.137	0.03
618.326	0.08
618.514	-0.03
618.703	-0.01
618.891	0.05
619.079	-0.06
619.268	-0.01
619.456	-0.03
619.644	0.04
619.833	-0.01
620.021	-0.05
620.209	-0.05
620.398	0.04
620.586	-0.01
620.774	0.03
620.962	-0
621.151	0.05
621.339	0.02
621.527	-0.06
621.715	-0.05
621.903	-0.04
622.092	-0.02
622.28	0.02
622.468	-0
622.656	-0.01
622.844	0.01
623.032	-0.05
623.22	-0.07
623.408	0.02
623.596	0.02
623.784	0.02
623.972	-0.04
624.16	-0.05
624.348	0.06
624.536	-0.04
624.724	-0.02
624.912	0.04
625.1	0.06
625.288	-0.05
625.476	-0.04
625.664	0.01
625.851	-0.04
626.039	0.01
626.227	0.03
626.415	0
626.603	-0.05
626.79	-0.01
626.978	0.02
627.166	-0.03
627.354	-0.02
627.541	-0.02
627.729	-0.08
627.917	0.03
628.104	0.06
628.292	-0
628.48	-0.03
628.667	-0.02
628.855	0.02
629.042	0.01
629.23	-0.02
629.418	-0.02
629.605	-0.04
629.793	-0.06
629.98	-0
630.168	-0
630.355	-0.01
630.543	0.02
630.73	-0.02
630.917	0.02
631.105	0.06
631.292	-0.06
631.48	-0.01
631.667	0.06
631.854	-0.02
632.042	-0.01
632.229	-0.07
632.416	-0.02
632.604	-0
632.791	-0.04
632.978	0.02
633.165	0.01
633.353	0.06
633.54	0.03
633.727	-0.08
633.914	-0.03
634.101	-0.06
634.289	0.01
634.476	-0.02
634.663	-0.04
634.85	0.01
635.037	-0.04
635.224	-0.05
635.411	0.01
635.598	0
635.785	-0.02
635.972	-0.02
636.159	0.04
636.346	-0.01
636.533	-0.04
636.72	-0.01
636.907	-0.03
637.094	-0.01
637.281	-0.01
637.468	0.01
637.655	-0.03
637.842	-0.02
638.029	-0.02
638.215	0.04
638.402	-0.02
638.589	-0.04
638.776	-0.05
638.963	-0.06
639.149	0.02
639.336	0.02
639.523	-0.02
639.709	-0
639.896	-0.04
640.083	0.05
640.27	-0.01
640.456	-0.01
640.643	0.03
640.829	-0.04
641.016	-0
641.203	-0.05
641.389	-0.01
641.576	0.01
641.762	-0.02
641.949	-0.01
642.135	0.03
642.322	0.02
642.508	-0.04
642.695	-0.01
642.881	-0.02
643.068	-0.01
643.254	-0.02
643.441	0.02
643.627	-0.01
643.813	-0.02
644	0.05
644.186	-0.05
644.372	-0.05
644.559	0
644.745	-0.04
644.931	-0.06
645.118	-0.03
645.304	-0.03
645.49	-0.02
645.676	-0.01
645.862	-0.01
646.049	0.04
646.235	-0.01
646.421	0.06
646.607	0.04
646.793	-0.05
646.979	-0.01
647.165	-0.01
647.352	-0.02
647.538	0.04
647.724	-0.03
647.91	-0.01
648.096	0.02
648.282	0.05
648.468	-0.02
648.654	0.01
648.84	-0.01
649.026	-0.03
649.212	-0.04
649.397	-0.05
649.583	-0.04
649.769	-0.01
649.955	-0.02
650.141	-0.01
650.327	0.04
650.513	-0.02
650.698	0.04
650.884	-0.08
651.07	-0.01
651.256	0.01
651.442	-0.04
651.627	-0.02
651.813	-0.04
651.999	-0.01
652.184	0.02
652.37	-0.01
652.556	-0.05
652.741	0.06
652.927	-0.04
653.113	0.01
653.298	0
653.484	-0.04
653.669	-0.02
653.855	-0.02
654.04	0.05
654.226	-0
654.412	-0.02
654.597	-0.05
654.782	-0.05
654.968	0.01
655.153	0.03
655.339	-0.04
655.524	-0.05
655.71	0.06
655.895	-0.04
656.08	-0.01
656.266	0.04
656.451	0.02
656.636	-0.04
656.822	-0.01
657.007	-0.06
657.192	-0.05
657.378	-0.09
657.563	-0.02
657.748	0.03
657.933	-0
658.118	-0.03
658.304	-0.06
658.489	0.03
658.674	0.01
658.859	-0.01
659.044	0.03
659.229	0.01
659.414	-0.02
659.599	-0.01
659.785	-0.05
659.97	-0.01
660.155	0.02
660.34	0
660.525	-0.02
660.71	-0.04
660.895	0.01
661.08	-0.03
661.264	-0.01
661.449	0.04
661.634	0.04
661.819	0
662.004	0.03
662.189	-0.08
662.374	-0.05
662.559	-0.07
662.743	-0.06
662.928	-0.01
663.113	-0.01
663.298	-0.08
663.483	0.01
663.667	0.01
663.852	-0.06
664.037	0.02
664.221	-0.03
664.406	0.05
664.591	0.05
664.775	0.01
664.96	-0.01
665.145	0.02
665.329	-0.03
665.514	-0.02
665.698	-0.05
665.883	-0.04
666.068	0.05
666.252	-0.03
666.437	-0.04
666.621	0.02
666.806	0
666.99	-0.02
667.174	-0.08
667.359	0.06
667.543	-0.04
667.728	-0.02
667.912	-0.09
668.096	0.04
668.281	-0.05
668.465	-0.02
668.649	-0.03
668.834	-0.06
669.018	-0.06
669.202	-0.02
669.387	-0.05
669.571	0.07
669.755	-0.04
669.939	-0.03
670.124	-0.05
670.308	0.07
670.492	0.04
670.676	0
670.86	-0.01
671.044	-0.05
671.228	0.01
671.413	-0.05
671.597	-0.03
671.781	-0.04
671.965	0.03
672.149	0
672.333	-0.03
672.517	-0.05
672.701	0.03
672.885	-0.05
673.069	-0.07
673.253	0.05
673.437	-0.07
673.621	-0.04
673.804	-0.04
673.988	-0
674.172	0.03
674.356	-0.03
674.54	-0.04
674.724	0.07
674.908	-0.03
675.091	0.01
675.275	0
675.459	0.02
675.643	0.01
675.826	0.04
676.01	-0.02
676.194	-0.02
676.377	0.05
676.561	-0.01
676.745	0.03
676.928	0.01
677.112	0.01
677.296	-0.04
677.479	-0.05
677.663	-0.03
677.846	0.02
678.03	-0.05
678.213	-0.02
678.397	0.01
678.58	-0.06
678.764	-0
678.947	-0.03
679.131	-0.03
679.314	0.02
679.498	-0.04
679.681	0.01
679.865	0.01
680.048	0.01
680.231	0.02
680.415	0.01
680.598	-0.01
680.781	-0.06
680.965	-0.02
681.148	0.03
681.331	-0.04
681.514	0.02
681.698	-0.04
681.881	-0.02
682.064	-0.01
682.247	0.01
682.43	-0.09
682.614	0.01
682.797	0.01
682.98	0.02
683.163	-0.01
683.346	0
683.529	-0.06
683.712	-0.03
683.895	0.02
684.078	-0.05
684.261	-0.02
684.444	0.02
684.627	-0.03
684.81	-0.03
684.993	-0.02
685.176	0.03
685.359	-0.04
685.542	-0.01
685.725	0.04
685.908	-0.01
686.091	0
686.274	0.02
686.457	-0
686.639	-0.02
686.822	-0.01
687.005	0.02
687.188	0
687.371	0.04
687.553	0
687.736	0.01
687.919	0.04
688.102	0.05
688.284	-0.05
688.467	-0.01
688.65	-0.04
688.832	-0.05
689.015	-0.03
689.197	-0.08
689.38	0.05
689.563	0.03
689.745	-0.04
689.928	-0.05
690.11	0.02
690.293	0.01
690.475	-0.05
690.658	0.01
690.84	-0.05
691.023	-0.02
691.205	-0.01
691.388	-0.01
691.57	0.05
691.752	-0
691.935	-0.08
692.117	-0.02
692.3	-0.03
692.482	-0.01
692.664	-0.03
692.847	-0
693.029	0.02
693.211	0.01
693.393	-0.02
693.576	-0.05
693.758	-0.01
693.94	-0.03
694.122	-0.01
694.304	-0.02
694.487	-0.01
694.669	0.04
694.851	-0.03
695.033	-0.03
695.215	-0.07
695.397	-0.02
695.579	-0.01
695.761	-0.05
695.943	-0.1
696.125	0.07
696.308	-0.03
696.49	-0.13
696.671	0.13
696.853	-0.01
697.035	0.07
697.217	-0.02
697.399	0.01
697.581	-0.05
697.763	-0.04
697.945	-0.05
698.127	-0.05
698.309	-0.04
698.491	-0.01
698.672	-0
698.854	0.03
699.036	0.05
699.218	-0.03
699.399	0.04
699.581	0.05
699.763	-0.05
699.945	-0.03
700.126	-0.1
700.308	0.02
700.49	-0.03
700.671	-0.06
700.853	-0
701.035	0.03
701.216	-0.06
701.398	-0.07
701.579	-0
701.761	-0
701.943	-0.02
702.124	-0.09
702.306	-0.02
702.487	0.14
702.669	-0.05
702.85	-0.03
703.031	-0.11
703.213	0.11
703.394	0.08
703.576	-0.08
703.757	0.04
703.938	0.03
704.12	0.14
704.301	-0.02
704.483	-0.05
704.664	-0.02
704.845	0.12
705.026	0.05
705.208	-0.07
705.389	0.02
705.57	-0.02
705.751	-0.08
705.933	-0.02
706.114	0.09
706.295	0.03
706.476	-0.08
706.657	0.05
706.838	-0.06
707.02	0.02
707.201	-0.03
707.382	-0.05
707.563	0.04
707.744	-0.02
707.925	-0.07
708.106	-0.1
708.287	0.04
708.468	0.05
708.649	-0.01
708.83	-0
709.011	-0.02
709.192	0.06
709.373	-0.13
709.554	-0.07
709.734	-0.01
709.915	0.07
710.096	-0.07
710.277	-0.12
710.458	-0.04
710.639	0.01
710.819	-0.09
711	-0.06
711.181	-0.01
711.362	0.11
711.542	0.03
711.723	-0.02
711.904	0.04
712.085	-0.02
712.265	0.03
712.446	-0.11
712.627	-0.02
712.807	-0.04
712.988	-0.02
713.168	-0.09
713.349	0.08
713.53	-0.11
713.71	-0.1
713.891	0.01
714.071	0.03
714.252	-0.11
714.432	-0.07
714.613	-0.08
714.793	-0.03
714.974	0.05
715.154	0.06
715.334	-0.01
715.515	0.08
715.695	-0.05
715.876	-0.05
716.056	-0.05
716.236	-0.03
716.417	-0.05
716.597	-0.05
716.777	0.09
716.957	-0.04
717.138	-0.05
717.318	-0.01
717.498	-0.04
717.678	0.02
717.859	-0.02
718.039	-0.11
718.219	0.02
718.399	0
718.579	-0.1
718.759	-0.09
718.939	-0
719.12	-0.06
719.3	0.02
719.48	-0.21
719.66	-0.17
719.84	0.08
720.02	0.01
720.2	-0.1
720.38	-0.03
720.56	0.07
720.74	-0
720.92	0.02
721.1	0.01
721.279	0.08
721.459	0
721.639	-0.09
721.819	0.03
721.999	0.01
722.179	0.01
722.359	-0.1
722.538	-0
722.718	-0.01
722.898	-0.06
723.078	-0
723.257	-0.05
723.437	-0.05
723.617	-0.03
723.797	-0.04
723.976	-0.01
724.156	0.05
724.336	0.05
724.515	0.17
724.695	-0.24
724.874	0.02
725.054	0.07
725.234	-0.05
725.413	0.05
725.593	0.02
725.772	-0.07
725.952	-0
726.131	0
726.311	0
726.49	-0.03
726.67	-0.03
726.849	-0.1
727.028	0.03
727.208	0.02
727.387	0.07
727.567	-0.11
727.746	-0.02
727.925	-0.09
728.105	-0.17
728.284	-0
728.463	-0.06
728.643	0.09
728.822	-0.1
729.001	-0.09
729.18	-0.01
729.359	0.02
729.539	0
729.718	-0.01
729.897	0.01
730.076	-0.06
730.255	-0.11
730.434	0.01
730.614	0.07
730.793	0.06
730.972	-0.11
731.151	0.03
731.33	0.09
731.509	0.05
731.688	0
731.867	-0.02
732.046	-0.18
732.225	0.16
732.404	-0.05
732.583	-0.04
732.762	-0.1
732.941	0.02
733.12	0.03
733.298	-0.02
733.477	-0.04
733.656	0.02
733.835	-0.14
734.014	0.04
734.193	-0.07
734.371	-0.02
734.55	0.02
734.729	-0.16
734.908	-0.03
735.086	-0.04
735.265	0.04
735.444	-0.15
735.623	-0.16
735.801	-0.09
735.98	-0.01
736.159	-0.05
736.337	0.08
736.516	-0.02
736.694	-0.03
736.873	-0.03
737.052	0.03
737.23	0.1
737.409	-0.11
737.587	0.15
737.766	-0.27
737.944	-0
738.123	-0.03
738.301	-0.08
738.479	-0.03
738.658	0.01
738.836	-0.23
739.015	-0.05
739.193	0.04
739.371	-0.16
739.55	-0.03
739.728	-0.16
739.906	0.04
740.085	0.11
740.263	-0
740.441	-0.14
740.62	0.22
740.798	0.03
740.976	-0.16
741.154	0
741.332	0.09
741.511	-0.11
741.689	0.03
741.867	0.09
742.045	-0.01
742.223	-0.05
742.401	0.05
742.579	-0.05
742.757	0.08
742.935	-0.07
743.114	-0.04
743.292	-0.1
743.47	-0.04
743.648	0.06
743.826	0.02
744.004	0.03
744.181	0.01
744.359	-0.04
744.537	0.14
744.715	-0.03
744.893	-0.05
745.071	-0.03
745.249	-0.11
745.427	-0.08
745.605	0.05
745.782	0.04
745.96	0.09
746.138	0.07
746.316	0.07
746.493	-0.02
746.671	-0.03
746.849	-0.09
747.027	0.08
747.204	-0.11
747.382	0.01
747.56	-0.17
747.737	0.07
747.915	-0.11
748.093	0.04
748.27	0.01
748.448	-0.08
748.625	-0.16
748.803	-0.09
748.98	-0.09
749.158	0.03
749.335	0.08
749.513	-0.04
749.69	-0.08
749.868	-0
750.045	0.11
750.223	-0.09
750.4	-0.21
750.578	0.16
750.755	-0.04
750.932	-0.13
751.11	0.11
751.287	-0.11
751.464	0.07
751.642	-0.11
751.819	-0.02
751.996	-0.01
752.173	-0.03
752.351	-0.08
752.528	-0.11
752.705	-0.04
752.882	-0.04
753.06	-0.07
753.237	0.03
753.414	0.16
753.591	0.16
753.768	-0.03
753.945	-0.15
754.122	-0.06
754.299	-0.06
754.476	-0.01
754.654	0
754.831	-0.04
755.008	-0.01
755.185	-0.1
755.362	-0.13
755.539	-0.03
755.716	-0.19
755.892	-0
756.069	-0.05
756.246	-0.02
756.423	-0.06
756.6	0.06
756.777	0.01
756.954	0.11
757.131	-0.01
757.307	-0.12
757.484	-0.14
757.661	0
757.838	-0.03
758.015	-0.13
758.191	0.04
758.368	0.05
758.545	0.15
758.721	-0.02
758.898	-0.16
759.075	-0.03
759.251	0.05
759.428	0.04
759.605	-0.14
759.781	-0.03
759.958	0.07
760.134	0.07
760.311	-0.04
760.488	0.01
760.664	0.11
760.841	-0
761.017	-0.09
761.194	0.07
761.37	0.02
761.547	0.04
761.723	-0.1
761.899	0.17
762.076	-0.22
762.252	-0.17
762.429	-0.04
762.605	-0.04
762.781	-0.06
762.958	-0.03
763.134	-0.05
763.31	-0.05
763.486	0.13
763.663	-0.13
763.839	-0.03
764.015	-0.16
764.191	-0.1
764.368	-0
764.544	-0.05
764.72	-0.05
764.896	0.04
765.072	0.03
765.248	-0.05
765.425	-0.05
765.601	0.03
765.777	0.06
765.953	-0.19
766.129	-0.1
766.305	-0.09
766.481	0.02
766.657	-0.01
766.833	0.08
767.009	-0.21
767.185	-0.1
767.361	-0.01
767.537	-0.17
767.713	0.09
767.889	-0.14
768.065	-0.01
768.24	0.08
768.416	-0.01
768.592	-0.09
768.768	-0.15
768.944	0.01
769.12	-0.15
769.295	-0.09
769.471	-0.05
769.647	-0.04
769.823	0.17
769.998	-0.13
770.174	-0.07
770.35	0.24
770.525	0.16
770.701	-0.02
770.877	-0.08
771.052	-0.07
771.228	0.06
771.403	0.13
771.579	0.2
771.755	0.18
771.93	0.05
772.106	-0.29
772.281	-0.23
772.457	-0.06
772.632	-0.01
772.808	-0.04
772.983	-0.12
773.159	-0.2
773.334	0.23
773.509	-0.1
773.685	-0.04
773.86	0.3
774.036	0.13
774.211	-0.02
774.386	-0.14
774.562	-0.06
774.737	0.12
774.912	-0.14
775.087	0.12
775.263	-0.04
775.438	-0
775.613	-0.14
775.788	-0.1
775.964	-0.05
776.139	0.18
776.314	-0.19
776.489	0.01
776.664	0.13
776.839	-0.12
777.014	0.12
777.19	0.14
777.365	0.23
777.54	0.18
777.715	-0.06
777.89	-0.14
778.065	-0.12
778.24	-0.06
778.415	0.1
778.59	-0.06
778.765	-0.1
778.94	0.06
779.115	0.02
779.289	-0.04
779.464	-0.06
779.639	-0.1
779.814	-0.2
779.989	-0.29
780.164	0.09
780.339	0.04
780.513	-0.18
780.688	-0.19
780.863	-0.02
781.038	0.05
781.212	-0.03
781.387	0.09
781.562	0.22
781.737	0.07
781.911	0.15
782.086	-0.06
782.261	-0.05
782.435	0.28
782.61	-0.11
782.784	-0.21
782.959	0.04
783.134	-0.14
783.308	-0.21
783.483	-0.07
783.657	0.49
783.832	0.16
784.006	-0.29
784.181	0.04
784.355	0.06
784.53	0.01
784.704	-0.23
784.878	0.13
785.053	-0
785.227	0.07
785.402	0.27
785.576	-0.29
785.75	-0.11
785.925	-0.09
786.099	-0.11
786.273	-0.12
786.448	0.13
786.622	0.03
786.796	0.12
786.97	-0.16
787.145	0.4
787.319	-0.25
787.493	-0.03
787.667	-0.3
787.841	-0.18
788.015	0.12
788.19	-0.09
788.364	0.07
788.538	0.19
788.712	0.17
788.886	-0.14
789.06	0.19
789.234	0.26
789.408	-0.24
789.582	-0.08
789.756	0.07
789.93	-0.25
790.104	-0.04
790.278	-0.21
790.452	-0.28
790.626	-0.11
790.8	-0.27
790.973	0.01
791.147	0.26
791.321	0.3
791.495	0.2
791.669	0.18
791.843	-0.01
792.016	0.17
792.19	0.36
792.364	-0.22
792.538	0.47
792.711	0.27
792.885	0.02
793.059	-0.15
793.233	-0.58
793.406	0.13
793.58	0
793.754	-0.16
793.927	0.12
794.101	0.27
794.274	0.11
794.448	0.16
794.622	-0.22
794.795	0.27
794.969	-0.19
795.142	0.28
795.316	-0.19
795.489	-0.19
795.663	0.22
795.836	-0.23
796.009	-0.28
796.183	0.36
796.356	0.21
796.53	-0.01
796.703	-0.19
796.876	0.4
797.05	-0.21
797.223	-0.06
797.396	0.11
797.57	-0.09
797.743	0.32
797.916	0.05
798.09	0.06
798.263	0.12
798.436	0.08
798.609	0.01
798.782	-0.29
798.956	0.13
799.129	0.03
799.302	-0.18
799.475	-0.22
799.648	-0.19
799.821	-0.14
799.994	-0.16
800.167	-0.41
800.34	-0
800.514	-0.02
800.687	-0.09
800.86	-0.22
801.033	-0.05
801.206	-0.08
801.379	-0.37
801.551	0.07
801.724	0.09
801.897	0.3
802.07	-0.21
802.243	-0.5
802.416	-0.06
802.589	-0.02
802.762	0.05
802.935	0
803.107	0.25
803.28	0.5
803.453	-0.02
803.626	-0.36
803.798	-0.21
803.971	-0.24
804.144	0.12
804.317	0.23
804.489	0.11
804.662	-0.22
804.835	0.06
805.007	-0.06
805.18	0.22
805.353	0.19
805.525	-0.43
805.698	-0.24
805.87	-0.02
806.043	0.22
806.215	-0.25
806.388	-0.39
806.56	-0.11
806.733	0.49
806.905	0.06
807.078	-0.39
807.25	-0.72
807.423	-0.05
807.595	-0.07
807.768	0.22
807.94	0.39
808.112	-0.1
808.285	-0.14
808.457	-0.29
808.629	-0.1
808.802	0.12
808.974	-0.15
809.146	-0.18
809.318	-0.32
809.491	0.01
809.663	0.43
809.835	-0.33
810.007	0.07
810.18	0.04
810.352	-0.5
810.524	-0.24
810.696	0.14
810.868	0.49
811.04	-0.21
811.212	-0.19
811.384	0.3
811.556	-0.02
811.728	-0.05
811.901	0.35
812.073	-0.02
812.245	0.3
812.417	0.02
812.589	-0.62
812.76	-0.18
812.932	0.25
813.104	0.68
813.276	0.1
813.448	0.13
813.62	0.06
813.792	0.07
813.964	0.03
814.136	0.36
814.307	0.14
814.479	-0.45
814.651	-0.32
814.823	0.6
814.995	-0.2
815.166	0.2
815.338	-0.33
815.51	-0.68
815.681	0.52
815.853	-0.01
816.025	-0.32
816.196	0.76
816.368	0.33
816.54	-0.81
816.711	-0.32
816.883	0.07
817.054	0.79
817.226	-0.35
817.398	-0.03
817.569	-0.27
817.741	0
817.912	-0.04
818.084	-0.22
818.255	0.53
818.426	-0.26
818.598	-0.39
818.769	-0.42
818.941	0.37
819.112	0.59
819.283	0.15
819.455	-0.47
819.626	-0.17
819.798	0.21
819.969	0.27
820.14	0.08
820.311	-0.35
820.483	-0.07
820.654	0.02
820.825	0.07
820.996	-0.1
821.168	-0.19
821.339	-0.04
821.51	-0.38
821.681	-0.37
821.852	0.13
822.023	-0.37
822.195	-0.58
822.366	-0.29
822.537	0.22
822.708	0.19
822.879	-0.39
823.05	0.91
823.221	-0.17
823.392	0.56
823.563	0.1
823.734	-0.31
823.905	0.26
824.076	-0.18
824.247	-0.63
824.418	-0.57
824.589	0.47
824.759	-0.14
824.93	-0.36
825.101	-0.6
825.272	0.2
825.443	0.47
825.614	0.38
825.784	-1.49
825.955	0.29
826.126	0.16
826.297	-0.1
826.467	0.51
826.638	0.38
826.809	-0.77
826.98	0.05
827.15	-0.52
827.321	-0.32
827.492	0.98
827.662	-0.27
827.833	0.44
828.003	0.54
828.174	-0.61
828.345	-1.07
828.515	0.62
828.686	-0.06
828.856	0.25
829.027	0.12
829.197	0.52
829.368	0.3
829.538	-0.39
829.709	-0.64
829.879	-0.22
830.049	-0.44
830.22	-0.19
830.39	0.14
830.56	0.08
830.731	-0.25
830.901	-0.37
831.072	0.04
831.242	0.32
831.412	0.46
831.582	-0.34
831.753	-0.88
831.923	0.4
832.093	0.23
832.263	0.17
832.434	-0.93
832.604	-0.62
832.774	0.48
832.944	-0.59
833.114	-0.07
833.284	-0.13
833.454	-0.45
833.624	-1.11
833.795	-0.55
833.965	0.71
834.135	0.7
834.305	-0.67
834.475	-0.78
834.645	0.17
834.815	-0.28
834.985	-0.84
835.155	-1.06
835.325	0.43
835.494	-0.47
835.664	-0.26
835.834	-0.6
836.004	0.7
836.174	0.11
836.344	-0.09
836.514	-0.96
836.684	-0.74
836.853	0.54
837.023	0.22
837.193	-0.62
837.363	0.82
837.532	0.64
837.702	-0.03
837.872	-0.52
838.041	0.84
838.211	0.71
838.381	-1
838.55	-0.66
838.72	1.81
838.89	1.05
839.059	-0.05
839.229	-0.21
839.398	0.28
839.568	0.06
839.738	-0.18
839.907	-0.09
840.077	0.28
840.246	-0.48
840.416	-1.12
840.585	-0.95
840.755	1.7
840.924	0.96
841.093	-0.85
841.263	0.1
841.432	-0.46
841.602	-1.33
841.771	-0.19
841.94	-0.14
842.11	1.21
842.279	1.5
842.448	-0.81
842.617	-0.52
842.787	0.49
842.956	-0.74
843.125	0.15
843.294	0.22
843.464	0.52
843.633	-0.62
843.802	-1.15
843.971	-0.04
844.14	0.11
844.309	0.38
844.479	-1.14
844.648	-1.61
844.817	-0.81
844.986	0.53
845.155	0
845.324	-0.2
845.493	-1.03
845.662	-0.53
845.831	0.83
846	0.68
846.169	-0.52
846.338	0.62
846.507	0.33
846.676	-0.43
846.844	0.05
847.013	0.11
847.182	-0.16
847.351	-1.03
847.52	0.03
847.689	-0.1
847.858	0.07
848.026	-0.76
848.195	-0.68
848.364	-0.58
848.533	0.17
848.701	-0.62
848.87	-0.95
849.039	-0.08
849.207	1.11
849.376	1.16
849.545	1.45
849.713	-0.04
849.882	-0.52
850.051	-0.62
850.219	-0.04
850.388	0.84
850.556	-1.8
850.725	-0.81
850.893	-0.06
851.062	-0.11
851.23	0.35
851.399	-1.3
851.567	-1.08
851.736	-0.04
851.904	-1.1
852.073	-0.75
852.241	0.88
852.41	-0.01
852.578	0.31
852.746	-0.7
852.915	0.76
853.083	-0.3
853.251	-1.03
853.42	-0.65
853.588	0.47
853.756	0.67
853.924	-0.06
854.093	0.23
854.261	-0.31
854.429	-1.73
854.597	-0.01
854.765	-0.96
854.934	1
855.102	0.99
855.27	-0.12
855.438	-0.19
855.606	0.34
855.774	0.66
855.942	-1
856.11	-1.6
856.278	0.99
856.446	0.31
856.614	-0.34
856.782	-0.71
856.95	1.2
857.118	0.85
857.286	-0.34
857.454	-0.91
857.622	0.16
857.79	0.44
857.958	-1.67
858.126	0
858.294	-2.6
858.462	0.21
858.629	-0.82
858.797	-0.92
858.965	1.02
859.133	-0.01
859.301	-0.38
859.468	-0.45
859.636	-1.87
859.804	2.03
859.971	0.27
860.139	-0.12
860.307	0.39
860.474	0.01
860.642	-1.48
860.81	-0.31
860.977	-0.64
861.145	0.29
861.313	-1.33
861.48	-0.45
861.648	0.08
861.815	0.29
861.983	-1.6
862.15	0.47
862.318	-0.54
862.485	2.05
862.653	-0.63
862.82	0.44
862.988	1.33
863.155	0.56
863.322	-0.19
863.49	-1.18
863.657	-0.01
863.824	1.8
863.992	1.56
864.159	0.83
864.326	2.44
864.494	-0.33
864.661	2.49
864.828	-0.65
864.996	2.34
865.163	0.02
865.33	-1.47
865.497	-2.53
865.664	0.91
865.832	-2.69
865.999	-1.26
866.166	-1.25
866.333	-2.03
866.5	-1.11
866.667	0.47
866.834	0.38
867.001	1.22
867.168	-2.44
867.335	-0.12
867.502	-1.69
867.669	0.25
867.836	1.96
868.003	-0.06
868.17	0.77
868.337	-1.18
868.504	2.92
868.671	-1.6
868.838	-1.25
869.005	0.19
869.172	1.08
869.339	0.93
869.505	-0.71
869.672	-0.16
869.839	0.49
870.006	-0.27
870.173	-1.09
870.339	0.58
870.506	2.31
870.673	-2.16
870.84	0.13
871.006	0.6
871.173	-0.11
871.34	0.35
871.506	-1.62
871.673	-1.25
871.839	0.2
872.006	-0.59
872.173	-0.41
872.339	-0.81
872.506	1.49
872.672	0.45
872.839	-2.7
873.005	-0.17
873.172	2.1
873.338	1.07
873.505	0.19
873.671	1.13
873.838	-0.98
874.004	-2.16
874.171	-1.54
874.337	-0.08
874.503	1.75
874.67	0.09
874.836	-2.29
875.002	1.64
875.169	1.36
875.335	-0.16
875.501	0.33
875.668	1.2
875.834	0.76
876	0.39
876.166	0.88
876.332	2.46
876.499	2.13
876.665	-1.07
876.831	0.26
876.997	3.61
877.163	0.04
877.329	-1.13
877.495	1.74
877.662	0.42
877.828	0.26
877.994	-0.07
878.16	-3.62
878.326	-0.07
878.492	-0.46
878.658	-0.04
878.824	-0.85
878.99	1.36
879.156	0.62
879.322	3.31
879.487	-1.59
879.653	1.12
879.819	-0.78
879.985	-1.5
880.151	-0.05
880.317	0.36
880.483	-1.12
880.648	1.16
880.814	-2.84
880.98	1.52
881.146	-3.47
881.312	0.11
881.477	-1.03
881.643	1.2
881.809	1.81
881.974	1.64
882.14	-2.7
882.306	0.47
882.471	1.94
882.637	0.02
882.803	0.9
882.968	2.62
883.134	2.11
883.299	-1.05
883.465	-0.15
883.63	2
883.796	0.71
883.961	0.98
884.127	0.97
884.292	-5.49
884.458	-3.1
884.623	-3.1
