Data from Apollo_Calib_20240827__AbsoluteIrradiance__532__08-01-02-749.txt Node

Date: Wed Aug 28 08:01:02 BST 2024
User: biology
Spectrometer: FLMT08252
Trigger mode: 0
Integration Time (sec): 5.000000E-1
Scans to average: 5
Electric dark correction enabled: true
Nonlinearity correction enabled: false
Boxcar width: 0
XAxis mode: Wavelengths
Number of Pixels in Spectrum: 3648
>>>>>Begin Spectral Data<<<<<
179.588	-0
179.809	-0
180.03	-0
180.251	-0
180.473	-0
180.694	0
180.915	0
181.136	0
181.357	0
181.578	-0
181.799	-0
182.02	-0
182.241	0
182.462	-0
182.683	0
182.904	-0
183.125	-0
183.346	-0
183.567	-0
183.788	-0
184.009	-0
184.23	0
184.451	0
184.672	-0
184.892	-0
185.113	0
185.334	0
185.555	-0
185.776	-0
185.996	0
186.217	-0
186.438	0
186.659	-0
186.879	0
187.1	0
187.321	-0
187.541	-0
187.762	-0
187.983	-0
188.203	-0
188.424	-0
188.644	-0
188.865	0
189.086	-0
189.306	-0
189.527	0
189.747	-0
189.968	-0
190.188	0
190.409	-0
190.629	0
190.849	-0
191.07	-0
191.29	0
191.511	-0
191.731	-0
191.951	-0
192.172	0
192.392	-0
192.612	-0
192.833	-0
193.053	0
193.273	0
193.493	-0
193.714	-0
193.934	0
194.154	0
194.374	0
194.594	-0
194.815	-0
195.035	0
195.255	-0
195.475	-0
195.695	0
195.915	-0
196.135	-0
196.355	0
196.575	0
196.795	-0
197.015	-0
197.235	-0
197.455	-0
197.675	-0
197.895	-0
198.115	-0
198.335	0
198.555	0
198.775	-0
198.995	0
199.214	0
199.434	-0
199.654	-0
199.874	-0
200.094	0.46
200.313	0.3
200.533	-0.86
200.753	-0.68
200.973	0.47
201.192	0.34
201.412	-0.91
201.632	-0.25
201.851	0.88
202.071	-0.39
202.291	-0.43
202.51	-0.88
202.73	-0.09
202.95	-0.16
203.169	-0.69
203.389	-0.37
203.608	0.44
203.828	-0.6
204.047	-0.34
204.267	0.03
204.486	0.3
204.706	0.21
204.925	-0.28
205.145	-0.09
205.364	0.36
205.583	0.27
205.803	-0.18
206.022	-0.52
206.242	0.12
206.461	0.07
206.68	-0.46
206.9	-0.07
207.119	0.2
207.338	0.45
207.557	-0.35
207.777	-0.08
207.996	0.01
208.215	0.17
208.434	-0.26
208.654	-0.57
208.873	0.03
209.092	0.14
209.311	-0.36
209.53	0.09
209.749	-0.28
209.968	-0.32
210.187	-0.32
210.407	-0.37
210.626	-0.06
210.845	-0.25
211.064	0.16
211.283	-0.29
211.502	0.13
211.721	-0.11
211.94	-0.18
212.159	0.03
212.377	0.03
212.596	0.34
212.815	-0.19
213.034	0.09
213.253	0.14
213.472	-0.02
213.691	-0.33
213.91	-0.26
214.128	-0.24
214.347	0.12
214.566	-0.53
214.785	-0.33
215.003	0.2
215.222	-0.08
215.441	0.13
215.66	-0.2
215.878	-0.14
216.097	0.19
216.316	-0.33
216.534	-0.24
216.753	-0.04
216.972	-0.05
217.19	-0.07
217.409	-0.25
217.627	-0.3
217.846	-0.12
218.064	-0.07
218.283	-0.18
218.501	0.17
218.72	0.21
218.938	-0.15
219.157	-0.23
219.375	0.09
219.594	0.05
219.812	-0.14
220.031	-0.1
220.249	0.24
220.467	0.25
220.686	-0.06
220.904	-0.3
221.122	-0.2
221.341	0.36
221.559	-0.07
221.777	-0.16
221.995	-0.03
222.214	0.15
222.432	-0.11
222.65	0.07
222.868	0.07
223.086	0.05
223.305	0.04
223.523	-0.09
223.741	0.13
223.959	-0.35
224.177	-0.35
224.395	-0.13
224.613	-0.06
224.831	0.19
225.049	-0.06
225.267	-0.17
225.485	-0.03
225.703	-0.23
225.921	-0.01
226.139	-0.06
226.357	0.13
226.575	-0.02
226.793	-0.16
227.011	0.41
227.229	0.04
227.447	-0.03
227.665	-0.17
227.883	-0.13
228.1	-0.06
228.318	0.03
228.536	-0.27
228.754	-0.07
228.972	0.04
229.189	0.06
229.407	0.01
229.625	-0.11
229.843	-0.03
230.06	-0.17
230.278	-0.11
230.496	0.03
230.713	-0.06
230.931	0.14
231.149	-0.03
231.366	-0.16
231.584	-0.05
231.801	0.43
232.019	-0.07
232.236	-0.18
232.454	-0.12
232.671	-0
232.889	0
233.106	-0.11
233.324	-0.05
233.541	-0.04
233.759	-0.08
233.976	-0.06
234.194	-0.14
234.411	-0.05
234.628	-0.06
234.846	-0.09
235.063	0.01
235.28	-0.04
235.498	-0.02
235.715	-0.13
235.932	0.05
236.149	-0
236.367	-0.11
236.584	-0.03
236.801	-0.08
237.018	0.11
237.236	0.05
237.453	-0.2
237.67	0.02
237.887	-0.15
238.104	0.02
238.321	-0.14
238.538	-0.08
238.755	-0.05
238.973	-0.14
239.19	-0.04
239.407	-0
239.624	-0.06
239.841	-0.13
240.058	-0.11
240.275	-0.01
240.492	0.01
240.709	-0.01
240.925	-0.08
241.142	-0.02
241.359	-0.08
241.576	-0.12
241.793	-0.11
242.01	0.02
242.227	0.05
242.444	0.03
242.66	0.05
242.877	-0.04
243.094	-0.12
243.311	0.01
243.527	-0.11
243.744	0.05
243.961	0
244.178	-0.07
244.394	-0.07
244.611	0.15
244.828	0.18
245.044	-0.19
245.261	-0.04
245.477	-0.06
245.694	-0.03
245.911	-0.15
246.127	-0
246.344	0.08
246.56	0.06
246.777	-0.03
246.993	-0.06
247.21	0.01
247.426	0.07
247.643	-0.04
247.859	-0.08
248.076	-0.07
248.292	0.11
248.508	-0.08
248.725	0.02
248.941	-0.04
249.157	0.04
249.374	-0.02
249.59	-0.12
249.806	-0.04
250.023	0.05
250.239	-0.07
250.455	-0.12
250.671	-0.08
250.888	-0.01
251.104	0.09
251.32	-0.08
251.536	-0.05
251.752	-0.06
251.969	-0.04
252.185	0.05
252.401	0.16
252.617	0.07
252.833	-0.01
253.049	-0.01
253.265	-0.01
253.481	0.06
253.697	-0.03
253.913	-0.08
254.129	0.04
254.345	-0.08
254.561	-0.02
254.777	0
254.993	0.04
255.209	-0.03
255.425	0.01
255.641	-0.07
255.857	0.05
256.073	0.07
256.288	-0.12
256.504	-0.13
256.72	0.04
256.936	0.09
257.152	-0.05
257.367	-0.01
257.583	-0.03
257.799	0.07
258.015	-0.04
258.23	-0.07
258.446	0.04
258.662	-0
258.877	-0.08
259.093	-0.1
259.309	0.03
259.524	-0.04
259.74	-0.08
259.955	-0.12
260.171	-0.04
260.387	-0.04
260.602	0.05
260.818	0.05
261.033	-0.05
261.249	-0.03
261.464	-0.05
261.68	-0.13
261.895	0.04
262.11	0.09
262.326	-0.09
262.541	-0.14
262.757	0.02
262.972	0.05
263.187	0.01
263.403	0.01
263.618	0.05
263.833	0.05
264.049	-0.04
264.264	0.04
264.479	0.07
264.694	0.06
264.91	-0.14
265.125	-0.05
265.34	0.04
265.555	0.14
265.77	-0.04
265.986	-0.03
266.201	-0.01
266.416	0.07
266.631	-0.04
266.846	0.04
267.061	0.03
267.276	0.01
267.491	-0.13
267.706	0.03
267.921	-0
268.136	-0.02
268.351	-0.01
268.566	-0.1
268.781	0.1
268.996	-0.02
269.211	0
269.426	-0.06
269.641	-0.01
269.856	0.05
270.071	-0.07
270.285	-0.03
270.5	0.11
270.715	0.04
270.93	0.02
271.145	-0.05
271.359	0.05
271.574	-0.06
271.789	-0.01
272.004	-0.05
272.218	-0.08
272.433	0.01
272.648	-0.06
272.862	0.07
273.077	0.03
273.292	0.01
273.506	0.01
273.721	-0.06
273.936	0.05
274.15	0.02
274.365	-0.05
274.579	-0.02
274.794	-0.01
275.008	0.03
275.223	-0.13
275.437	-0.02
275.652	0.03
275.866	-0.01
276.081	-0.04
276.295	0.03
276.509	0.02
276.724	-0.05
276.938	-0.03
277.153	0.01
277.367	0.02
277.581	-0.04
277.796	-0.06
278.01	-0.06
278.224	0.02
278.438	0.06
278.653	-0.08
278.867	-0.02
279.081	0
279.295	-0.06
279.51	0
279.724	-0.08
279.938	-0.02
280.152	-0.01
280.366	-0.07
280.58	-0
280.794	0.02
281.008	0.03
281.222	0.04
281.437	0.08
281.651	0.01
281.865	0.08
282.079	0.02
282.293	-0.13
282.507	-0.06
282.721	-0.04
282.935	0.01
283.148	-0.1
283.362	-0.03
283.576	-0.06
283.79	-0.02
284.004	-0.09
284.218	0.05
284.432	-0.07
284.646	0.02
284.859	-0.04
285.073	-0.01
285.287	0.04
285.501	-0.03
285.714	-0.05
285.928	0.01
286.142	-0.07
286.356	-0.05
286.569	-0.05
286.783	0.07
286.997	0
287.21	0.01
287.424	-0
287.637	-0.02
287.851	-0.02
288.065	-0
288.278	-0.03
288.492	-0.02
288.705	-0.04
288.919	0.02
289.132	-0.06
289.346	0.03
289.559	-0.05
289.773	-0.08
289.986	0.03
290.2	-0
290.413	0.05
290.626	-0.06
290.84	-0.03
291.053	-0.05
291.267	0.03
291.48	-0.04
291.693	0
291.906	-0.04
292.12	-0.02
292.333	-0.06
292.546	-0
292.76	0.07
292.973	0.01
293.186	0.04
293.399	0
293.612	0.04
293.826	-0
294.039	0.02
294.252	0
294.465	0.06
294.678	0.01
294.891	0.01
295.104	-0.02
295.317	0.03
295.53	0.02
295.743	-0.05
295.956	-0.05
296.169	0.09
296.382	0.03
296.595	-0.02
296.808	-0.05
297.021	0.04
297.234	0.06
297.447	0.02
297.66	0.02
297.873	0.05
298.086	0.03
298.299	0.02
298.511	-0.02
298.724	-0.04
298.937	-0.04
299.15	-0.06
299.363	0.03
299.575	0.02
299.788	0.03
300.001	-0.02
300.213	-0.07
300.426	-0.01
300.639	-0.05
300.852	-0.02
301.064	0.06
301.277	0.08
301.489	0.02
301.702	0.01
301.915	-0.03
302.127	-0.05
302.34	0.02
302.552	-0.01
302.765	-0.03
302.977	0.03
303.19	0
303.402	-0.07
303.615	-0.01
303.827	-0.07
304.04	0
304.252	0.03
304.464	-0.01
304.677	0.09
304.889	0.08
305.102	-0.02
305.314	-0.03
305.526	0.07
305.739	0.02
305.951	-0.02
306.163	-0.02
306.375	0.09
306.588	-0.03
306.8	-0.04
307.012	-0.03
307.224	0
307.436	0.04
307.649	-0.05
307.861	-0
308.073	0.01
308.285	-0.01
308.497	-0.03
308.709	-0.01
308.921	-0
309.133	0.05
309.346	-0.02
309.558	0.03
309.77	0.03
309.982	0.04
310.194	0
310.406	-0.02
310.617	0.12
310.829	-0.01
311.041	-0
311.253	-0.05
311.465	0
311.677	-0
311.889	-0.01
312.101	-0.04
312.313	0.02
312.524	0.03
312.736	-0.05
312.948	-0
313.16	0.04
313.372	-0
313.583	0.04
313.795	-0.05
314.007	-0
314.218	0.05
314.43	0.01
314.642	-0.06
314.853	-0.03
315.065	0.02
315.277	-0.07
315.488	-0
315.7	0.06
315.912	0.02
316.123	-0.05
316.335	0
316.546	0.03
316.758	0
316.969	-0.01
317.181	0.02
317.392	-0.03
317.604	-0.01
317.815	-0.07
318.026	-0.01
318.238	0.03
318.449	0.01
318.661	-0.06
318.872	-0.05
319.083	-0.06
319.295	0.03
319.506	-0.04
319.717	0.01
319.929	0.03
320.14	-0.06
320.351	0.02
320.562	-0.01
320.774	0.02
320.985	-0.01
321.196	-0.05
321.407	-0.09
321.618	0.03
321.829	-0
322.041	-0.02
322.252	0.02
322.463	0.02
322.674	0.03
322.885	-0.05
323.096	0.01
323.307	0
323.518	-0.03
323.729	-0.03
323.94	0
324.151	-0.01
324.362	-0.02
324.573	-0.01
324.784	-0.05
324.995	0.03
325.206	0.01
325.417	-0.01
325.628	-0.03
325.838	-0.01
326.049	-0.01
326.26	0.01
326.471	-0.04
326.682	0.03
326.892	-0
327.103	-0.1
327.314	-0.06
327.525	0.07
327.735	0.02
327.946	-0
328.157	-0.05
328.368	-0.01
328.578	0.02
328.789	0.03
328.999	-0.01
329.21	-0.01
329.421	-0
329.631	-0.04
329.842	-0.05
330.052	-0.01
330.263	0.03
330.473	0.04
330.684	-0.04
330.894	-0
331.105	0
331.315	0
331.526	-0.11
331.736	0.06
331.947	0.02
332.157	0
332.367	-0.03
332.578	0.07
332.788	0.07
332.999	0.02
333.209	0.02
333.419	-0.06
333.629	0.01
333.84	0.03
334.05	-0.01
334.26	0.06
334.47	0.05
334.681	0.02
334.891	-0.04
335.101	0.07
335.311	0.09
335.521	0.02
335.732	-0.08
335.942	0.05
336.152	0.01
336.362	0.03
336.572	0.01
336.782	0.02
336.992	-0.02
337.202	-0.06
337.412	-0.05
337.622	0.02
337.832	-0.02
338.042	0.01
338.252	-0.05
338.462	0.02
338.672	0.01
338.882	-0.05
339.092	-0
339.302	0.06
339.511	-0.01
339.721	-0.03
339.931	-0.04
340.141	0
340.351	0.09
340.561	0
340.77	0
340.98	0.02
341.19	0.01
341.4	-0.01
341.609	-0.06
341.819	-0.01
342.029	-0.08
342.238	0.03
342.448	-0.06
342.658	0.01
342.867	-0.03
343.077	0.01
343.286	-0.01
343.496	0.03
343.706	0.07
343.915	-0.07
344.125	-0.03
344.334	0.02
344.544	-0.07
344.753	0.03
344.963	-0.03
345.172	-0.01
345.381	-0.02
345.591	-0
345.8	-0.03
346.01	0.07
346.219	0.01
346.428	-0.11
346.638	0
346.847	-0.03
347.056	0.04
347.266	-0
347.475	-0.03
347.684	-0
347.893	0.03
348.103	0.02
348.312	-0.05
348.521	-0.05
348.73	-0.01
348.94	-0
349.149	-0.05
349.358	-0.02
349.567	-0.02
349.776	-0.02
349.985	-0.03
350.194	0.04
350.403	0.01
350.612	-0.06
350.821	-0.05
351.03	0.03
351.239	-0.06
351.448	-0.03
351.657	-0.03
351.866	0.07
352.075	-0.01
352.284	0.03
352.493	-0.06
352.702	-0.02
352.911	0
353.12	-0.01
353.329	0.03
353.538	-0
353.746	-0.02
353.955	-0.02
354.164	0.02
354.373	-0.01
354.582	0.01
354.79	0.03
354.999	0.03
355.208	-0.01
355.416	0.05
355.625	-0.08
355.834	-0.04
356.042	0.02
356.251	0.02
356.46	-0.05
356.668	0.03
356.877	0.06
357.085	0.04
357.294	-0.1
357.503	-0
357.711	-0
357.92	0.11
358.128	0.01
358.337	-0.08
358.545	0.01
358.754	-0.06
358.962	0.03
359.17	-0
359.379	0.02
359.587	0.02
359.796	0
360.004	0.07
360.212	0.03
360.421	0.02
360.629	-0.06
360.837	-0.03
361.046	0.02
361.254	0.05
361.462	0.01
361.67	0
361.879	-0.04
362.087	0.09
362.295	0.04
362.503	-0.01
362.711	-0.03
362.92	-0.04
363.128	-0.03
363.336	-0.07
363.544	-0.05
363.752	-0.02
363.96	-0.04
364.168	-0.01
364.376	0.02
364.584	-0.02
364.792	0
365	0.04
365.208	-0.02
365.416	0.02
365.624	0.03
365.832	-0.01
366.04	0.03
366.248	-0.02
366.456	-0.01
366.664	-0.02
366.872	-0.04
367.079	0.04
367.287	-0.01
367.495	0.01
367.703	-0.01
367.911	-0.05
368.118	-0.04
368.326	-0.01
368.534	-0.06
368.742	0.03
368.949	-0.07
369.157	-0.02
369.365	0.04
369.572	-0.01
369.78	-0.02
369.988	0.03
370.195	-0
370.403	-0
370.61	-0.03
370.818	0.01
371.026	0.05
371.233	-0.04
371.441	-0.02
371.648	-0.02
371.856	0.04
372.063	0.01
372.271	-0.06
372.478	-0.02
372.685	-0.02
372.893	0
373.1	-0.02
373.308	-0.04
373.515	0.07
373.722	0.01
373.93	-0.05
374.137	0.05
374.344	0.06
374.552	0.04
374.759	-0.02
374.966	0.01
375.173	-0.03
375.381	0.04
375.588	-0.01
375.795	-0.08
376.002	-0.01
376.209	-0.07
376.417	-0.02
376.624	0.01
376.831	-0.01
377.038	-0.01
377.245	-0.07
377.452	-0.03
377.659	0
377.866	-0.06
378.073	0
378.28	0.02
378.487	0.03
378.694	-0.02
378.901	-0.01
379.108	-0.02
379.315	0.01
379.522	0.05
379.729	0.04
379.936	-0.04
380.143	-0.01
380.35	-0.05
380.557	0.01
380.763	0.03
380.97	-0.01
381.177	0.03
381.384	0.02
381.591	-0.03
381.797	0.01
382.004	0.02
382.211	0.02
382.418	-0
382.624	0.03
382.831	0.03
383.038	-0.03
383.244	-0
383.451	-0.02
383.658	-0.02
383.864	0.03
384.071	-0.03
384.277	0.05
384.484	-0.06
384.69	0.01
384.897	-0.04
385.103	0
385.31	-0.05
385.516	-0.02
385.723	-0.01
385.929	-0.01
386.136	-0.04
386.342	-0.01
386.549	-0.03
386.755	0.06
386.961	0.04
387.168	-0.02
387.374	0.02
387.58	0
387.787	-0.03
387.993	-0
388.199	-0.04
388.406	-0.03
388.612	-0.02
388.818	-0.06
389.024	-0.01
389.231	-0.03
389.437	0.02
389.643	0.03
389.849	0.02
390.055	0.02
390.261	-0.01
390.467	-0.02
390.674	-0.07
390.88	-0
391.086	-0.01
391.292	-0.05
391.498	0.04
391.704	0.06
391.91	0
392.116	-0
392.322	-0.13
392.528	-0.03
392.734	-0.02
392.94	0.01
393.146	-0.04
393.352	-0.01
393.557	-0.04
393.763	-0.02
393.969	0.01
394.175	-0.01
394.381	0.02
394.587	-0.03
394.792	-0.02
394.998	0.03
395.204	0.05
395.41	-0.07
395.615	0.03
395.821	0.02
396.027	0.05
396.233	-0.06
396.438	0.01
396.644	0.08
396.85	0
397.055	-0.04
397.261	-0.01
397.466	-0.04
397.672	-0.02
397.878	0.06
398.083	-0.02
398.289	-0.07
398.494	0.04
398.7	0.02
398.905	-0.07
399.111	0.02
399.316	-0.08
399.522	-0.02
399.727	-0
399.932	-0.07
400.138	-0.03
400.343	0.01
400.549	0.03
400.754	0.01
400.959	0
401.165	-0.02
401.37	-0.04
401.575	0.09
401.78	-0.02
401.986	-0.04
402.191	0.01
402.396	-0.04
402.601	-0.01
402.807	0
403.012	0.01
403.217	0.03
403.422	-0.01
403.627	-0.03
403.832	-0.03
404.037	0.02
404.243	0.08
404.448	-0
404.653	-0.01
404.858	-0
405.063	0.01
405.268	-0.02
405.473	-0.06
405.678	-0.04
405.883	0.14
406.088	0.01
406.293	-0.06
406.498	-0.03
406.703	0.02
406.907	0.01
407.112	-0.07
407.317	-0.01
407.522	0.03
407.727	-0.09
407.932	0.01
408.136	0.06
408.341	-0.03
408.546	-0
408.751	-0.04
408.956	-0.03
409.16	0.03
409.365	0
409.57	-0.01
409.774	-0.01
409.979	0.04
410.184	-0.01
410.388	-0.02
410.593	-0.01
410.798	-0.05
411.002	-0.01
411.207	0.03
411.411	-0.03
411.616	-0.09
411.82	0
412.025	0.04
412.229	-0.03
412.434	0.05
412.638	0.01
412.843	-0.04
413.047	-0.03
413.252	-0.04
413.456	-0.08
413.66	0.02
413.865	-0.03
414.069	0.06
414.273	-0.02
414.478	-0.03
414.682	-0.03
414.886	-0.06
415.091	-0.07
415.295	-0.07
415.499	-0.01
415.703	-0.02
415.908	0.03
416.112	-0.08
416.316	0.03
416.52	-0.04
416.724	-0.07
416.929	-0.06
417.133	0.07
417.337	-0.02
417.541	-0.05
417.745	0
417.949	0.01
418.153	0.01
418.357	-0.08
418.561	0.06
418.765	-0.04
418.969	0.07
419.173	0.02
419.377	-0.03
419.581	0.05
419.785	-0.06
419.989	-0.11
420.193	-0.07
420.397	-0.07
420.601	-0.02
420.804	0.06
421.008	-0.03
421.212	-0.02
421.416	0.02
421.62	-0.05
421.823	0.01
422.027	0.03
422.231	0
422.435	-0.02
422.638	0.02
422.842	-0.01
423.046	-0.02
423.249	0.03
423.453	0.02
423.657	-0.02
423.86	-0.02
424.064	-0.04
424.268	0.03
424.471	-0.01
424.675	0.06
424.878	0.06
425.082	-0.02
425.285	0.06
425.489	-0.02
425.692	-0.01
425.896	-0.03
426.099	0
426.303	-0.04
426.506	-0.07
426.71	-0.01
426.913	0.05
427.116	0.07
427.32	-0.02
427.523	-0.03
427.726	0.05
427.93	-0.03
428.133	-0.03
428.336	-0.07
428.54	-0.08
428.743	0.03
428.946	0.01
429.149	-0
429.353	0.03
429.556	-0.06
429.759	0.02
429.962	-0.06
430.165	-0.01
430.368	-0.06
430.571	-0.01
430.775	0.01
430.978	-0.01
431.181	0.02
431.384	0.02
431.587	-0.03
431.79	0
431.993	0.01
432.196	-0.05
432.399	-0
432.602	0.07
432.805	-0
433.008	-0.05
433.211	-0.04
433.414	0.02
433.616	0.03
433.819	-0.01
434.022	-0.07
434.225	0.06
434.428	-0.01
434.631	0.07
434.833	-0.01
435.036	-0.06
435.239	0.06
435.442	0
435.645	-0.04
435.847	0.04
436.05	0.02
436.253	0.04
436.455	-0.05
436.658	-0.02
436.861	0.05
437.063	-0
437.266	-0.01
437.468	0.02
437.671	0.11
437.874	-0.04
438.076	-0.06
438.279	-0.09
438.481	-0.04
438.684	-0.05
438.886	-0.02
439.089	-0.1
439.291	-0.06
439.494	0.01
439.696	-0.09
439.899	-0.01
440.101	-0.03
440.303	-0.09
440.506	0.01
440.708	-0
440.91	-0.03
441.113	-0.06
441.315	0.06
441.517	-0.05
441.72	0
441.922	-0.05
442.124	-0.05
442.326	0.04
442.529	0.07
442.731	-0.08
442.933	0.08
443.135	-0.04
443.337	-0.06
443.539	-0.04
443.742	-0.03
443.944	-0.01
444.146	-0.07
444.348	-0.03
444.55	-0.08
444.752	-0.02
444.954	-0.06
445.156	-0.03
445.358	-0.06
445.56	-0
445.762	-0.06
445.964	-0.07
446.166	-0.03
446.368	-0.02
446.57	-0.01
446.772	-0.04
446.974	0.03
447.175	0.01
447.377	-0.1
447.579	-0.07
447.781	-0.12
447.983	0.09
448.184	-0
448.386	0
448.588	-0.07
448.79	0.02
448.991	-0.06
449.193	-0.03
449.395	-0.02
449.597	0.04
449.798	-0.05
450	-0.01
450.202	-0.01
450.403	0.02
450.605	0.01
450.806	-0.02
451.008	-0.09
451.21	0
451.411	-0.02
451.613	-0.01
451.814	-0.03
452.016	0
452.217	-0.01
452.419	0.02
452.62	-0.01
452.821	0.02
453.023	0.03
453.224	-0.01
453.426	0
453.627	0.02
453.828	0
454.03	-0.03
454.231	0.07
454.432	-0.06
454.634	0.02
454.835	0
455.036	-0.09
455.238	0.04
455.439	0.05
455.64	-0.07
455.841	-0.06
456.042	0.05
456.244	0.01
456.445	-0.09
456.646	-0.06
456.847	-0.05
457.048	0.03
457.249	0
457.45	0.18
457.651	-0.1
457.852	0.03
458.054	0.01
458.255	-0.01
458.456	0.02
458.657	-0.01
458.858	-0.07
459.058	-0.02
459.259	0.05
459.46	0
459.661	-0.06
459.862	0.1
460.063	-0.06
460.264	-0
460.465	-0.05
460.666	0.06
460.866	0
461.067	0.03
461.268	-0.06
461.469	-0.05
461.67	0.01
461.87	0.02
462.071	-0.02
462.272	-0.01
462.473	0
462.673	0.05
462.874	-0.07
463.075	-0.02
463.275	-0.04
463.476	0.01
463.676	0
463.877	-0.03
464.078	-0.04
464.278	0.01
464.479	-0.04
464.679	-0.02
464.88	-0.03
465.08	0.05
465.281	-0.03
465.481	-0.05
465.682	-0.01
465.882	0.03
466.083	-0.02
466.283	0.01
466.483	-0.01
466.684	-0.06
466.884	-0.05
467.085	-0.01
467.285	0.05
467.485	-0.06
467.686	-0.05
467.886	-0.05
468.086	-0.01
468.286	0.01
468.487	-0
468.687	-0.03
468.887	0
469.087	-0
469.287	-0.01
469.488	-0.06
469.688	0.03
469.888	0.05
470.088	0.02
470.288	0.05
470.488	0.03
470.688	-0.08
470.888	0
471.088	-0.02
471.288	0.02
471.488	0.02
471.688	0.03
471.888	-0.06
472.088	0.06
472.288	0.02
472.488	-0.03
472.688	-0.04
472.888	-0.01
473.088	-0.04
473.288	-0.02
473.488	-0.01
473.688	0.05
473.887	0
474.087	-0.03
474.287	-0.01
474.487	-0.01
474.687	-0.01
474.886	-0.03
475.086	0.01
475.286	0
475.486	-0
475.685	-0.03
475.885	-0.02
476.085	-0.03
476.284	0.04
476.484	-0.04
476.684	-0
476.883	0.03
477.083	-0.01
477.282	0.02
477.482	0.04
477.681	0.03
477.881	-0
478.08	-0.05
478.28	-0.03
478.479	0.02
478.679	0.05
478.878	-0.02
479.078	-0.05
479.277	0.01
479.477	-0.03
479.676	0.05
479.875	-0
480.075	-0.08
480.274	0.02
480.473	0.01
480.673	-0.03
480.872	-0
481.071	-0.01
481.271	0.01
481.47	-0.02
481.669	-0.02
481.868	-0.03
482.067	-0.05
482.267	-0.04
482.466	-0.03
482.665	-0.04
482.864	-0.02
483.063	-0.04
483.262	0.04
483.461	0.03
483.661	0.01
483.86	-0.02
484.059	0.01
484.258	-0
484.457	-0.01
484.656	-0
484.855	0.03
485.054	-0.05
485.253	-0.03
485.452	-0.06
485.651	-0.02
485.849	-0.02
486.048	-0.04
486.247	-0.04
486.446	0
486.645	-0.04
486.844	-0.03
487.043	-0.01
487.241	-0
487.44	-0.03
487.639	0.01
487.838	0.04
488.037	0.01
488.235	0.02
488.434	0.02
488.633	-0.02
488.831	-0
489.03	0.02
489.229	-0.01
489.427	0.01
489.626	0.03
489.825	0.03
490.023	0.01
490.222	0.01
490.42	0.02
490.619	0.01
490.817	0.02
491.016	-0.03
491.214	0.02
491.413	0.02
491.611	-0
491.81	-0.02
492.008	0.04
492.207	-0
492.405	0.02
492.604	-0.02
492.802	-0.01
493	0.01
493.199	-0.04
493.397	-0
493.595	-0.02
493.794	-0.03
493.992	0.03
494.19	-0.01
494.388	0.01
494.587	-0
494.785	-0.02
494.983	-0.04
495.181	-0.01
495.379	-0.03
495.578	-0.02
495.776	-0.01
495.974	0
496.172	-0.02
496.37	-0.03
496.568	-0.04
496.766	-0.01
496.964	0.04
497.162	-0.01
497.36	-0.04
497.558	-0
497.756	0.02
497.954	-0.01
498.152	-0.03
498.35	-0.01
498.548	-0.01
498.746	0
498.944	-0.02
499.142	0
499.34	-0.04
499.538	-0.01
499.736	-0.03
499.933	0.04
500.131	0.03
500.329	-0
500.527	0.01
500.725	0.01
500.922	0
501.12	-0.01
501.318	-0
501.516	-0.02
501.713	-0
501.911	-0.02
502.109	-0.04
502.306	0.01
502.504	-0.03
502.701	-0.03
502.899	-0.02
503.097	0.02
503.294	-0.01
503.492	-0
503.689	-0.01
503.887	0.02
504.084	0.04
504.282	-0
504.479	-0.04
504.677	0
504.874	-0.04
505.072	-0.01
505.269	-0.03
505.466	0.01
505.664	0
505.861	-0.03
506.059	-0.04
506.256	0.02
506.453	-0.01
506.651	0.03
506.848	0.01
507.045	-0.01
507.242	-0.01
507.44	-0.01
507.637	0
507.834	-0
508.031	0
508.229	-0.02
508.426	0
508.623	0.01
508.82	-0.03
509.017	-0.02
509.214	-0.02
509.411	-0.01
509.608	-0.03
509.805	-0.01
510.003	-0.03
510.2	-0.03
510.397	0.01
510.594	-0.04
510.791	-0.03
510.988	0
511.184	0.03
511.381	-0.01
511.578	-0.03
511.775	0.02
511.972	-0.03
512.169	-0.02
512.366	-0.01
512.563	0.02
512.76	-0.02
512.956	0.02
513.153	-0.02
513.35	0.02
513.547	-0.02
513.744	-0.02
513.94	-0.04
514.137	-0
514.334	-0.02
514.53	0.01
514.727	-0.01
514.924	0.03
515.12	-0.02
515.317	-0.03
515.514	-0.02
515.71	-0.03
515.907	-0.01
516.103	-0.02
516.3	0
516.497	0.03
516.693	0.01
516.89	-0.01
517.086	-0.03
517.283	0.04
517.479	0.02
517.676	0.01
517.872	-0.02
518.068	-0.01
518.265	-0.01
518.461	-0
518.658	-0.01
518.854	0
519.05	-0.02
519.247	-0.01
519.443	0.01
519.639	-0
519.836	0
520.032	0
520.228	-0
520.424	0.01
520.621	-0
520.817	-0.02
521.013	0.01
521.209	0.01
521.405	0.06
521.601	0.01
521.798	-0
521.994	0.02
522.19	-0.01
522.386	-0.03
522.582	0.01
522.778	0.01
522.974	-0
523.17	0
523.366	-0.02
523.562	0.02
523.758	-0.01
523.954	-0.03
524.15	-0
524.346	0.01
524.542	-0.02
524.738	-0.01
524.934	-0.02
525.129	-0.08
525.325	-0.01
525.521	0
525.717	0.01
525.913	-0.01
526.109	0
526.304	-0
526.5	0.01
526.696	0.02
526.892	-0.03
527.087	0
527.283	-0.04
527.479	0.01
527.674	-0.01
527.87	-0.01
528.066	-0.03
528.261	0
528.457	0.02
528.653	-0.01
528.848	-0.04
529.044	0.03
529.239	0.02
529.435	0.03
529.63	0.01
529.826	0.04
530.021	0
530.217	-0
530.412	-0.01
530.608	-0.03
530.803	-0.02
530.999	0
531.194	-0.05
531.389	0
531.585	-0.05
531.78	-0.03
531.975	-0.02
532.171	0.02
532.366	0
532.561	-0.01
532.757	-0.01
532.952	-0.01
533.147	0.01
533.342	-0
533.538	-0.02
533.733	0.02
533.928	-0.02
534.123	-0.02
534.318	-0.03
534.513	0.01
534.709	0.01
534.904	-0.01
535.099	-0.03
535.294	0.01
535.489	-0
535.684	-0.02
535.879	-0.03
536.074	-0.02
536.269	-0.03
536.464	0.01
536.659	-0
536.854	-0.02
537.049	0.02
537.244	-0
537.439	-0.02
537.634	0.02
537.828	-0.01
538.023	-0.01
538.218	-0.04
538.413	-0.01
538.608	-0.04
538.803	0.02
538.997	-0.02
539.192	0.02
539.387	0
539.582	-0
539.776	0.02
539.971	-0.03
540.166	-0
540.36	-0.04
540.555	0
540.75	-0.03
540.944	-0.01
541.139	-0.05
541.334	0
541.528	0.01
541.723	0.01
541.917	-0.01
542.112	-0.04
542.306	-0.01
542.501	-0.03
542.695	-0.01
542.89	-0.02
543.084	0.01
543.279	-0.01
543.473	-0.01
543.668	-0.02
543.862	0.01
544.056	0.01
544.251	-0.03
544.445	-0
544.64	0.02
544.834	-0.03
545.028	0.01
545.222	-0.01
545.417	0.02
545.611	0.01
545.805	-0.01
546	-0.02
546.194	-0
546.388	-0.03
546.582	0.01
546.776	-0.03
546.97	-0
547.165	0
547.359	0.04
547.553	-0.02
547.747	-0
547.941	-0.01
548.135	-0
548.329	0
548.523	0.02
548.717	-0.02
548.911	-0
549.105	-0.02
549.299	-0
549.493	0.02
549.687	-0
549.881	0
550.075	-0.01
550.269	-0.04
550.463	0
550.657	-0.03
550.85	-0.02
551.044	-0.03
551.238	-0.01
551.432	-0.01
551.626	-0.02
551.82	0.01
552.013	-0.01
552.207	0.01
552.401	0
552.594	0
552.788	-0.01
552.982	-0.01
553.176	-0
553.369	-0.01
553.563	-0
553.756	-0.04
553.95	-0.02
554.144	-0.02
554.337	0.01
554.531	0.01
554.724	0.01
554.918	-0.03
555.111	0.01
555.305	0.01
555.498	0.03
555.692	0.02
555.885	-0.02
556.079	0.01
556.272	-0.04
556.466	0
556.659	0.02
556.852	-0
557.046	-0.01
557.239	-0.01
557.432	-0.03
557.626	-0.04
557.819	0.02
558.012	0
558.206	-0.01
558.399	-0.02
558.592	0.02
558.785	-0.01
558.979	-0.01
559.172	-0
559.365	0.02
559.558	-0.01
559.751	0
559.944	-0.03
560.138	-0.01
560.331	-0.02
560.524	-0.03
560.717	-0
560.91	-0.01
561.103	-0.02
561.296	-0.01
561.489	-0
561.682	-0.01
561.875	0.02
562.068	0.01
562.261	0
562.454	0.03
562.647	-0
562.84	-0.01
563.032	-0.02
563.225	-0.01
563.418	-0.01
563.611	-0.02
563.804	-0.02
563.997	-0.01
564.19	-0.02
564.382	-0.09
564.575	-0.01
564.768	0.01
564.961	-0.02
565.153	-0.01
565.346	0.03
565.539	0.02
565.731	0.04
565.924	0.01
566.117	0.01
566.309	-0.01
566.502	-0
566.695	-0.01
566.887	-0.01
567.08	-0.02
567.272	-0.02
567.465	-0.03
567.657	0.01
567.85	0.02
568.042	0.01
568.235	0.03
568.427	0.02
568.62	-0
568.812	-0.01
569.005	0.01
569.197	-0.02
569.389	0
569.582	0.01
569.774	0.01
569.966	-0.04
570.159	-0.04
570.351	0.02
570.543	-0.02
570.736	0.01
570.928	-0.03
571.12	-0
571.312	-0.01
571.505	-0.02
571.697	0.03
571.889	-0.03
572.081	-0.02
572.273	-0.03
572.465	0.01
572.658	0.01
572.85	0
573.042	-0.03
573.234	-0.02
573.426	0.04
573.618	-0.02
573.81	-0
574.002	0.04
574.194	0.03
574.386	-0.03
574.578	-0.08
574.77	-0.02
574.962	-0.01
575.154	-0.03
575.346	-0.02
575.538	0.01
575.729	-0.02
575.921	-0.02
576.113	-0.02
576.305	0.03
576.497	-0.01
576.689	-0.01
576.88	-0.03
577.072	-0.01
577.264	-0.03
577.456	-0.02
577.647	-0.06
577.839	0.02
578.031	0.02
578.223	-0.04
578.414	-0.04
578.606	0.01
578.798	0
578.989	-0.03
579.181	-0.03
579.372	-0.02
579.564	-0.02
579.755	-0.01
579.947	0.02
580.139	0.01
580.33	-0.05
580.522	-0.02
580.713	-0.07
580.905	-0.01
581.096	0.01
581.287	-0.01
581.479	-0.02
581.67	-0.01
581.862	-0.01
582.053	-0.02
582.244	-0.05
582.436	0.01
582.627	-0.01
582.818	-0.02
583.01	-0.03
583.201	0.04
583.392	0.03
583.583	-0.01
583.775	0.02
583.966	-0.01
584.157	-0.01
584.348	-0.03
584.54	-0.06
584.731	-0.01
584.922	0
585.113	-0.02
585.304	-0.01
585.495	0.01
585.686	-0.02
585.877	0.01
586.068	-0
586.259	-0.01
586.45	-0.01
586.641	-0.03
586.832	-0.07
587.023	-0.01
587.214	0.01
587.405	0.02
587.596	-0.02
587.787	0.03
587.978	0.02
588.169	-0.03
588.36	-0.03
588.551	-0.01
588.742	-0.04
588.932	-0.01
589.123	-0.04
589.314	0.01
589.505	0.01
589.696	0.01
589.886	-0.05
590.077	-0.06
590.268	0.02
590.458	-0.05
590.649	-0.04
590.84	0.02
591.03	-0.03
591.221	-0.02
591.412	-0.05
591.602	0.01
591.793	-0.01
591.984	-0.03
592.174	-0.01
592.365	0.03
592.555	-0.03
592.746	0.01
592.936	0.02
593.127	-0.01
593.317	0.01
593.508	-0.01
593.698	-0.02
593.889	0
594.079	-0.01
594.269	-0.04
594.46	-0
594.65	-0.01
594.84	-0.03
595.031	-0.05
595.221	-0.02
595.411	-0.02
595.602	-0.01
595.792	0.01
595.982	-0.02
596.172	0.04
596.363	0.02
596.553	-0.01
596.743	-0.04
596.933	-0.02
597.123	0.03
597.314	-0.04
597.504	-0.02
597.694	0.02
597.884	-0.01
598.074	-0.02
598.264	-0.03
598.454	-0.02
598.644	-0.02
598.834	-0.02
599.024	-0.04
599.214	-0.02
599.404	0.03
599.594	-0.01
599.784	-0.03
599.974	0.01
600.164	0
600.354	-0.03
600.544	-0.03
600.734	-0
600.924	-0
601.114	-0.04
601.303	-0.01
601.493	0.01
601.683	-0.04
601.873	0.01
602.063	-0.06
602.252	0
602.442	-0.07
602.632	-0.04
602.821	-0.06
603.011	0.01
603.201	-0.01
603.39	-0.04
603.58	-0.04
603.77	-0.01
603.959	0.03
604.149	0.01
604.339	-0.02
604.528	0.04
604.718	0.01
604.907	-0.02
605.097	-0.02
605.286	-0.06
605.476	0.01
605.665	-0.01
605.855	-0.02
606.044	0.04
606.234	0.02
606.423	-0
606.612	-0.04
606.802	-0
606.991	0.01
607.181	-0.01
607.37	-0.09
607.559	-0.01
607.749	-0.04
607.938	-0.02
608.127	-0.03
608.316	-0.02
608.506	-0.02
608.695	-0.01
608.884	-0.04
609.073	-0.03
609.263	-0.02
609.452	0.01
609.641	0.01
609.83	-0.04
610.019	-0.01
610.208	-0.04
610.397	-0.02
610.586	0.02
610.775	-0.04
610.965	-0.01
611.154	-0.03
611.343	-0.01
611.532	0.01
611.721	-0.02
611.91	-0.04
612.099	0.02
612.287	-0.03
612.476	-0.05
612.665	-0.01
612.854	-0.03
613.043	0.03
613.232	-0
613.421	-0.06
613.61	-0.01
613.798	-0.05
613.987	0.01
614.176	0
614.365	0.02
614.554	-0.02
614.742	-0.01
614.931	-0.04
615.12	0.01
615.309	-0.03
615.497	0.02
615.686	-0.02
615.875	-0.02
616.063	0.01
616.252	0
616.44	-0.03
616.629	0.01
616.818	0.02
617.006	-0.01
617.195	-0.03
617.383	0
617.572	-0.01
617.76	-0.01
617.949	-0.01
618.137	0
618.326	-0.02
618.514	-0.04
618.703	-0.05
618.891	0.03
619.079	-0.04
619.268	0.02
619.456	-0.01
619.644	0.04
619.833	-0.05
620.021	-0.04
620.209	-0.05
620.398	0
620.586	-0.02
620.774	0.02
620.962	-0.03
621.151	0.03
621.339	-0
621.527	-0.02
621.715	-0.06
621.903	-0.04
622.092	-0.05
622.28	0
622.468	0.02
622.656	-0.01
622.844	0.01
623.032	-0.02
623.22	-0.06
623.408	0.03
623.596	0
623.784	0.03
623.972	-0.05
624.16	-0.02
624.348	0.05
624.536	-0.03
624.724	-0.02
624.912	0.04
625.1	-0
625.288	-0.02
625.476	-0.03
625.664	0.02
625.851	-0.04
626.039	-0.02
626.227	-0.03
626.415	-0.02
626.603	-0.08
626.79	-0.04
626.978	-0.01
627.166	0
627.354	-0.01
627.541	-0.02
627.729	-0.07
627.917	0
628.104	0.03
628.292	-0.02
628.48	-0.03
628.667	0.02
628.855	-0.03
629.042	-0.02
629.23	-0.06
629.418	-0.01
629.605	-0.04
629.793	-0.04
629.98	0.01
630.168	-0.01
630.355	-0.02
630.543	-0.01
630.73	-0.02
630.917	0.03
631.105	0.02
631.292	-0.02
631.48	-0.03
631.667	0.02
631.854	0.01
632.042	-0.01
632.229	-0.05
632.416	0.02
632.604	-0.04
632.791	-0.05
632.978	-0.02
633.165	0.01
633.353	0.05
633.54	0.03
633.727	-0.08
633.914	-0.03
634.101	-0.09
634.289	0.05
634.476	-0.01
634.663	-0.07
634.85	-0.04
635.037	-0.06
635.224	-0.09
635.411	0.03
635.598	0.02
635.785	-0.04
635.972	-0.03
636.159	0.02
636.346	-0.03
636.533	-0.03
636.72	-0.01
636.907	-0.01
637.094	0.01
637.281	0.02
637.468	0.01
637.655	-0.02
637.842	-0.03
638.029	-0.02
638.215	0.02
638.402	-0.03
638.589	-0
638.776	-0.01
638.963	-0.02
639.149	0.01
639.336	0.04
639.523	-0.02
639.709	0.01
639.896	-0.01
640.083	0.04
640.27	-0.01
640.456	0.02
640.643	-0.04
640.829	-0.07
641.016	-0
641.203	-0.07
641.389	0.02
641.576	0.01
641.762	-0.01
641.949	-0.04
642.135	-0.01
642.322	0
642.508	-0.05
642.695	-0.01
642.881	-0.03
643.068	-0.04
643.254	-0.01
643.441	0.02
643.627	0
643.813	-0.04
644	0.01
644.186	-0.04
644.372	-0.02
644.559	0.03
644.745	-0.05
644.931	-0.01
645.118	-0.02
645.304	-0.01
645.49	-0.03
645.676	-0.04
645.862	0
646.049	0.03
646.235	-0.03
646.421	0.04
646.607	0.02
646.793	-0.06
646.979	-0.04
647.165	-0.02
647.352	0.01
647.538	0.03
647.724	-0.03
647.91	0
648.096	0
648.282	-0.01
648.468	0.02
648.654	-0.01
648.84	-0.03
649.026	-0.03
649.212	-0.02
649.397	-0.05
649.583	-0.06
649.769	-0.01
649.955	-0.02
650.141	0.03
650.327	0.05
650.513	-0.03
650.698	0
650.884	-0.07
651.07	-0.01
651.256	0.01
651.442	-0.02
651.627	-0.03
651.813	-0
651.999	-0.04
652.184	-0.01
652.37	-0
652.556	-0.01
652.741	0.05
652.927	-0.04
653.113	-0.04
653.298	0.03
653.484	-0.03
653.669	-0.07
653.855	0
654.04	0.04
654.226	-0.05
654.412	-0.02
654.597	-0.04
654.782	-0.01
654.968	0
655.153	0.03
655.339	-0.04
655.524	-0.04
655.71	-0
655.895	-0.02
656.08	-0.03
656.266	0.04
656.451	-0
656.636	-0.06
656.822	-0.01
657.007	-0.05
657.192	-0.04
657.378	-0.07
657.563	0.01
657.748	-0
657.933	0.01
658.118	-0.04
658.304	-0.04
658.489	0.01
658.674	-0
658.859	-0.07
659.044	-0
659.229	0.02
659.414	-0
659.599	-0
659.785	-0.05
659.97	-0.05
660.155	-0
660.34	-0.01
660.525	-0.01
660.71	-0.01
660.895	0.03
661.08	-0.04
661.264	-0.03
661.449	0.01
661.634	0.05
661.819	0.01
662.004	0
662.189	-0.09
662.374	-0.02
662.559	-0.07
662.743	-0.09
662.928	-0
663.113	-0.02
663.298	-0.06
663.483	-0.04
663.667	-0.01
663.852	-0.05
664.037	0.04
664.221	-0.03
664.406	-0.02
664.591	-0
664.775	-0.01
664.96	-0.07
665.145	-0.04
665.329	0.01
665.514	-0.03
665.698	-0.01
665.883	-0.05
666.068	0.05
666.252	0.03
666.437	-0.07
666.621	0.01
666.806	-0.02
666.99	-0.03
667.174	-0.05
667.359	0.04
667.543	-0.02
667.728	0
667.912	-0.06
668.096	0.01
668.281	-0.06
668.465	-0.01
668.649	-0.05
668.834	-0.07
669.018	-0.05
669.202	-0.02
669.387	-0.06
669.571	0.03
669.755	-0.04
669.939	-0.01
670.124	-0.03
670.308	0.08
670.492	-0.01
670.676	-0.02
670.86	-0.06
671.044	-0.02
671.228	0.03
671.413	-0.09
671.597	-0.01
671.781	-0.07
671.965	0.01
672.149	-0
672.333	-0.06
672.517	-0.06
672.701	-0.01
672.885	-0.04
673.069	-0.07
673.253	-0.01
673.437	-0
673.621	-0.03
673.804	0.01
673.988	-0.03
674.172	-0.02
674.356	-0.09
674.54	-0.04
674.724	0.05
674.908	-0.03
675.091	0.03
675.275	-0.03
675.459	0.03
675.643	0.07
675.826	-0.01
676.01	-0.01
676.194	-0
676.377	0.03
676.561	0.01
676.745	-0.02
676.928	-0.02
677.112	0.01
677.296	-0.02
677.479	-0.02
677.663	-0.02
677.846	0.02
678.03	0.02
678.213	-0.04
678.397	0.01
678.58	-0.03
678.764	-0.01
678.947	-0.04
679.131	-0.09
679.314	0.03
679.498	-0.07
679.681	0
679.865	-0.03
680.048	-0.01
680.231	-0.03
680.415	-0.04
680.598	-0.04
680.781	-0.02
680.965	0
681.148	0.02
681.331	-0.06
681.514	0.01
681.698	-0.02
681.881	-0.01
682.064	-0.02
682.247	-0.05
682.43	-0.05
682.614	-0.04
682.797	0.03
682.98	0.01
683.163	-0.04
683.346	0.03
683.529	-0.06
683.712	-0.04
683.895	0
684.078	-0.06
684.261	-0.03
684.444	-0
684.627	0.02
684.81	-0.05
684.993	-0.06
685.176	0.04
685.359	-0.01
685.542	-0.01
685.725	0.04
685.908	-0.02
686.091	-0
686.274	0.02
686.457	0.02
686.639	-0.03
686.822	0.01
687.005	0.01
687.188	-0.01
687.371	0.07
687.553	0.01
687.736	-0.02
687.919	0.08
688.102	0.01
688.284	-0.01
688.467	-0.01
688.65	-0.03
688.832	-0.05
689.015	-0.03
689.197	-0.06
689.38	0.07
689.563	0.03
689.745	-0.05
689.928	-0.07
690.11	-0.02
690.293	-0.03
690.475	-0.09
690.658	-0.03
690.84	-0.02
691.023	-0.05
691.205	-0.02
691.388	-0.02
691.57	0.01
691.752	-0.08
691.935	-0.09
692.117	-0.05
692.3	-0.01
692.482	-0.01
692.664	0.02
692.847	0
693.029	0.02
693.211	0
693.393	0
693.576	0.01
693.758	-0.01
693.94	-0.05
694.122	-0.06
694.304	0.01
694.487	-0.02
694.669	0.02
694.851	-0.07
695.033	-0.02
695.215	-0.02
695.397	-0.09
695.579	0.02
695.761	-0.06
695.943	-0.06
696.125	0.05
696.308	0.04
696.49	-0.12
696.671	0.05
696.853	-0.04
697.035	0.1
697.217	-0.02
697.399	0
697.581	-0.08
697.763	0.02
697.945	-0.06
698.127	-0.04
698.309	0
698.491	-0.02
698.672	0.05
698.854	0.03
699.036	0.04
699.218	-0.02
699.399	0.02
699.581	0.03
699.763	-0.01
699.945	-0.03
700.126	-0.03
700.308	-0.06
700.49	-0.07
700.671	-0.09
700.853	-0.03
701.035	-0.08
701.216	-0.05
701.398	-0.08
701.579	-0.02
701.761	0.06
701.943	-0.06
702.124	-0.02
702.306	-0.03
702.487	0.14
702.669	-0.02
702.85	-0.04
703.031	-0.04
703.213	0.11
703.394	0.07
703.576	-0.06
703.757	0.09
703.938	0.05
704.12	0.17
704.301	-0
704.483	-0.01
704.664	-0.01
704.845	0.07
705.026	0.04
705.208	-0.01
705.389	-0.01
705.57	-0.02
705.751	-0.04
705.933	-0.05
706.114	0.04
706.295	-0.04
706.476	-0.05
706.657	0.08
706.838	-0.01
707.02	0.07
707.201	-0.06
707.382	-0.04
707.563	-0.02
707.744	-0.11
707.925	-0.14
708.106	-0.11
708.287	0.02
708.468	0.06
708.649	-0.03
708.83	0.02
709.011	0.02
709.192	0.02
709.373	-0.13
709.554	-0
709.734	0.07
709.915	0.07
710.096	0.01
710.277	-0.12
710.458	0.01
710.639	-0
710.819	-0.2
711	-0.03
711.181	0.08
711.362	-0.02
711.542	-0.03
711.723	-0
711.904	0
712.085	-0.01
712.265	0.01
712.446	-0.07
712.627	0.03
712.807	-0.07
712.988	-0.07
713.168	-0.09
713.349	0
713.53	-0.14
713.71	-0.09
713.891	-0.09
714.071	-0.07
714.252	-0.09
714.432	-0.03
714.613	-0.1
714.793	0.02
714.974	0.03
715.154	0.05
715.334	0.03
715.515	0.1
715.695	-0.12
715.876	-0.01
716.056	-0.02
716.236	-0.02
716.417	-0.07
716.597	-0.05
716.777	0.12
716.957	-0.03
717.138	-0.08
717.318	0.01
717.498	-0.1
717.678	-0.02
717.859	0.01
718.039	-0.12
718.219	0.03
718.399	0.05
718.579	-0.1
718.759	-0
718.939	0.04
719.12	0.01
719.3	-0.01
719.48	-0.15
719.66	-0.13
719.84	0.08
720.02	-0.02
720.2	-0.14
720.38	0.02
720.56	0.08
720.74	-0.02
720.92	0.01
721.1	0.09
721.279	0.03
721.459	-0.04
721.639	-0.07
721.819	0
721.999	-0.02
722.179	-0.02
722.359	-0.14
722.538	-0.04
722.718	-0.03
722.898	-0.08
723.078	-0.05
723.257	-0.05
723.437	-0.05
723.617	-0.03
723.797	-0.02
723.976	-0.01
724.156	0.04
724.336	-0.02
724.515	0.11
724.695	-0.14
724.874	0.02
725.054	0.06
725.234	-0.06
725.413	-0.03
725.593	-0.04
725.772	0.03
725.952	0
726.131	-0.06
726.311	-0.04
726.49	0.01
726.67	-0.12
726.849	-0.12
727.028	-0.09
727.208	-0.05
727.387	-0.02
727.567	-0.11
727.746	-0.03
727.925	-0.06
728.105	-0.12
728.284	-0.03
728.463	-0.09
728.643	0.12
728.822	-0.1
729.001	0.01
729.18	0
729.359	-0.02
729.539	0.07
729.718	0.01
729.897	-0
730.076	0.03
730.255	-0.11
730.434	0.02
730.614	0.04
730.793	0.1
730.972	-0.03
731.151	-0.01
731.33	0.03
731.509	0.01
731.688	-0.05
731.867	-0.06
732.046	-0.13
732.225	0.12
732.404	-0.05
732.583	-0.06
732.762	0.03
732.941	-0.05
733.12	-0.02
733.298	-0.07
733.477	0.03
733.656	-0.07
733.835	-0.12
734.014	0.08
734.193	-0.08
734.371	0.04
734.55	0.02
734.729	-0.05
734.908	-0.02
735.086	0.01
735.265	-0.09
735.444	-0.18
735.623	-0.11
735.801	-0.09
735.98	0.03
736.159	-0.08
736.337	0.13
736.516	-0.02
736.694	0
736.873	-0
737.052	0.03
737.23	0.07
737.409	-0.07
737.587	0.11
737.766	-0.15
737.944	-0.05
738.123	0.04
738.301	0.02
738.479	-0.05
738.658	-0.04
738.836	-0.13
739.015	0.04
739.193	0.11
739.371	-0.16
739.55	-0.04
739.728	-0.2
739.906	-0.01
740.085	0.17
740.263	-0.08
740.441	-0.24
740.62	0.14
740.798	-0.02
740.976	-0.16
741.154	-0.12
741.332	0.01
741.511	-0.11
741.689	0.12
741.867	0.06
742.045	-0.01
742.223	-0
742.401	-0.06
742.579	-0.11
742.757	0.01
742.935	-0.23
743.114	-0.13
743.292	-0.1
743.47	0.03
743.648	0.01
743.826	-0.28
744.004	0.01
744.181	0.06
744.359	-0.03
744.537	0.06
744.715	-0.05
744.893	0
745.071	0.01
745.249	-0.12
745.427	-0
745.605	0.04
745.782	-0.12
745.96	0.05
746.138	0
746.316	0.14
746.493	-0.05
746.671	-0.07
746.849	-0.03
747.027	0.11
747.204	-0.07
747.382	0.03
747.56	-0.23
747.737	-0.01
747.915	-0.05
748.093	-0.01
748.27	-0.01
748.448	-0.1
748.625	-0.12
748.803	0.02
748.98	-0.08
749.158	0.09
749.335	-0.04
749.513	-0.09
749.69	-0.08
749.868	-0.05
750.045	0.08
750.223	-0.05
750.4	-0.24
750.578	0.15
750.755	0
750.932	-0.13
751.11	0.04
751.287	-0.15
751.464	0.1
751.642	-0.13
751.819	-0.05
751.996	0.05
752.173	0.03
752.351	-0.1
752.528	-0.04
752.705	-0.09
752.882	-0.02
753.06	0.03
753.237	0.05
753.414	0.11
753.591	0.06
753.768	-0.08
753.945	-0.13
754.122	-0.07
754.299	0.22
754.476	-0.19
754.654	0.08
754.831	-0.06
755.008	-0.04
755.185	-0.04
755.362	-0.1
755.539	-0.05
755.716	-0.09
755.892	-0.01
756.069	-0.03
756.246	0.03
756.423	-0.12
756.6	0.14
756.777	-0.1
756.954	0.02
757.131	-0.05
757.307	-0.2
757.484	-0.14
757.661	0.09
757.838	-0.11
758.015	-0.08
758.191	0.1
758.368	-0.06
758.545	0.11
758.721	0.09
758.898	-0.09
759.075	0.05
759.251	0.08
759.428	0.16
759.605	-0.05
759.781	-0.11
759.958	0.01
760.134	0.03
760.311	0.01
760.488	0.11
760.664	0.13
760.841	-0
761.017	-0.09
761.194	0.15
761.37	0.01
761.547	-0.01
761.723	-0.11
761.899	0.05
762.076	-0.09
762.252	-0.12
762.429	-0.09
762.605	0.01
762.781	0.02
762.958	0.04
763.134	-0.14
763.31	-0.07
763.486	0.04
763.663	-0.12
763.839	0.02
764.015	-0.18
764.191	-0.03
764.368	-0.07
764.544	-0.09
764.72	0.05
764.896	0.02
765.072	-0.03
765.248	-0.03
765.425	-0.16
765.601	0
765.777	-0.1
765.953	-0.16
766.129	-0.16
766.305	-0.11
766.481	0.02
766.657	0.01
766.833	0.13
767.009	-0.14
767.185	0.01
767.361	0.02
767.537	-0.12
767.713	0.1
767.889	-0.12
768.065	0.09
768.24	-0.21
768.416	0.09
768.592	-0.03
768.768	0.04
768.944	0.02
769.12	-0.09
769.295	-0.08
769.471	-0.03
769.647	0.02
769.823	0.07
769.998	-0.09
770.174	-0.03
770.35	0.17
770.525	0.17
770.701	0.04
770.877	-0.13
771.052	-0.07
771.228	0.09
771.403	0.1
771.579	0.17
771.755	0.07
771.93	-0.07
772.106	-0.14
772.281	-0.22
772.457	0.07
772.632	0.05
772.808	-0.15
772.983	-0.01
773.159	-0.08
773.334	0.12
773.509	0.04
773.685	-0.1
773.86	0.18
774.036	0.25
774.211	-0.01
774.386	-0.12
774.562	-0.08
774.737	0.12
774.912	-0.17
775.087	-0
775.263	0.04
775.438	-0.05
775.613	-0.09
775.788	-0.02
775.964	0.08
776.139	0.2
776.314	-0.2
776.489	-0.03
776.664	0.02
776.839	-0.25
777.014	0.17
777.19	0.1
777.365	0.07
777.54	0.13
777.715	-0.1
777.89	-0.01
778.065	-0.07
778.24	-0.07
778.415	0.11
778.59	-0.18
778.765	-0.09
778.94	-0.04
779.115	-0.02
779.289	0.06
779.464	-0.06
779.639	-0.06
779.814	-0.17
779.989	-0.18
780.164	0.16
780.339	0
780.513	-0
780.688	-0.24
780.863	0.1
781.038	0.1
781.212	-0.18
781.387	-0.18
781.562	0.22
781.737	-0.12
781.911	0.19
782.086	-0.22
782.261	-0.13
782.435	0.17
782.61	-0.01
782.784	-0.02
782.959	-0.07
783.134	-0.23
783.308	-0.29
783.483	-0.19
783.657	0.18
783.832	0.13
784.006	-0.21
784.181	0.07
784.355	0.11
784.53	-0.3
784.704	-0.31
784.878	0.27
785.053	0.06
785.227	0.02
785.402	0.28
785.576	-0.19
785.75	-0.05
785.925	0.05
786.099	-0.06
786.273	-0.04
786.448	0.03
786.622	0.13
786.796	-0.13
786.97	-0.05
787.145	0.37
787.319	-0.65
787.493	-0.12
787.667	-0.2
787.841	-0.18
788.015	0.14
788.19	-0.1
788.364	-0.14
788.538	0.06
788.712	-0.05
788.886	0.03
789.06	0.28
789.234	-0.09
789.408	-0.03
789.582	-0.14
789.756	0.06
789.93	-0.07
790.104	-0.03
790.278	-0.03
790.452	-0.19
790.626	0.16
790.8	-0.14
790.973	0.09
791.147	0.17
791.321	0.17
791.495	0.08
791.669	0.06
791.843	0.22
792.016	-0.1
792.19	0.38
792.364	-0.22
792.538	0.44
792.711	0.04
792.885	-0.21
793.059	-0.19
793.233	-0.44
793.406	0.02
793.58	0.01
793.754	0.23
793.927	-0.07
794.101	0.13
794.274	-0.16
794.448	0.35
794.622	-0.12
794.795	0.35
794.969	-0.23
795.142	0.05
795.316	-0.18
795.489	-0.12
795.663	0.3
795.836	0.11
796.009	-0.26
796.183	0.44
796.356	0.16
796.53	-0.06
796.703	0.01
796.876	0.35
797.05	-0.35
797.223	-0.09
797.396	0.2
797.57	0.08
797.743	0.36
797.916	0.08
798.09	0.01
798.263	0.25
798.436	0.1
798.609	-0.08
798.782	-0.15
798.956	0.22
799.129	0
799.302	-0.01
799.475	-0.19
799.648	-0.29
799.821	-0.32
799.994	0.11
800.167	-0.4
800.34	-0.23
800.514	-0.09
800.687	-0.16
800.86	-0.11
801.033	-0.09
801.206	0.05
801.379	-0.31
801.551	0.18
801.724	0.01
801.897	0.17
802.07	-0.31
802.243	-0.43
802.416	-0.04
802.589	-0.17
802.762	0.02
802.935	0.07
803.107	0.09
803.28	0.13
803.453	0.33
803.626	-0.27
803.798	-0.22
803.971	0.04
804.144	0.21
804.317	0.3
804.489	0.24
804.662	-0.09
804.835	-0.25
805.007	-0.05
805.18	0.39
805.353	0.08
805.525	-0.07
805.698	-0.2
805.87	0.49
806.043	0.41
806.215	-0.28
806.388	-0.03
806.56	0.04
806.733	0.14
806.905	0.02
807.078	-0.32
807.25	-0.49
807.423	0.21
807.595	0.1
807.768	0.04
807.94	-0.04
808.112	0.29
808.285	0.33
808.457	-0.01
808.629	0.11
808.802	0.09
808.974	-0.24
809.146	-0.17
809.318	-0.28
809.491	-0
809.663	0.62
809.835	-0.28
810.007	0.16
810.18	-0.11
810.352	-0.49
810.524	0.07
810.696	-0.05
810.868	0.46
811.04	-0.24
811.212	-0.21
811.384	0.39
811.556	-0.11
811.728	0.04
811.901	0.46
812.073	-0.18
812.245	0.41
812.417	-0.15
812.589	-0.52
812.76	0.04
812.932	0.12
813.104	0.31
813.276	0.12
813.448	-0.01
813.62	0.06
813.792	-0.28
813.964	0.2
814.136	-0.08
814.307	0.03
814.479	-0.39
814.651	-0.12
814.823	0.6
814.995	-0.17
815.166	-0.06
815.338	-0.07
815.51	-0.14
815.681	0.87
815.853	-0.2
816.025	0.02
816.196	0.55
816.368	0.24
816.54	-0.54
816.711	-0.62
816.883	0.12
817.054	1.08
817.226	-0.48
817.398	0.15
817.569	-0.49
817.741	0.17
817.912	0.28
818.084	0.06
818.255	0.34
818.426	-0.1
818.598	-0.4
818.769	-0.15
818.941	0.24
819.112	0.59
819.283	0.27
819.455	-0.34
819.626	0.23
819.798	0.25
819.969	0.03
820.14	-0.04
820.311	-0.01
820.483	0.2
820.654	0.33
820.825	0.01
820.996	-0.25
821.168	-0.41
821.339	-0.39
821.51	-0.91
821.681	-0.41
821.852	0.06
822.023	-0.33
822.195	-0.23
822.366	0.14
822.537	0.03
822.708	-0.09
822.879	-0.27
823.05	0.27
823.221	0.13
823.392	0.37
823.563	-0.02
823.734	0.06
823.905	-0.17
824.076	-0.49
824.247	-0.28
824.418	-0.2
824.589	-0.16
824.759	-0.11
824.93	-0.35
825.101	-0.52
825.272	0.33
825.443	0.77
825.614	0.76
825.784	-1.06
825.955	0.79
826.126	0.19
826.297	-0.07
826.467	1.12
826.638	0.73
826.809	-1.1
826.98	0.29
827.15	0.47
827.321	0.01
827.492	0.51
827.662	-0.3
827.833	0.91
828.003	0.28
828.174	-0.41
828.345	-0.39
828.515	0.52
828.686	0.47
828.856	-0.38
829.027	0.33
829.197	0.03
829.368	0
829.538	-0.91
829.709	-0.11
829.879	0.55
830.049	0.25
830.22	-0.25
830.39	0.01
830.56	0.85
830.731	0.13
830.901	-0.23
831.072	0.29
831.242	0.31
831.412	-0.51
831.582	-0.13
831.753	-0.49
831.923	0.22
832.093	-0.61
832.263	-0.21
832.434	-0.69
832.604	-0.32
832.774	0.23
832.944	-0.42
833.114	0.01
833.284	0.63
833.454	-0.67
833.624	-0.13
833.795	-0.99
833.965	1.21
834.135	0.9
834.305	-0.83
834.475	-0.59
834.645	-0.13
834.815	-0.7
834.985	-0.82
835.155	0.02
835.325	0.76
835.494	0.48
835.664	0.05
835.834	-0.36
836.004	0.1
836.174	-0.13
836.344	-0.8
836.514	-0.64
836.684	-0.03
836.853	-0.13
837.023	-0.2
837.193	-1.3
837.363	0.53
837.532	0.77
837.702	-0.18
837.872	-0.37
838.041	0.14
838.211	0.79
838.381	-1.19
838.55	-0.05
838.72	1.25
838.89	1.23
839.059	-0.33
839.229	-0.72
839.398	-0.07
839.568	0.37
839.738	0.41
839.907	0.88
840.077	-0.2
840.246	0.05
840.416	-0.97
840.585	-0.86
840.755	0.79
840.924	0.52
841.093	-0.75
841.263	-0.23
841.432	0.15
841.602	-0.23
841.771	-0.64
841.94	0.37
842.11	1.51
842.279	0.6
842.448	-0.28
842.617	-0.8
842.787	0.34
842.956	-0.8
843.125	-0.42
843.294	0.01
843.464	0.42
843.633	0.33
843.802	-0.49
843.971	0.23
844.14	0.13
844.309	0.96
844.479	-0.58
844.648	-0.9
844.817	-0.67
844.986	-0.47
845.155	-0.12
845.324	0.65
845.493	0.11
845.662	-0.58
845.831	0.13
846	0.23
846.169	0.27
846.338	0.51
846.507	-0.45
846.676	-0.41
846.844	-1.09
847.013	0.4
847.182	-0.57
847.351	0.27
847.52	0.64
847.689	0.17
847.858	-0.93
848.026	-0.65
848.195	0.35
848.364	-0.4
848.533	-0.36
848.701	-0.34
848.87	-0.11
849.039	0.98
849.207	0.71
849.376	0.34
849.545	0.65
849.713	-0.17
849.882	0.37
850.051	-0.34
850.219	-0.1
850.388	0.26
850.556	-0.21
850.725	-0.82
850.893	0.01
851.062	-0.35
851.23	1.03
851.399	-1.3
851.567	-0.54
851.736	-0.69
851.904	-1.61
852.073	0.23
852.241	0.36
852.41	0.01
852.578	0.27
852.746	-0.36
852.915	0.7
853.083	0.24
853.251	-0.79
853.42	-0.47
853.588	-0.06
853.756	0.08
853.924	0.14
854.093	-0.62
854.261	-0.13
854.429	-0.35
854.597	-0.48
854.765	-1.26
854.934	0.44
855.102	0.49
855.27	-0.57
855.438	1.21
855.606	0.99
855.774	0.73
855.942	-1.34
856.11	-1.55
856.278	-0.79
856.446	0.64
856.614	-0.86
856.782	-0.96
856.95	-0.01
857.118	1.05
857.286	0.07
857.454	-0.02
857.622	0.39
857.79	1.65
857.958	-0.12
858.126	-0.37
858.294	-2.71
858.462	-0.1
858.629	-0.25
858.797	-0.78
858.965	0.75
859.133	-0.02
859.301	-1.43
859.468	-0.05
859.636	-0.86
859.804	-0.03
859.971	0.5
860.139	-1.81
860.307	0.63
860.474	1.05
860.642	-0.36
860.81	-0.35
860.977	-0.48
861.145	2.04
861.313	-0.04
861.48	-0.39
861.648	1.43
861.815	-1.1
861.983	-0.65
862.15	0.15
862.318	0.57
862.485	0.41
862.653	-0.91
862.82	-1.72
862.988	1.06
863.155	0.94
863.322	-0.22
863.49	-1.56
863.657	-0.93
863.824	0.53
863.992	0.02
864.159	0.27
864.326	1.64
864.494	-1.08
864.661	1.54
864.828	-0.12
864.996	-0.44
865.163	2.24
865.33	-0.52
865.497	-1.64
865.664	-0.32
865.832	-1.24
865.999	-0.42
866.166	-0.88
866.333	-0.02
866.5	0.61
866.667	-0.82
866.834	-1.48
867.001	0.68
867.168	-2.05
867.335	-0.29
867.502	-1.06
867.669	0.33
867.836	3.7
868.003	0.26
868.17	1.15
868.337	-1.35
868.504	0.97
868.671	-0.72
868.838	-1.43
869.005	0.86
869.172	0.97
869.339	-0.31
869.505	0.01
869.672	-0.36
869.839	1.61
870.006	-0.13
870.173	-1.6
870.339	1.87
870.506	1.97
870.673	0.58
870.84	1.49
871.006	0.8
871.173	-0.5
871.34	0.5
871.506	-0.15
871.673	-1.16
871.839	-1.4
872.006	0.06
872.173	-0.39
872.339	0.54
872.506	0.8
872.672	-1.99
872.839	-1.41
873.005	-0.21
873.172	1.78
873.338	2.01
873.505	0.49
873.671	0.11
873.838	0.82
874.004	-1.06
874.171	-0.88
874.337	-0.42
874.503	1.4
874.67	-0.32
874.836	-1.8
875.002	3.09
875.169	0.69
875.335	1.11
875.501	-1.15
875.668	0.64
875.834	-0.26
876	0.28
876.166	1.62
876.332	0.64
876.499	2.25
876.665	0.19
876.831	0.47
876.997	1.18
877.163	-0.89
877.329	0.36
877.495	1.49
877.662	1.82
877.828	-0.38
877.994	-1.43
878.16	-1.89
878.326	-0.88
878.492	-0.19
878.658	-0.88
878.824	1.1
878.99	0.47
879.156	-2.28
879.322	1.84
879.487	-0.87
879.653	1.13
879.819	-1.31
879.985	-1.61
880.151	-1.86
880.317	0.21
880.483	0.21
880.648	1.48
880.814	-3.65
880.98	0.52
881.146	-2.06
881.312	-0.65
881.477	-0.12
881.643	0.5
881.809	1.35
881.974	0.12
882.14	-3.07
882.306	0.72
882.471	1.93
882.637	-1.89
882.803	1.43
882.968	1.8
883.134	2.83
883.299	-1.41
883.465	-0.44
883.63	0.85
883.796	0.92
883.961	1.57
884.127	1.48
884.292	-2.25
884.458	-2.06
884.623	-2.06
