Data from Apollo_Calib_20240827__AbsoluteIrradiance__382__05-31-01-492.txt Node

Date: Wed Aug 28 05:31:01 BST 2024
User: biology
Spectrometer: FLMT08252
Trigger mode: 0
Integration Time (sec): 5.000000E-1
Scans to average: 5
Electric dark correction enabled: true
Nonlinearity correction enabled: false
Boxcar width: 0
XAxis mode: Wavelengths
Number of Pixels in Spectrum: 3648
>>>>>Begin Spectral Data<<<<<
179.588	-0
179.809	-0
180.03	-0
180.251	-0
180.473	-0
180.694	0
180.915	0
181.136	-0
181.357	0
181.578	0
181.799	-0
182.02	-0
182.241	-0
182.462	-0
182.683	0
182.904	-0
183.125	-0
183.346	0
183.567	0
183.788	-0
184.009	-0
184.23	0
184.451	0
184.672	-0
184.892	-0
185.113	0
185.334	0
185.555	-0
185.776	-0
185.996	0
186.217	0
186.438	-0
186.659	-0
186.879	-0
187.1	-0
187.321	-0
187.541	-0
187.762	0
187.983	0
188.203	-0
188.424	0
188.644	-0
188.865	0
189.086	-0
189.306	-0
189.527	-0
189.747	-0
189.968	-0
190.188	0
190.409	-0
190.629	0
190.849	-0
191.07	-0
191.29	0
191.511	-0
191.731	-0
191.951	-0
192.172	-0
192.392	0
192.612	-0
192.833	-0
193.053	0
193.273	0
193.493	-0
193.714	-0
193.934	0
194.154	0
194.374	0
194.594	-0
194.815	0
195.035	0
195.255	-0
195.475	-0
195.695	0
195.915	0
196.135	-0
196.355	0
196.575	0
196.795	0
197.015	-0
197.235	-0
197.455	-0
197.675	0
197.895	-0
198.115	-0
198.335	0
198.555	-0
198.775	0
198.995	-0
199.214	0
199.434	-0
199.654	-0
199.874	-0
200.094	0.59
200.313	-0.36
200.533	-0.6
200.753	-0.92
200.973	0.67
201.192	0.19
201.412	-0.92
201.632	-0.52
201.851	0.71
202.071	-0.02
202.291	-0.34
202.51	-0.2
202.73	0.26
202.95	-0.44
203.169	-0.85
203.389	-0.08
203.608	0.31
203.828	-0.26
204.047	-0.22
204.267	0.34
204.486	-0.03
204.706	0.21
204.925	0.2
205.145	-0.66
205.364	0.62
205.583	0.85
205.803	-0.32
206.022	-0.47
206.242	-0.27
206.461	-0.24
206.68	-0.26
206.9	-0.01
207.119	0.37
207.338	0.75
207.557	-0.01
207.777	-0.14
207.996	0.12
208.215	0.41
208.434	-0.16
208.654	-0.42
208.873	0.06
209.092	0.56
209.311	-0.11
209.53	-0.14
209.749	-0.14
209.968	-0.16
210.187	-0.2
210.407	-0.4
210.626	-0.18
210.845	0.31
211.064	-0.07
211.283	-0.27
211.502	0.21
211.721	-0.02
211.94	-0.05
212.159	0.06
212.377	-0.01
212.596	0.23
212.815	-0.1
213.034	0.22
213.253	0.16
213.472	-0.01
213.691	0.02
213.91	-0.51
214.128	-0.12
214.347	0.51
214.566	-0.48
214.785	-0.41
215.003	-0.04
215.222	0.15
215.441	-0.23
215.66	-0.43
215.878	-0.05
216.097	0.22
216.316	-0.23
216.534	-0.04
216.753	0.02
216.972	-0.06
217.19	-0.13
217.409	-0.17
217.627	-0.17
217.846	-0.26
218.064	-0.18
218.283	-0.31
218.501	0.55
218.72	0.28
218.938	-0.19
219.157	-0.27
219.375	0.25
219.594	0.21
219.812	-0.38
220.031	-0.41
220.249	0.28
220.467	0.28
220.686	-0.1
220.904	-0.16
221.122	-0.27
221.341	0.4
221.559	0.03
221.777	-0.22
221.995	0.09
222.214	0.04
222.432	-0.13
222.65	0.16
222.868	0.18
223.086	0.08
223.305	0.1
223.523	-0.12
223.741	0.25
223.959	-0.04
224.177	-0.3
224.395	-0.16
224.613	-0.01
224.831	0.25
225.049	-0.06
225.267	-0.06
225.485	0.05
225.703	-0.05
225.921	-0
226.139	-0.14
226.357	0.16
226.575	0.16
226.793	-0.13
227.011	0.56
227.229	-0.05
227.447	0.12
227.665	-0.08
227.883	-0.11
228.1	-0.06
228.318	0.08
228.536	-0.17
228.754	-0.16
228.972	0.1
229.189	0.11
229.407	-0.08
229.625	-0.1
229.843	0.22
230.06	0.08
230.278	-0.15
230.496	0.01
230.713	0.03
230.931	0.13
231.149	-0.07
231.366	-0.27
231.584	-0.07
231.801	0.34
232.019	-0.05
232.236	-0.21
232.454	-0.17
232.671	0.01
232.889	-0.08
233.106	-0.17
233.324	-0.04
233.541	-0.02
233.759	0.01
233.976	-0.13
234.194	-0.06
234.411	-0.06
234.628	-0.17
234.846	-0.1
235.063	-0.05
235.28	-0.01
235.498	-0.03
235.715	-0.05
235.932	0.13
236.149	-0.02
236.367	-0.04
236.584	0.07
236.801	-0.08
237.018	0.12
237.236	0.04
237.453	-0.16
237.67	0.12
237.887	-0.01
238.104	-0.07
238.321	-0.15
238.538	-0.15
238.755	0.18
238.973	-0.12
239.19	-0
239.407	0.02
239.624	-0.04
239.841	-0.21
240.058	-0.14
240.275	0.03
240.492	-0.02
240.709	-0.02
240.925	-0.06
241.142	0.01
241.359	-0.09
241.576	-0.11
241.793	-0.03
242.01	-0.03
242.227	0
242.444	0.07
242.66	0.01
242.877	-0.02
243.094	-0.11
243.311	-0.01
243.527	-0.08
243.744	0.05
243.961	0.03
244.178	-0.05
244.394	-0.07
244.611	0
244.828	0.22
245.044	-0.13
245.261	-0.04
245.477	-0.06
245.694	0.1
245.911	-0.15
246.127	-0.05
246.344	0.21
246.56	0.06
246.777	-0.06
246.993	-0
247.21	-0.07
247.426	0.08
247.643	-0.02
247.859	-0.1
248.076	-0.08
248.292	0.25
248.508	-0.1
248.725	0.03
248.941	0.02
249.157	0.15
249.374	-0.14
249.59	-0.01
249.806	-0.01
250.023	0.08
250.239	-0.13
250.455	0
250.671	0.02
250.888	0.1
251.104	0.11
251.32	-0.05
251.536	0.07
251.752	-0.02
251.969	0.02
252.185	-0.01
252.401	0.16
252.617	0.09
252.833	-0.11
253.049	0.04
253.265	-0.06
253.481	0.05
253.697	-0.07
253.913	-0.11
254.129	0.07
254.345	0.05
254.561	-0.1
254.777	-0.02
254.993	0.03
255.209	0.05
255.425	0
255.641	-0.13
255.857	0.1
256.073	0.05
256.288	-0.11
256.504	-0.03
256.72	0.04
256.936	0.03
257.152	0.01
257.367	-0.08
257.583	0.07
257.799	0.1
258.015	-0.09
258.23	-0.06
258.446	0.1
258.662	-0.02
258.877	-0.04
259.093	-0.07
259.309	-0.02
259.524	-0.01
259.74	-0.1
259.955	-0.15
260.171	0.05
260.387	-0.07
260.602	0.06
260.818	0.02
261.033	-0.07
261.249	-0.02
261.464	-0.06
261.68	-0.09
261.895	0.07
262.11	0.05
262.326	-0.07
262.541	-0.11
262.757	0.11
262.972	0.04
263.187	0.03
263.403	0.01
263.618	0.01
263.833	-0.01
264.049	-0.02
264.264	0
264.479	0.09
264.694	0.13
264.91	-0.08
265.125	0.04
265.34	0.13
265.555	0.18
265.77	0
265.986	-0.07
266.201	0.04
266.416	0.04
266.631	-0.07
266.846	-0.07
267.061	0.1
267.276	0.02
267.491	-0.14
267.706	-0.02
267.921	0.04
268.136	0.01
268.351	-0
268.566	-0.08
268.781	0.11
268.996	0.03
269.211	-0.04
269.426	-0.08
269.641	-0.05
269.856	0.03
270.071	-0.04
270.285	-0.11
270.5	0.05
270.715	0.06
270.93	-0
271.145	0.05
271.359	0.06
271.574	-0.05
271.789	-0.05
272.004	-0.06
272.218	0.01
272.433	0.04
272.648	-0.07
272.862	0.06
273.077	-0.02
273.292	0.01
273.506	-0.14
273.721	-0.06
273.936	0.04
274.15	0.07
274.365	-0.02
274.579	-0
274.794	0.06
275.008	0.04
275.223	-0.11
275.437	0
275.652	0.01
275.866	0.03
276.081	0.02
276.295	0.05
276.509	-0.02
276.724	-0.02
276.938	-0.02
277.153	-0.02
277.367	0.04
277.581	-0.04
277.796	0.05
278.01	-0.1
278.224	0.05
278.438	0.1
278.653	-0.09
278.867	-0.05
279.081	0.02
279.295	-0.01
279.51	0.02
279.724	-0.07
279.938	0.05
280.152	-0
280.366	-0.09
280.58	0.03
280.794	0.14
281.008	0
281.222	0.11
281.437	0.1
281.651	-0.04
281.865	0.06
282.079	-0
282.293	-0.08
282.507	-0.05
282.721	0.01
282.935	0.04
283.148	-0.09
283.362	-0.02
283.576	-0.05
283.79	-0.04
284.004	-0.05
284.218	0.05
284.432	-0.02
284.646	-0.04
284.859	0.01
285.073	0.01
285.287	0.05
285.501	0.02
285.714	-0.03
285.928	0.02
286.142	0.04
286.356	-0.03
286.569	0.03
286.783	0.05
286.997	0.02
287.21	0.01
287.424	0.02
287.637	0.02
287.851	-0.01
288.065	0.06
288.278	-0.04
288.492	-0
288.705	-0.03
288.919	0.07
289.132	-0.09
289.346	0.06
289.559	-0.06
289.773	-0.07
289.986	0
290.2	-0
290.413	0.08
290.626	-0.05
290.84	-0.01
291.053	-0.02
291.267	0.09
291.48	0.02
291.693	-0.04
291.906	-0.04
292.12	-0.09
292.333	-0.04
292.546	-0
292.76	0.08
292.973	-0
293.186	-0
293.399	-0
293.612	0.05
293.826	0.01
294.039	-0.04
294.252	-0.05
294.465	0.05
294.678	0.03
294.891	-0.01
295.104	-0.1
295.317	-0.06
295.53	0.04
295.743	-0.02
295.956	-0.02
296.169	0.07
296.382	0.06
296.595	0.01
296.808	-0.03
297.021	0.05
297.234	0.05
297.447	-0.04
297.66	-0
297.873	0.09
298.086	0.03
298.299	-0.03
298.511	-0.04
298.724	0.01
298.937	-0.02
299.15	-0.04
299.363	-0.02
299.575	0.03
299.788	0.05
300.001	0.01
300.213	-0.07
300.426	-0.01
300.639	0
300.852	-0.01
301.064	0.03
301.277	0.11
301.489	0.08
301.702	0.02
301.915	-0.02
302.127	0.01
302.34	0.04
302.552	0.03
302.765	0.01
302.977	0.03
303.19	-0.05
303.402	-0
303.615	0.05
303.827	-0.02
304.04	0
304.252	0.06
304.464	-0.03
304.677	0.11
304.889	0.04
305.102	-0.02
305.314	-0.05
305.526	-0.03
305.739	0.04
305.951	-0.04
306.163	-0
306.375	0.09
306.588	-0.03
306.8	-0.03
307.012	-0.07
307.224	0.03
307.436	0.07
307.649	-0.08
307.861	0.03
308.073	0.06
308.285	-0.03
308.497	-0.04
308.709	-0.01
308.921	-0.01
309.133	0.04
309.346	0.01
309.558	-0.01
309.77	0.01
309.982	0.07
310.194	0.05
310.406	-0.05
310.617	0.09
310.829	0.01
311.041	0.04
311.253	-0.04
311.465	-0.04
311.677	0.01
311.889	0.02
312.101	-0.01
312.313	0.02
312.524	0.07
312.736	-0.04
312.948	-0.01
313.16	0.08
313.372	0.02
313.583	0.03
313.795	0.01
314.007	0.01
314.218	0.04
314.43	0
314.642	-0.06
314.853	-0.04
315.065	0.02
315.277	-0.04
315.488	0.02
315.7	0.08
315.912	0.03
316.123	0
316.335	-0.04
316.546	0.12
316.758	-0.01
316.969	-0.03
317.181	0.03
317.392	-0.01
317.604	0.05
317.815	-0.07
318.026	-0.04
318.238	-0.07
318.449	0.02
318.661	-0.06
318.872	-0.09
319.083	-0.06
319.295	0.03
319.506	-0.01
319.717	0.06
319.929	0.03
320.14	0.02
320.351	-0
320.562	-0.02
320.774	0.02
320.985	0.04
321.196	-0.05
321.407	-0.09
321.618	0.04
321.829	0.02
322.041	0.05
322.252	0.01
322.463	0.04
322.674	0.02
322.885	-0.04
323.096	-0.03
323.307	-0.02
323.518	0.04
323.729	-0.03
323.94	0
324.151	-0.01
324.362	0.02
324.573	0
324.784	-0.07
324.995	0.03
325.206	0.05
325.417	-0.07
325.628	-0.04
325.838	0.02
326.049	0.02
326.26	0.05
326.471	-0.05
326.682	0.04
326.892	-0.02
327.103	-0.05
327.314	-0.06
327.525	0.05
327.735	-0
327.946	-0
328.157	-0.03
328.368	0.01
328.578	-0.02
328.789	0.02
328.999	-0.02
329.21	0.01
329.421	0.04
329.631	-0.03
329.842	-0.06
330.052	0.02
330.263	0.03
330.473	0.04
330.684	-0.01
330.894	0.01
331.105	0.01
331.315	-0
331.526	-0.05
331.736	0.09
331.947	0.03
332.157	0.01
332.367	-0.06
332.578	0.03
332.788	0.07
332.999	0.01
333.209	0.01
333.419	-0.04
333.629	0.03
333.84	0.01
334.05	-0.03
334.26	0.04
334.47	-0.03
334.681	0.06
334.891	-0.04
335.101	0.01
335.311	0.09
335.521	0.02
335.732	-0.02
335.942	0.07
336.152	0.04
336.362	0.02
336.572	0.01
336.782	0.05
336.992	-0.04
337.202	-0.02
337.412	-0.02
337.622	0.04
337.832	-0
338.042	0
338.252	-0.08
338.462	0
338.672	-0.02
338.882	-0.06
339.092	0.02
339.302	0.06
339.511	0.02
339.721	-0.05
339.931	-0.06
340.141	0.03
340.351	0.03
340.561	0.02
340.77	0.03
340.98	-0.01
341.19	0.06
341.4	-0.04
341.609	-0.03
341.819	-0.02
342.029	-0.05
342.238	0.04
342.448	-0.02
342.658	0.05
342.867	-0.03
343.077	-0
343.286	-0.03
343.496	0
343.706	0.06
343.915	-0.08
344.125	0.02
344.334	0.02
344.544	-0.03
344.753	-0.03
344.963	0
345.172	-0.02
345.381	0.03
345.591	-0.04
345.8	0.03
346.01	0.06
346.219	0.06
346.428	-0.12
346.638	-0.05
346.847	-0.01
347.056	0.09
347.266	-0.02
347.475	-0.03
347.684	0.02
347.893	-0.01
348.103	-0.01
348.312	-0.03
348.521	0.01
348.73	0.02
348.94	-0
349.149	-0.04
349.358	0.04
349.567	-0.06
349.776	-0.06
349.985	0.01
350.194	0.07
350.403	0.05
350.612	-0.05
350.821	-0.01
351.03	0.03
351.239	-0.05
351.448	-0.01
351.657	-0
351.866	0.07
352.075	-0
352.284	-0.02
352.493	-0.09
352.702	0.03
352.911	-0
353.12	0.03
353.329	-0.01
353.538	0.05
353.746	0.04
353.955	-0.03
354.164	0.01
354.373	-0
354.582	0.06
354.79	0.01
354.999	0.05
355.208	0.01
355.416	0.06
355.625	-0.03
355.834	-0.02
356.042	0.04
356.251	-0.03
356.46	-0.01
356.668	0.02
356.877	0.13
357.085	0.04
357.294	-0.07
357.503	0.03
357.711	-0.01
357.92	0.11
358.128	0.03
358.337	0.01
358.545	0.02
358.754	-0.01
358.962	0.05
359.17	-0.01
359.379	0.02
359.587	0.04
359.796	-0
360.004	0.02
360.212	0.01
360.421	0.12
360.629	-0.02
360.837	0.05
361.046	0.02
361.254	0.13
361.462	-0.01
361.67	-0.06
361.879	-0.01
362.087	0.07
362.295	0.01
362.503	-0.03
362.711	-0.06
362.92	-0.02
363.128	-0
363.336	-0.08
363.544	-0.1
363.752	-0.01
363.96	-0
364.168	-0.04
364.376	-0
364.584	-0
364.792	0.03
365	0.02
365.208	-0
365.416	0.03
365.624	0.07
365.832	-0.02
366.04	0.04
366.248	0.04
366.456	0.03
366.664	-0
366.872	0.01
367.079	-0.01
367.287	0
367.495	0.01
367.703	-0
367.911	0
368.118	0.01
368.326	0.02
368.534	0.01
368.742	0.04
368.949	-0.04
369.157	-0.02
369.365	0.06
369.572	0.03
369.78	0
369.988	0.05
370.195	0.02
370.403	0.02
370.61	-0.01
370.818	-0
371.026	0.07
371.233	-0.03
371.441	0
371.648	-0.04
371.856	0.03
372.063	0.03
372.271	-0.04
372.478	-0.03
372.685	-0.01
372.893	0.09
373.1	-0.04
373.308	-0.01
373.515	0.09
373.722	0
373.93	-0.01
374.137	0.02
374.344	0.04
374.552	0.04
374.759	0.03
374.966	0
375.173	-0.01
375.381	0.04
375.588	-0.03
375.795	-0.07
376.002	-0.03
376.209	-0.05
376.417	0.01
376.624	0.03
376.831	-0
377.038	-0.04
377.245	-0.08
377.452	-0.02
377.659	0.03
377.866	-0.02
378.073	-0.01
378.28	0.02
378.487	0.08
378.694	0
378.901	-0
379.108	0.03
379.315	0.06
379.522	0.07
379.729	-0.02
379.936	-0
380.143	-0.02
380.35	0.02
380.557	0
380.763	0.01
380.97	0.02
381.177	0.05
381.384	0.05
381.591	0
381.797	-0.01
382.004	-0
382.211	0.04
382.418	0.01
382.624	0.05
382.831	0.03
383.038	-0.01
383.244	0.03
383.451	-0.01
383.658	0.01
383.864	0.01
384.071	-0
384.277	0.08
384.484	-0.05
384.69	0.07
384.897	-0.05
385.103	-0.02
385.31	-0.04
385.516	0.02
385.723	-0.05
385.929	-0.03
386.136	-0.06
386.342	0.03
386.549	-0.03
386.755	0.03
386.961	0.01
387.168	-0.01
387.374	0
387.58	0.04
387.787	-0.01
387.993	0.04
388.199	-0
388.406	-0.05
388.612	0
388.818	-0.03
389.024	-0.04
389.231	0.02
389.437	0.05
389.643	0.02
389.849	0.02
390.055	0.01
390.261	0.01
390.467	0.01
390.674	-0.06
390.88	-0.03
391.086	0.02
391.292	-0.02
391.498	0.04
391.704	0.04
391.91	-0.02
392.116	-0.02
392.322	-0.08
392.528	0.03
392.734	-0.01
392.94	0.01
393.146	-0.03
393.352	0.02
393.557	-0
393.763	0.01
393.969	0.01
394.175	0.01
394.381	-0.01
394.587	-0.04
394.792	-0.01
394.998	0.03
395.204	0.06
395.41	-0.02
395.615	0.02
395.821	-0.01
396.027	0.07
396.233	-0.05
396.438	0.02
396.644	0.07
396.85	-0.04
397.055	0.01
397.261	-0.04
397.466	-0.02
397.672	0
397.878	0.04
398.083	-0.03
398.289	-0.02
398.494	0.09
398.7	0.02
398.905	-0.1
399.111	0.06
399.316	-0.05
399.522	0
399.727	0.02
399.932	-0.03
400.138	0.02
400.343	0.02
400.549	0.03
400.754	-0
400.959	0.02
401.165	0.01
401.37	-0
401.575	0.05
401.78	-0.01
401.986	-0.05
402.191	0.01
402.396	0.02
402.601	-0.01
402.807	0.08
403.012	0.02
403.217	0.05
403.422	0.02
403.627	0.01
403.832	-0.07
404.037	0.04
404.243	0.01
404.448	-0.05
404.653	-0
404.858	-0.03
405.063	0.06
405.268	-0.04
405.473	-0.05
405.678	-0.05
405.883	0.14
406.088	0.05
406.293	-0.03
406.498	-0.04
406.703	0.04
406.907	0.01
407.112	-0.04
407.317	0.01
407.522	0.03
407.727	-0.05
407.932	-0
408.136	0.12
408.341	-0.01
408.546	-0.01
408.751	0.03
408.956	-0.01
409.16	0.03
409.365	0.02
409.57	-0.01
409.774	-0.03
409.979	0.03
410.184	0.01
410.388	-0.05
410.593	0.03
410.798	0.02
411.002	0
411.207	0.01
411.411	0.06
411.616	-0.05
411.82	-0.03
412.025	0.04
412.229	-0.03
412.434	0.07
412.638	0.03
412.843	-0.03
413.047	0.01
413.252	0.01
413.456	-0.02
413.66	0.03
413.865	-0.04
414.069	0.08
414.273	-0.03
414.478	-0.03
414.682	-0.06
414.886	0.02
415.091	-0.08
415.295	-0.07
415.499	0.05
415.703	-0.02
415.908	0.04
416.112	-0.08
416.316	0.04
416.52	-0.01
416.724	-0.07
416.929	-0.03
417.133	0.04
417.337	0.02
417.541	-0.07
417.745	-0.06
417.949	0.02
418.153	-0
418.357	-0.12
418.561	0.03
418.765	0.01
418.969	0.09
419.173	0.05
419.377	-0.03
419.581	0.08
419.785	0
419.989	-0.09
420.193	-0.01
420.397	-0.02
420.601	0.06
420.804	-0.03
421.008	-0
421.212	0.01
421.416	0.05
421.62	-0.02
421.823	-0.02
422.027	0.1
422.231	-0
422.435	-0.01
422.638	0.01
422.842	0.01
423.046	-0.03
423.249	0.03
423.453	0.04
423.657	0.01
423.86	-0.04
424.064	-0.01
424.268	0.05
424.471	-0.02
424.675	0.05
424.878	0.04
425.082	0.01
425.285	0.01
425.489	-0
425.692	-0.01
425.896	-0.01
426.099	0.05
426.303	-0.02
426.506	-0.05
426.71	0.04
426.913	0.03
427.116	0.08
427.32	-0.03
427.523	0.01
427.726	0.08
427.93	-0.06
428.133	-0.03
428.336	-0.03
428.54	-0
428.743	-0.01
428.946	0.02
429.149	-0.03
429.353	0.03
429.556	-0.02
429.759	0
429.962	-0.05
430.165	-0.04
430.368	-0.01
430.571	-0.04
430.775	0
430.978	-0.03
431.181	-0.02
431.384	0.02
431.587	-0.04
431.79	0.02
431.993	-0.06
432.196	0.03
432.399	0
432.602	0.07
432.805	-0.03
433.008	-0.04
433.211	-0.07
433.414	0.01
433.616	0.05
433.819	-0.02
434.022	-0.12
434.225	0.1
434.428	0.06
434.631	0.11
434.833	-0.01
435.036	0
435.239	0.08
435.442	-0.02
435.645	-0.06
435.847	0.03
436.05	0.07
436.253	0.03
436.455	-0.05
436.658	-0.01
436.861	0.1
437.063	-0.03
437.266	-0.02
437.468	0.04
437.671	0.11
437.874	0.01
438.076	-0.07
438.279	-0.03
438.481	0.02
438.684	-0.06
438.886	0.01
439.089	-0.1
439.291	0.02
439.494	0.05
439.696	-0.06
439.899	-0.03
440.101	-0.04
440.303	-0.12
440.506	0.05
440.708	-0.05
440.91	-0.01
441.113	-0.06
441.315	-0.02
441.517	-0.08
441.72	0.03
441.922	-0.05
442.124	-0.06
442.326	-0.01
442.529	0.05
442.731	-0.04
442.933	0.07
443.135	-0.03
443.337	-0.07
443.539	-0.03
443.742	-0.01
443.944	0.02
444.146	-0
444.348	-0.02
444.55	-0.06
444.752	-0
444.954	-0.07
445.156	0.01
445.358	-0.04
445.56	0.05
445.762	-0.01
445.964	-0.03
446.166	0.01
446.368	-0.03
446.57	0.03
446.772	-0.01
446.974	0
447.175	0.01
447.377	-0.04
447.579	0.05
447.781	-0.07
447.983	0.06
448.184	0
448.386	0.06
448.588	-0.11
448.79	-0
448.991	-0
449.193	-0.06
449.395	0.01
449.597	0.02
449.798	0.02
450	0.03
450.202	0.02
450.403	-0.01
450.605	0.03
450.806	-0
451.008	-0.09
451.21	0.01
451.411	0.04
451.613	-0.03
451.814	-0.01
452.016	0.04
452.217	0.04
452.419	0.02
452.62	-0
452.821	0.04
453.023	0.06
453.224	0.07
453.426	-0.04
453.627	0.07
453.828	0.03
454.03	-0.02
454.231	0.01
454.432	-0.04
454.634	0.11
454.835	-0.05
455.036	-0.02
455.238	0.02
455.439	0.03
455.64	-0.09
455.841	-0.06
456.042	0.11
456.244	0.02
456.445	-0.04
456.646	-0.06
456.847	0.01
457.048	0.03
457.249	-0.01
457.45	0.2
457.651	-0.05
457.852	0.03
458.054	0.05
458.255	-0.01
458.456	0.02
458.657	-0
458.858	-0.03
459.058	0.05
459.259	0.02
459.46	-0.03
459.661	-0.01
459.862	0.07
460.063	-0.02
460.264	0.05
460.465	-0.04
460.666	0.1
460.866	-0.03
461.067	0
461.268	0.01
461.469	-0.02
461.67	0.05
461.87	-0.05
462.071	-0.03
462.272	-0.04
462.473	0
462.673	0.03
462.874	-0.04
463.075	0.03
463.275	-0.05
463.476	0.01
463.676	0.01
463.877	0.01
464.078	0.03
464.278	0.02
464.479	-0.03
464.679	0.05
464.88	0
465.08	0.1
465.281	-0.05
465.481	-0.03
465.682	0
465.882	0.07
466.083	0.01
466.283	-0.02
466.483	-0.01
466.684	-0.04
466.884	-0.03
467.085	-0.01
467.285	0.04
467.485	-0.07
467.686	0.04
467.886	-0.06
468.086	0
468.286	0
468.487	-0.01
468.687	-0.06
468.887	0
469.087	0.07
469.287	-0
469.488	-0.05
469.688	0.05
469.888	0.08
470.088	0.06
470.288	0.04
470.488	0.06
470.688	0.01
470.888	-0
471.088	-0.04
471.288	0.06
471.488	0.05
471.688	0.06
471.888	0
472.088	0.05
472.288	0.03
472.488	-0.03
472.688	-0.02
472.888	-0.01
473.088	-0.02
473.288	0.03
473.488	-0.02
473.688	0.07
473.887	0.02
474.087	-0.02
474.287	0.03
474.487	0.01
474.687	0
474.886	-0
475.086	0.01
475.286	0.01
475.486	0.01
475.685	-0.01
475.885	0.02
476.085	0.01
476.284	0.02
476.484	-0.02
476.684	0
476.883	0.06
477.083	0.05
477.282	0
477.482	0.07
477.681	0.04
477.881	0.02
478.08	-0.02
478.28	-0.04
478.479	0.02
478.679	0.09
478.878	-0
479.078	-0.03
479.277	-0.03
479.477	-0
479.676	0.05
479.875	-0.02
480.075	-0.06
480.274	0.01
480.473	0.02
480.673	-0.02
480.872	0.03
481.071	0.04
481.271	-0.01
481.47	-0.01
481.669	0.01
481.868	0.02
482.067	-0.01
482.267	-0.02
482.466	-0.01
482.665	-0.03
482.864	-0.01
483.063	-0.02
483.262	0.03
483.461	0.06
483.661	0.08
483.86	0.01
484.059	0.01
484.258	0.02
484.457	0.02
484.656	-0
484.855	0.06
485.054	-0.02
485.253	-0.04
485.452	-0.02
485.651	-0.01
485.849	-0
486.048	-0.02
486.247	-0.02
486.446	0.03
486.645	-0.02
486.844	-0.02
487.043	-0.01
487.241	0.04
487.44	-0
487.639	0.03
487.838	0.04
488.037	0.03
488.235	0.07
488.434	0.01
488.633	-0.01
488.831	0.03
489.03	0.05
489.229	0.01
489.427	0.03
489.626	0.07
489.825	0.07
490.023	0.03
490.222	-0
490.42	0.04
490.619	0.05
490.817	0.04
491.016	-0.01
491.214	0.03
491.413	-0.01
491.611	0.02
491.81	0.02
492.008	0.06
492.207	0.06
492.405	0.01
492.604	0
492.802	0.03
493	0.03
493.199	0.01
493.397	0.02
493.595	0.01
493.794	0.01
493.992	0.08
494.19	0
494.388	0
494.587	0
494.785	0.05
494.983	-0.01
495.181	0.04
495.379	0.04
495.578	0.01
495.776	0.05
495.974	0.07
496.172	0.03
496.37	0.02
496.568	0.01
496.766	0.01
496.964	0.05
497.162	0.02
497.36	0.02
497.558	0.06
497.756	0.06
497.954	0.04
498.152	0
498.35	0.03
498.548	0.02
498.746	0.05
498.944	0
499.142	0.03
499.34	0.01
499.538	0.05
499.736	0.02
499.933	0.08
500.131	0.08
500.329	0.04
500.527	0.1
500.725	0.07
500.922	0.07
501.12	0.06
501.318	0.06
501.516	0.06
501.713	0.07
501.911	0.05
502.109	0.02
502.306	0.08
502.504	0.07
502.701	0.05
502.899	0.08
503.097	0.13
503.294	0.09
503.492	0.06
503.689	0.07
503.887	0.11
504.084	0.14
504.282	0.1
504.479	0.04
504.677	0.11
504.874	0.08
505.072	0.08
505.269	0.08
505.466	0.09
505.664	0.11
505.861	0.06
506.059	0.07
506.256	0.12
506.453	0.09
506.651	0.15
506.848	0.14
507.045	0.11
507.242	0.1
507.44	0.11
507.637	0.13
507.834	0.12
508.031	0.15
508.229	0.1
508.426	0.13
508.623	0.15
508.82	0.12
509.017	0.12
509.214	0.12
509.411	0.15
509.608	0.11
509.805	0.14
510.003	0.13
510.2	0.14
510.397	0.19
510.594	0.14
510.791	0.15
510.988	0.16
511.184	0.21
511.381	0.18
511.578	0.15
511.775	0.23
511.972	0.17
512.169	0.18
512.366	0.19
512.563	0.22
512.76	0.18
512.956	0.2
513.153	0.19
513.35	0.23
513.547	0.19
513.744	0.19
513.94	0.17
514.137	0.21
514.334	0.21
514.53	0.22
514.727	0.24
514.924	0.31
515.12	0.22
515.317	0.23
515.514	0.22
515.71	0.23
515.907	0.23
516.103	0.25
516.3	0.27
516.497	0.28
516.693	0.29
516.89	0.25
517.086	0.24
517.283	0.31
517.479	0.27
517.676	0.29
517.872	0.27
518.068	0.25
518.265	0.26
518.461	0.26
518.658	0.26
518.854	0.3
519.05	0.28
519.247	0.27
519.443	0.32
519.639	0.32
519.836	0.32
520.032	0.32
520.228	0.31
520.424	0.34
520.621	0.34
520.817	0.32
521.013	0.31
521.209	0.32
521.405	0.35
521.601	0.32
521.798	0.3
521.994	0.37
522.19	0.3
522.386	0.29
522.582	0.29
522.778	0.31
522.974	0.3
523.17	0.31
523.366	0.33
523.562	0.32
523.758	0.31
523.954	0.27
524.15	0.3
524.346	0.33
524.542	0.31
524.738	0.31
524.934	0.29
525.129	0.31
525.325	0.31
525.521	0.3
525.717	0.35
525.913	0.33
526.109	0.3
526.304	0.32
526.5	0.29
526.696	0.33
526.892	0.28
527.087	0.31
527.283	0.27
527.479	0.31
527.674	0.26
527.87	0.29
528.066	0.27
528.261	0.3
528.457	0.27
528.653	0.28
528.848	0.28
529.044	0.3
529.239	0.27
529.435	0.29
529.63	0.3
529.826	0.32
530.021	0.28
530.217	0.31
530.412	0.26
530.608	0.23
530.803	0.26
530.999	0.25
531.194	0.19
531.389	0.25
531.585	0.2
531.78	0.25
531.975	0.25
532.171	0.27
532.366	0.24
532.561	0.25
532.757	0.22
532.952	0.23
533.147	0.24
533.342	0.23
533.538	0.22
533.733	0.24
533.928	0.2
534.123	0.22
534.318	0.17
534.513	0.19
534.709	0.21
534.904	0.21
535.099	0.22
535.294	0.22
535.489	0.2
535.684	0.19
535.879	0.16
536.074	0.22
536.269	0.17
536.464	0.21
536.659	0.17
536.854	0.18
537.049	0.18
537.244	0.2
537.439	0.16
537.634	0.22
537.828	0.2
538.023	0.16
538.218	0.12
538.413	0.17
538.608	0.12
538.803	0.18
538.997	0.13
539.192	0.18
539.387	0.17
539.582	0.14
539.776	0.14
539.971	0.15
540.166	0.13
540.36	0.13
540.555	0.14
540.75	0.15
540.944	0.14
541.139	0.1
541.334	0.13
541.528	0.15
541.723	0.16
541.917	0.12
542.112	0.09
542.306	0.12
542.501	0.13
542.695	0.14
542.89	0.1
543.084	0.09
543.279	0.13
543.473	0.12
543.668	0.13
543.862	0.11
544.056	0.11
544.251	0.11
544.445	0.14
544.64	0.09
544.834	0.09
545.028	0.1
545.222	0.1
545.417	0.12
545.611	0.1
545.805	0.11
546	0.1
546.194	0.1
546.388	0.1
546.582	0.12
546.776	0.11
546.97	0.1
547.165	0.12
547.359	0.11
547.553	0.08
547.747	0.1
547.941	0.1
548.135	0.08
548.329	0.12
548.523	0.11
548.717	0.08
548.911	0.09
549.105	0.11
549.299	0.11
549.493	0.1
549.687	0.11
549.881	0.11
550.075	0.06
550.269	0.04
550.463	0.09
550.657	0.04
550.85	0.09
551.044	0.06
551.238	0.07
551.432	0.06
551.626	0.04
551.82	0.07
552.013	0.06
552.207	0.08
552.401	0.08
552.594	0.1
552.788	0.06
552.982	0.08
553.176	0.05
553.369	0.07
553.563	0.07
553.756	0.02
553.95	0.04
554.144	0.07
554.337	0.09
554.531	0.06
554.724	0.07
554.918	0.05
555.111	0.1
555.305	0.06
555.498	0.11
555.692	0.08
555.885	0.03
556.079	0.07
556.272	0.02
556.466	0.08
556.659	0.06
556.852	0.06
557.046	0.04
557.239	0.08
557.432	0.02
557.626	0.03
557.819	0.05
558.012	0.06
558.206	0.06
558.399	0.03
558.592	0.05
558.785	0.03
558.979	0.06
559.172	0.05
559.365	0.05
559.558	0.05
559.751	0.03
559.944	0.05
560.138	0.05
560.331	0.02
560.524	0.01
560.717	0.03
560.91	0.03
561.103	0.04
561.296	0.06
561.489	0.05
561.682	0.05
561.875	0.06
562.068	0.06
562.261	0.05
562.454	0.08
562.647	0.06
562.84	0.05
563.032	0.02
563.225	0.02
563.418	0.02
563.611	0.02
563.804	-0
563.997	0.01
564.19	-0.01
564.382	0.03
564.575	0.03
564.768	0.02
564.961	0.01
565.153	0.01
565.346	0.04
565.539	0.04
565.731	0.06
565.924	0.05
566.117	0.04
566.309	0.03
566.502	0.02
566.695	0.04
566.887	0.03
567.08	0.02
567.272	0
567.465	0.01
567.657	0.03
567.85	0.04
568.042	0.04
568.235	0.05
568.427	0.03
568.62	0.01
568.812	0.05
569.005	0.02
569.197	-0.02
569.389	0.01
569.582	0.03
569.774	-0
569.966	-0.02
570.159	-0.03
570.351	0.02
570.543	0.02
570.736	0.02
570.928	0
571.12	0.02
571.312	-0
571.505	-0
571.697	0.06
571.889	-0.02
572.081	0.01
572.273	0
572.465	0.05
572.658	0.03
572.85	0.01
573.042	-0
573.234	0.02
573.426	0.04
573.618	-0.01
573.81	0.04
574.002	0.05
574.194	0.05
574.386	-0.02
574.578	-0.06
574.77	-0
574.962	0.01
575.154	-0
575.346	0.01
575.538	0.05
575.729	-0.01
575.921	0
576.113	-0
576.305	0.05
576.497	0.01
576.689	0
576.88	0
577.072	0.03
577.264	-0.01
577.456	0.02
577.647	-0.07
577.839	0.01
578.031	0.04
578.223	-0.02
578.414	0
578.606	0.03
578.798	0.03
578.989	-0.02
579.181	-0.02
579.372	-0
579.564	-0.01
579.755	0.01
579.947	-0
580.139	0.03
580.33	-0.05
580.522	0.01
580.713	-0.05
580.905	0
581.096	0.03
581.287	0
581.479	0.02
581.67	0.03
581.862	-0
582.053	0
582.244	-0.03
582.436	0.01
582.627	0.01
582.818	0.01
583.01	-0.04
583.201	0.01
583.392	0.04
583.583	0.01
583.775	-0.03
583.966	-0.02
584.157	-0.01
584.348	-0.01
584.54	-0.02
584.731	0.01
584.922	0.02
585.113	-0.03
585.304	-0.01
585.495	0.02
585.686	0.03
585.877	0.01
586.068	-0.01
586.259	0.02
586.45	0.04
586.641	-0.04
586.832	-0.06
587.023	0.01
587.214	0
587.405	0.01
587.596	-0.04
587.787	0.05
587.978	0
588.169	-0.02
588.36	-0.01
588.551	0.01
588.742	-0.01
588.932	0.01
589.123	-0.02
589.314	0.04
589.505	0.01
589.696	0
589.886	-0.02
590.077	-0.02
590.268	-0
590.458	-0.06
590.649	-0.04
590.84	0.05
591.03	-0.03
591.221	-0.03
591.412	-0.02
591.602	0.04
591.793	0.04
591.984	-0.04
592.174	-0.01
592.365	0.06
592.555	-0
592.746	-0
592.936	0.03
593.127	0.02
593.317	0.03
593.508	-0.02
593.698	-0.01
593.889	0
594.079	0.02
594.269	-0.03
594.46	0.01
594.65	-0.02
594.84	-0
595.031	-0.03
595.221	0.01
595.411	-0.04
595.602	0.01
595.792	-0.01
595.982	-0.02
596.172	0.04
596.363	0
596.553	0.02
596.743	0.03
596.933	0.02
597.123	0.04
597.314	-0.01
597.504	-0.04
597.694	0.03
597.884	0.01
598.074	-0.02
598.264	-0.01
598.454	0.02
598.644	-0.01
598.834	0
599.024	-0.07
599.214	-0.02
599.404	0.04
599.594	-0.04
599.784	-0.03
599.974	0.08
600.164	0.03
600.354	-0.04
600.544	-0.06
600.734	0.01
600.924	0.06
601.114	-0.02
601.303	0.03
601.493	0.01
601.683	-0
601.873	-0.01
602.063	-0.05
602.252	0.04
602.442	-0.06
602.632	-0.03
602.821	-0.07
603.011	0.02
603.201	0.01
603.39	-0.03
603.58	-0.04
603.77	-0
603.959	0.05
604.149	0.02
604.339	-0.03
604.528	0.03
604.718	0.02
604.907	0.02
605.097	-0.02
605.286	-0.03
605.476	0.01
605.665	0.01
605.855	-0.02
606.044	0.02
606.234	0.04
606.423	0.01
606.612	-0.05
606.802	0.01
606.991	0.03
607.181	0.02
607.37	-0.05
607.559	-0.02
607.749	-0.02
607.938	-0.01
608.127	-0.01
608.316	0
608.506	-0.01
608.695	-0.01
608.884	-0.05
609.073	0.01
609.263	0.01
609.452	0.01
609.641	-0.01
609.83	-0.03
610.019	0.02
610.208	-0.02
610.397	-0.01
610.586	0.02
610.775	-0.01
610.965	-0.01
611.154	-0.03
611.343	-0.01
611.532	-0
611.721	-0.05
611.91	-0.04
612.099	-0.01
612.287	-0.02
612.476	-0.04
612.665	0.02
612.854	-0.04
613.043	0.05
613.232	-0
613.421	-0.06
613.61	0
613.798	-0.04
613.987	0.02
614.176	-0.02
614.365	0.03
614.554	-0.01
614.742	0.01
614.931	-0.02
615.12	0.02
615.309	-0.04
615.497	-0
615.686	-0.04
615.875	-0.02
616.063	-0.01
616.252	-0.03
616.44	-0.01
616.629	0.02
616.818	0.01
617.006	-0
617.195	-0.01
617.383	0.01
617.572	-0.01
617.76	-0.01
617.949	-0.02
618.137	0.04
618.326	0.02
618.514	-0.03
618.703	-0.04
618.891	0.08
619.079	-0.08
619.268	0.03
619.456	-0.02
619.644	0.05
619.833	-0
620.021	-0.01
620.209	-0.08
620.398	0.02
620.586	-0.01
620.774	0.02
620.962	0
621.151	0.04
621.339	0.02
621.527	-0.05
621.715	-0.01
621.903	-0.03
622.092	0
622.28	-0
622.468	-0.01
622.656	-0.01
622.844	0.02
623.032	-0.03
623.22	-0.08
623.408	0.03
623.596	0.01
623.784	-0
623.972	-0.04
624.16	0.01
624.348	0.06
624.536	-0.02
624.724	-0.02
624.912	0.03
625.1	0.04
625.288	-0.05
625.476	-0.02
625.664	0.05
625.851	-0.06
626.039	-0.02
626.227	0.01
626.415	-0.02
626.603	-0.08
626.79	0.01
626.978	-0.01
627.166	0.03
627.354	-0
627.541	-0.03
627.729	-0.06
627.917	0.05
628.104	0.05
628.292	0.02
628.48	-0.03
628.667	0.01
628.855	-0.01
629.042	0
629.23	-0.02
629.418	-0.05
629.605	-0.02
629.793	-0.04
629.98	0
630.168	-0.02
630.355	-0.02
630.543	-0
630.73	-0.02
630.917	0.03
631.105	0.05
631.292	-0.03
631.48	-0
631.667	0.06
631.854	-0
632.042	-0.01
632.229	-0.08
632.416	-0.01
632.604	0
632.791	-0.04
632.978	0.03
633.165	0.03
633.353	0.06
633.54	0.01
633.727	-0.07
633.914	-0.04
634.101	-0.09
634.289	0.03
634.476	-0.04
634.663	-0.03
634.85	-0.01
635.037	-0.03
635.224	-0.07
635.411	0.01
635.598	0.08
635.785	-0.01
635.972	-0.01
636.159	0.04
636.346	-0.01
636.533	-0.01
636.72	-0.04
636.907	-0.03
637.094	0.02
637.281	-0.04
637.468	-0
637.655	-0.04
637.842	-0
638.029	-0.03
638.215	0
638.402	0.01
638.589	-0.04
638.776	-0.02
638.963	-0.03
639.149	0.03
639.336	0.08
639.523	-0.01
639.709	-0.01
639.896	-0.03
640.083	0.07
640.27	0.02
640.456	-0.03
640.643	0.01
640.829	-0.04
641.016	0
641.203	-0.06
641.389	-0
641.576	0.01
641.762	-0.03
641.949	-0.05
642.135	0.02
642.322	0.03
642.508	-0.06
642.695	0.02
642.881	0.01
643.068	-0.01
643.254	-0.04
643.441	0.03
643.627	0.01
643.813	-0.04
644	0
644.186	-0.02
644.372	0.02
644.559	0.02
644.745	-0.02
644.931	-0.03
645.118	-0
645.304	0
645.49	-0.03
645.676	-0.01
645.862	-0.01
646.049	0.05
646.235	-0.01
646.421	0.08
646.607	0.04
646.793	-0.02
646.979	-0.02
647.165	-0
647.352	0.01
647.538	0.01
647.724	0.01
647.91	-0.01
648.096	0.03
648.282	0.03
648.468	0.01
648.654	0.02
648.84	0.04
649.026	0.01
649.212	-0.02
649.397	-0.05
649.583	-0.04
649.769	-0.02
649.955	0
650.141	0.01
650.327	0.04
650.513	-0.07
650.698	0.03
650.884	-0.1
651.07	0.02
651.256	0.04
651.442	-0.04
651.627	-0.03
651.813	0.03
651.999	0.02
652.184	0.01
652.37	0.01
652.556	-0.01
652.741	0.04
652.927	-0.07
653.113	-0.03
653.298	-0
653.484	-0.05
653.669	-0.04
653.855	-0.02
654.04	0.03
654.226	-0.01
654.412	0
654.597	-0.06
654.782	-0
654.968	0.04
655.153	-0
655.339	-0.03
655.524	-0.03
655.71	0.04
655.895	-0.01
656.08	-0.02
656.266	0.02
656.451	0.03
656.636	-0.05
656.822	0.01
657.007	-0.06
657.192	-0.06
657.378	-0.04
657.563	0.01
657.748	0.02
657.933	-0.02
658.118	-0.06
658.304	-0.03
658.489	0.02
658.674	0.01
658.859	-0.06
659.044	0.03
659.229	0.04
659.414	-0.05
659.599	-0.02
659.785	-0.06
659.97	-0.01
660.155	0.02
660.34	0
660.525	-0
660.71	-0.03
660.895	0.01
661.08	-0.04
661.264	0.01
661.449	0.05
661.634	0.03
661.819	-0.01
662.004	0.01
662.189	-0.09
662.374	-0.02
662.559	-0.06
662.743	-0.08
662.928	-0.01
663.113	-0.04
663.298	-0.07
663.483	-0.02
663.667	0.03
663.852	-0.04
664.037	0.05
664.221	-0.07
664.406	0.04
664.591	0.01
664.775	-0.02
664.96	-0.08
665.145	-0.02
665.329	0
665.514	-0.05
665.698	-0.05
665.883	-0.08
666.068	0.03
666.252	0.02
666.437	-0.03
666.621	-0.02
666.806	0.04
666.99	0.01
667.174	-0.04
667.359	0.03
667.543	-0.02
667.728	0.01
667.912	-0.07
668.096	0.04
668.281	-0.02
668.465	-0.02
668.649	-0
668.834	-0.04
669.018	-0.04
669.202	-0.03
669.387	-0.02
669.571	0.03
669.755	-0.03
669.939	-0.03
670.124	-0.01
670.308	-0
670.492	0.02
670.676	0.02
670.86	-0.02
671.044	-0.04
671.228	0.09
671.413	-0.06
671.597	-0.03
671.781	-0.01
671.965	0.05
672.149	-0.01
672.333	-0.01
672.517	-0.01
672.701	0.04
672.885	-0.05
673.069	-0.07
673.253	0.02
673.437	-0.02
673.621	-0
673.804	-0.01
673.988	0.01
674.172	-0.02
674.356	-0.04
674.54	0.02
674.724	0.11
674.908	-0.01
675.091	0.02
675.275	-0
675.459	0.02
675.643	0.12
675.826	0.05
676.01	0.01
676.194	0
676.377	0.05
676.561	0.01
676.745	-0.03
676.928	0.03
677.112	0.03
677.296	-0.03
677.479	-0.04
677.663	-0.04
677.846	0
678.03	-0.01
678.213	-0.03
678.397	0.03
678.58	-0.03
678.764	-0.01
678.947	-0.06
679.131	-0.07
679.314	0.07
679.498	-0.07
679.681	0
679.865	0.03
680.048	0.01
680.231	-0.01
680.415	0.01
680.598	-0.04
680.781	0.02
680.965	-0.01
681.148	-0.01
681.331	-0.04
681.514	0.03
681.698	-0.03
681.881	-0
682.064	0.03
682.247	0.02
682.43	-0.07
682.614	-0.02
682.797	0.04
682.98	0.02
683.163	-0.04
683.346	0.03
683.529	-0.04
683.712	-0.05
683.895	0.02
684.078	-0.08
684.261	0
684.444	-0
684.627	0.01
684.81	0.01
684.993	-0.03
685.176	0.05
685.359	-0.05
685.542	0.01
685.725	0.05
685.908	-0
686.091	0.01
686.274	0.03
686.457	-0.02
686.639	-0.04
686.822	0.05
687.005	0.01
687.188	0.03
687.371	0.12
687.553	0.02
687.736	0.01
687.919	0.07
688.102	0.06
688.284	-0.03
688.467	-0.03
688.65	0
688.832	-0.02
689.015	-0.01
689.197	-0.09
689.38	0.13
689.563	0.09
689.745	-0.01
689.928	-0.06
690.11	-0.03
690.293	0.02
690.475	-0.09
690.658	0.04
690.84	0.02
691.023	-0.02
691.205	-0.05
691.388	0.01
691.57	0.03
691.752	-0
691.935	-0.03
692.117	-0.03
692.3	0.07
692.482	0.06
692.664	0.03
692.847	0.05
693.029	0.07
693.211	0.04
693.393	-0.01
693.576	-0.02
693.758	-0
693.94	0.04
694.122	0.01
694.304	-0.01
694.487	0.01
694.669	0.09
694.851	-0.06
695.033	-0.03
695.215	-0.02
695.397	-0.02
695.579	0.02
695.761	-0.05
695.943	-0.06
696.125	0.03
696.308	0.06
696.49	-0.07
696.671	0.12
696.853	-0.02
697.035	0.14
697.217	-0.01
697.399	0.04
697.581	-0.11
697.763	0.02
697.945	-0
698.127	0.02
698.309	0.04
698.491	0
698.672	0
698.854	0.03
699.036	0.06
699.218	-0.01
699.399	0.02
699.581	0.09
699.763	-0.02
699.945	-0.01
700.126	-0.06
700.308	0.01
700.49	-0.01
700.671	-0.12
700.853	-0.08
701.035	-0.05
701.216	0.01
701.398	-0.01
701.579	0
701.761	0.06
701.943	-0.01
702.124	-0.05
702.306	-0.05
702.487	0.12
702.669	-0.04
702.85	-0.07
703.031	-0.06
703.213	0.13
703.394	0.02
703.576	-0.03
703.757	0.1
703.938	0.06
704.12	0.16
704.301	0.05
704.483	-0.07
704.664	0
704.845	0.09
705.026	0.04
705.208	-0.01
705.389	0.02
705.57	0.06
705.751	0.04
705.933	-0.03
706.114	0.06
706.295	-0.04
706.476	-0.12
706.657	0.09
706.838	0.06
707.02	0.04
707.201	-0.05
707.382	-0
707.563	0.04
707.744	-0.04
707.925	-0.08
708.106	-0.02
708.287	-0.01
708.468	0.09
708.649	0.03
708.83	0.05
709.011	-0.07
709.192	0.03
709.373	-0.1
709.554	0.02
709.734	0.05
709.915	-0
710.096	-0.02
710.277	-0.11
710.458	-0.01
710.639	0.08
710.819	-0.08
711	-0.03
711.181	0.08
711.362	0.07
711.542	0.06
711.723	-0.04
711.904	0.07
712.085	0.02
712.265	0.05
712.446	-0.08
712.627	-0.07
712.807	0.02
712.988	0.05
713.168	-0.11
713.349	0.02
713.53	-0.1
713.71	-0.06
713.891	-0.05
714.071	-0.01
714.252	-0.09
714.432	-0.07
714.613	-0.14
714.793	-0.02
714.974	0.13
715.154	0.04
715.334	0.06
715.515	0.11
715.695	-0.09
715.876	-0.07
716.056	0.02
716.236	-0.04
716.417	-0.01
716.597	-0.06
716.777	0.18
716.957	-0.02
717.138	0.02
717.318	-0
717.498	-0.1
717.678	-0.04
717.859	0.05
718.039	0.01
718.219	-0.02
718.399	0.05
718.579	-0.06
718.759	-0.09
718.939	0.07
719.12	0.03
719.3	-0.07
719.48	-0.06
719.66	-0.14
719.84	0.16
720.02	-0.07
720.2	-0.02
720.38	0.08
720.56	0.06
720.74	-0.01
720.92	-0.02
721.1	0.05
721.279	0.05
721.459	-0.04
721.639	-0.09
721.819	0.03
721.999	-0.06
722.179	0.04
722.359	-0.1
722.538	-0.03
722.718	0.04
722.898	-0.09
723.078	-0.06
723.257	-0.1
723.437	-0.02
723.617	-0
723.797	0.08
723.976	-0
724.156	0.05
724.336	0.02
724.515	0.11
724.695	-0.07
724.874	-0.02
725.054	0.05
725.234	-0.02
725.413	0.05
725.593	-0.05
725.772	-0.01
725.952	0.07
726.131	-0.06
726.311	-0.08
726.49	-0.02
726.67	-0.12
726.849	-0.08
727.028	-0.03
727.208	-0.05
727.387	0.06
727.567	-0.11
727.746	-0.12
727.925	-0.05
728.105	-0.05
728.284	-0.02
728.463	-0.05
728.643	0
728.822	-0.08
729.001	-0.07
729.18	0.03
729.359	0.01
729.539	0.04
729.718	-0.05
729.897	0.02
730.076	-0.04
730.255	-0.08
730.434	0
730.614	0.07
730.793	0.1
730.972	0.04
731.151	-0.01
731.33	0.08
731.509	-0.01
731.688	0.06
731.867	-0.05
732.046	-0.18
732.225	0.2
732.404	-0.02
732.583	-0.11
732.762	0
732.941	0.13
733.12	-0
733.298	-0.08
733.477	0.13
733.656	-0.04
733.835	-0.12
734.014	0.08
734.193	0.1
734.371	0.07
734.55	0.01
734.729	-0.16
734.908	0.03
735.086	0.1
735.265	0.06
735.444	-0.14
735.623	-0.11
735.801	-0.05
735.98	0.01
736.159	0.01
736.337	0.07
736.516	-0.07
736.694	0.1
736.873	-0.05
737.052	0.14
737.23	0.21
737.409	-0.05
737.587	0.18
737.766	-0.13
737.944	-0.05
738.123	0.13
738.301	0.06
738.479	-0.05
738.658	0.03
738.836	-0.16
739.015	0.08
739.193	0.18
739.371	-0.09
739.55	-0.06
739.728	-0.05
739.906	0.13
740.085	0.06
740.263	0.05
740.441	-0.11
740.62	0.15
740.798	0.15
740.976	-0.13
741.154	-0.05
741.332	0.1
741.511	-0.14
741.689	0.09
741.867	0.03
742.045	0.06
742.223	-0.07
742.401	0
742.579	-0.11
742.757	-0.02
742.935	-0.2
743.114	-0.1
743.292	-0.1
743.47	-0.08
743.648	0.02
743.826	0.08
744.004	0.01
744.181	0.08
744.359	-0.03
744.537	0.01
744.715	0.03
744.893	-0.04
745.071	-0.02
745.249	-0.06
745.427	-0.02
745.605	0.05
745.782	0.09
745.96	0.13
746.138	0.11
746.316	0.06
746.493	-0.05
746.671	0.06
746.849	-0.06
747.027	0.11
747.204	-0.13
747.382	0.09
747.56	-0.12
747.737	0.09
747.915	-0.16
748.093	0.03
748.27	-0.02
748.448	0
748.625	-0.01
748.803	-0.12
748.98	-0.02
749.158	-0.01
749.335	0.11
749.513	-0.05
749.69	0.02
749.868	0
750.045	-0.01
750.223	-0.08
750.4	-0.12
750.578	0.11
750.755	0.02
750.932	-0.1
751.11	0.14
751.287	-0.08
751.464	0.14
751.642	-0.04
751.819	0.05
751.996	0.06
752.173	-0.01
752.351	-0.12
752.528	0.05
752.705	-0.08
752.882	-0.01
753.06	0.02
753.237	0
753.414	0.25
753.591	0.14
753.768	-0.01
753.945	-0.07
754.122	-0.19
754.299	0.06
754.476	-0.14
754.654	-0.08
754.831	0.17
755.008	0.1
755.185	0.01
755.362	-0.11
755.539	0.01
755.716	0.01
755.892	-0.04
756.069	-0.14
756.246	0.05
756.423	-0.09
756.6	0.16
756.777	0
756.954	0.18
757.131	0.03
757.307	-0
757.484	-0.18
757.661	-0.01
757.838	0.05
758.015	-0.1
758.191	0.08
758.368	0.02
758.545	0.12
758.721	-0.07
758.898	-0.15
759.075	0.12
759.251	0.05
759.428	0.07
759.605	-0.24
759.781	-0.1
759.958	0.09
760.134	-0.1
760.311	-0.06
760.488	0.16
760.664	0.12
760.841	-0.09
761.017	-0.09
761.194	0.12
761.37	0.24
761.547	0.06
761.723	-0.01
761.899	0.14
762.076	0.04
762.252	-0.08
762.429	-0.09
762.605	0.17
762.781	0.04
762.958	0.02
763.134	-0.03
763.31	-0.13
763.486	0.12
763.663	-0.25
763.839	0.09
764.015	-0.23
764.191	-0.09
764.368	0.06
764.544	-0.1
764.72	0.09
764.896	0.12
765.072	0.03
765.248	-0.05
765.425	-0.18
765.601	0.03
765.777	0.06
765.953	-0.3
766.129	-0.11
766.305	-0.12
766.481	0.07
766.657	0.05
766.833	0.1
767.009	-0.28
767.185	-0.12
767.361	-0
767.537	-0.07
767.713	0.14
767.889	-0.05
768.065	0.11
768.24	-0.11
768.416	0.06
768.592	-0.11
768.768	-0.02
768.944	0.05
769.12	-0.08
769.295	-0.12
769.471	0.02
769.647	0.05
769.823	0.23
769.998	-0.24
770.174	-0.1
770.35	0.27
770.525	0.23
770.701	-0.03
770.877	0.05
771.052	-0.19
771.228	0.12
771.403	-0.01
771.579	0.04
771.755	0.28
771.93	-0.06
772.106	-0.12
772.281	-0.15
772.457	0.11
772.632	0.12
772.808	-0.11
772.983	-0.1
773.159	-0.21
773.334	0.13
773.509	0.09
773.685	-0.16
773.86	0.41
774.036	0.21
774.211	0.05
774.386	-0.07
774.562	0.13
774.737	0.1
774.912	-0.16
775.087	-0.07
775.263	-0.02
775.438	0.04
775.613	-0.07
775.788	-0.05
775.964	0.21
776.139	0.37
776.314	-0.16
776.489	0.06
776.664	0.23
776.839	-0.25
777.014	0.16
777.19	0.23
777.365	0.23
777.54	0.16
777.715	-0.17
777.89	0.16
778.065	-0.14
778.24	0.03
778.415	0.12
778.59	-0.17
778.765	-0.06
778.94	0.03
779.115	-0.09
779.289	0.14
779.464	0.03
779.639	-0.13
779.814	-0.28
779.989	-0.21
780.164	0.22
780.339	0.04
780.513	-0.1
780.688	-0.26
780.863	-0.09
781.038	0.11
781.212	-0.05
781.387	0.06
781.562	0.38
781.737	-0.03
781.911	0.13
782.086	-0.21
782.261	-0.21
782.435	0.34
782.61	-0.1
782.784	0.02
782.959	0.2
783.134	-0.01
783.308	-0.2
783.483	-0.07
783.657	0.43
783.832	0.12
784.006	-0.36
784.181	0.26
784.355	0.04
784.53	-0.15
784.704	-0.09
784.878	0.39
785.053	0.01
785.227	0.1
785.402	0.3
785.576	-0.14
785.75	0.07
785.925	0.01
786.099	0.1
786.273	-0.08
786.448	0.13
786.622	0.11
786.796	-0.16
786.97	-0.01
787.145	0.4
787.319	-0.31
787.493	-0.19
787.667	-0.36
787.841	0
788.015	0.02
788.19	-0.11
788.364	0
788.538	0.11
788.712	0.28
788.886	-0.01
789.06	0.32
789.234	0.08
789.408	-0.23
789.582	-0.1
789.756	-0.03
789.93	-0.11
790.104	-0.17
790.278	-0.17
790.452	-0.22
790.626	0.2
790.8	-0.15
790.973	0.37
791.147	0.43
791.321	0.36
791.495	0.2
791.669	-0.07
791.843	-0.12
792.016	-0.04
792.19	0.32
792.364	-0.07
792.538	0.49
792.711	0.26
792.885	-0.05
793.059	0.01
793.233	-0.54
793.406	0.33
793.58	0.16
793.754	0.04
793.927	0.28
794.101	0.31
794.274	-0.09
794.448	0.36
794.622	-0.04
794.795	0.45
794.969	-0.05
795.142	0.47
795.316	-0.02
795.489	-0.25
795.663	0.21
795.836	-0.27
796.009	-0.28
796.183	0.35
796.356	-0.03
796.53	0.28
796.703	0.09
796.876	0.53
797.05	0
797.223	-0.18
797.396	0.24
797.57	-0.04
797.743	0.22
797.916	-0.08
798.09	-0.04
798.263	0.13
798.436	0.24
798.609	-0.12
798.782	-0.06
798.956	-0.07
799.129	0.07
799.302	0
799.475	-0.21
799.648	-0.11
799.821	-0.27
799.994	0.3
800.167	-0.55
800.34	-0.08
800.514	0.07
800.687	-0.05
800.86	-0.16
801.033	0.15
801.206	0.33
801.379	-0.23
801.551	0.13
801.724	0.4
801.897	0.57
802.07	-0.03
802.243	-0.64
802.416	-0.21
802.589	-0.34
802.762	0.1
802.935	0.31
803.107	0.72
803.28	0.52
803.453	0.25
803.626	-0.15
803.798	0.17
803.971	-0.2
804.144	-0.06
804.317	0.17
804.489	0.38
804.662	-0.14
804.835	0.03
805.007	-0.03
805.18	0.52
805.353	0.21
805.525	-0.38
805.698	-0.28
805.87	0.15
806.043	0.44
806.215	-0.2
806.388	-0.43
806.56	0.14
806.733	0.28
806.905	-0.04
807.078	-0.01
807.25	-0.15
807.423	0.18
807.595	0.05
807.768	0.12
807.94	0.55
808.112	0.02
808.285	-0.07
808.457	-0.08
808.629	-0.05
808.802	0.5
808.974	0.05
809.146	-0.17
809.318	-0.59
809.491	0.09
809.663	0.11
809.835	-0.07
810.007	0.34
810.18	0.3
810.352	-0.18
810.524	-0.28
810.696	0.04
810.868	0.13
811.04	-0.12
811.212	0.07
811.384	0.29
811.556	0.11
811.728	-0.08
811.901	0.42
812.073	-0.29
812.245	0.2
812.417	0.03
812.589	-0.93
812.76	0.19
812.932	0.36
813.104	0.12
813.276	-0.04
813.448	0.36
813.62	0.23
813.792	0.37
813.964	0.17
814.136	-0.2
814.307	-0.27
814.479	-0.36
814.651	-0.3
814.823	0.89
814.995	0.14
815.166	0.21
815.338	-0.17
815.51	-0.5
815.681	0.7
815.853	0.07
816.025	0.47
816.196	0.85
816.368	0.41
816.54	-0.29
816.711	-0.45
816.883	-0.04
817.054	0.97
817.226	-0.47
817.398	0.22
817.569	-0.55
817.741	0.07
817.912	-0.33
818.084	-0.05
818.255	0.33
818.426	0.15
818.598	-0.04
818.769	-0.29
818.941	0.31
819.112	0.39
819.283	0.11
819.455	-0.17
819.626	0.45
819.798	0.27
819.969	-0.02
820.14	-0.35
820.311	-0.16
820.483	0.04
820.654	0.21
820.825	0.03
820.996	-0.15
821.168	-0.58
821.339	-0.02
821.51	-0.59
821.681	1.17
821.852	-0.09
822.023	-0.67
822.195	-0.43
822.366	0.15
822.537	0.1
822.708	0.2
822.879	-0.46
823.05	0.74
823.221	0.02
823.392	-0.05
823.563	0.07
823.734	-0.3
823.905	0.08
824.076	-0.01
824.247	-0.52
824.418	-0.33
824.589	0.44
824.759	0.09
824.93	-0.04
825.101	-0.5
825.272	0.62
825.443	0.42
825.614	0.27
825.784	-1.12
825.955	1.28
826.126	0.72
826.297	0.45
826.467	0.6
826.638	1.14
826.809	-1.17
826.98	0.39
827.15	0.36
827.321	0.03
827.492	0.49
827.662	0.29
827.833	1.1
828.003	0.4
828.174	-0.99
828.345	-1
828.515	0.5
828.686	0.58
828.856	-0.42
829.027	-0.11
829.197	0.85
829.368	0
829.538	-0.27
829.709	-0.16
829.879	-0.29
830.049	0.58
830.22	0.09
830.39	-0.15
830.56	0.49
830.731	0.17
830.901	-0.35
831.072	0.14
831.242	-0.02
831.412	0.16
831.582	-0.18
831.753	-0.48
831.923	0.49
832.093	0.59
832.263	-0.64
832.434	-1.04
832.604	-0.13
832.774	0.31
832.944	-0.1
833.114	-0.22
833.284	0.44
833.454	-0.49
833.624	-0.17
833.795	-0.13
833.965	0.4
834.135	0.54
834.305	-0.64
834.475	-0.34
834.645	-0
834.815	0.1
834.985	-0.22
835.155	-0.16
835.325	0.71
835.494	0.85
835.664	0.25
835.834	-0.5
836.004	0.3
836.174	-0.54
836.344	-0.38
836.514	-0.47
836.684	0.2
836.853	0.69
837.023	-0.29
837.193	-0.99
837.363	0.59
837.532	0.64
837.702	0.03
837.872	-0.66
838.041	0.64
838.211	1.5
838.381	-0.78
838.55	0.19
838.72	1.72
838.89	0.91
839.059	0.41
839.229	-0.32
839.398	1.52
839.568	-0.44
839.738	-0.16
839.907	0.85
840.077	0.49
840.246	-0.66
840.416	-0.13
840.585	-0.76
840.755	1.79
840.924	0.97
841.093	-1.23
841.263	0.59
841.432	0.45
841.602	0.02
841.771	-1.15
841.94	-0.33
842.11	2.03
842.279	1.26
842.448	-0.27
842.617	-0.42
842.787	0.95
842.956	-0.71
843.125	0
843.294	0.13
843.464	1.18
843.633	-0.03
843.802	-1.01
843.971	-0.23
844.14	0.21
844.309	0.29
844.479	-1.11
844.648	-1.04
844.817	-0.83
844.986	0.15
845.155	-0.63
845.324	-0.19
845.493	-0.1
845.662	-1
845.831	0.03
846	0.52
846.169	0.06
846.338	1.27
846.507	1.04
846.676	0.86
846.844	0.08
847.013	1.1
847.182	0.33
847.351	-0.54
847.52	1.17
847.689	0.88
847.858	0.18
848.026	-0.76
848.195	0.46
848.364	-0.35
848.533	-1.01
848.701	-0.2
848.87	0.17
849.039	1.48
849.207	1.08
849.376	0.25
849.545	1.65
849.713	-0.6
849.882	-0.47
850.051	-0.05
850.219	0.23
850.388	0.6
850.556	-1.42
850.725	-0.19
850.893	0.46
851.062	0.01
851.23	0.93
851.399	-0.69
851.567	-0.33
851.736	0.09
851.904	-1.87
852.073	0.74
852.241	0.35
852.41	-0.47
852.578	-0.57
852.746	-0.83
852.915	0.59
853.083	0.45
853.251	-1.03
853.42	-0.58
853.588	0.06
853.756	0.26
853.924	0.65
854.093	-0.8
854.261	-0.43
854.429	0
854.597	-0.04
854.765	-0.37
854.934	0.92
855.102	0.88
855.27	0.75
855.438	1
855.606	1.17
855.774	2.25
855.942	-1.85
856.11	-1.21
856.278	0.9
856.446	0.27
856.614	0.19
856.782	-0.41
856.95	2.21
857.118	0.6
857.286	1.28
857.454	-0.7
857.622	0.76
857.79	0.62
857.958	-0.43
858.126	-1.34
858.294	-2.68
858.462	0.04
858.629	0.16
858.797	-1.64
858.965	1.32
859.133	0.09
859.301	-0.26
859.468	0.9
859.636	-0.33
859.804	1.84
859.971	1.1
860.139	-1.69
860.307	1.01
860.474	0.64
860.642	-0.16
860.81	-0.19
860.977	-0.73
861.145	1.48
861.313	-0.77
861.48	-0.03
861.648	1.91
861.815	0.92
861.983	-1.37
862.15	-0.29
862.318	0.8
862.485	1.8
862.653	-0.55
862.82	0.31
862.988	2.62
863.155	0.99
863.322	-1.97
863.49	-1.51
863.657	-0.9
863.824	1.31
863.992	1.33
864.159	-0.18
864.326	2.05
864.494	0.28
864.661	2.84
864.828	-3.05
864.996	1.35
865.163	2.85
865.33	-1.46
865.497	-3.44
865.664	0.05
865.832	-1.92
865.999	-0.04
866.166	-0.82
866.333	-0.64
866.5	-0.76
866.667	0.05
866.834	-0.15
867.001	2.03
867.168	-0.9
867.335	-1.03
867.502	-1.8
867.669	-0.2
867.836	2.54
868.003	-0.87
868.17	0.42
868.337	-0.92
868.504	2.38
868.671	-2.48
868.838	-1.26
869.005	-0.85
869.172	2.08
869.339	-0.36
869.505	0.63
869.672	1.33
869.839	1.09
870.006	0.85
870.173	-1.26
870.339	1.41
870.506	2.36
870.673	-0.8
870.84	1.58
871.006	-1.01
871.173	0.16
871.34	0.37
871.506	-0.75
871.673	1.97
871.839	-0.94
872.006	-0.73
872.173	0.05
872.339	-0.29
872.506	3.03
872.672	-0.21
872.839	-0.81
873.005	-0.43
873.172	3.09
873.338	1.66
873.505	-0.5
873.671	1.01
873.838	1.09
874.004	-1.76
874.171	-2.13
874.337	0.6
874.503	0.88
874.67	-2.25
874.836	-0.6
875.002	1.27
875.169	1.31
875.335	1.38
875.501	-0.19
875.668	0.04
875.834	0.25
876	-1.28
876.166	0.76
876.332	0.9
876.499	2.66
876.665	-1.61
876.831	-0.29
876.997	3.92
877.163	0.63
877.329	-1.19
877.495	1.52
877.662	0.63
877.828	1.01
877.994	-0.75
878.16	-1.64
878.326	-0.25
878.492	0.82
878.658	-0.4
878.824	0.78
878.99	0.34
879.156	-2.38
879.322	3.12
879.487	-1.02
879.653	0.88
879.819	1.53
879.985	-0.63
880.151	-0.35
880.317	0.92
880.483	0.23
880.648	0.99
880.814	-1.66
880.98	0.02
881.146	-1.7
881.312	0.75
881.477	-0.22
881.643	-1.69
881.809	1.27
881.974	2.73
882.14	-0.65
882.306	-0.92
882.471	3.13
882.637	-1.2
882.803	-0.07
882.968	6.34
883.134	4.77
883.299	0.36
883.465	0.36
883.63	2.15
883.796	0.6
883.961	0.81
884.127	-0.03
884.292	-3.45
884.458	-1.51
884.623	-1.51
