Data from Apollo_Calib_20240827__AbsoluteIrradiance__249__03-18-00-495.txt Node

Date: Wed Aug 28 03:18:00 BST 2024
User: biology
Spectrometer: FLMT08252
Trigger mode: 0
Integration Time (sec): 5.000000E-1
Scans to average: 5
Electric dark correction enabled: true
Nonlinearity correction enabled: false
Boxcar width: 0
XAxis mode: Wavelengths
Number of Pixels in Spectrum: 3648
>>>>>Begin Spectral Data<<<<<
179.588	-0
179.809	-0
180.03	-0
180.251	-0
180.473	-0
180.694	0
180.915	0
181.136	-0
181.357	0
181.578	-0
181.799	-0
182.02	-0
182.241	-0
182.462	-0
182.683	0
182.904	-0
183.125	-0
183.346	0
183.567	0
183.788	-0
184.009	-0
184.23	0
184.451	0
184.672	-0
184.892	-0
185.113	0
185.334	0
185.555	-0
185.776	-0
185.996	0
186.217	0
186.438	0
186.659	-0
186.879	0
187.1	0
187.321	-0
187.541	-0
187.762	0
187.983	0
188.203	0
188.424	0
188.644	-0
188.865	-0
189.086	-0
189.306	-0
189.527	0
189.747	0
189.968	-0
190.188	0
190.409	0
190.629	0
190.849	-0
191.07	-0
191.29	0
191.511	0
191.731	-0
191.951	-0
192.172	0
192.392	0
192.612	-0
192.833	0
193.053	0
193.273	0
193.493	-0
193.714	0
193.934	0
194.154	0
194.374	0
194.594	0
194.815	0
195.035	0
195.255	-0
195.475	0
195.695	0
195.915	0
196.135	-0
196.355	0
196.575	0
196.795	0
197.015	-0
197.235	-0
197.455	-0
197.675	0
197.895	-0
198.115	-0
198.335	0
198.555	0
198.775	0
198.995	0
199.214	0
199.434	0
199.654	-0
199.874	-0
200.094	1.15
200.313	-0.37
200.533	0
200.753	-0.67
200.973	1.23
201.192	0.56
201.412	-1.05
201.632	-0.21
201.851	1.13
202.071	-0.58
202.291	-0.02
202.51	-0.38
202.73	0.76
202.95	0.22
203.169	-0.18
203.389	0.3
203.608	0.42
203.828	-0.41
204.047	-0.03
204.267	0.28
204.486	0.27
204.706	0.33
204.925	-0.02
205.145	-0.23
205.364	0.42
205.583	0.82
205.803	0.07
206.022	-0.22
206.242	0.4
206.461	0.13
206.68	-0.09
206.9	0.17
207.119	0.81
207.338	0.69
207.557	-0.26
207.777	0.09
207.996	0.19
208.215	0.44
208.434	-0.04
208.654	-0.41
208.873	0.11
209.092	0.66
209.311	-0.17
209.53	-0.11
209.749	-0.13
209.968	-0.19
210.187	-0.07
210.407	-0.45
210.626	-0.08
210.845	0.34
211.064	0.24
211.283	-0.16
211.502	0.41
211.721	0.01
211.94	0.11
212.159	0.24
212.377	0.41
212.596	0.42
212.815	0.18
213.034	0.2
213.253	0.42
213.472	0.28
213.691	-0.09
213.91	-0.25
214.128	-0.08
214.347	0.24
214.566	-0.3
214.785	-0.33
215.003	0.49
215.222	0.31
215.441	0.1
215.66	-0.2
215.878	0.14
216.097	0.23
216.316	-0.29
216.534	-0.19
216.753	0.27
216.972	-0.06
217.19	-0.02
217.409	-0.11
217.627	-0.02
217.846	0.03
218.064	-0.01
218.283	-0.12
218.501	0.64
218.72	0.12
218.938	-0.27
219.157	-0.02
219.375	0.13
219.594	0.27
219.812	-0.14
220.031	-0.06
220.249	0.54
220.467	0.3
220.686	-0.23
220.904	-0.23
221.122	-0.08
221.341	0.37
221.559	0.2
221.777	-0.14
221.995	0.17
222.214	0.18
222.432	-0.08
222.65	0.09
222.868	0.24
223.086	0.16
223.305	0.12
223.523	-0.06
223.741	0.48
223.959	0.03
224.177	-0.2
224.395	-0.12
224.613	0.08
224.831	0.2
225.049	-0.14
225.267	0.01
225.485	0.13
225.703	0.02
225.921	0.1
226.139	0.02
226.357	0.24
226.575	0.06
226.793	-0.12
227.011	0.54
227.229	0.16
227.447	0.28
227.665	-0.03
227.883	-0.2
228.1	0.06
228.318	0.03
228.536	-0.18
228.754	-0.15
228.972	0.18
229.189	0.15
229.407	-0.04
229.625	0.1
229.843	0.23
230.06	0.15
230.278	-0.07
230.496	0.05
230.713	0.11
230.931	0.22
231.149	0.02
231.366	-0.22
231.584	0.1
231.801	0.38
232.019	0.03
232.236	-0.06
232.454	-0.06
232.671	0.12
232.889	-0
233.106	-0.04
233.324	0.08
233.541	0.05
233.759	-0.04
233.976	-0.19
234.194	-0.01
234.411	-0
234.628	-0.09
234.846	0.04
235.063	0.06
235.28	0.04
235.498	0.08
235.715	-0.08
235.932	0.3
236.149	0.12
236.367	-0.06
236.584	0.01
236.801	0.01
237.018	0.22
237.236	0
237.453	-0.15
237.67	0.24
237.887	-0.04
238.104	0.08
238.321	0.03
238.538	-0.1
238.755	0.14
238.973	-0.12
239.19	0.01
239.407	0.08
239.624	0.07
239.841	-0.16
240.058	-0.06
240.275	0.08
240.492	-0.08
240.709	-0.01
240.925	-0.05
241.142	-0.01
241.359	-0.06
241.576	-0.06
241.793	-0.01
242.01	0.02
242.227	0.2
242.444	0.1
242.66	0.06
242.877	0.05
243.094	0.03
243.311	0.09
243.527	-0.05
243.744	0.1
243.961	0.15
244.178	-0.14
244.394	0.07
244.611	0.07
244.828	0.18
245.044	-0.04
245.261	0.04
245.477	0.05
245.694	0.09
245.911	0.02
246.127	0.01
246.344	0.23
246.56	0.13
246.777	-0.08
246.993	0.07
247.21	0.12
247.426	0.06
247.643	-0.06
247.859	-0.06
248.076	-0.01
248.292	0.22
248.508	0.01
248.725	0.05
248.941	0.07
249.157	0.16
249.374	-0.04
249.59	-0
249.806	0.05
250.023	0.07
250.239	-0.04
250.455	-0.1
250.671	-0.03
250.888	0.08
251.104	0.06
251.32	-0.05
251.536	0.04
251.752	0.01
251.969	0.08
252.185	0.02
252.401	0.17
252.617	0.08
252.833	0.04
253.049	0.03
253.265	0.06
253.481	0.06
253.697	-0.01
253.913	-0.05
254.129	0.02
254.345	0.16
254.561	-0.02
254.777	0.05
254.993	0.12
255.209	0.05
255.425	0.04
255.641	-0.05
255.857	0.06
256.073	0.08
256.288	-0.08
256.504	0.05
256.72	0.07
256.936	0.17
257.152	0.04
257.367	0.02
257.583	0.06
257.799	0.1
258.015	-0.03
258.23	-0.02
258.446	0.13
258.662	-0.03
258.877	-0.05
259.093	-0.04
259.309	-0.02
259.524	0.05
259.74	-0.02
259.955	-0.08
260.171	0.06
260.387	0.05
260.602	0.08
260.818	0.07
261.033	0.01
261.249	0.04
261.464	-0.1
261.68	-0.09
261.895	0.06
262.11	0.07
262.326	0.01
262.541	-0.12
262.757	0.15
262.972	0.08
263.187	0.05
263.403	0.04
263.618	0.06
263.833	0.1
264.049	-0.13
264.264	-0.03
264.479	0.12
264.694	0.09
264.91	-0.08
265.125	-0.03
265.34	0.15
265.555	0.23
265.77	0.02
265.986	0.08
266.201	0.06
266.416	0.1
266.631	0
266.846	0.03
267.061	0.05
267.276	0.03
267.491	-0.12
267.706	0.09
267.921	0.06
268.136	0.03
268.351	0.03
268.566	-0.07
268.781	0.1
268.996	0.09
269.211	0.07
269.426	-0.01
269.641	-0.02
269.856	0.14
270.071	-0.02
270.285	-0.06
270.5	0.07
270.715	0.04
270.93	0.05
271.145	0.04
271.359	0.1
271.574	-0.05
271.789	0.03
272.004	-0.02
272.218	-0.04
272.433	0.08
272.648	-0.04
272.862	0.09
273.077	0.03
273.292	0.04
273.506	-0.03
273.721	-0
273.936	0.12
274.15	0.08
274.365	-0.01
274.579	0.08
274.794	0.08
275.008	0.07
275.223	-0.05
275.437	0.03
275.652	0.06
275.866	0.02
276.081	0
276.295	0.14
276.509	0.06
276.724	0.03
276.938	0.05
277.153	0.01
277.367	0.08
277.581	0.03
277.796	0
278.01	-0.03
278.224	0.08
278.438	0.11
278.653	0
278.867	-0.01
279.081	0.08
279.295	0.01
279.51	0.02
279.724	-0.08
279.938	0.11
280.152	0.08
280.366	-0.01
280.58	-0
280.794	0.17
281.008	0.05
281.222	0.07
281.437	0.14
281.651	0.09
281.865	0.13
282.079	0.02
282.293	-0.06
282.507	-0.04
282.721	0.02
282.935	0.05
283.148	-0.01
283.362	-0.03
283.576	-0.05
283.79	0.02
284.004	-0.05
284.218	0.11
284.432	0.04
284.646	0.05
284.859	0.05
285.073	-0.03
285.287	0.04
285.501	0.01
285.714	0.06
285.928	0.06
286.142	0.02
286.356	-0.04
286.569	-0.04
286.783	0.07
286.997	0.03
287.21	0.06
287.424	0.03
287.637	0.01
287.851	0
288.065	0.06
288.278	0.02
288.492	0.06
288.705	0.02
288.919	0.06
289.132	-0.04
289.346	0.08
289.559	0.01
289.773	-0.03
289.986	-0
290.2	0
290.413	0.08
290.626	-0.04
290.84	0.05
291.053	0.07
291.267	0.11
291.48	0.02
291.693	0.01
291.906	0
292.12	0.04
292.333	-0.02
292.546	-0.01
292.76	0.1
292.973	0.04
293.186	0.02
293.399	0.03
293.612	0.07
293.826	0.02
294.039	-0.04
294.252	0.04
294.465	0.08
294.678	0.06
294.891	0.02
295.104	-0.04
295.317	0.03
295.53	0.04
295.743	0.04
295.956	0.02
296.169	0.11
296.382	0.07
296.595	0.05
296.808	-0
297.021	0.11
297.234	0.11
297.447	-0.01
297.66	0.06
297.873	0.07
298.086	0.07
298.299	-0.03
298.511	-0.02
298.724	-0.03
298.937	-0.01
299.15	0
299.363	0.02
299.575	0.05
299.788	0.09
300.001	-0
300.213	-0.05
300.426	0.01
300.639	-0.02
300.852	0.01
301.064	0.08
301.277	0.14
301.489	0.04
301.702	0.09
301.915	-0.02
302.127	0.05
302.34	0.04
302.552	0.04
302.765	0.01
302.977	0.1
303.19	-0
303.402	-0.04
303.615	0
303.827	0.02
304.04	0.02
304.252	0.05
304.464	0.03
304.677	0.11
304.889	0.06
305.102	0.01
305.314	0.02
305.526	0.05
305.739	0.06
305.951	-0.02
306.163	-0.01
306.375	0.1
306.588	-0.01
306.8	0.04
307.012	-0.03
307.224	0.04
307.436	0.06
307.649	-0.05
307.861	0.02
308.073	0.05
308.285	0.02
308.497	-0.01
308.709	-0
308.921	0
309.133	0.1
309.346	0.01
309.558	0.05
309.77	0.02
309.982	0.12
310.194	0.06
310.406	-0.02
310.617	0.12
310.829	0.06
311.041	0.01
311.253	-0.03
311.465	0.06
311.677	0.05
311.889	0.04
312.101	-0.04
312.313	0.07
312.524	0.07
312.736	-0.01
312.948	0
313.16	0.09
313.372	0.05
313.583	0.04
313.795	-0.01
314.007	0.01
314.218	0.03
314.43	0.01
314.642	0.01
314.853	-0.02
315.065	0.04
315.277	-0.01
315.488	0.05
315.7	0.07
315.912	0.09
316.123	-0.01
316.335	0.03
316.546	0.11
316.758	-0
316.969	-0.01
317.181	0.05
317.392	0.02
317.604	0.08
317.815	0.01
318.026	-0.03
318.238	0.04
318.449	0.02
318.661	-0.02
318.872	-0.03
319.083	-0.03
319.295	0.06
319.506	-0
319.717	0.03
319.929	0.06
320.14	0.04
320.351	0.02
320.562	0
320.774	0.07
320.985	0.02
321.196	-0.02
321.407	-0.03
321.618	0.07
321.829	0.05
322.041	0.09
322.252	0.04
322.463	0.02
322.674	0.05
322.885	-0.01
323.096	-0.01
323.307	0.08
323.518	0.05
323.729	-0.01
323.94	0.06
324.151	0.02
324.362	0.03
324.573	0.05
324.784	0.01
324.995	0.07
325.206	0.04
325.417	0.03
325.628	-0.03
325.838	0.02
326.049	0.01
326.26	0.02
326.471	0
326.682	0.05
326.892	0.06
327.103	-0.03
327.314	-0.06
327.525	0.09
327.735	0.02
327.946	0.03
328.157	-0
328.368	0.08
328.578	0
328.789	0.05
328.999	0.04
329.21	-0
329.421	0.09
329.631	0.01
329.842	0
330.052	0.05
330.263	0.07
330.473	0.05
330.684	0.05
330.894	0.04
331.105	0.07
331.315	0.07
331.526	-0.02
331.736	0.08
331.947	0.03
332.157	0.1
332.367	-0
332.578	0.06
332.788	0.12
332.999	0.04
333.209	0.04
333.419	-0.02
333.629	0.07
333.84	0.03
334.05	0.03
334.26	0.08
334.47	0.04
334.681	0.07
334.891	0.02
335.101	0.08
335.311	0.14
335.521	0.02
335.732	-0.01
335.942	0.1
336.152	0.05
336.362	0.04
336.572	0.08
336.782	0.09
336.992	0.02
337.202	0.01
337.412	0.01
337.622	0.01
337.832	0.03
338.042	-0.01
338.252	0
338.462	-0.04
338.672	0.05
338.882	-0.03
339.092	0.03
339.302	0.05
339.511	0.1
339.721	0.02
339.931	-0.03
340.141	0.11
340.351	0.07
340.561	0.06
340.77	0.03
340.98	0.05
341.19	0.07
341.4	0.01
341.609	-0.02
341.819	0.06
342.029	-0.02
342.238	0.06
342.448	-0
342.658	0.04
342.867	0.06
343.077	0.06
343.286	0.06
343.496	0.07
343.706	0.08
343.915	-0.02
344.125	0.05
344.334	0.04
344.544	-0.02
344.753	-0.04
344.963	-0.02
345.172	-0.02
345.381	0
345.591	-0
345.8	0.05
346.01	0.08
346.219	0.04
346.428	-0.06
346.638	0.05
346.847	0.05
347.056	0.06
347.266	0.01
347.475	0.05
347.684	0.09
347.893	0.06
348.103	0.06
348.312	0.06
348.521	0.02
348.73	0.02
348.94	0.04
349.149	0.04
349.358	0.06
349.567	-0.01
349.776	-0.01
349.985	0.04
350.194	0.06
350.403	0.07
350.612	-0.05
350.821	-0
351.03	0.07
351.239	0.01
351.448	0.03
351.657	-0.01
351.866	0.11
352.075	0.01
352.284	0.09
352.493	-0.04
352.702	0.07
352.911	0.02
353.12	0.04
353.329	0.04
353.538	0.03
353.746	0.03
353.955	0.03
354.164	0.05
354.373	0.02
354.582	0.08
354.79	0.03
354.999	0.09
355.208	-0
355.416	0.09
355.625	0
355.834	0.03
356.042	0.04
356.251	0.02
356.46	-0.02
356.668	0.05
356.877	0.1
357.085	0.06
357.294	-0.07
357.503	0.04
357.711	0.06
357.92	0.15
358.128	0.04
358.337	0.02
358.545	0.06
358.754	0.02
358.962	0.09
359.17	0.05
359.379	0.05
359.587	0.12
359.796	0.02
360.004	0.07
360.212	0.06
360.421	0.09
360.629	0.03
360.837	0.01
361.046	0.1
361.254	0.13
361.462	0.02
361.67	0.01
361.879	0.06
362.087	0.08
362.295	0.05
362.503	-0.01
362.711	-0.02
362.92	0.01
363.128	0.04
363.336	-0.03
363.544	-0.01
363.752	0.03
363.96	-0.03
364.168	0.02
364.376	0.01
364.584	0.03
364.792	0.09
365	0.04
365.208	0.03
365.416	0.06
365.624	0.05
365.832	0.01
366.04	0.12
366.248	0.07
366.456	0.06
366.664	0.03
366.872	0.02
367.079	0.03
367.287	0.02
367.495	0.03
367.703	0.02
367.911	0
368.118	0.07
368.326	0.01
368.534	-0.02
368.742	0.1
368.949	-0.01
369.157	-0.01
369.365	0.07
369.572	-0.01
369.78	0.01
369.988	0.07
370.195	0.07
370.403	0.06
370.61	0
370.818	0.05
371.026	0.1
371.233	0
371.441	0.06
371.648	0
371.856	0.05
372.063	0.06
372.271	0.04
372.478	0.03
372.685	-0.01
372.893	0.09
373.1	0.05
373.308	0.04
373.515	0.14
373.722	0.05
373.93	0.02
374.137	0.07
374.344	0.13
374.552	0.08
374.759	0.08
374.966	0.06
375.173	-0
375.381	0.07
375.588	0.03
375.795	-0.01
376.002	0.04
376.209	-0
376.417	0.02
376.624	0.05
376.831	0.04
377.038	0.01
377.245	-0.01
377.452	0.05
377.659	-0.01
377.866	-0.01
378.073	0.02
378.28	0.02
378.487	0.08
378.694	0.03
378.901	0.02
379.108	0.01
379.315	0.07
379.522	0.13
379.729	0.05
379.936	0.04
380.143	0.05
380.35	0.07
380.557	0.03
380.763	0.03
380.97	0.02
381.177	0.07
381.384	0.02
381.591	0.03
381.797	0.07
382.004	0.06
382.211	0.07
382.418	0.07
382.624	0.08
382.831	0.08
383.038	0.03
383.244	0.04
383.451	0.07
383.658	0.09
383.864	0.05
384.071	-0.02
384.277	0.1
384.484	-0.02
384.69	0.11
384.897	0.05
385.103	-0.01
385.31	0
385.516	0.01
385.723	-0.02
385.929	0.02
386.136	0.03
386.342	0.08
386.549	0.01
386.755	0.09
386.961	0.06
387.168	0.03
387.374	0.05
387.58	0.09
387.787	0.01
387.993	0.09
388.199	0.05
388.406	0.01
388.612	0.05
388.818	0.01
389.024	-0.01
389.231	0.07
389.437	0.11
389.643	0.09
389.849	0.04
390.055	0.06
390.261	0.04
390.467	0.05
390.674	0.01
390.88	0.06
391.086	0.08
391.292	0.05
391.498	0.12
391.704	0.04
391.91	0.05
392.116	0.07
392.322	-0.01
392.528	0.09
392.734	0.06
392.94	0.09
393.146	0.07
393.352	0.07
393.557	0.06
393.763	0.1
393.969	0.11
394.175	0.1
394.381	0.12
394.587	0.03
394.792	0.05
394.998	0.12
395.204	0.14
395.41	0.08
395.615	0.11
395.821	0.09
396.027	0.19
396.233	0.05
396.438	0.13
396.644	0.21
396.85	0.16
397.055	0.08
397.261	0.11
397.466	0.24
397.672	0.12
397.878	0.16
398.083	0.17
398.289	0.13
398.494	0.23
398.7	0.16
398.905	0.09
399.111	0.24
399.316	0.11
399.522	0.2
399.727	0.16
399.932	0.17
400.138	0.19
400.343	0.2
400.549	0.2
400.754	0.22
400.959	0.21
401.165	0.19
401.37	0.22
401.575	0.21
401.78	0.24
401.986	0.28
402.191	0.31
402.396	0.32
402.601	0.38
402.807	0.36
403.012	0.31
403.217	0.42
403.422	0.37
403.627	0.4
403.832	0.36
404.037	0.45
404.243	0.43
404.448	0.48
404.653	0.43
404.858	0.52
405.063	0.52
405.268	0.56
405.473	0.53
405.678	0.57
405.883	0.8
406.088	0.71
406.293	0.58
406.498	0.68
406.703	0.72
406.907	0.74
407.112	0.76
407.317	0.85
407.522	0.91
407.727	0.84
407.932	0.93
408.136	1.07
408.341	1.06
408.546	1.14
408.751	1.15
408.956	1.24
409.16	1.35
409.365	1.29
409.57	1.34
409.774	1.42
409.979	1.48
410.184	1.54
410.388	1.56
410.593	1.77
410.798	1.74
411.002	1.82
411.207	1.95
411.411	2.01
411.616	1.98
411.82	2.13
412.025	2.22
412.229	2.27
412.434	2.5
412.638	2.52
412.843	2.57
413.047	2.68
413.252	2.73
413.456	2.94
413.66	3
413.865	3.03
414.069	3.18
414.273	3.36
414.478	3.4
414.682	3.49
414.886	3.6
415.091	3.74
415.295	3.89
415.499	4.09
415.703	4.16
415.908	4.33
416.112	4.39
416.316	4.67
416.52	4.79
416.724	4.87
416.929	5.05
417.133	5.34
417.337	5.37
417.541	5.56
417.745	5.72
417.949	5.85
418.153	5.99
418.357	6.28
418.561	6.58
418.765	6.59
418.969	6.78
419.173	7.02
419.377	7.04
419.581	7.44
419.785	7.59
419.989	7.66
420.193	8.06
420.397	8.2
420.601	8.35
420.804	8.55
421.008	8.53
421.212	8.71
421.416	8.7
421.62	8.69
421.823	8.72
422.027	8.87
422.231	8.73
422.435	8.7
422.638	8.65
422.842	8.81
423.046	8.73
423.249	9.02
423.453	8.84
423.657	8.89
423.86	9.04
424.064	8.97
424.268	9.01
424.471	8.82
424.675	8.94
424.878	8.87
425.082	8.9
425.285	9.08
425.489	8.67
425.692	8.69
425.896	8.43
426.099	8.54
426.303	8.31
426.506	8.38
426.71	8.25
426.913	8.3
427.116	8.22
427.32	7.82
427.523	7.81
427.726	7.89
427.93	7.55
428.133	7.65
428.336	7.5
428.54	7.26
428.743	7.22
428.946	7.21
429.149	6.95
429.353	6.59
429.556	6.37
429.759	6.25
429.962	5.94
430.165	5.95
430.368	5.43
430.571	5.16
430.775	5.06
430.978	4.82
431.181	4.66
431.384	4.52
431.587	4.35
431.79	4.43
431.993	4.17
432.196	4.2
432.399	4.19
432.602	4.07
432.805	4
433.008	4.01
433.211	3.87
433.414	3.81
433.616	3.73
433.819	3.51
434.022	3.4
434.225	3.44
434.428	3.38
434.631	3.48
434.833	3.06
435.036	3.13
435.239	3.05
435.442	2.94
435.645	2.94
435.847	2.81
436.05	2.82
436.253	2.85
436.455	2.62
436.658	2.6
436.861	2.67
437.063	2.5
437.266	2.47
437.468	2.38
437.671	2.48
437.874	2.3
438.076	2.18
438.279	2.1
438.481	2.1
438.684	2.11
438.886	2
439.089	1.99
439.291	1.94
439.494	1.94
439.696	1.86
439.899	1.88
440.101	1.87
440.303	1.74
440.506	1.85
440.708	1.75
440.91	1.73
441.113	1.66
441.315	1.67
441.517	1.5
441.72	1.59
441.922	1.44
442.124	1.3
442.326	1.32
442.529	1.39
442.731	1.25
442.933	1.38
443.135	1.22
443.337	1.14
443.539	1.12
443.742	1.05
443.944	1.17
444.146	1.02
444.348	0.99
444.55	0.91
444.752	0.89
444.954	0.88
445.156	0.92
445.358	0.82
445.56	0.86
445.762	0.82
445.964	0.79
446.166	0.77
446.368	0.74
446.57	0.8
446.772	0.72
446.974	0.67
447.175	0.64
447.377	0.63
447.579	0.68
447.781	0.54
447.983	0.71
448.184	0.59
448.386	0.63
448.588	0.5
448.79	0.58
448.991	0.48
449.193	0.5
449.395	0.51
449.597	0.55
449.798	0.48
450	0.49
450.202	0.48
450.403	0.5
450.605	0.5
450.806	0.46
451.008	0.35
451.21	0.44
451.411	0.47
451.613	0.42
451.814	0.39
452.016	0.45
452.217	0.38
452.419	0.43
452.62	0.39
452.821	0.37
453.023	0.38
453.224	0.42
453.426	0.37
453.627	0.36
453.828	0.34
454.03	0.34
454.231	0.41
454.432	0.29
454.634	0.44
454.835	0.29
455.036	0.28
455.238	0.37
455.439	0.33
455.64	0.2
455.841	0.26
456.042	0.37
456.244	0.3
456.445	0.23
456.646	0.17
456.847	0.23
457.048	0.31
457.249	0.33
457.45	0.56
457.651	0.18
457.852	0.27
458.054	0.19
458.255	0.16
458.456	0.24
458.657	0.22
458.858	0.13
459.058	0.15
459.259	0.28
459.46	0.21
459.661	0.17
459.862	0.34
460.063	0.19
460.264	0.23
460.465	0.12
460.666	0.28
460.866	0.19
461.067	0.17
461.268	0.12
461.469	0.11
461.67	0.17
461.87	0.15
462.071	0.14
462.272	0.08
462.473	0.11
462.673	0.23
462.874	0.12
463.075	0.19
463.275	0.1
463.476	0.21
463.676	0.14
463.877	0.1
464.078	0.13
464.278	0.19
464.479	0.17
464.679	0.14
464.88	0.13
465.08	0.2
465.281	0.1
465.481	0.11
465.682	0.06
465.882	0.17
466.083	0.1
466.283	0.14
466.483	0.1
466.684	0.05
466.884	0.08
467.085	0.08
467.285	0.17
467.485	0.07
467.686	0.1
467.886	0.04
468.086	0.13
468.286	0.09
468.487	0.11
468.687	0.07
468.887	0.12
469.087	0.1
469.287	0.08
469.488	0.06
469.688	0.17
469.888	0.14
470.088	0.15
470.288	0.13
470.488	0.13
470.688	0.02
470.888	0.08
471.088	0.04
471.288	0.13
471.488	0.09
471.688	0.12
471.888	0.08
472.088	0.14
472.288	0.11
472.488	0.07
472.688	0.08
472.888	0.08
473.088	0.09
473.288	0.1
473.488	0.07
473.688	0.18
473.887	0.08
474.087	0.02
474.287	0.12
474.487	0.07
474.687	0.09
474.886	0.02
475.086	0.06
475.286	0.09
475.486	0.07
475.685	0.09
475.885	0.07
476.085	0.03
476.284	0.11
476.484	0.05
476.684	0.1
476.883	0.14
477.083	0.07
477.282	0.05
477.482	0.12
477.681	0.15
477.881	0.09
478.08	0.05
478.28	0.04
478.479	0.1
478.679	0.13
478.878	0.01
479.078	0
479.277	0.05
479.477	0.03
479.676	0.12
479.875	0.04
480.075	-0.04
480.274	0.07
480.473	0.05
480.673	0.02
480.872	0.07
481.071	0.07
481.271	0.09
481.47	0.04
481.669	0.06
481.868	0.03
482.067	-0
482.267	0.02
482.466	0.02
482.665	0
482.864	0.03
483.063	-0
483.262	0.07
483.461	0.1
483.661	0.07
483.86	0.04
484.059	0.06
484.258	0.01
484.457	0.02
484.656	0.06
484.855	0.07
485.054	-0
485.253	0.01
485.452	-0.02
485.651	0.03
485.849	0.05
486.048	0.02
486.247	0.01
486.446	0.03
486.645	-0.02
486.844	0.02
487.043	0.03
487.241	0.07
487.44	-0.01
487.639	0.02
487.838	0.04
488.037	0.06
488.235	0.12
488.434	0.03
488.633	-0.02
488.831	0.03
489.03	0.05
489.229	0.05
489.427	0.02
489.626	0.06
489.825	0.08
490.023	0.02
490.222	0.02
490.42	0.04
490.619	0.08
490.817	0.06
491.016	0.02
491.214	0.05
491.413	0.01
491.611	0.02
491.81	0.02
492.008	0.02
492.207	0.05
492.405	0.02
492.604	-0.03
492.802	0.03
493	0.06
493.199	0.01
493.397	0.02
493.595	0.02
493.794	0.01
493.992	0.07
494.19	0.02
494.388	0.05
494.587	0
494.785	0.04
494.983	0.01
495.181	0.04
495.379	0.02
495.578	-0.02
495.776	0.03
495.974	0.04
496.172	-0.01
496.37	0.01
496.568	-0.01
496.766	-0.01
496.964	0.05
497.162	0.03
497.36	-0
497.558	0.04
497.756	0.04
497.954	0.01
498.152	-0.02
498.35	0.02
498.548	0.02
498.746	0.02
498.944	0.01
499.142	-0.01
499.34	-0.01
499.538	0.03
499.736	-0
499.933	0.04
500.131	0.07
500.329	0.04
500.527	0.06
500.725	0.06
500.922	0.04
501.12	0.01
501.318	0.03
501.516	0.01
501.713	0.03
501.911	0.01
502.109	0.02
502.306	0.02
502.504	0.01
502.701	0.01
502.899	0.01
503.097	0.07
503.294	0.03
503.492	0.01
503.689	0
503.887	0.05
504.084	0.08
504.282	0.03
504.479	0.01
504.677	0.03
504.874	-0.01
505.072	0.03
505.269	0
505.466	0.05
505.664	0.03
505.861	-0.03
506.059	0.02
506.256	0.05
506.453	0.01
506.651	0.08
506.848	0.06
507.045	0.04
507.242	0.05
507.44	0.02
507.637	0.03
507.834	0.01
508.031	0.04
508.229	0.01
508.426	0.03
508.623	0.04
508.82	0.02
509.017	-0.01
509.214	0.02
509.411	0.02
509.608	-0.01
509.805	0.01
510.003	0.01
510.2	0
510.397	0.06
510.594	0
510.791	-0.01
510.988	0.01
511.184	0.05
511.381	0.03
511.578	-0.01
511.775	0.04
511.972	0.01
512.169	0.02
512.366	0.02
512.563	0.05
512.76	-0.01
512.956	0
513.153	0.03
513.35	0.02
513.547	-0.01
513.744	-0.01
513.94	-0.03
514.137	0.03
514.334	0.02
514.53	0.03
514.727	0.04
514.924	0.08
515.12	0
515.317	-0.02
515.514	0
515.71	-0.01
515.907	-0.01
516.103	0.02
516.3	0.04
516.497	0.04
516.693	0.04
516.89	0.01
517.086	-0.01
517.283	0.08
517.479	0.04
517.676	0.02
517.872	0.02
518.068	0.01
518.265	-0.01
518.461	0.01
518.658	-0.02
518.854	0.04
519.05	0
519.247	-0
519.443	0.03
519.639	0.04
519.836	0.02
520.032	0.02
520.228	0.03
520.424	0.06
520.621	0.03
520.817	0.03
521.013	0.04
521.209	0.02
521.405	0.06
521.601	0.01
521.798	0.02
521.994	0.08
522.19	-0.01
522.386	-0.01
522.582	-0
522.778	0.03
522.974	0.01
523.17	0
523.366	0.03
523.562	0.06
523.758	0.01
523.954	0.01
524.15	0.01
524.346	0.04
524.542	0.02
524.738	0
524.934	0.01
525.129	0.02
525.325	0.04
525.521	0.01
525.717	0.07
525.913	0
526.109	0.01
526.304	0.01
526.5	0.02
526.696	0.02
526.892	0.01
527.087	0.04
527.283	-0
527.479	0.03
527.674	-0.01
527.87	0.01
528.066	0.01
528.261	0.03
528.457	0.03
528.653	0.01
528.848	-0.01
529.044	0.02
529.239	0.01
529.435	0.04
529.63	0.02
529.826	0.05
530.021	0.02
530.217	0.04
530.412	0
530.608	-0
530.803	0.02
530.999	-0
531.194	-0.04
531.389	0.02
531.585	-0.03
531.78	0.01
531.975	0
532.171	0.03
532.366	-0
532.561	0.03
532.757	-0.01
532.952	0
533.147	0.07
533.342	0.01
533.538	-0.01
533.733	0.04
533.928	0.03
534.123	0
534.318	-0.03
534.513	0.01
534.709	0.03
534.904	-0.01
535.099	-0.01
535.294	-0.03
535.489	0
535.684	0.01
535.879	-0.01
536.074	0.02
536.269	-0.01
536.464	0.03
536.659	0.01
536.854	0.02
537.049	0.03
537.244	0.01
537.439	0.01
537.634	0.03
537.828	0.02
538.023	0.02
538.218	-0.03
538.413	0.02
538.608	-0.02
538.803	0.02
538.997	-0.02
539.192	0.03
539.387	0.04
539.582	0.01
539.776	0.01
539.971	-0.01
540.166	0.02
540.36	-0
540.555	-0
540.75	-0.02
540.944	0.03
541.139	-0.02
541.334	-0.01
541.528	0.02
541.723	0.04
541.917	-0.01
542.112	-0.03
542.306	0.02
542.501	0.01
542.695	0.01
542.89	-0
543.084	-0
543.279	0.01
543.473	0.01
543.668	0.02
543.862	0
544.056	0.02
544.251	0
544.445	0.02
544.64	-0
544.834	-0.01
545.028	0.03
545.222	0.01
545.417	0.04
545.611	0.02
545.805	0.02
546	-0
546.194	0.01
546.388	0
546.582	0.03
546.776	0.02
546.97	0.02
547.165	0.04
547.359	0.02
547.553	-0
547.747	0.01
547.941	0.02
548.135	0.01
548.329	0.01
548.523	0.02
548.717	0.03
548.911	-0.01
549.105	0.02
549.299	-0.01
549.493	0.03
549.687	0
549.881	0.02
550.075	0.02
550.269	-0.02
550.463	0.04
550.657	0.01
550.85	-0.01
551.044	-0.03
551.238	0.02
551.432	0.01
551.626	-0.04
551.82	0
552.013	-0.01
552.207	-0
552.401	0.05
552.594	0.04
552.788	0.01
552.982	0.01
553.176	-0
553.369	0.01
553.563	0.01
553.756	-0.02
553.95	-0.02
554.144	0.01
554.337	0.04
554.531	0.02
554.724	0
554.918	0.01
555.111	0.04
555.305	0
555.498	0.04
555.692	0.02
555.885	-0.01
556.079	0.02
556.272	-0.01
556.466	0.05
556.659	0.01
556.852	0.01
557.046	0.02
557.239	0.04
557.432	-0.04
557.626	-0.01
557.819	0.04
558.012	0.05
558.206	0.02
558.399	-0
558.592	0.03
558.785	-0.01
558.979	0.02
559.172	0.01
559.365	0.04
559.558	0.02
559.751	-0.01
559.944	0.02
560.138	0.02
560.331	-0.01
560.524	-0.01
560.717	0.04
560.91	0.01
561.103	0.03
561.296	-0.01
561.489	0.01
561.682	0.03
561.875	0.04
562.068	0.04
562.261	0.01
562.454	0.04
562.647	-0
562.84	0.02
563.032	0.01
563.225	0.02
563.418	0.01
563.611	0
563.804	0.01
563.997	-0.02
564.19	0
564.382	0
564.575	0.02
564.768	-0.01
564.961	0
565.153	-0
565.346	0.03
565.539	0.03
565.731	0.02
565.924	0.03
566.117	0.01
566.309	0.03
566.502	0.01
566.695	-0
566.887	0.03
567.08	-0
567.272	-0
567.465	0.01
567.657	0.04
567.85	0.03
568.042	0.05
568.235	0.04
568.427	0.02
568.62	0.01
568.812	0.01
569.005	0.02
569.197	-0.02
569.389	0.03
569.582	0.01
569.774	-0.01
569.966	-0.03
570.159	-0.02
570.351	0.05
570.543	-0.03
570.736	0.02
570.928	-0.02
571.12	0.02
571.312	0.02
571.505	-0.01
571.697	0.05
571.889	-0.01
572.081	0.01
572.273	-0.01
572.465	0.01
572.658	0
572.85	0.01
573.042	-0.01
573.234	0.02
573.426	0.04
573.618	-0.02
573.81	0.01
574.002	0.05
574.194	0.05
574.386	-0.02
574.578	-0.08
574.77	-0.01
574.962	0.02
575.154	-0
575.346	-0.02
575.538	0.01
575.729	-0.02
575.921	-0.02
576.113	-0.02
576.305	0.05
576.497	-0.01
576.689	0.01
576.88	-0.02
577.072	0.06
577.264	0.02
577.456	0
577.647	-0.06
577.839	0
578.031	0.04
578.223	-0.03
578.414	-0.03
578.606	0.01
578.798	0.01
578.989	-0.03
579.181	-0.01
579.372	0.02
579.564	0.03
579.755	-0
579.947	0.01
580.139	0.03
580.33	-0.05
580.522	-0
580.713	-0.06
580.905	-0
581.096	0.03
581.287	-0
581.479	-0
581.67	0.02
581.862	0.02
582.053	-0.02
582.244	-0.04
582.436	-0.01
582.627	0.04
582.818	-0.03
583.01	-0.04
583.201	0.01
583.392	0.04
583.583	-0.01
583.775	-0.01
583.966	0.01
584.157	0.01
584.348	-0.02
584.54	-0.05
584.731	0.04
584.922	0
585.113	-0.03
585.304	0.05
585.495	0.04
585.686	0.02
585.877	0.03
586.068	0.02
586.259	0.01
586.45	0.01
586.641	-0.03
586.832	-0.05
587.023	0.02
587.214	0.01
587.405	0.01
587.596	-0.03
587.787	0.04
587.978	0.03
588.169	-0.02
588.36	-0
588.551	0.01
588.742	-0.02
588.932	0.03
589.123	-0
589.314	0.04
589.505	0.04
589.696	0.01
589.886	-0.02
590.077	-0.02
590.268	0
590.458	-0.04
590.649	-0.03
590.84	0.03
591.03	-0.01
591.221	-0.03
591.412	-0.04
591.602	0.02
591.793	0.04
591.984	-0.03
592.174	0.01
592.365	0.08
592.555	-0.01
592.746	0.01
592.936	0.01
593.127	0.01
593.317	0.04
593.508	-0.03
593.698	-0.01
593.889	-0.01
594.079	-0.01
594.269	-0.02
594.46	-0.01
594.65	-0
594.84	0.03
595.031	-0
595.221	-0.02
595.411	-0.02
595.602	0.03
595.792	-0.02
595.982	-0.01
596.172	0.05
596.363	-0.01
596.553	-0
596.743	0.01
596.933	0.02
597.123	0.05
597.314	-0.02
597.504	-0.02
597.694	0.06
597.884	0.04
598.074	-0.02
598.264	-0.01
598.454	0.01
598.644	0.01
598.834	0.01
599.024	-0.05
599.214	-0.01
599.404	0.01
599.594	-0.03
599.784	-0.01
599.974	0.07
600.164	0.04
600.354	-0.03
600.544	-0.04
600.734	0.02
600.924	0.04
601.114	-0.03
601.303	0.01
601.493	0.02
601.683	-0.02
601.873	0.01
602.063	-0.03
602.252	0.03
602.442	-0.06
602.632	-0.03
602.821	-0.05
603.011	0.03
603.201	-0.02
603.39	-0.02
603.58	-0.01
603.77	-0.02
603.959	0.02
604.149	0
604.339	-0
604.528	0.02
604.718	0.05
604.907	-0.02
605.097	-0.01
605.286	-0.02
605.476	0.02
605.665	0.01
605.855	-0.02
606.044	0.07
606.234	0.02
606.423	0.03
606.612	-0.04
606.802	0.02
606.991	0.02
607.181	0.02
607.37	-0.04
607.559	0.01
607.749	-0.04
607.938	-0
608.127	-0.03
608.316	-0.01
608.506	-0.01
608.695	-0.01
608.884	-0.03
609.073	-0.01
609.263	0.03
609.452	-0
609.641	0.04
609.83	-0.01
610.019	0.03
610.208	0
610.397	0.02
610.586	0
610.775	-0.01
610.965	-0.01
611.154	-0.03
611.343	-0.02
611.532	0.01
611.721	-0.03
611.91	-0.04
612.099	0.02
612.287	-0.02
612.476	-0.03
612.665	0
612.854	-0.02
613.043	0.05
613.232	-0.01
613.421	-0.06
613.61	0.01
613.798	0
613.987	0.04
614.176	0.01
614.365	0.01
614.554	0.02
614.742	0.03
614.931	-0.02
615.12	0.02
615.309	-0.01
615.497	0
615.686	-0.02
615.875	0
616.063	0.04
616.252	-0.02
616.44	0
616.629	0
616.818	0.04
617.006	0.01
617.195	0.01
617.383	0.04
617.572	0.02
617.76	-0.02
617.949	0
618.137	-0.01
618.326	0.08
618.514	-0
618.703	-0.03
618.891	0.07
619.079	0
619.268	0.02
619.456	-0.03
619.644	0.04
619.833	0.01
620.021	-0.01
620.209	-0.06
620.398	0.02
620.586	-0.02
620.774	0.04
620.962	0.01
621.151	0.05
621.339	0.02
621.527	-0.06
621.715	-0.05
621.903	-0
622.092	-0.02
622.28	0.04
622.468	-0.01
622.656	-0.01
622.844	0.04
623.032	-0
623.22	-0.06
623.408	0.01
623.596	0.02
623.784	0
623.972	-0.02
624.16	-0.02
624.348	0.05
624.536	-0.02
624.724	-0.01
624.912	0.05
625.1	0.02
625.288	-0.01
625.476	-0.02
625.664	0.03
625.851	-0.04
626.039	-0
626.227	0.02
626.415	-0.03
626.603	-0.05
626.79	0.01
626.978	-0.04
627.166	0.03
627.354	0.01
627.541	-0.01
627.729	-0.07
627.917	0.04
628.104	0.05
628.292	0.01
628.48	0.01
628.667	0.02
628.855	-0.02
629.042	0
629.23	-0.01
629.418	0.01
629.605	-0.02
629.793	-0.03
629.98	-0.03
630.168	0
630.355	-0.02
630.543	0.03
630.73	-0.02
630.917	0.02
631.105	0.07
631.292	-0.03
631.48	0.03
631.667	0.09
631.854	0.01
632.042	0
632.229	-0.06
632.416	0.02
632.604	0.01
632.791	-0.05
632.978	0.02
633.165	0.03
633.353	0.06
633.54	0.04
633.727	-0.09
633.914	-0.06
634.101	-0.06
634.289	0.02
634.476	-0.01
634.663	-0.06
634.85	0.02
635.037	-0.06
635.224	-0.06
635.411	0.07
635.598	0.05
635.785	-0
635.972	-0.04
636.159	0.04
636.346	-0.03
636.533	0
636.72	-0.01
636.907	-0
637.094	0.01
637.281	0
637.468	0.01
637.655	-0.02
637.842	0
638.029	-0.03
638.215	0.03
638.402	-0.01
638.589	0.01
638.776	0.02
638.963	-0.02
639.149	0.06
639.336	0.07
639.523	-0.02
639.709	-0.02
639.896	-0.04
640.083	0.06
640.27	0.02
640.456	-0.01
640.643	-0
640.829	-0.04
641.016	0
641.203	-0.04
641.389	0.04
641.576	0.05
641.762	0
641.949	-0.06
642.135	0.01
642.322	0.03
642.508	-0.06
642.695	0.01
642.881	0.01
643.068	-0.03
643.254	-0
643.441	0.04
643.627	-0.01
643.813	-0.01
644	0.04
644.186	-0.06
644.372	0.01
644.559	0.04
644.745	-0.01
644.931	-0.01
645.118	-0.05
645.304	0.01
645.49	-0.04
645.676	-0.03
645.862	0.02
646.049	0.05
646.235	0.01
646.421	0.09
646.607	0.08
646.793	-0.03
646.979	-0.06
647.165	-0
647.352	0
647.538	0.03
647.724	-0
647.91	0.01
648.096	0.03
648.282	0.01
648.468	0.01
648.654	-0
648.84	-0.02
649.026	-0.04
649.212	-0
649.397	-0.02
649.583	-0.04
649.769	0.03
649.955	-0.01
650.141	0.04
650.327	0.05
650.513	-0.03
650.698	0.03
650.884	-0.06
651.07	-0.03
651.256	-0
651.442	0.02
651.627	0
651.813	0.05
651.999	-0.01
652.184	-0.01
652.37	0
652.556	-0.02
652.741	0.08
652.927	-0.09
653.113	0
653.298	0.01
653.484	0.01
653.669	-0.07
653.855	0.03
654.04	0.03
654.226	0.03
654.412	-0.02
654.597	-0.02
654.782	0.01
654.968	0.05
655.153	0
655.339	-0.04
655.524	-0.07
655.71	0.03
655.895	-0.02
656.08	-0.01
656.266	0.03
656.451	0.01
656.636	-0.03
656.822	-0.02
657.007	-0.02
657.192	-0.02
657.378	-0.06
657.563	-0.01
657.748	0.04
657.933	0.02
658.118	0
658.304	-0
658.489	0.02
658.674	0.01
658.859	-0.02
659.044	0.03
659.229	0.01
659.414	0.01
659.599	0.01
659.785	-0.08
659.97	-0
660.155	0.03
660.34	-0.01
660.525	-0.01
660.71	-0.03
660.895	0.05
661.08	-0.01
661.264	-0.05
661.449	0.03
661.634	0.02
661.819	0.04
662.004	0.02
662.189	-0.02
662.374	-0.02
662.559	-0.04
662.743	-0.05
662.928	-0.04
663.113	-0.02
663.298	-0.05
663.483	-0.07
663.667	0.04
663.852	-0.06
664.037	0.03
664.221	-0.03
664.406	0.03
664.591	0.03
664.775	0
664.96	0
665.145	0.02
665.329	0.02
665.514	-0.01
665.698	-0.05
665.883	-0.07
666.068	0.04
666.252	-0.01
666.437	-0.04
666.621	0
666.806	0.02
666.99	-0.01
667.174	-0.04
667.359	0.05
667.543	-0.04
667.728	-0.03
667.912	-0.07
668.096	0.05
668.281	-0.01
668.465	-0.01
668.649	-0.01
668.834	-0
669.018	-0.02
669.202	-0.05
669.387	-0.04
669.571	0.06
669.755	-0.05
669.939	0.02
670.124	0.01
670.308	0.03
670.492	0.01
670.676	-0.01
670.86	-0.01
671.044	-0.07
671.228	0.04
671.413	-0.01
671.597	-0.02
671.781	0.01
671.965	0.04
672.149	0.02
672.333	0.01
672.517	-0.02
672.701	0.02
672.885	-0.02
673.069	-0.04
673.253	0.06
673.437	0
673.621	-0.06
673.804	0
673.988	0.02
674.172	-0.02
674.356	-0.06
674.54	-0.03
674.724	0.09
674.908	-0.01
675.091	0.08
675.275	0.01
675.459	0.03
675.643	-0.01
675.826	0.02
676.01	0
676.194	-0.01
676.377	0.06
676.561	-0.01
676.745	0.02
676.928	0.03
677.112	-0.02
677.296	-0.04
677.479	-0.03
677.663	-0
677.846	0.02
678.03	-0.02
678.213	-0.05
678.397	0.06
678.58	-0.05
678.764	-0.02
678.947	0
679.131	-0.08
679.314	0.07
679.498	0.01
679.681	-0.02
679.865	0.09
680.048	0
680.231	0
680.415	-0.01
680.598	-0.03
680.781	-0.01
680.965	-0.01
681.148	0.02
681.331	-0.01
681.514	0
681.698	-0.04
681.881	0.03
682.064	0
682.247	-0.01
682.43	-0.05
682.614	0.03
682.797	0.06
682.98	0.01
683.163	-0.01
683.346	0.04
683.529	-0.01
683.712	-0.02
683.895	0.05
684.078	-0.08
684.261	-0.03
684.444	0.03
684.627	0.01
684.81	-0.05
684.993	-0.02
685.176	0.04
685.359	-0.07
685.542	-0.05
685.725	0.05
685.908	0
686.091	-0.06
686.274	0.06
686.457	0.02
686.639	0.02
686.822	0.06
687.005	0.01
687.188	0.06
687.371	0.09
687.553	0.02
687.736	0.02
687.919	0.06
688.102	0.06
688.284	-0.02
688.467	0.02
688.65	-0.03
688.832	-0.05
689.015	0.01
689.197	-0.04
689.38	0.13
689.563	0.09
689.745	-0.04
689.928	-0.04
690.11	0.06
690.293	-0.03
690.475	-0.07
690.658	0.02
690.84	-0.04
691.023	0.02
691.205	0.02
691.388	-0
691.57	0.08
691.752	0.01
691.935	-0.07
692.117	-0.04
692.3	0.09
692.482	0.01
692.664	0.01
692.847	0.01
693.029	0.06
693.211	-0.02
693.393	-0.01
693.576	-0.05
693.758	0.01
693.94	0.01
694.122	0.01
694.304	0.02
694.487	-0.04
694.669	0.12
694.851	-0.07
695.033	0.03
695.215	-0.04
695.397	0
695.579	0.04
695.761	-0.06
695.943	-0.04
696.125	0.07
696.308	0.03
696.49	-0.07
696.671	0.15
696.853	0.02
697.035	0.13
697.217	-0
697.399	0.08
697.581	-0.01
697.763	-0.02
697.945	-0.05
698.127	0.01
698.309	0.06
698.491	0.01
698.672	0.01
698.854	0.08
699.036	0.15
699.218	0
699.399	0.09
699.581	-0.02
699.763	0.02
699.945	-0.03
700.126	-0.05
700.308	-0.02
700.49	-0.06
700.671	-0.11
700.853	-0.03
701.035	-0.02
701.216	-0
701.398	-0.01
701.579	-0.03
701.761	0.02
701.943	-0
702.124	-0.02
702.306	0.01
702.487	0.15
702.669	0.02
702.85	-0.03
703.031	-0.03
703.213	0.07
703.394	0.03
703.576	-0.02
703.757	0.08
703.938	0.1
704.12	0.1
704.301	-0
704.483	-0.03
704.664	0.05
704.845	0.09
705.026	0.06
705.208	-0.03
705.389	0.04
705.57	-0.02
705.751	0.05
705.933	-0.03
706.114	0.07
706.295	-0.01
706.476	-0.03
706.657	0.08
706.838	0.1
707.02	0.09
707.201	-0.08
707.382	0.02
707.563	0.08
707.744	0.02
707.925	-0.03
708.106	-0.08
708.287	0.06
708.468	0.12
708.649	-0.04
708.83	0.05
709.011	-0.01
709.192	0.03
709.373	-0.1
709.554	-0.03
709.734	0.03
709.915	0.05
710.096	-0.02
710.277	-0.03
710.458	-0
710.639	0.04
710.819	-0.13
711	0.03
711.181	0.07
711.362	0.09
711.542	0.03
711.723	0.05
711.904	0.04
712.085	-0
712.265	0.02
712.446	-0.11
712.627	0
712.807	0.02
712.988	-0.02
713.168	-0.1
713.349	0.01
713.53	-0.1
713.71	-0.1
713.891	-0.09
714.071	-0.02
714.252	-0.04
714.432	0.01
714.613	-0.09
714.793	-0
714.974	0.11
715.154	0.07
715.334	0.04
715.515	0.11
715.695	-0.07
715.876	-0.05
716.056	-0.02
716.236	0.04
716.417	-0.02
716.597	-0.04
716.777	0.12
716.957	-0.03
717.138	0.02
717.318	0.04
717.498	-0.09
717.678	0.04
717.859	0.04
718.039	-0.05
718.219	-0.02
718.399	0.07
718.579	-0.03
718.759	-0.01
718.939	0.03
719.12	-0.02
719.3	0.01
719.48	-0.05
719.66	-0.11
719.84	0.07
720.02	-0.02
720.2	-0.06
720.38	0.06
720.56	0.05
720.74	-0.03
720.92	0.03
721.1	0.05
721.279	0.11
721.459	0.02
721.639	-0.07
721.819	0.02
721.999	-0
722.179	0.09
722.359	-0.11
722.538	-0.03
722.718	-0.01
722.898	-0.04
723.078	0.03
723.257	-0.01
723.437	0.01
723.617	0.05
723.797	-0.08
723.976	-0.03
724.156	0.03
724.336	0.12
724.515	0.17
724.695	-0.15
724.874	0.01
725.054	0.06
725.234	-0.03
725.413	0.02
725.593	-0.07
725.772	0.04
725.952	0.01
726.131	-0.01
726.311	0.03
726.49	0.02
726.67	-0.06
726.849	-0.09
727.028	0.1
727.208	0.03
727.387	0.01
727.567	-0.07
727.746	-0.03
727.925	-0.08
728.105	-0.04
728.284	0.01
728.463	-0.07
728.643	0.08
728.822	-0.1
729.001	-0.08
729.18	-0.02
729.359	0.1
729.539	0.04
729.718	0.05
729.897	0.04
730.076	-0.02
730.255	-0.06
730.434	0.04
730.614	0.09
730.793	0.09
730.972	-0.01
731.151	-0.01
731.33	0.06
731.509	0.05
731.688	0.06
731.867	0.01
732.046	-0.11
732.225	0.22
732.404	-0.06
732.583	-0.08
732.762	0.04
732.941	0.07
733.12	0.04
733.298	-0.03
733.477	0.12
733.656	-0.02
733.835	-0.17
734.014	0.05
734.193	0.04
734.371	0
734.55	0.03
734.729	-0.1
734.908	0.1
735.086	0.05
735.265	0.1
735.444	-0.19
735.623	-0.05
735.801	-0.08
735.98	-0.01
736.159	-0.02
736.337	0.05
736.516	0.05
736.694	0.03
736.873	-0.1
737.052	0.19
737.23	0.15
737.409	-0.07
737.587	0.13
737.766	-0.21
737.944	-0.09
738.123	0.08
738.301	0.08
738.479	-0.07
738.658	-0.02
738.836	-0.14
739.015	0.04
739.193	0.15
739.371	-0.07
739.55	0.02
739.728	-0.09
739.906	0.03
740.085	0.19
740.263	0.04
740.441	-0.23
740.62	0.19
740.798	0.04
740.976	-0.06
741.154	-0.04
741.332	0.14
741.511	-0.02
741.689	0.08
741.867	0.04
742.045	0.09
742.223	-0.07
742.401	-0.05
742.579	-0.02
742.757	0.09
742.935	-0.01
743.114	-0.05
743.292	0.03
743.47	0.01
743.648	-0
743.826	-0.09
744.004	0.01
744.181	0.06
744.359	-0.04
744.537	-0.01
744.715	-0.02
744.893	0.06
745.071	-0.08
745.249	0.04
745.427	0.02
745.605	0.04
745.782	0.01
745.96	0.09
746.138	0.14
746.316	0.1
746.493	-0.03
746.671	0.03
746.849	0.07
747.027	0.21
747.204	-0.12
747.382	-0.02
747.56	-0.15
747.737	0.01
747.915	-0.07
748.093	0.13
748.27	-0.01
748.448	0.1
748.625	-0.14
748.803	-0.08
748.98	-0.03
749.158	0.05
749.335	0.06
749.513	-0.07
749.69	-0.03
749.868	-0.01
750.045	0
750.223	-0.05
750.4	-0.19
750.578	0.14
750.755	-0
750.932	-0.11
751.11	0.11
751.287	-0.1
751.464	0.08
751.642	-0.13
751.819	0.11
751.996	0
752.173	-0.02
752.351	-0.17
752.528	0.03
752.705	-0.03
752.882	-0.02
753.06	0.09
753.237	0.05
753.414	0.21
753.591	0.12
753.768	-0.03
753.945	-0.09
754.122	-0.14
754.299	0.02
754.476	-0.07
754.654	0.01
754.831	0.08
755.008	0.12
755.185	-0.02
755.362	-0.08
755.539	0.15
755.716	-0.09
755.892	0.03
756.069	-0.14
756.246	0.08
756.423	0.01
756.6	0.15
756.777	0.04
756.954	0.11
757.131	-0.03
757.307	-0.1
757.484	-0.09
757.661	0.05
757.838	0.1
758.015	-0.1
758.191	0.1
758.368	0.13
758.545	0.09
758.721	0.1
758.898	-0.08
759.075	0.15
759.251	0.06
759.428	0.07
759.605	-0.12
759.781	-0
759.958	0.13
760.134	0.1
760.311	-0.11
760.488	0.06
760.664	0.18
760.841	-0.05
761.017	-0.03
761.194	0.09
761.37	0.17
761.547	0.06
761.723	-0.17
761.899	0.08
762.076	-0.09
762.252	-0.11
762.429	-0.11
762.605	0.13
762.781	-0.01
762.958	0.08
763.134	-0.08
763.31	-0.13
763.486	0.06
763.663	-0.08
763.839	0.09
764.015	-0.15
764.191	-0.08
764.368	-0
764.544	-0.06
764.72	0.07
764.896	0.15
765.072	-0.01
765.248	0.03
765.425	-0.03
765.601	0.05
765.777	0
765.953	-0.18
766.129	-0.03
766.305	-0.11
766.481	-0.01
766.657	0.15
766.833	0.15
767.009	-0.14
767.185	0.05
767.361	-0
767.537	-0.09
767.713	0.19
767.889	0.02
768.065	-0
768.24	-0.13
768.416	0.01
768.592	-0.17
768.768	0.03
768.944	-0.02
769.12	-0.21
769.295	-0.02
769.471	-0.06
769.647	-0.02
769.823	0.15
769.998	-0.12
770.174	-0.04
770.35	0.42
770.525	0.2
770.701	0.03
770.877	-0.14
771.052	-0.23
771.228	0.1
771.403	0.08
771.579	0.16
771.755	0.28
771.93	-0.07
772.106	-0.12
772.281	-0.19
772.457	0.07
772.632	0.07
772.808	-0.16
772.983	-0.11
773.159	-0.28
773.334	0.14
773.509	0.08
773.685	-0.07
773.86	0.49
774.036	0.22
774.211	0.08
774.386	0.04
774.562	-0.03
774.737	0.17
774.912	-0.02
775.087	-0
775.263	-0.04
775.438	-0.16
775.613	-0.12
775.788	-0.01
775.964	0.12
776.139	0.49
776.314	-0.11
776.489	0
776.664	0.13
776.839	-0.01
777.014	0.13
777.19	0.05
777.365	0.18
777.54	0.35
777.715	-0.03
777.89	0.02
778.065	-0.06
778.24	0.06
778.415	0.12
778.59	-0.1
778.765	0
778.94	0.09
779.115	0.01
779.289	-0.01
779.464	-0.06
779.639	-0.23
779.814	-0.04
779.989	-0.19
780.164	0.17
780.339	0.03
780.513	-0.05
780.688	-0.19
780.863	-0.02
781.038	0.27
781.212	-0.25
781.387	0.08
781.562	0.35
781.737	0.04
781.911	0.34
782.086	-0.1
782.261	-0.06
782.435	0.18
782.61	0.08
782.784	-0.05
782.959	0.19
783.134	0
783.308	-0.26
783.483	0.06
783.657	0.26
783.832	0.08
784.006	-0.44
784.181	0.06
784.355	0.04
784.53	0.04
784.704	-0.27
784.878	0.26
785.053	0.14
785.227	0.24
785.402	0.21
785.576	-0.25
785.75	0.23
785.925	0
786.099	-0.02
786.273	0.06
786.448	0.23
786.622	0
786.796	-0.03
786.97	0.19
787.145	0.7
787.319	-0.56
787.493	-0.05
787.667	-0.22
787.841	-0.11
788.015	0.16
788.19	-0.13
788.364	0.03
788.538	0.26
788.712	0.23
788.886	-0.1
789.06	0.06
789.234	0.14
789.408	-0.3
789.582	0.03
789.756	-0.06
789.93	-0.06
790.104	0.06
790.278	0.04
790.452	-0.03
790.626	0.14
790.8	-0.16
790.973	0.37
791.147	0.32
791.321	0.42
791.495	0.04
791.669	0.06
791.843	0.16
792.016	0.05
792.19	0.52
792.364	-0.06
792.538	0.52
792.711	0.39
792.885	0.13
793.059	-0.13
793.233	-0.56
793.406	0.19
793.58	0.05
793.754	-0.02
793.927	-0.04
794.101	0.39
794.274	0.06
794.448	0.07
794.622	-0.17
794.795	0.47
794.969	0.08
795.142	0.27
795.316	0.13
795.489	0
795.663	0.3
795.836	-0.17
796.009	-0.18
796.183	0.32
796.356	0.07
796.53	0.02
796.703	-0.03
796.876	0.51
797.05	-0.16
797.223	-0.06
797.396	0.17
797.57	-0.01
797.743	0.12
797.916	-0.07
798.09	0.06
798.263	0.29
798.436	0.46
798.609	-0.29
798.782	-0.29
798.956	0.13
799.129	-0.08
799.302	-0.11
799.475	-0.04
799.648	-0.09
799.821	-0.29
799.994	0.29
800.167	-0.3
800.34	-0.03
800.514	-0.08
800.687	-0.03
800.86	0.01
801.033	-0.04
801.206	0.05
801.379	-0.36
801.551	0.35
801.724	0.08
801.897	0.28
802.07	-0.34
802.243	-0.3
802.416	-0.16
802.589	-0.22
802.762	-0.01
802.935	-0.02
803.107	0.37
803.28	0.4
803.453	0.34
803.626	-0.05
803.798	0.04
803.971	-0.1
804.144	0.16
804.317	0.03
804.489	0.3
804.662	0.22
804.835	-0.08
805.007	-0.05
805.18	0.36
805.353	-0.07
805.525	-0.26
805.698	-0.1
805.87	0.2
806.043	0.33
806.215	-0.23
806.388	-0.07
806.56	0.41
806.733	0.51
806.905	0.14
807.078	-0.12
807.25	-0.24
807.423	0.09
807.595	0.14
807.768	0.18
807.94	0.18
808.112	0.2
808.285	0.18
808.457	-0.31
808.629	0.19
808.802	0.55
808.974	0.31
809.146	-0.25
809.318	-0.02
809.491	0.21
809.663	0.17
809.835	-0.27
810.007	0.17
810.18	0.2
810.352	-0.31
810.524	-0.23
810.696	0.37
810.868	0.37
811.04	-0.07
811.212	-0.18
811.384	0.03
811.556	0.21
811.728	0.26
811.901	0.65
812.073	-0.08
812.245	0.12
812.417	-0.12
812.589	-0.82
812.76	0.25
812.932	0.15
813.104	0.38
813.276	-0.05
813.448	0.35
813.62	-0.01
813.792	0.26
813.964	0.02
814.136	0.15
814.307	-0.04
814.479	-0.39
814.651	0.23
814.823	0.77
814.995	-0.24
815.166	0.21
815.338	-0.09
815.51	-0.69
815.681	1
815.853	0.05
816.025	0.03
816.196	0.49
816.368	0.77
816.54	-0.73
816.711	-0.49
816.883	0.53
817.054	1.08
817.226	-0.5
817.398	0.21
817.569	-0.22
817.741	-0.1
817.912	-0.02
818.084	0.07
818.255	-0.03
818.426	-0.37
818.598	-0.04
818.769	-0.25
818.941	0.65
819.112	0.47
819.283	0.36
819.455	-0.45
819.626	0.01
819.798	0.73
819.969	0.03
820.14	-0.21
820.311	-0.2
820.483	0.34
820.654	0.26
820.825	-0.03
820.996	-0
821.168	-0.37
821.339	-0.23
821.51	-0.19
821.681	0.06
821.852	-0.12
822.023	-0.23
822.195	-0.52
822.366	0.58
822.537	-0.06
822.708	0.65
822.879	-0.35
823.05	0.83
823.221	-0.06
823.392	0.39
823.563	-0.18
823.734	0.45
823.905	-0.4
824.076	-0.19
824.247	-0.35
824.418	0.1
824.589	0.44
824.759	0.26
824.93	0.03
825.101	-0.33
825.272	0.54
825.443	0.82
825.614	0.62
825.784	-0.34
825.955	1.3
826.126	0.31
826.297	-0.02
826.467	0.95
826.638	0.22
826.809	-1
826.98	0.18
827.15	0.31
827.321	0.4
827.492	0.9
827.662	0.22
827.833	0.7
828.003	0.86
828.174	-0.39
828.345	-0.49
828.515	0.78
828.686	0.18
828.856	-0.49
829.027	0.19
829.197	0.43
829.368	0.66
829.538	0.03
829.709	-0.39
829.879	0.44
830.049	0.03
830.22	-0.38
830.39	0.53
830.56	0.51
830.731	0.24
830.901	0.24
831.072	-0.15
831.242	0.35
831.412	0.3
831.582	-0.65
831.753	-0.82
831.923	0.04
832.093	-0.11
832.263	-0.09
832.434	-0.16
832.604	-0.2
832.774	0.3
832.944	-0.45
833.114	-0.31
833.284	1.04
833.454	-0.45
833.624	-0.44
833.795	-0
833.965	0.37
834.135	1.03
834.305	-1.19
834.475	-0.78
834.645	0.14
834.815	0.47
834.985	-0.44
835.155	0.01
835.325	0.7
835.494	0.52
835.664	0.32
835.834	-0.52
836.004	-0
836.174	0.45
836.344	-0.1
836.514	-0.3
836.684	-0.39
836.853	-0.09
837.023	-0.05
837.193	-0.21
837.363	0.86
837.532	0.33
837.702	0.77
837.872	0.17
838.041	0.26
838.211	1.79
838.381	-0.51
838.55	0.22
838.72	1.91
838.89	0.96
839.059	-0.37
839.229	-0.64
839.398	1.6
839.568	0.31
839.738	-0.16
839.907	0.98
840.077	0.39
840.246	-0.07
840.416	-0.35
840.585	-0.69
840.755	0.95
840.924	0.17
841.093	-0.38
841.263	0.06
841.432	0.38
841.602	-0.7
841.771	-0.24
841.94	0.57
842.11	2.29
842.279	1.81
842.448	-0.34
842.617	-0.27
842.787	1.68
842.956	-0.71
843.125	0.06
843.294	0.19
843.464	1.09
843.633	0.44
843.802	-1.22
843.971	-0.3
844.14	0.24
844.309	0.74
844.479	-0.46
844.648	-0.69
844.817	-0.9
844.986	0.09
845.155	-0.24
845.324	-0.41
845.493	0.78
845.662	-0.31
845.831	1.01
846	0.29
846.169	0.22
846.338	1.49
846.507	0.38
846.676	-0.41
846.844	-0.8
847.013	1.06
847.182	0.75
847.351	-0.57
847.52	0.82
847.689	0.36
847.858	0.34
848.026	-0.16
848.195	0.01
848.364	-0.96
848.533	-0.96
848.701	0.32
848.87	0.67
849.039	1.25
849.207	0.57
849.376	1.2
849.545	0.3
849.713	-0.76
849.882	-0.57
850.051	0.2
850.219	0.78
850.388	0.69
850.556	-0.09
850.725	-0.61
850.893	0.18
851.062	0.17
851.23	-0.19
851.399	-1.26
851.567	-0.45
851.736	-0.54
851.904	-0.18
852.073	1.05
852.241	1.41
852.41	0.52
852.578	-0.57
852.746	-1.33
852.915	1.2
853.083	0.42
853.251	-0.95
853.42	-0.41
853.588	-0.59
853.756	1.68
853.924	-0.32
854.093	0.25
854.261	-0.2
854.429	-1.99
854.597	0.49
854.765	-0.83
854.934	0.96
855.102	2.05
855.27	-0.57
855.438	-0.03
855.606	1.11
855.774	0.76
855.942	-0.21
856.11	-1.51
856.278	0.09
856.446	1.13
856.614	0.32
856.782	-1.41
856.95	1.62
857.118	0.91
857.286	1.05
857.454	0.26
857.622	1.66
857.79	-0.02
857.958	-0.87
858.126	-1.34
858.294	-1.83
858.462	0.07
858.629	-0.27
858.797	-0.37
858.965	0.17
859.133	0.62
859.301	-0.03
859.468	0
859.636	-0.38
859.804	2.31
859.971	1.18
860.139	-0.51
860.307	1.19
860.474	0.72
860.642	-1.53
860.81	-1.86
860.977	0.34
861.145	0.69
861.313	-0.47
861.48	0.02
861.648	1.03
861.815	0.6
861.983	-0.31
862.15	0.32
862.318	0.88
862.485	1.94
862.653	-0.41
862.82	-0.31
862.988	2.28
863.155	0.67
863.322	-1.48
863.49	-1.43
863.657	-0.8
863.824	0.77
863.992	0.06
864.159	0.74
864.326	1.48
864.494	-0.55
864.661	2.31
864.828	-1.41
864.996	1.81
865.163	1.39
865.33	-1.97
865.497	-2.04
865.664	-0.74
865.832	-1.08
865.999	-0.42
866.166	-1.12
866.333	-0.55
866.5	-1.91
866.667	-0.81
866.834	-0.56
867.001	1.23
867.168	-2.15
867.335	0.79
867.502	-1.54
867.669	-0.2
867.836	2.55
868.003	-0.42
868.17	0.96
868.337	3
868.504	2.67
868.671	-2.65
868.838	-0.13
869.005	0.36
869.172	0.88
869.339	0.13
869.505	-0.81
869.672	-1.2
869.839	0.95
870.006	0.16
870.173	-1.33
870.339	-0.69
870.506	2.29
870.673	-1.2
870.84	0.97
871.006	1.57
871.173	0.83
871.34	1.23
871.506	-1.94
871.673	1.13
871.839	-1.86
872.006	0.33
872.173	1.16
872.339	0.55
872.506	2.71
872.672	0.6
872.839	-0.14
873.005	0.42
873.172	3.89
873.338	2.37
873.505	1.11
873.671	1.72
873.838	1.14
874.004	-2
874.171	-0.87
874.337	0.57
874.503	1.57
874.67	-1.13
874.836	1.14
875.002	2.77
875.169	2.92
875.335	1.77
875.501	-0.85
875.668	0.41
875.834	0.56
876	-0.97
876.166	0.95
876.332	1.05
876.499	3.07
876.665	-0.97
876.831	-0.09
876.997	3.65
877.163	3.07
877.329	-0.09
877.495	1.12
877.662	0.37
877.828	2.63
877.994	-0.14
878.16	-4.6
878.326	-0.31
878.492	1.06
878.658	-1.6
878.824	-0.29
878.99	1.66
879.156	-1.24
879.322	2.53
879.487	0.53
879.653	1.84
879.819	0.34
879.985	0.14
880.151	0.92
880.317	1.97
880.483	0.77
880.648	1.52
880.814	-1.09
880.98	1.92
881.146	-1.98
881.312	-1.81
881.477	-0.22
881.643	-0.16
881.809	1.61
881.974	0.91
882.14	-2.42
882.306	-0.29
882.471	3.27
882.637	-0.14
882.803	0.49
882.968	2.01
883.134	2.94
883.299	0.21
883.465	-0.12
883.63	1.82
883.796	2.41
883.961	2.13
884.127	0.68
884.292	-2.85
884.458	-1.14
884.623	-1.14
