Data from Apollo_Calib_20240827__AbsoluteIrradiance__601__09-10-00-189.txt Node

Date: Wed Aug 28 09:10:00 BST 2024
User: biology
Spectrometer: FLMT08252
Trigger mode: 0
Integration Time (sec): 5.000000E-1
Scans to average: 5
Electric dark correction enabled: true
Nonlinearity correction enabled: false
Boxcar width: 0
XAxis mode: Wavelengths
Number of Pixels in Spectrum: 3648
>>>>>Begin Spectral Data<<<<<
179.588	-0
179.809	-0
180.03	-0
180.251	-0
180.473	-0
180.694	0
180.915	0
181.136	-0
181.357	0
181.578	0
181.799	-0
182.02	-0
182.241	0
182.462	-0
182.683	0
182.904	-0
183.125	-0
183.346	0
183.567	0
183.788	0
184.009	-0
184.23	0
184.451	0
184.672	0
184.892	-0
185.113	0
185.334	0
185.555	0
185.776	-0
185.996	0
186.217	0
186.438	0
186.659	0
186.879	0
187.1	0
187.321	0
187.541	-0
187.762	0
187.983	0
188.203	0
188.424	0
188.644	0
188.865	0
189.086	0
189.306	0
189.527	0
189.747	0
189.968	0
190.188	0
190.409	0
190.629	0
190.849	0
191.07	0
191.29	0
191.511	0
191.731	0
191.951	0
192.172	0
192.392	0
192.612	0
192.833	0
193.053	0
193.273	0
193.493	0
193.714	0
193.934	0
194.154	0
194.374	0
194.594	0
194.815	0
195.035	0
195.255	0
195.475	-0
195.695	0
195.915	0
196.135	0
196.355	0
196.575	0
196.795	0
197.015	-0
197.235	0
197.455	0
197.675	0
197.895	-0
198.115	0
198.335	0
198.555	0
198.775	0
198.995	0
199.214	0
199.434	0
199.654	-0
199.874	0
200.094	1.79
200.313	0.31
200.533	0.5
200.753	-0.04
200.973	1.52
201.192	1.27
201.412	-0.29
201.632	0.56
201.851	1.47
202.071	0.37
202.291	0.27
202.51	0.29
202.73	0.56
202.95	0.6
203.169	-0.18
203.389	0.91
203.608	0.77
203.828	0.42
204.047	0.26
204.267	0.95
204.486	0.42
204.706	0.52
204.925	0.53
205.145	0.38
205.364	0.64
205.583	1.29
205.803	0.14
206.022	0.3
206.242	0.41
206.461	0.61
206.68	0.05
206.9	0.42
207.119	0.84
207.338	0.93
207.557	0.5
207.777	0.55
207.996	0.41
208.215	0.92
208.434	0.16
208.654	-0.01
208.873	0.76
209.092	0.99
209.311	0.08
209.53	0.59
209.749	0.12
209.968	0.09
210.187	0.21
210.407	-0.22
210.626	0.25
210.845	0.52
211.064	0.08
211.283	0.16
211.502	0.48
211.721	0.37
211.94	0.25
212.159	0.7
212.377	0.65
212.596	0.52
212.815	0.49
213.034	0.39
213.253	0.51
213.472	0.47
213.691	0.2
213.91	0.04
214.128	0.28
214.347	0.59
214.566	0.11
214.785	0.03
215.003	0.67
215.222	0.38
215.441	0.33
215.66	-0.1
215.878	0.23
216.097	0.59
216.316	-0.08
216.534	0.27
216.753	0.32
216.972	0.18
217.19	0.33
217.409	0.1
217.627	0.08
217.846	0.14
218.064	0.26
218.283	0.15
218.501	0.69
218.72	0.52
218.938	0.03
219.157	0.02
219.375	0.36
219.594	0.36
219.812	0.08
220.031	0.14
220.249	0.44
220.467	0.3
220.686	0.12
220.904	0.03
221.122	0.06
221.341	0.44
221.559	0.28
221.777	0.13
221.995	0.27
222.214	0.25
222.432	0.05
222.65	0.31
222.868	0.16
223.086	0.33
223.305	0.28
223.523	0.08
223.741	0.41
223.959	0.08
224.177	-0.07
224.395	0.04
224.613	0.23
224.831	0.36
225.049	-0
225.267	0.04
225.485	0.26
225.703	0.11
225.921	0.25
226.139	0.07
226.357	0.24
226.575	0.21
226.793	0.1
227.011	0.68
227.229	0.18
227.447	0.28
227.665	-0.07
227.883	0.04
228.1	0.21
228.318	0.3
228.536	-0.05
228.754	0.1
228.972	0.23
229.189	0.27
229.407	0.05
229.625	0.16
229.843	0.34
230.06	0.32
230.278	0.11
230.496	0.16
230.713	0.19
230.931	0.34
231.149	0.05
231.366	0
231.584	0.13
231.801	0.46
232.019	0.04
232.236	-0.01
232.454	0.09
232.671	0.12
232.889	0.27
233.106	0.04
233.324	0.12
233.541	0.23
233.759	0.08
233.976	0.16
234.194	0.09
234.411	0.06
234.628	0.06
234.846	0.09
235.063	0.23
235.28	0.12
235.498	0.13
235.715	-0.11
235.932	0.25
236.149	0.09
236.367	0.08
236.584	0.2
236.801	0.01
237.018	0.2
237.236	0.13
237.453	-0.03
237.67	0.24
237.887	0.11
238.104	0.05
238.321	0.05
238.538	0.08
238.755	0.24
238.973	0.16
239.19	0.18
239.407	0.22
239.624	0.17
239.841	-0.12
240.058	0.04
240.275	0.17
240.492	0.1
240.709	0.1
240.925	0.05
241.142	0.07
241.359	-0.05
241.576	0.02
241.793	0.06
242.01	0.09
242.227	0.33
242.444	0.2
242.66	0.21
242.877	0.09
243.094	0.1
243.311	0.07
243.527	0.09
243.744	0.18
243.961	0.14
244.178	0.03
244.394	0.14
244.611	0.22
244.828	0.28
245.044	0.1
245.261	0.13
245.477	0.15
245.694	0.13
245.911	0.14
246.127	0.17
246.344	0.24
246.56	0.2
246.777	0.08
246.993	0.08
247.21	0.12
247.426	0.17
247.643	0.11
247.859	0.01
248.076	0.08
248.292	0.26
248.508	0.06
248.725	0.12
248.941	0.16
249.157	0.28
249.374	0.05
249.59	0.11
249.806	0.16
250.023	0.17
250.239	0.03
250.455	0.09
250.671	0.18
250.888	0.16
251.104	0.12
251.32	0.01
251.536	0.14
251.752	0.07
251.969	0.17
252.185	0.1
252.401	0.24
252.617	0.14
252.833	0.13
253.049	0.12
253.265	0.02
253.481	0.06
253.697	0.03
253.913	0.05
254.129	0.13
254.345	0.11
254.561	0.11
254.777	0.17
254.993	0.22
255.209	0.13
255.425	0.05
255.641	0.05
255.857	0.21
256.073	0.11
256.288	0
256.504	0.1
256.72	0.14
256.936	0.2
257.152	0.1
257.367	0.08
257.583	0.08
257.799	0.13
258.015	-0
258.23	0.04
258.446	0.16
258.662	0.06
258.877	-0.03
259.093	0.04
259.309	0.1
259.524	0.14
259.74	-0.01
259.955	-0.04
260.171	0.14
260.387	0.05
260.602	0.22
260.818	0.13
261.033	0.02
261.249	0.05
261.464	0.12
261.68	-0.03
261.895	0.05
262.11	0.12
262.326	0.06
262.541	0
262.757	0.11
262.972	0.06
263.187	0.12
263.403	0.03
263.618	0.14
263.833	0.11
264.049	0.06
264.264	0.1
264.479	0.16
264.694	0.21
264.91	0.05
265.125	0.09
265.34	0.14
265.555	0.24
265.77	0.08
265.986	0.07
266.201	0.12
266.416	0.15
266.631	0.1
266.846	0.05
267.061	0.11
267.276	0.1
267.491	-0.07
267.706	0.15
267.921	0.12
268.136	0.05
268.351	0.13
268.566	0.05
268.781	0.18
268.996	0.14
269.211	0.05
269.426	-0.04
269.641	0.04
269.856	0.11
270.071	-0.01
270.285	0.02
270.5	0.16
270.715	0.18
270.93	0.05
271.145	0.13
271.359	0.18
271.574	0.01
271.789	0.06
272.004	0.06
272.218	0.08
272.433	0.18
272.648	0.03
272.862	0.17
273.077	0.02
273.292	0.05
273.506	0
273.721	0.12
273.936	0.15
274.15	0.21
274.365	0.07
274.579	0.11
274.794	0.11
275.008	0.24
275.223	-0.01
275.437	0.07
275.652	0.14
275.866	0.1
276.081	0.13
276.295	0.1
276.509	0.1
276.724	0.05
276.938	0.07
277.153	0.07
277.367	0.15
277.581	0.02
277.796	0.03
278.01	0.02
278.224	0.1
278.438	0.17
278.653	0.04
278.867	0.07
279.081	-0
279.295	0.05
279.51	0.12
279.724	-0.09
279.938	0.12
280.152	0.14
280.366	0.08
280.58	0.06
280.794	0.11
281.008	0.08
281.222	0.1
281.437	0.19
281.651	0.1
281.865	0.14
282.079	0.05
282.293	-0.05
282.507	0.03
282.721	0.07
282.935	0.08
283.148	-0.03
283.362	0.02
283.576	0.03
283.79	0.04
284.004	0.09
284.218	0.17
284.432	0.02
284.646	0.06
284.859	0.05
285.073	0.05
285.287	0.1
285.501	0.04
285.714	0.06
285.928	0.09
286.142	0.04
286.356	0.06
286.569	0.09
286.783	0.18
286.997	0.12
287.21	0.1
287.424	0.12
287.637	0.05
287.851	0.09
288.065	0.08
288.278	0.06
288.492	0.09
288.705	0.04
288.919	0.12
289.132	-0
289.346	0.12
289.559	-0.03
289.773	0.02
289.986	0.04
290.2	0.02
290.413	0.12
290.626	0.01
290.84	0.08
291.053	0.04
291.267	0.16
291.48	0.09
291.693	0.04
291.906	0.05
292.12	0.04
292.333	0.05
292.546	0.06
292.76	0.13
292.973	0.07
293.186	0.08
293.399	0.06
293.612	0.1
293.826	0.09
294.039	0.05
294.252	0.07
294.465	0.09
294.678	0.07
294.891	0.08
295.104	0.02
295.317	0.06
295.53	0.08
295.743	0.03
295.956	0.06
296.169	0.18
296.382	0.06
296.595	0.06
296.808	0.07
297.021	0.13
297.234	0.09
297.447	0.05
297.66	0.09
297.873	0.16
298.086	0.08
298.299	0.04
298.511	-0.02
298.724	0.04
298.937	0.01
299.15	0.1
299.363	0.04
299.575	0.1
299.788	0.07
300.001	0.05
300.213	0.06
300.426	0.04
300.639	0.06
300.852	-0.01
301.064	0.14
301.277	0.1
301.489	0.09
301.702	0.1
301.915	0.1
302.127	0.05
302.34	0.07
302.552	0.07
302.765	0.05
302.977	0.13
303.19	0.03
303.402	0.04
303.615	0.08
303.827	0.04
304.04	-0.01
304.252	0.07
304.464	0.03
304.677	0.13
304.889	0.1
305.102	0.02
305.314	0.02
305.526	0.1
305.739	0.11
305.951	0.02
306.163	0.07
306.375	0.16
306.588	0.05
306.8	0.04
307.012	-0.02
307.224	0.04
307.436	0.1
307.649	0
307.861	0.06
308.073	0.06
308.285	0.04
308.497	-0.01
308.709	0.03
308.921	0.1
309.133	0.11
309.346	0.03
309.558	0.06
309.77	0.1
309.982	0.13
310.194	0.14
310.406	0.09
310.617	0.1
310.829	0.07
311.041	0.06
311.253	0.02
311.465	0.05
311.677	0.06
311.889	0.09
312.101	0.03
312.313	0.09
312.524	0.1
312.736	0
312.948	0.08
313.16	0.16
313.372	0.08
313.583	0.07
313.795	0.03
314.007	-0.01
314.218	0.1
314.43	0.05
314.642	0.05
314.853	0.03
315.065	0.09
315.277	0.06
315.488	0.08
315.7	0.11
315.912	0.07
316.123	0.04
316.335	0.05
316.546	0.17
316.758	0.06
316.969	0.04
317.181	0.05
317.392	0.08
317.604	0.08
317.815	0
318.026	0.02
318.238	0.05
318.449	0.07
318.661	0.02
318.872	0.02
319.083	0.03
319.295	0.09
319.506	0.01
319.717	0.09
319.929	0.1
320.14	0.03
320.351	0.06
320.562	0.03
320.774	0.05
320.985	0.05
321.196	0.02
321.407	-0.04
321.618	0.12
321.829	0.06
322.041	0.09
322.252	0.04
322.463	0.06
322.674	0.04
322.885	0.01
323.096	0.05
323.307	0.07
323.518	0.08
323.729	0.05
323.94	0.01
324.151	0
324.362	0.07
324.573	0.04
324.784	0.05
324.995	0.12
325.206	0.04
325.417	0.05
325.628	0.04
325.838	0.05
326.049	0.06
326.26	0.07
326.471	0.04
326.682	0.12
326.892	0.11
327.103	-0.01
327.314	-0.03
327.525	0.13
327.735	0.03
327.946	0.04
328.157	0.03
328.368	0.09
328.578	0.04
328.789	0.13
328.999	0.09
329.21	0.05
329.421	0.07
329.631	0.04
329.842	0.03
330.052	0.09
330.263	0.11
330.473	0.12
330.684	0.04
330.894	0.04
331.105	0.07
331.315	0.06
331.526	-0.02
331.736	0.14
331.947	0.08
332.157	0.05
332.367	0.05
332.578	0.09
332.788	0.12
332.999	0.1
333.209	0.05
333.419	0.03
333.629	0.09
333.84	0.06
334.05	0.05
334.26	0.14
334.47	0.1
334.681	0.15
334.891	0.03
335.101	0.07
335.311	0.15
335.521	0.06
335.732	0.03
335.942	0.16
336.152	0.09
336.362	0.06
336.572	0.13
336.782	0.09
336.992	0.05
337.202	0.02
337.412	0.01
337.622	0.06
337.832	0.07
338.042	0.04
338.252	0.03
338.462	0.01
338.672	0.07
338.882	0.02
339.092	0.06
339.302	0.13
339.511	0.07
339.721	0.02
339.931	0.02
340.141	0.11
340.351	0.12
340.561	0.07
340.77	0.08
340.98	0.06
341.19	0.07
341.4	0.03
341.609	-0.02
341.819	0.02
342.029	-0.01
342.238	0.04
342.448	0.02
342.658	0.07
342.867	0.05
343.077	0.07
343.286	0.1
343.496	0.06
343.706	0.08
343.915	0.01
344.125	0.08
344.334	0.05
344.544	-0
344.753	0.05
344.963	0.07
345.172	0.05
345.381	0.01
345.591	0.02
345.8	0.03
346.01	0.12
346.219	0.13
346.428	-0.08
346.638	0.06
346.847	0.06
347.056	0.12
347.266	0.03
347.475	0.04
347.684	0.13
347.893	0.11
348.103	0.07
348.312	0.05
348.521	0.05
348.73	0.07
348.94	0.06
349.149	0.03
349.358	0.04
349.567	0.01
349.776	0.03
349.985	0.03
350.194	0.09
350.403	0.07
350.612	0.01
350.821	0.02
351.03	0.05
351.239	-0.02
351.448	0.05
351.657	-0
351.866	0.13
352.075	0.03
352.284	0.08
352.493	0.02
352.702	0.09
352.911	0.09
353.12	0.04
353.329	0.04
353.538	0.06
353.746	0.03
353.955	0.02
354.164	0.07
354.373	0.04
354.582	0.12
354.79	0.09
354.999	0.08
355.208	0.06
355.416	0.12
355.625	-0.03
355.834	0.05
356.042	0.07
356.251	0.04
356.46	0.03
356.668	0.04
356.877	0.12
357.085	0.06
357.294	-0.06
357.503	0.07
357.711	0.02
357.92	0.18
358.128	0.06
358.337	0.06
358.545	0.09
358.754	0.03
358.962	0.06
359.17	0.06
359.379	0.09
359.587	0.07
359.796	0.02
360.004	0.08
360.212	0.09
360.421	0.12
360.629	0.02
360.837	0.02
361.046	0.11
361.254	0.15
361.462	0.08
361.67	0.02
361.879	0.06
362.087	0.09
362.295	0.03
362.503	0.03
362.711	0.03
362.92	0.02
363.128	0.01
363.336	0.01
363.544	-0.01
363.752	0.03
363.96	0.04
364.168	0.03
364.376	0.04
364.584	0.09
364.792	0.06
365	0.05
365.208	0.09
365.416	0.05
365.624	0.1
365.832	0.02
366.04	0.11
366.248	0.03
366.456	0.08
366.664	0.07
366.872	0.04
367.079	0.05
367.287	0.05
367.495	0.1
367.703	0.08
367.911	0.06
368.118	0.03
368.326	0.07
368.534	0.04
368.742	0.12
368.949	0.01
369.157	0.05
369.365	0.07
369.572	0.05
369.78	0.06
369.988	0.08
370.195	0.06
370.403	0.04
370.61	0.01
370.818	0.06
371.026	0.12
371.233	0.01
371.441	0.08
371.648	-0
371.856	0.03
372.063	0.05
372.271	0.03
372.478	0.04
372.685	0.04
372.893	0.07
373.1	0.03
373.308	0.04
373.515	0.14
373.722	0.09
373.93	0.04
374.137	0.09
374.344	0.12
374.552	0.08
374.759	0.07
374.966	0.06
375.173	0.03
375.381	0.13
375.588	0.03
375.795	-0.02
376.002	-0.01
376.209	0.04
376.417	0.05
376.624	0.05
376.831	0.08
377.038	0.03
377.245	-0.05
377.452	0.03
377.659	0.09
377.866	0.04
378.073	0.06
378.28	0.05
378.487	0.07
378.694	0.08
378.901	0.04
379.108	0.06
379.315	0.09
379.522	0.1
379.729	0.05
379.936	0.02
380.143	0.05
380.35	0.06
380.557	0.03
380.763	0.09
380.97	0.01
381.177	0.05
381.384	0.06
381.591	0.02
381.797	0.07
382.004	0.1
382.211	0.09
382.418	0.05
382.624	0.1
382.831	0.09
383.038	0.03
383.244	0.09
383.451	0.03
383.658	0.05
383.864	0.04
384.071	0.04
384.277	0.14
384.484	0.02
384.69	0.09
384.897	0.07
385.103	0.01
385.31	0
385.516	0.01
385.723	0.01
385.929	0.05
386.136	-0
386.342	0.06
386.549	0.02
386.755	0.09
386.961	0.07
387.168	0.04
387.374	0.08
387.58	0.06
387.787	0.06
387.993	0.03
388.199	0.05
388.406	0.05
388.612	0.02
388.818	0.06
389.024	0.03
389.231	0.06
389.437	0.11
389.643	0.07
389.849	0.04
390.055	0.02
390.261	0.07
390.467	0.05
390.674	0.01
390.88	0.05
391.086	0.08
391.292	0.01
391.498	0.1
391.704	0.05
391.91	0.06
392.116	0
392.322	-0.02
392.528	0.06
392.734	0.04
392.94	0.06
393.146	0.03
393.352	0.07
393.557	0.04
393.763	0.03
393.969	0.07
394.175	0.05
394.381	0.09
394.587	-0.02
394.792	0.04
394.998	0.08
395.204	0.07
395.41	0.03
395.615	0.07
395.821	0.1
396.027	0.06
396.233	0.01
396.438	0.04
396.644	0.1
396.85	0.08
397.055	0.04
397.261	0.06
397.466	0.07
397.672	0.01
397.878	0.1
398.083	0.05
398.289	0.04
398.494	0.1
398.7	0.04
398.905	-0.04
399.111	0.11
399.316	0.01
399.522	0.06
399.727	0.06
399.932	0.09
400.138	0.05
400.343	0.11
400.549	0.04
400.754	0.02
400.959	0.07
401.165	0.06
401.37	0.08
401.575	0.11
401.78	0.05
401.986	0.04
402.191	0.03
402.396	-0.01
402.601	0.04
402.807	0.05
403.012	0.07
403.217	0.1
403.422	0.05
403.627	0.04
403.832	0.04
404.037	0.05
404.243	0.07
404.448	0.06
404.653	0.03
404.858	0.06
405.063	0.12
405.268	0.02
405.473	-0
405.678	0.03
405.883	0.15
406.088	0.06
406.293	-0.01
406.498	0.02
406.703	0.09
406.907	0.07
407.112	0.03
407.317	0.05
407.522	0.08
407.727	-0.02
407.932	0.06
408.136	0.12
408.341	0.08
408.546	0.02
408.751	0.02
408.956	0.07
409.16	0.07
409.365	0.06
409.57	0.01
409.774	0.09
409.979	0.06
410.184	0.07
410.388	-0
410.593	0.08
410.798	0.06
411.002	0.06
411.207	0.07
411.411	0.07
411.616	0.05
411.82	0.03
412.025	0.09
412.229	0.02
412.434	0.07
412.638	0.11
412.843	0.03
413.047	0.07
413.252	0.02
413.456	0.04
413.66	0.07
413.865	0.06
414.069	0.11
414.273	0.06
414.478	0.04
414.682	0.05
414.886	0.02
415.091	-0.03
415.295	-0.05
415.499	0.05
415.703	0.07
415.908	0.07
416.112	-0.08
416.316	0.08
416.52	0.04
416.724	-0
416.929	0.04
417.133	0.11
417.337	0.01
417.541	0.01
417.745	0.04
417.949	0.09
418.153	0.08
418.357	-0.01
418.561	0.14
418.765	0.06
418.969	0.16
419.173	0.15
419.377	-0.02
419.581	0.15
419.785	0.06
419.989	0.01
420.193	0.02
420.397	0.06
420.601	0.06
420.804	0.07
421.008	0.03
421.212	0.05
421.416	0.09
421.62	0.04
421.823	0.06
422.027	0.13
422.231	0.07
422.435	0.05
422.638	0.08
422.842	0.01
423.046	0.02
423.249	0.07
423.453	0.07
423.657	0.11
423.86	0.06
424.064	0.11
424.268	0.11
424.471	0
424.675	0.13
424.878	0.09
425.082	0.06
425.285	0.08
425.489	0.04
425.692	0.03
425.896	0.02
426.099	0.05
426.303	0
426.506	-0.01
426.71	0.07
426.913	0.09
427.116	0.08
427.32	0.08
427.523	0.01
427.726	0.18
427.93	0.02
428.133	0.09
428.336	-0.03
428.54	0.06
428.743	0.06
428.946	0.07
429.149	-0
429.353	0.02
429.556	0.09
429.759	0.06
429.962	-0
430.165	0.02
430.368	0.07
430.571	0
430.775	0.07
430.978	0.04
431.181	0.02
431.384	0.04
431.587	0.07
431.79	0.05
431.993	0.04
432.196	0.03
432.399	0.03
432.602	0.06
432.805	0.05
433.008	0.08
433.211	-0.01
433.414	0.11
433.616	0.11
433.819	0.02
434.022	-0.02
434.225	0.08
434.428	0.07
434.631	0.14
434.833	0.05
435.036	0.06
435.239	0.1
435.442	0.02
435.645	0.07
435.847	0.09
436.05	0.1
436.253	0.05
436.455	0.02
436.658	0.05
436.861	0.14
437.063	0.01
437.266	0.01
437.468	0.07
437.671	0.1
437.874	0.01
438.076	0.01
438.279	-0
438.481	0.07
438.684	0.01
438.886	0.09
439.089	-0.03
439.291	0.06
439.494	0.09
439.696	0.02
439.899	-0.02
440.101	0.04
440.303	-0.04
440.506	0.09
440.708	0.09
440.91	0.11
441.113	0.02
441.315	0.1
441.517	-0.01
441.72	0.13
441.922	0.01
442.124	0.04
442.326	0.09
442.529	0.14
442.731	-0.03
442.933	0.14
443.135	0.03
443.337	0.03
443.539	0.04
443.742	0.03
443.944	0.08
444.146	-0
444.348	0.05
444.55	0.01
444.752	0.04
444.954	0.03
445.156	0.09
445.358	-0.01
445.56	0.09
445.762	0.04
445.964	0.03
446.166	0.04
446.368	0.05
446.57	0.1
446.772	0.09
446.974	0.03
447.175	0.1
447.377	0.02
447.579	0.02
447.781	0.01
447.983	0.1
448.184	0.08
448.386	0.07
448.588	-0.01
448.79	0.04
448.991	0.03
449.193	0.03
449.395	0.04
449.597	0.08
449.798	0.06
450	0.04
450.202	0.06
450.403	0.06
450.605	0.09
450.806	0.04
451.008	-0.01
451.21	0.02
451.411	0.04
451.613	0.09
451.814	0.09
452.016	0.09
452.217	0.04
452.419	0.09
452.62	0.01
452.821	0.07
453.023	0.16
453.224	0.09
453.426	0.06
453.627	0.11
453.828	0.09
454.03	0.07
454.231	0.09
454.432	0.02
454.634	0.17
454.835	0.06
455.036	-0.01
455.238	0.14
455.439	0.14
455.64	-0.01
455.841	-0.01
456.042	0.17
456.244	0.1
456.445	-0
456.646	-0.03
456.847	0.03
457.048	0.12
457.249	0.09
457.45	0.24
457.651	0.07
457.852	0.08
458.054	0.1
458.255	0.06
458.456	0.08
458.657	0.04
458.858	0
459.058	0.08
459.259	0.1
459.46	0.09
459.661	0.05
459.862	0.17
460.063	0.04
460.264	0.13
460.465	0.04
460.666	0.12
460.866	0.06
461.067	0.08
461.268	-0.01
461.469	0.04
461.67	0.04
461.87	0.05
462.071	0.02
462.272	-0.03
462.473	0.06
462.673	0.09
462.874	0.01
463.075	0.07
463.275	-0.01
463.476	0.1
463.676	0.1
463.877	0.08
464.078	0.06
464.278	0.08
464.479	0.05
464.679	0.08
464.88	0.03
465.08	0.08
465.281	0.05
465.481	0.03
465.682	0.03
465.882	0.11
466.083	0.04
466.283	0.03
466.483	0.1
466.684	0.06
466.884	0.03
467.085	0.04
467.285	0.09
467.485	0.07
467.686	0.04
467.886	0.02
468.086	0.05
468.286	0.08
468.487	0.06
468.687	-0.02
468.887	0.04
469.087	0.07
469.287	0.04
469.488	-0.03
469.688	0.08
469.888	0.07
470.088	0.09
470.288	0.11
470.488	0.09
470.688	0.02
470.888	0.04
471.088	0.02
471.288	0.13
471.488	0.05
471.688	0.09
471.888	-0.01
472.088	0.09
472.288	0.04
472.488	-0.03
472.688	0.01
472.888	0.07
473.088	0.04
473.288	0.06
473.488	0.07
473.688	0.14
473.887	0.05
474.087	0.01
474.287	0.1
474.487	0.02
474.687	0.09
474.886	0.01
475.086	0.05
475.286	0.05
475.486	0.05
475.685	0.06
475.885	0.03
476.085	0.06
476.284	0.06
476.484	0.03
476.684	0.07
476.883	0.09
477.083	0.05
477.282	0.05
477.482	0.06
477.681	0.08
477.881	0.04
478.08	0.01
478.28	-0
478.479	0.04
478.679	0.11
478.878	-0
479.078	-0.01
479.277	0.02
479.477	0.03
479.676	0.06
479.875	0.03
480.075	-0.03
480.274	0.07
480.473	0.04
480.673	-0.01
480.872	0.05
481.071	0.04
481.271	0.05
481.47	0.02
481.669	0.03
481.868	0
482.067	-0
482.267	0.04
482.466	0.02
482.665	0.02
482.864	-0.01
483.063	0.01
483.262	0.06
483.461	0.08
483.661	0.04
483.86	0.03
484.059	0.01
484.258	0.03
484.457	0.02
484.656	0.02
484.855	0.05
485.054	0.01
485.253	-0
485.452	0.01
485.651	0.04
485.849	0.03
486.048	0.02
486.247	-0.01
486.446	0.03
486.645	0
486.844	0.02
487.043	0.03
487.241	0.05
487.44	-0
487.639	0.01
487.838	0.05
488.037	0.05
488.235	0.05
488.434	0.04
488.633	-0
488.831	0.04
489.03	0.07
489.229	0.02
489.427	0.01
489.626	0.09
489.825	0.08
490.023	0.02
490.222	0.02
490.42	0.04
490.619	0.07
490.817	0.04
491.016	-0
491.214	0.05
491.413	0.02
491.611	0.03
491.81	0.01
492.008	0.04
492.207	0.05
492.405	0.03
492.604	0.01
492.802	0.01
493	0.02
493.199	0.01
493.397	0.05
493.595	0.05
493.794	0.01
493.992	0.08
494.19	-0
494.388	0.05
494.587	0.02
494.785	0.02
494.983	0.01
495.181	0.02
495.379	0.03
495.578	0.02
495.776	0.04
495.974	0.02
496.172	0.03
496.37	0.01
496.568	-0.01
496.766	0.02
496.964	0.05
497.162	0.03
497.36	0.01
497.558	0.04
497.756	0.02
497.954	0.03
498.152	0.01
498.35	0.04
498.548	-0
498.746	0.04
498.944	-0
499.142	0.01
499.34	-0.01
499.538	0.01
499.736	0
499.933	0.06
500.131	0.07
500.329	0.04
500.527	0.03
500.725	0.06
500.922	0.04
501.12	0.04
501.318	0.04
501.516	0.03
501.713	0.02
501.911	0.01
502.109	-0.01
502.306	0.03
502.504	0.02
502.701	0.01
502.899	0.02
503.097	0.05
503.294	0.04
503.492	0.01
503.689	0.04
503.887	0.04
504.084	0.07
504.282	0.02
504.479	-0.01
504.677	0.03
504.874	-0
505.072	0.04
505.269	0.02
505.466	0.01
505.664	0
505.861	0
506.059	-0.03
506.256	0.05
506.453	0
506.651	0.07
506.848	0.04
507.045	0.05
507.242	0.03
507.44	0.02
507.637	0.02
507.834	0.01
508.031	0.04
508.229	0.01
508.426	0.02
508.623	0.04
508.82	0.01
509.017	0.01
509.214	0.01
509.411	0.03
509.608	0.01
509.805	-0.01
510.003	0.02
510.2	-0.01
510.397	0.05
510.594	0
510.791	0.01
510.988	0.01
511.184	0.03
511.381	0.03
511.578	0
511.775	0.05
511.972	0.02
512.169	0.02
512.366	0.01
512.563	0.02
512.76	0
512.956	0.06
513.153	0.02
513.35	0.05
513.547	0
513.744	0.02
513.94	0
514.137	0.04
514.334	0.03
514.53	0.03
514.727	0.02
514.924	0.08
515.12	0.02
515.317	0
515.514	-0
515.71	-0
515.907	0.01
516.103	0.02
516.3	0.05
516.497	0.05
516.693	0.07
516.89	0.03
517.086	-0
517.283	0.07
517.479	0.03
517.676	0.02
517.872	0.03
518.068	0.02
518.265	0
518.461	0.01
518.658	-0.01
518.854	0.04
519.05	0.01
519.247	0
519.443	0.03
519.639	0.03
519.836	0.02
520.032	0.03
520.228	0.03
520.424	0.07
520.621	0.03
520.817	0.04
521.013	0.05
521.209	0.04
521.405	0.06
521.601	0.03
521.798	0.01
521.994	0.04
522.19	0
522.386	0
522.582	0.03
522.778	0.01
522.974	0.02
523.17	0.02
523.366	0.02
523.562	0.04
523.758	0.01
523.954	-0.03
524.15	0.01
524.346	0.03
524.542	0.03
524.738	0.01
524.934	0.02
525.129	-0.03
525.325	0.02
525.521	0.04
525.717	0.08
525.913	0.04
526.109	0.02
526.304	0.02
526.5	0.04
526.696	0.07
526.892	0.03
527.087	0.03
527.283	0
527.479	0.03
527.674	0.01
527.87	0.03
528.066	0.02
528.261	0.05
528.457	0.03
528.653	0.03
528.848	0
529.044	0.02
529.239	0.01
529.435	0.06
529.63	0.04
529.826	0.09
530.021	0.06
530.217	0.04
530.412	0.02
530.608	0.02
530.803	0.02
530.999	0.01
531.194	-0.02
531.389	0.04
531.585	-0.02
531.78	0.03
531.975	0.02
532.171	0.05
532.366	0.01
532.561	0.01
532.757	-0.01
532.952	0.03
533.147	0.04
533.342	0.03
533.538	0.03
533.733	0.06
533.928	0.04
534.123	0.03
534.318	0.01
534.513	0.02
534.709	0.06
534.904	-0
535.099	-0.04
535.294	0.04
535.489	0.04
535.684	0.01
535.879	-0.01
536.074	0.04
536.269	0
536.464	0.05
536.659	0.01
536.854	0.01
537.049	0.05
537.244	0.03
537.439	0.03
537.634	0.07
537.828	0.04
538.023	0.02
538.218	-0.01
538.413	0.03
538.608	-0.01
538.803	0.05
538.997	0.01
539.192	0.05
539.387	0.04
539.582	0.02
539.776	0.02
539.971	-0
540.166	0.03
540.36	-0
540.555	0.01
540.75	-0
540.944	0.01
541.139	-0.01
541.334	0.03
541.528	0.04
541.723	0.04
541.917	0.01
542.112	-0.01
542.306	0.03
542.501	0.02
542.695	0.02
542.89	0.01
543.084	0.03
543.279	0.03
543.473	0.01
543.668	0.06
543.862	0.02
544.056	0.06
544.251	0.05
544.445	0.05
544.64	0.01
544.834	-0
545.028	0.03
545.222	0.06
545.417	0.07
545.611	0.03
545.805	0.03
546	0.01
546.194	0.04
546.388	0.02
546.582	0.06
546.776	0.03
546.97	0.03
547.165	0.04
547.359	0.06
547.553	0
547.747	0.05
547.941	0.01
548.135	0.02
548.329	0.06
548.523	0.02
548.717	0.03
548.911	0.01
549.105	0.02
549.299	0.05
549.493	0.05
549.687	0.03
549.881	0.05
550.075	0.02
550.269	-0
550.463	0.03
550.657	0.02
550.85	0.03
551.044	0.02
551.238	0.05
551.432	0.02
551.626	0.03
551.82	0.03
552.013	0.01
552.207	0.04
552.401	0.05
552.594	0.01
552.788	0.03
552.982	0.03
553.176	0.03
553.369	0.07
553.563	0.04
553.756	-0.01
553.95	0.01
554.144	0.01
554.337	0.06
554.531	0.06
554.724	0.04
554.918	0.02
555.111	0.05
555.305	0.04
555.498	0.08
555.692	0.06
555.885	0.02
556.079	0.04
556.272	0.02
556.466	0.06
556.659	0.05
556.852	0.02
557.046	0.02
557.239	0.05
557.432	-0.02
557.626	0.02
557.819	0.05
558.012	0.05
558.206	0.05
558.399	0.03
558.592	0.05
558.785	0.02
558.979	0.08
559.172	0.04
559.365	0.06
559.558	0.02
559.751	0.03
559.944	0.07
560.138	0.01
560.331	0.05
560.524	0.02
560.717	0.03
560.91	0.05
561.103	0.07
561.296	0.04
561.489	0.04
561.682	0.05
561.875	0.07
562.068	0.06
562.261	0.05
562.454	0.09
562.647	0.05
562.84	0.05
563.032	0.03
563.225	0.04
563.418	0.03
563.611	0.03
563.804	0.05
563.997	-0
564.19	-0
564.382	-0.01
564.575	0.05
564.768	0.04
564.961	0.05
565.153	0.03
565.346	0.06
565.539	0.07
565.731	0.04
565.924	0.06
566.117	0.05
566.309	0.04
566.502	0.02
566.695	0.02
566.887	0.04
567.08	0.02
567.272	0.04
567.465	0.03
567.657	0.04
567.85	0.05
568.042	0.05
568.235	0.07
568.427	0.07
568.62	0.04
568.812	0.08
569.005	0.03
569.197	-0.01
569.389	0.06
569.582	0.08
569.774	0.05
569.966	0.01
570.159	0.02
570.351	0.05
570.543	0.02
570.736	0.03
570.928	0.02
571.12	0.06
571.312	0.03
571.505	-0
571.697	0.07
571.889	0.01
572.081	0.05
572.273	0.05
572.465	0.08
572.658	0.05
572.85	0.07
573.042	0.03
573.234	0.04
573.426	0.08
573.618	0.02
573.81	0.06
574.002	0.06
574.194	0.09
574.386	0.02
574.578	-0.01
574.77	0.02
574.962	0.06
575.154	0.02
575.346	0.04
575.538	0.06
575.729	0.01
575.921	0.05
576.113	0.05
576.305	0.07
576.497	0.05
576.689	0.03
576.88	0.03
577.072	0.06
577.264	0.06
577.456	0.04
577.647	-0.01
577.839	0.04
578.031	0.08
578.223	0
578.414	0.02
578.606	0.08
578.798	0.07
578.989	0.04
579.181	0.07
579.372	0.04
579.564	0.05
579.755	0.06
579.947	0.06
580.139	0.07
580.33	0.01
580.522	0.04
580.713	0.01
580.905	0.06
581.096	0.07
581.287	0.06
581.479	0.05
581.67	0.07
581.862	0.05
582.053	0.05
582.244	0.01
582.436	0.06
582.627	0.04
582.818	0.07
583.01	0.01
583.201	0.08
583.392	0.06
583.583	0.08
583.775	0.04
583.966	0.07
584.157	0.05
584.348	0.07
584.54	0.03
584.731	0.05
584.922	0.05
585.113	0.04
585.304	0.08
585.495	0.09
585.686	0.09
585.877	0.09
586.068	0.07
586.259	0.06
586.45	0.1
586.641	0.04
586.832	0.03
587.023	0.07
587.214	0.05
587.405	0.08
587.596	0.03
587.787	0.09
587.978	0.09
588.169	0.05
588.36	0.07
588.551	0.08
588.742	0.07
588.932	0.09
589.123	0.06
589.314	0.11
589.505	0.08
589.696	0.1
589.886	0.05
590.077	0.03
590.268	0.09
590.458	0.03
590.649	0.05
590.84	0.11
591.03	0.08
591.221	0.03
591.412	0.06
591.602	0.1
591.793	0.09
591.984	0.05
592.174	0.07
592.365	0.15
592.555	0.07
592.746	0.1
592.936	0.12
593.127	0.09
593.317	0.15
593.508	0.07
593.698	0.08
593.889	0.11
594.079	0.12
594.269	0.1
594.46	0.11
594.65	0.11
594.84	0.07
595.031	0.06
595.221	0.1
595.411	0.05
595.602	0.15
595.792	0.11
595.982	0.11
596.172	0.18
596.363	0.13
596.553	0.11
596.743	0.1
596.933	0.13
597.123	0.14
597.314	0.11
597.504	0.09
597.694	0.13
597.884	0.13
598.074	0.12
598.264	0.1
598.454	0.13
598.644	0.12
598.834	0.14
599.024	0.11
599.214	0.13
599.404	0.15
599.594	0.13
599.784	0.13
599.974	0.22
600.164	0.16
600.354	0.11
600.544	0.13
600.734	0.17
600.924	0.18
601.114	0.14
601.303	0.15
601.493	0.16
601.683	0.14
601.873	0.16
602.063	0.11
602.252	0.19
602.442	0.1
602.632	0.15
602.821	0.11
603.011	0.2
603.201	0.17
603.39	0.17
603.58	0.17
603.77	0.22
603.959	0.22
604.149	0.19
604.339	0.21
604.528	0.25
604.718	0.22
604.907	0.19
605.097	0.19
605.286	0.17
605.476	0.25
605.665	0.26
605.855	0.23
606.044	0.3
606.234	0.25
606.423	0.21
606.612	0.2
606.802	0.26
606.991	0.28
607.181	0.28
607.37	0.21
607.559	0.26
607.749	0.24
607.938	0.25
608.127	0.27
608.316	0.26
608.506	0.26
608.695	0.3
608.884	0.26
609.073	0.36
609.263	0.33
609.452	0.37
609.641	0.33
609.83	0.29
610.019	0.33
610.208	0.3
610.397	0.37
610.586	0.4
610.775	0.35
610.965	0.35
611.154	0.33
611.343	0.37
611.532	0.37
611.721	0.37
611.91	0.4
612.099	0.41
612.287	0.4
612.476	0.39
612.665	0.47
612.854	0.4
613.043	0.45
613.232	0.44
613.421	0.41
613.61	0.48
613.798	0.46
613.987	0.51
614.176	0.48
614.365	0.54
614.554	0.5
614.742	0.57
614.931	0.52
615.12	0.6
615.309	0.53
615.497	0.58
615.686	0.56
615.875	0.55
616.063	0.6
616.252	0.63
616.44	0.6
616.629	0.65
616.818	0.68
617.006	0.63
617.195	0.67
617.383	0.69
617.572	0.66
617.76	0.69
617.949	0.7
618.137	0.74
618.326	0.81
618.514	0.7
618.703	0.72
618.891	0.85
619.079	0.75
619.268	0.87
619.456	0.79
619.644	0.89
619.833	0.89
620.021	0.84
620.209	0.86
620.398	0.93
620.586	0.96
620.774	0.97
620.962	0.97
621.151	1.05
621.339	0.98
621.527	0.99
621.715	1
621.903	1.07
622.092	1.03
622.28	1.17
622.468	1.1
622.656	1.12
622.844	1.2
623.032	1.18
623.22	1.15
623.408	1.29
623.596	1.27
623.784	1.33
623.972	1.24
624.16	1.35
624.348	1.41
624.536	1.42
624.724	1.44
624.912	1.51
625.1	1.5
625.288	1.52
625.476	1.48
625.664	1.56
625.851	1.56
626.039	1.62
626.227	1.62
626.415	1.65
626.603	1.68
626.79	1.73
626.978	1.78
627.166	1.8
627.354	1.85
627.541	1.82
627.729	1.81
627.917	1.96
628.104	2.02
628.292	2.01
628.48	2.07
628.667	2.07
628.855	2.14
629.042	2.23
629.23	2.17
629.418	2.25
629.605	2.31
629.793	2.29
629.98	2.36
630.168	2.35
630.355	2.47
630.543	2.49
630.73	2.48
630.917	2.58
631.105	2.7
631.292	2.64
631.48	2.74
631.667	2.84
631.854	2.84
632.042	2.88
632.229	2.86
632.416	3.02
632.604	2.98
632.791	2.99
632.978	3.13
633.165	3.14
633.353	3.23
633.54	3.3
633.727	3.25
633.914	3.34
634.101	3.33
634.289	3.55
634.476	3.52
634.663	3.51
634.85	3.62
635.037	3.66
635.224	3.68
635.411	3.88
635.598	3.86
635.785	3.92
635.972	3.98
636.159	4
636.346	4.11
636.533	4.21
636.72	4.26
636.907	4.29
637.094	4.33
637.281	4.26
637.468	4.49
637.655	4.55
637.842	4.64
638.029	4.73
638.215	4.75
638.402	4.81
638.589	4.84
638.776	5
638.963	5.04
639.149	5.24
639.336	5.25
639.523	5.31
639.709	5.37
639.896	5.53
640.083	5.42
640.27	5.7
640.456	5.7
640.643	5.77
640.829	5.76
641.016	5.95
641.203	6.02
641.389	6.11
641.576	6.26
641.762	6.28
641.949	6.33
642.135	6.46
642.322	6.64
642.508	6.6
642.695	6.83
642.881	6.91
643.068	6.99
643.254	7.13
643.441	7.21
643.627	7.46
643.813	7.38
644	7.61
644.186	7.63
644.372	7.9
644.559	7.93
644.745	8.04
644.931	8.14
645.118	8.35
645.304	8.46
645.49	8.67
645.676	8.78
645.862	8.92
646.049	9.11
646.235	9.2
646.421	9.49
646.607	9.66
646.793	9.59
646.979	9.67
647.165	10.05
647.352	10.12
647.538	10.24
647.724	10.5
647.91	10.59
648.096	10.82
648.282	10.97
648.468	11.1
648.654	11.39
648.84	11.61
649.026	11.73
649.212	11.77
649.397	12
649.583	12.25
649.769	12.44
649.955	12.59
650.141	12.91
650.327	12.94
650.513	13.27
650.698	13.49
650.884	13.51
651.07	13.92
651.256	13.99
651.442	14.36
651.627	14.19
651.813	14.78
651.999	14.7
652.184	14.92
652.37	15.4
652.556	15.59
652.741	15.63
652.927	15.61
653.113	16.1
653.298	16.36
653.484	16.52
653.669	16.7
653.855	16.84
654.04	17.34
654.226	17.35
654.412	17.47
654.597	17.48
654.782	17.97
654.968	18.1
655.153	18.39
655.339	18.59
655.524	18.64
655.71	18.99
655.895	19.35
656.08	19.43
656.266	19.64
656.451	19.56
656.636	19.73
656.822	20.04
657.007	20.34
657.192	20.44
657.378	20.59
657.563	20.55
657.748	20.77
657.933	21.12
658.118	20.67
658.304	21.42
658.489	21.52
658.674	21.43
658.859	21.46
659.044	21.49
659.229	21.73
659.414	21.77
659.599	21.78
659.785	21.72
659.97	21.6
660.155	21.58
660.34	21.74
660.525	21.6
660.71	21.51
660.895	21.38
661.08	21.25
661.264	20.91
661.449	20.93
661.634	20.44
661.819	20.54
662.004	19.93
662.189	19.94
662.374	19.68
662.559	19.28
662.743	18.92
662.928	18.72
663.113	18.13
663.298	17.99
663.483	17.48
663.667	17.1
663.852	16.89
664.037	16.44
664.221	16.18
664.406	15.67
664.591	15.36
664.775	14.85
664.96	14.57
665.145	13.81
665.329	13.7
665.514	13.32
665.698	12.7
665.883	12.35
666.068	12.11
666.252	11.74
666.437	11.21
666.621	10.85
666.806	10.56
666.99	10.11
667.174	9.83
667.359	9.58
667.543	9.26
667.728	8.92
667.912	8.48
668.096	8.27
668.281	7.93
668.465	7.84
668.649	7.47
668.834	7.03
669.018	6.99
669.202	6.81
669.387	6.52
669.571	6.38
669.755	5.96
669.939	5.82
670.124	5.63
670.308	5.54
670.492	5.39
670.676	5.05
670.86	4.97
671.044	4.72
671.228	4.61
671.413	4.41
671.597	4.26
671.781	4.19
671.965	4.11
672.149	3.9
672.333	3.76
672.517	3.64
672.701	3.5
672.885	3.48
673.069	3.22
673.253	3.3
673.437	3.17
673.621	3.07
673.804	2.98
673.988	2.86
674.172	2.7
674.356	2.61
674.54	2.52
674.724	2.53
674.908	2.46
675.091	2.42
675.275	2.26
675.459	2.22
675.643	2.13
675.826	2.08
676.01	2
676.194	1.95
676.377	1.91
676.561	1.9
676.745	1.78
676.928	1.74
677.112	1.66
677.296	1.65
677.479	1.54
677.663	1.49
677.846	1.5
678.03	1.39
678.213	1.33
678.397	1.36
678.58	1.3
678.764	1.25
678.947	1.18
679.131	1.2
679.314	1.2
679.498	1.07
679.681	1.13
679.865	1.18
680.048	1.01
680.231	1.01
680.415	1.01
680.598	0.9
680.781	0.91
680.965	0.87
681.148	0.91
681.331	0.83
681.514	0.88
681.698	0.79
681.881	0.78
682.064	0.8
682.247	0.73
682.43	0.7
682.614	0.75
682.797	0.72
682.98	0.71
683.163	0.58
683.346	0.63
683.529	0.61
683.712	0.59
683.895	0.61
684.078	0.57
684.261	0.54
684.444	0.56
684.627	0.6
684.81	0.51
684.993	0.49
685.176	0.58
685.359	0.42
685.542	0.46
685.725	0.55
685.908	0.46
686.091	0.48
686.274	0.5
686.457	0.47
686.639	0.46
686.822	0.43
687.005	0.42
687.188	0.4
687.371	0.51
687.553	0.45
687.736	0.39
687.919	0.46
688.102	0.46
688.284	0.39
688.467	0.4
688.65	0.35
688.832	0.33
689.015	0.36
689.197	0.29
689.38	0.36
689.563	0.43
689.745	0.29
689.928	0.3
690.11	0.33
690.293	0.33
690.475	0.23
690.658	0.32
690.84	0.29
691.023	0.27
691.205	0.24
691.388	0.29
691.57	0.31
691.752	0.28
691.935	0.17
692.117	0.21
692.3	0.25
692.482	0.28
692.664	0.27
692.847	0.24
693.029	0.29
693.211	0.3
693.393	0.22
693.576	0.24
693.758	0.24
693.94	0.22
694.122	0.22
694.304	0.15
694.487	0.21
694.669	0.26
694.851	0.16
695.033	0.17
695.215	0.15
695.397	0.16
695.579	0.24
695.761	0.17
695.943	0.13
696.125	0.26
696.308	0.22
696.49	0.05
696.671	0.29
696.853	0.2
697.035	0.34
697.217	0.17
697.399	0.25
697.581	0.11
697.763	0.2
697.945	0.07
698.127	0.19
698.309	0.12
698.491	0.21
698.672	0.18
698.854	0.19
699.036	0.2
699.218	0.1
699.399	0.23
699.581	0.2
699.763	0.14
699.945	0.13
700.126	0.15
700.308	0.14
700.49	0.19
700.671	0.04
700.853	0.13
701.035	0.15
701.216	0.13
701.398	0.1
701.579	0.15
701.761	0.18
701.943	0.08
702.124	0.14
702.306	0.11
702.487	0.31
702.669	0.18
702.85	0.07
703.031	0.07
703.213	0.21
703.394	0.21
703.576	0.15
703.757	0.22
703.938	0.13
704.12	0.27
704.301	0.12
704.483	0.12
704.664	0.18
704.845	0.24
705.026	0.16
705.208	0.18
705.389	0.13
705.57	0.12
705.751	0.04
705.933	0.13
706.114	0.18
706.295	0.13
706.476	0.08
706.657	0.2
706.838	0.22
707.02	0.18
707.201	0.06
707.382	0.11
707.563	0.15
707.744	0.1
707.925	0.1
708.106	0.04
708.287	0.11
708.468	0.24
708.649	0.13
708.83	0.23
709.011	0.11
709.192	0.21
709.373	0.03
709.554	0.09
709.734	0.17
709.915	0.15
710.096	0.16
710.277	0.03
710.458	0.11
710.639	0.17
710.819	-0.03
711	0.1
711.181	0.19
711.362	0.17
711.542	0.05
711.723	0.13
711.904	0.16
712.085	0.17
712.265	0.14
712.446	0.04
712.627	0.1
712.807	0.11
712.988	0.15
713.168	0.01
713.349	0.11
713.53	0.01
713.71	0.09
713.891	0.03
714.071	0.1
714.252	0.11
714.432	0.1
714.613	0.05
714.793	0.14
714.974	0.21
715.154	0.19
715.334	0.13
715.515	0.17
715.695	-0.02
715.876	0.15
716.056	0.13
716.236	0.06
716.417	0.14
716.597	0.07
716.777	0.31
716.957	0.16
717.138	0.08
717.318	0.14
717.498	0.01
717.678	0.13
717.859	0.07
718.039	0.04
718.219	0.13
718.399	0.14
718.579	0.05
718.759	0.06
718.939	0.12
719.12	0.11
719.3	0.14
719.48	-0.01
719.66	-0.06
719.84	0.19
720.02	0.13
720.2	0.03
720.38	0.09
720.56	0.22
720.74	0.03
720.92	0.16
721.1	0.21
721.279	0.2
721.459	0.11
721.639	-0.03
721.819	0.19
721.999	0.07
722.179	0.13
722.359	0.05
722.538	0.12
722.718	0.14
722.898	0.09
723.078	0
723.257	0.02
723.437	0.11
723.617	0.12
723.797	0.07
723.976	0.1
724.156	0.17
724.336	0.13
724.515	0.22
724.695	-0.03
724.874	0.07
725.054	0.11
725.234	0.08
725.413	0.1
725.593	0.09
725.772	0.15
725.952	0.08
726.131	0.09
726.311	0.14
726.49	0.15
726.67	-0.02
726.849	-0.01
727.028	0.14
727.208	0.04
727.387	0.14
727.567	0.02
727.746	0.04
727.925	0.04
728.105	-0.03
728.284	0.09
728.463	-0.17
728.643	0.18
728.822	0.03
729.001	0.05
729.18	0.14
729.359	0.16
729.539	0.07
729.718	0.08
729.897	0.06
730.076	-0.01
730.255	0.05
730.434	0.12
730.614	0.08
730.793	0.3
730.972	0.1
731.151	0.09
731.33	0.17
731.509	0.12
731.688	0.14
731.867	0.12
732.046	-0.05
732.225	0.27
732.404	0.04
732.583	-0.04
732.762	0.09
732.941	0.15
733.12	0.11
733.298	-0.01
733.477	0.16
733.656	-0.02
733.835	-0.01
734.014	0.14
734.193	0.03
734.371	0.09
734.55	0.1
734.729	0.03
734.908	0.1
735.086	0.15
735.265	0.23
735.444	0
735.623	-0
735.801	0.04
735.98	0.1
736.159	0.09
736.337	0.21
736.516	0.12
736.694	0.12
736.873	0.05
737.052	0.2
737.23	0.24
737.409	-0.01
737.587	0.33
737.766	-0.15
737.944	0.04
738.123	0.3
738.301	0.24
738.479	0.05
738.658	0.18
738.836	-0.09
739.015	0.09
739.193	0.05
739.371	0.04
739.55	0.05
739.728	-0.11
739.906	0.12
740.085	0.26
740.263	0.04
740.441	-0.04
740.62	0.27
740.798	0.23
740.976	0.08
741.154	0.03
741.332	0.27
741.511	0.04
741.689	0.21
741.867	0.22
742.045	0.06
742.223	0.07
742.401	0.08
742.579	0.06
742.757	0.08
742.935	-0.04
743.114	0.12
743.292	0.1
743.47	0.08
743.648	0.14
743.826	0.07
744.004	0.19
744.181	0.08
744.359	0.14
744.537	0.14
744.715	0.1
744.893	0.05
745.071	0.18
745.249	0.1
745.427	0.11
745.605	0.17
745.782	0.2
745.96	0.1
746.138	0.12
746.316	0.32
746.493	0.08
746.671	0.08
746.849	0.12
747.027	0.15
747.204	0.04
747.382	0.22
747.56	-0.09
747.737	0.13
747.915	0.06
748.093	0.15
748.27	0.12
748.448	0.08
748.625	-0.01
748.803	0.07
748.98	-0
749.158	0.23
749.335	0.11
749.513	-0.11
749.69	0.07
749.868	0.11
750.045	0.09
750.223	0.14
750.4	-0.14
750.578	0.3
750.755	0.17
750.932	-0.02
751.11	0.22
751.287	-0.13
751.464	0.2
751.642	-0.03
751.819	0.15
751.996	0.09
752.173	0.02
752.351	-0.04
752.528	0.04
752.705	0.03
752.882	-0.02
753.06	0.07
753.237	0.17
753.414	0.35
753.591	0.24
753.768	0.14
753.945	0.12
754.122	0.1
754.299	0.09
754.476	0.08
754.654	0.12
754.831	0.16
755.008	0.11
755.185	0.07
755.362	-0.04
755.539	0.09
755.716	0.04
755.892	0.11
756.069	0.07
756.246	0.04
756.423	0.1
756.6	0.25
756.777	-0.07
756.954	0.27
757.131	0.06
757.307	-0.02
757.484	0.02
757.661	0.12
757.838	0.11
758.015	-0.04
758.191	0.24
758.368	0.11
758.545	0.18
758.721	0.16
758.898	-0.02
759.075	0.15
759.251	0.29
759.428	0.05
759.605	-0.01
759.781	0.02
759.958	0.18
760.134	0.16
760.311	0.07
760.488	0.14
760.664	0.12
760.841	0.03
761.017	0.02
761.194	0.18
761.37	0.17
761.547	0.17
761.723	0.11
761.899	0.21
762.076	-0.07
762.252	0
762.429	0.11
762.605	0.14
762.781	0.04
762.958	0.12
763.134	0.11
763.31	-0.03
763.486	0.1
763.663	0.02
763.839	0.08
764.015	0.02
764.191	-0.02
764.368	-0.02
764.544	0.05
764.72	0.1
764.896	0.14
765.072	0.15
765.248	0.13
765.425	0.07
765.601	0.1
765.777	0.09
765.953	-0.2
766.129	0.06
766.305	-0.03
766.481	0.05
766.657	0.18
766.833	0.21
767.009	-0.01
767.185	0.1
767.361	-0
767.537	-0.01
767.713	0.26
767.889	-0.09
768.065	0.18
768.24	-0.12
768.416	0.11
768.592	-0.02
768.768	0.04
768.944	0.06
769.12	-0.11
769.295	0.06
769.471	0.01
769.647	0.03
769.823	0.28
769.998	0.07
770.174	-0.01
770.35	0.44
770.525	0.27
770.701	0.17
770.877	0.11
771.052	-0
771.228	0.19
771.403	0.09
771.579	0.13
771.755	0.3
771.93	0.07
772.106	-0.02
772.281	-0.26
772.457	0.08
772.632	0.04
772.808	-0.11
772.983	0.04
773.159	-0.12
773.334	0.15
773.509	0.12
773.685	0.07
773.86	0.4
774.036	0.27
774.211	0
774.386	-0.02
774.562	0.12
774.737	0.02
774.912	0.02
775.087	0.25
775.263	0.01
775.438	0.09
775.613	0
775.788	0.11
775.964	0.15
776.139	0.36
776.314	-0.07
776.489	0.12
776.664	0.13
776.839	-0.14
777.014	0.34
777.19	0.26
777.365	0.43
777.54	0.41
777.715	0.06
777.89	0.13
778.065	-0
778.24	0.11
778.415	0.19
778.59	-0.03
778.765	0.14
778.94	0.04
779.115	-0.02
779.289	-0.02
779.464	0.11
779.639	0.11
779.814	-0.04
779.989	-0.1
780.164	0.26
780.339	-0.03
780.513	0.01
780.688	-0.17
780.863	0.08
781.038	0.2
781.212	-0.09
781.387	0.13
781.562	0.43
781.737	-0.11
781.911	0.29
782.086	0.03
782.261	0.01
782.435	0.29
782.61	0.03
782.784	0.06
782.959	0.28
783.134	0.01
783.308	-0.09
783.483	0.13
783.657	0.35
783.832	0.1
784.006	0.07
784.181	0.11
784.355	0.13
784.53	-0.01
784.704	-0.04
784.878	0.14
785.053	0.31
785.227	0.23
785.402	0.59
785.576	-0.11
785.75	0.06
785.925	-0.07
786.099	0.14
786.273	0.23
786.448	0.34
786.622	0.5
786.796	0.09
786.97	0.11
787.145	0.49
787.319	-0.22
787.493	0.09
787.667	-0.21
787.841	0.01
788.015	0.29
788.19	0.15
788.364	0.23
788.538	0.18
788.712	0.31
788.886	0.11
789.06	0.39
789.234	0.25
789.408	0.05
789.582	0.1
789.756	0.16
789.93	-0.04
790.104	0.15
790.278	0.06
790.452	0.1
790.626	0.31
790.8	0.11
790.973	-0.05
791.147	0.33
791.321	0.28
791.495	0.31
791.669	0.24
791.843	0.26
792.016	0.44
792.19	0.33
792.364	-0.04
792.538	0.55
792.711	0.26
792.885	0.08
793.059	0.05
793.233	-0.39
793.406	0.25
793.58	0.36
793.754	0.36
793.927	0.18
794.101	0.26
794.274	0
794.448	0.16
794.622	-0
794.795	0.42
794.969	0.08
795.142	0.42
795.316	0.09
795.489	-0.12
795.663	0.63
795.836	0.04
796.009	-0.1
796.183	0.46
796.356	0.3
796.53	0.11
796.703	-0.02
796.876	0.55
797.05	0.24
797.223	0.06
797.396	0.4
797.57	0.18
797.743	0.57
797.916	0.19
798.09	0.26
798.263	0.2
798.436	0.18
798.609	0.03
798.782	0.19
798.956	0.27
799.129	0.19
799.302	0.07
799.475	0.11
799.648	0.02
799.821	0.02
799.994	0.22
800.167	-0.31
800.34	0.19
800.514	0.24
800.687	0.16
800.86	-0.04
801.033	-0.13
801.206	0.25
801.379	-0.2
801.551	0.23
801.724	0.37
801.897	0.64
802.07	0.16
802.243	-0.16
802.416	0.22
802.589	-0.08
802.762	0.41
802.935	0.03
803.107	0.52
803.28	0.54
803.453	0.42
803.626	0.27
803.798	-0.02
803.971	0.1
804.144	0.17
804.317	0.34
804.489	0.62
804.662	-0.19
804.835	0.24
805.007	0
805.18	0.4
805.353	0.2
805.525	-0.06
805.698	0.07
805.87	0.3
806.043	0.28
806.215	-0.22
806.388	0.08
806.56	0.16
806.733	0.38
806.905	0.33
807.078	0.28
807.25	-0.38
807.423	0.37
807.595	0.05
807.768	0.42
807.94	0.54
808.112	0.64
808.285	0.49
808.457	-0.04
808.629	0
808.802	0.7
808.974	0.37
809.146	0.24
809.318	-0.17
809.491	0.19
809.663	0.56
809.835	-0.02
810.007	0.3
810.18	0.06
810.352	-0.22
810.524	0
810.696	0.52
810.868	0.84
811.04	0.09
811.212	-0.08
811.384	0.62
811.556	0.25
811.728	0.32
811.901	0.79
812.073	-0.08
812.245	0.62
812.417	0.11
812.589	-0.17
812.76	0.4
812.932	0.23
813.104	0.61
813.276	0.01
813.448	0.46
813.62	0.07
813.792	0.64
813.964	0.41
814.136	0.26
814.307	0.26
814.479	-0.11
814.651	0.1
814.823	0.73
814.995	0.27
815.166	0.18
815.338	0.14
815.51	-0.27
815.681	0.86
815.853	0.4
816.025	-0.02
816.196	0.67
816.368	0.67
816.54	-0.19
816.711	-0.27
816.883	0.2
817.054	0.85
817.226	-0.08
817.398	0.58
817.569	-0.11
817.741	0.48
817.912	0.18
818.084	-0.31
818.255	0.25
818.426	0.04
818.598	0.32
818.769	0.47
818.941	0.58
819.112	0.25
819.283	0.65
819.455	-0.3
819.626	-0.06
819.798	0.54
819.969	0.35
820.14	0.03
820.311	-0.17
820.483	0.4
820.654	0.57
820.825	0.2
820.996	-0.05
821.168	-0.13
821.339	0.26
821.51	-0.33
821.681	0.16
821.852	0.35
822.023	0.03
822.195	-0.36
822.366	0.54
822.537	0.37
822.708	0.42
822.879	-0.14
823.05	0.59
823.221	-0.04
823.392	0.29
823.563	0.34
823.734	0.41
823.905	0.21
824.076	-0.13
824.247	0.12
824.418	0.1
824.589	1.05
824.759	-0.11
824.93	0.22
825.101	-0.44
825.272	0.81
825.443	0.65
825.614	0.76
825.784	-1.04
825.955	1.27
826.126	1.07
826.297	0.51
826.467	1.22
826.638	0.95
826.809	-0.27
826.98	0.07
827.15	0.04
827.321	-0.3
827.492	0.65
827.662	0.41
827.833	1.69
828.003	0.99
828.174	0.43
828.345	-0.32
828.515	0.6
828.686	0.41
828.856	-0.15
829.027	0.48
829.197	0.17
829.368	0.68
829.538	0.11
829.709	0.46
829.879	0.97
830.049	0.4
830.22	-0.13
830.39	0.64
830.56	0.8
830.731	0.02
830.901	0.17
831.072	0.72
831.242	0.18
831.412	0.83
831.582	-0.31
831.753	-0.15
831.923	0.46
832.093	0.05
832.263	0.73
832.434	-0.32
832.604	-0.13
832.774	0.82
832.944	-0.04
833.114	-0.2
833.284	0.52
833.454	-0.56
833.624	-0.18
833.795	-0.41
833.965	1.2
834.135	1.53
834.305	-0.7
834.475	-0.28
834.645	1.08
834.815	0.05
834.985	-0.17
835.155	0.64
835.325	0.03
835.494	0.82
835.664	0.23
835.834	-0.62
836.004	1.07
836.174	0.25
836.344	0.01
836.514	-0.32
836.684	0.29
836.853	0.45
837.023	0.52
837.193	0.41
837.363	1.03
837.532	0.93
837.702	0.39
837.872	0.1
838.041	0.68
838.211	1.28
838.381	-0.69
838.55	0.24
838.72	1.59
838.89	1.35
839.059	-0.01
839.229	0.14
839.398	1.29
839.568	-0.21
839.738	0.72
839.907	1.68
840.077	1.02
840.246	-0.42
840.416	0
840.585	-0.5
840.755	1.93
840.924	1.27
841.093	-0.12
841.263	0.09
841.432	1.59
841.602	0.43
841.771	-0.27
841.94	0.28
842.11	2.41
842.279	1.45
842.448	0.05
842.617	-0.89
842.787	1.93
842.956	-0.82
843.125	0.21
843.294	0.92
843.464	0.67
843.633	0.67
843.802	-0.36
843.971	0.41
844.14	0.94
844.309	1.5
844.479	-0.8
844.648	-1.31
844.817	0.28
844.986	1.04
845.155	0.09
845.324	-0.32
845.493	-0.53
845.662	-0.91
845.831	0.97
846	0.48
846.169	-0.03
846.338	1.73
846.507	1.53
846.676	1.25
846.844	-0.4
847.013	0.7
847.182	0.77
847.351	-0.72
847.52	0.18
847.689	1.01
847.858	0.27
848.026	0.21
848.195	0.9
848.364	0.4
848.533	0.3
848.701	0.66
848.87	-0.08
849.039	1.32
849.207	0.99
849.376	1.41
849.545	1.59
849.713	0.18
849.882	0.73
850.051	0.36
850.219	0.6
850.388	1.15
850.556	-0.25
850.725	-0.45
850.893	0.1
851.062	0.06
851.23	0.67
851.399	-0.83
851.567	0.54
851.736	0.85
851.904	-0.43
852.073	0.89
852.241	1.16
852.41	0.81
852.578	-0.19
852.746	0.19
852.915	0.69
853.083	0.62
853.251	-1.18
853.42	-0.31
853.588	0.27
853.756	1.9
853.924	0.31
854.093	0.19
854.261	-0.11
854.429	-0.68
854.597	1.16
854.765	-0.82
854.934	0.46
855.102	1.49
855.27	-0.2
855.438	1.24
855.606	0.24
855.774	1.15
855.942	-0.54
856.11	-1.14
856.278	0.69
856.446	1.76
856.614	1.71
856.782	0.64
856.95	1.74
857.118	2.21
857.286	0.99
857.454	-0.13
857.622	2.27
857.79	0.87
857.958	-0.77
858.126	0.06
858.294	-1.24
858.462	1.29
858.629	-0.22
858.797	-0.34
858.965	0.6
859.133	2.32
859.301	1.61
859.468	1.26
859.636	0.44
859.804	1.94
859.971	1.81
860.139	0
860.307	2.13
860.474	-0.11
860.642	0.19
860.81	0.14
860.977	-0.15
861.145	1.09
861.313	0.09
861.48	1.72
861.648	2.67
861.815	-0.16
861.983	0.75
862.15	-1.21
862.318	1.84
862.485	2.9
862.653	1
862.82	-0.28
862.988	2.1
863.155	1.74
863.322	-0.42
863.49	0.45
863.657	0.06
863.824	3.36
863.992	1.09
864.159	0.6
864.326	2.32
864.494	0.64
864.661	3.4
864.828	-1.22
864.996	2.42
865.163	3.15
865.33	0.51
865.497	-1.93
865.664	0.06
865.832	-0.24
865.999	0.75
866.166	-0.78
866.333	-0.39
866.5	-0.19
866.667	0.99
866.834	0.23
867.001	2.76
867.168	-0.36
867.335	1.59
867.502	-1.48
867.669	1.5
867.836	4.57
868.003	-0.31
868.17	2.11
868.337	0.48
868.504	2.75
868.671	-1
868.838	0.15
869.005	-0.01
869.172	2.38
869.339	0.03
869.505	-0.12
869.672	1.85
869.839	2.83
870.006	2.17
870.173	-1.05
870.339	1.29
870.506	2.72
870.673	0.36
870.84	-0.27
871.006	2.11
871.173	0.57
871.34	0.7
871.506	-0.51
871.673	2.15
871.839	-1.11
872.006	0.84
872.173	-0.51
872.339	0.78
872.506	1.81
872.672	0.42
872.839	-0.96
873.005	0.68
873.172	4.3
873.338	1.22
873.505	2
873.671	2.74
873.838	2.15
874.004	-0.46
874.171	0.43
874.337	0.09
874.503	1.75
874.67	0.07
874.836	-0.31
875.002	4.98
875.169	1.56
875.335	0.58
875.501	-1.17
875.668	3.07
875.834	1.42
876	2.03
876.166	2.42
876.332	1.74
876.499	4.15
876.665	0.82
876.831	1.21
876.997	2.09
877.163	0.61
877.329	-0.66
877.495	1.15
877.662	1.52
877.828	-0.05
877.994	0.87
878.16	-1.22
878.326	0.48
878.492	1.41
878.658	-0.2
878.824	1.65
878.99	1.67
879.156	1.23
879.322	2.15
879.487	2.77
879.653	2.21
879.819	0.82
879.985	-0.07
880.151	2.59
880.317	0.73
880.483	1.61
880.648	2.11
880.814	-0.76
880.98	2.5
881.146	-3.19
881.312	0.21
881.477	1.05
881.643	1.64
881.809	1.21
881.974	1.99
882.14	-1.99
882.306	0.91
882.471	3.73
882.637	0.88
882.803	3.34
882.968	3.5
883.134	2.15
883.299	-0.58
883.465	0.19
883.63	2.11
883.796	1.98
883.961	2.07
884.127	1.95
884.292	-3.13
884.458	-2.08
884.623	-2.08
