Data from Apollo_Calib_20240827__AbsoluteIrradiance__224__02-53-02-952.txt Node

Date: Wed Aug 28 02:53:02 BST 2024
User: biology
Spectrometer: FLMT08252
Trigger mode: 0
Integration Time (sec): 5.000000E-1
Scans to average: 5
Electric dark correction enabled: true
Nonlinearity correction enabled: false
Boxcar width: 0
XAxis mode: Wavelengths
Number of Pixels in Spectrum: 3648
>>>>>Begin Spectral Data<<<<<
179.588	-0
179.809	-0
180.03	-0
180.251	-0
180.473	-0
180.694	0
180.915	0
181.136	-0
181.357	0
181.578	0
181.799	0
182.02	-0
182.241	-0
182.462	-0
182.683	0
182.904	-0
183.125	-0
183.346	0
183.567	0
183.788	-0
184.009	-0
184.23	-0
184.451	0
184.672	-0
184.892	-0
185.113	0
185.334	0
185.555	-0
185.776	-0
185.996	0
186.217	0
186.438	-0
186.659	-0
186.879	-0
187.1	-0
187.321	-0
187.541	-0
187.762	0
187.983	0
188.203	0
188.424	-0
188.644	-0
188.865	-0
189.086	-0
189.306	-0
189.527	-0
189.747	-0
189.968	-0
190.188	0
190.409	-0
190.629	0
190.849	-0
191.07	-0
191.29	0
191.511	0
191.731	-0
191.951	-0
192.172	-0
192.392	-0
192.612	-0
192.833	-0
193.053	0
193.273	0
193.493	-0
193.714	-0
193.934	0
194.154	0
194.374	-0
194.594	0
194.815	-0
195.035	0
195.255	-0
195.475	-0
195.695	0
195.915	0
196.135	-0
196.355	0
196.575	0
196.795	0
197.015	-0
197.235	-0
197.455	-0
197.675	0
197.895	-0
198.115	-0
198.335	0
198.555	-0
198.775	-0
198.995	-0
199.214	0
199.434	-0
199.654	-0
199.874	-0
200.094	0.82
200.313	-0.34
200.533	-0.53
200.753	-1.19
200.973	0.45
201.192	0.78
201.412	-1.48
201.632	-0.86
201.851	0.03
202.071	-0.94
202.291	-0.84
202.51	-0.87
202.73	0.42
202.95	-0.14
203.169	-0.6
203.389	-0.57
203.608	-0.18
203.828	-0.3
204.047	-0.45
204.267	0.15
204.486	0.01
204.706	0.05
204.925	-0.5
205.145	-0.51
205.364	0.57
205.583	0.57
205.803	-0.33
206.022	-0.63
206.242	0.12
206.461	-0.16
206.68	-0.52
206.9	-0.06
207.119	0.42
207.338	0.47
207.557	-0.59
207.777	-0.18
207.996	-0.14
208.215	0.63
208.434	-0.56
208.654	-0.38
208.873	-0.1
209.092	0.48
209.311	-0.16
209.53	-0.11
209.749	-0.33
209.968	-0.39
210.187	-0.12
210.407	-0.88
210.626	-0.13
210.845	0.2
211.064	-0.21
211.283	-0.26
211.502	0.33
211.721	-0.19
211.94	-0.21
212.159	-0.16
212.377	0.18
212.596	0.41
212.815	-0.27
213.034	0.12
213.253	0.16
213.472	0.26
213.691	-0.14
213.91	-0.5
214.128	-0.15
214.347	0.33
214.566	-0.45
214.785	-0.53
215.003	0.2
215.222	-0.01
215.441	0.01
215.66	-0.39
215.878	-0.1
216.097	-0.01
216.316	-0.44
216.534	-0.14
216.753	0.1
216.972	-0.28
217.19	-0.21
217.409	-0.13
217.627	-0.28
217.846	-0.19
218.064	0.08
218.283	-0.32
218.501	0.37
218.72	0.22
218.938	-0.21
219.157	-0.21
219.375	0.19
219.594	-0.17
219.812	-0.3
220.031	-0.25
220.249	0.14
220.467	0.24
220.686	-0.16
220.904	-0.27
221.122	-0.33
221.341	0.37
221.559	0
221.777	-0.33
221.995	-0.17
222.214	0.11
222.432	-0.1
222.65	-0.03
222.868	-0.18
223.086	-0.01
223.305	0.01
223.523	-0.17
223.741	0.18
223.959	-0.04
224.177	-0.34
224.395	-0.22
224.613	0
224.831	0.11
225.049	-0.32
225.267	-0.19
225.485	0.11
225.703	-0.08
225.921	-0.1
226.139	-0.15
226.357	0.09
226.575	-0.14
226.793	-0.19
227.011	0.38
227.229	-0.04
227.447	0.11
227.665	-0.21
227.883	-0.37
228.1	0.01
228.318	-0.09
228.536	-0.31
228.754	-0.22
228.972	0.03
229.189	0.1
229.407	-0.02
229.625	0.01
229.843	0.17
230.06	0.09
230.278	-0.15
230.496	-0.13
230.713	-0.05
230.931	0.11
231.149	-0.1
231.366	-0.29
231.584	-0.01
231.801	0.35
232.019	-0.04
232.236	-0.25
232.454	-0.2
232.671	0.12
232.889	-0.09
233.106	-0.12
233.324	-0.06
233.541	-0.07
233.759	-0.09
233.976	-0.16
234.194	-0.16
234.411	-0.06
234.628	-0.14
234.846	-0.08
235.063	-0.04
235.28	0.06
235.498	-0.09
235.715	-0.18
235.932	0.12
236.149	0.01
236.367	-0.18
236.584	-0.06
236.801	-0.16
237.018	-0.01
237.236	-0.05
237.453	-0.15
237.67	0.07
237.887	-0.11
238.104	-0.18
238.321	-0.19
238.538	-0.15
238.755	0.02
238.973	-0.16
239.19	-0.13
239.407	0.02
239.624	0.09
239.841	-0.21
240.058	-0.12
240.275	0.08
240.492	-0.01
240.709	-0.12
240.925	0.01
241.142	-0.02
241.359	-0.16
241.576	-0.2
241.793	-0.17
242.01	-0.07
242.227	0.08
242.444	0.02
242.66	0.05
242.877	0.04
243.094	-0.11
243.311	0.06
243.527	-0.11
243.744	0.03
243.961	0.05
244.178	-0.13
244.394	-0.12
244.611	0.04
244.828	0.18
245.044	-0.15
245.261	-0.08
245.477	-0.06
245.694	0
245.911	-0.1
246.127	0
246.344	0.15
246.56	0
246.777	-0.16
246.993	-0.08
247.21	-0.01
247.426	0.09
247.643	-0.14
247.859	-0.13
248.076	-0.07
248.292	0.15
248.508	-0.09
248.725	-0.01
248.941	0.02
249.157	0.13
249.374	-0.09
249.59	-0.12
249.806	-0
250.023	0.09
250.239	-0.13
250.455	-0.16
250.671	-0.04
250.888	-0.01
251.104	0.04
251.32	-0.07
251.536	-0.05
251.752	-0.09
251.969	-0.02
252.185	0.02
252.401	0.11
252.617	0.04
252.833	-0.08
253.049	-0.03
253.265	-0.08
253.481	0.03
253.697	-0.09
253.913	-0.15
254.129	-0.02
254.345	-0.03
254.561	-0.04
254.777	-0.03
254.993	0.06
255.209	-0.04
255.425	-0.14
255.641	-0.09
255.857	0.08
256.073	-0
256.288	-0.06
256.504	-0.08
256.72	-0
256.936	0.06
257.152	0.01
257.367	-0.06
257.583	-0.02
257.799	-0.01
258.015	-0.06
258.23	-0.02
258.446	0.1
258.662	-0.04
258.877	-0.06
259.093	-0.09
259.309	0
259.524	0.04
259.74	-0.08
259.955	-0.14
260.171	-0.02
260.387	-0.02
260.602	0.02
260.818	-0.03
261.033	-0.08
261.249	-0.11
261.464	-0.11
261.68	-0.12
261.895	-0
262.11	0.01
262.326	-0.07
262.541	-0.07
262.757	0.09
262.972	0.03
263.187	-0.01
263.403	-0.04
263.618	0.01
263.833	-0.02
264.049	-0.1
264.264	-0.04
264.479	0.05
264.694	0.03
264.91	-0.07
265.125	0.02
265.34	0.05
265.555	0.16
265.77	0.06
265.986	-0.01
266.201	0.02
266.416	0.09
266.631	-0.03
266.846	-0.05
267.061	0.06
267.276	0.05
267.491	-0.18
267.706	0.04
267.921	0.03
268.136	0.01
268.351	-0.05
268.566	-0.17
268.781	0.08
268.996	0.06
269.211	-0.1
269.426	-0.09
269.641	-0.03
269.856	-0
270.071	-0.09
270.285	-0.13
270.5	0.07
270.715	0.01
270.93	-0.02
271.145	-0.01
271.359	0.06
271.574	0.02
271.789	-0.07
272.004	-0.05
272.218	-0.05
272.433	0.03
272.648	-0.02
272.862	0.02
273.077	-0.06
273.292	-0.03
273.506	-0.09
273.721	-0.02
273.936	0
274.15	0.09
274.365	-0.05
274.579	-0.09
274.794	-0.01
275.008	0.04
275.223	-0.11
275.437	-0.02
275.652	0.05
275.866	-0.01
276.081	-0.07
276.295	0.07
276.509	0.01
276.724	-0.01
276.938	-0.04
277.153	0.05
277.367	0.06
277.581	0.03
277.796	-0.05
278.01	-0.11
278.224	0.05
278.438	0.12
278.653	-0.11
278.867	-0.05
279.081	-0.17
279.295	-0.04
279.51	-0
279.724	-0.1
279.938	0.05
280.152	-0.04
280.366	-0.09
280.58	0.02
280.794	0.11
281.008	0.04
281.222	0.03
281.437	0.13
281.651	0.02
281.865	0.06
282.079	-0.02
282.293	-0.12
282.507	-0.02
282.721	-0.03
282.935	0
283.148	-0.05
283.362	-0.04
283.576	-0.03
283.79	-0
284.004	-0.01
284.218	0.05
284.432	-0.05
284.646	-0.01
284.859	-0.04
285.073	-0.03
285.287	-0.03
285.501	-0.02
285.714	-0.06
285.928	-0.04
286.142	0.03
286.356	-0.09
286.569	-0.08
286.783	0.07
286.997	0.01
287.21	-0.02
287.424	-0
287.637	-0.05
287.851	-0.06
288.065	-0.01
288.278	-0.09
288.492	-0.01
288.705	-0.02
288.919	0.03
289.132	-0.08
289.346	0.02
289.559	-0.11
289.773	-0.06
289.986	-0.02
290.2	0
290.413	0.06
290.626	-0.06
290.84	-0.04
291.053	-0.04
291.267	0.05
291.48	-0.02
291.693	-0.04
291.906	-0.01
292.12	-0.02
292.333	-0.05
292.546	-0.06
292.76	0.08
292.973	0.02
293.186	-0.03
293.399	-0.08
293.612	0.03
293.826	0.01
294.039	-0.02
294.252	-0.04
294.465	0.01
294.678	0.01
294.891	-0.03
295.104	-0.08
295.317	-0.02
295.53	-0.03
295.743	-0.03
295.956	-0.02
296.169	0.05
296.382	0.07
296.595	-0.05
296.808	-0.02
297.021	0.02
297.234	0.06
297.447	-0.03
297.66	-0.03
297.873	0.07
298.086	0.02
298.299	-0.03
298.511	-0.06
298.724	-0.01
298.937	-0.03
299.15	-0.07
299.363	-0
299.575	0.05
299.788	0.02
300.001	-0.03
300.213	-0.09
300.426	-0.01
300.639	-0.04
300.852	-0.04
301.064	0.02
301.277	0.07
301.489	0.05
301.702	0
301.915	-0.07
302.127	-0.02
302.34	-0.03
302.552	-0.02
302.765	-0.04
302.977	0.01
303.19	-0.04
303.402	0.01
303.615	-0
303.827	-0.05
304.04	-0
304.252	-0.03
304.464	-0.01
304.677	0.09
304.889	0
305.102	-0.02
305.314	-0.05
305.526	0.05
305.739	-0
305.951	-0.07
306.163	-0.04
306.375	0.08
306.588	-0.01
306.8	-0.04
307.012	-0.11
307.224	0.01
307.436	0.1
307.649	-0.09
307.861	0.05
308.073	0.05
308.285	-0.01
308.497	-0.05
308.709	-0.07
308.921	0
309.133	0.06
309.346	0
309.558	-0.03
309.77	0.03
309.982	0.04
310.194	0.02
310.406	-0.06
310.617	0.09
310.829	0.01
311.041	0.01
311.253	-0.03
311.465	-0.05
311.677	-0.01
311.889	-0.01
312.101	-0.04
312.313	0.02
312.524	0.03
312.736	-0.07
312.948	-0.04
313.16	0.04
313.372	-0.01
313.583	-0.01
313.795	-0.04
314.007	0
314.218	0.02
314.43	-0.04
314.642	-0.03
314.853	-0.1
315.065	0.03
315.277	-0.02
315.488	-0.01
315.7	0.01
315.912	0.08
316.123	0.01
316.335	-0.04
316.546	0.12
316.758	-0.06
316.969	0.01
317.181	-0
317.392	0.01
317.604	0.06
317.815	-0.04
318.026	-0.05
318.238	-0.04
318.449	0.05
318.661	-0.12
318.872	-0.05
319.083	-0.05
319.295	0.01
319.506	-0.03
319.717	0
319.929	-0.01
320.14	-0
320.351	-0.01
320.562	-0.05
320.774	-0
320.985	0.02
321.196	-0.06
321.407	-0.09
321.618	0.01
321.829	0
322.041	0
322.252	-0.04
322.463	0.01
322.674	0.01
322.885	-0.09
323.096	-0.02
323.307	0.02
323.518	-0.06
323.729	-0.05
323.94	-0.03
324.151	-0.02
324.362	0.01
324.573	0.01
324.784	-0.04
324.995	0.05
325.206	0.03
325.417	-0.01
325.628	-0.05
325.838	0
326.049	0.01
326.26	0.01
326.471	-0.03
326.682	0
326.892	-0.01
327.103	-0.12
327.314	-0.05
327.525	0.04
327.735	0.01
327.946	-0.06
328.157	-0.07
328.368	0.02
328.578	0.02
328.789	0.03
328.999	-0.04
329.21	0
329.421	0.03
329.631	-0.07
329.842	-0.07
330.052	0.01
330.263	0.02
330.473	0
330.684	-0.02
330.894	-0.02
331.105	-0.01
331.315	-0.02
331.526	-0.09
331.736	0.08
331.947	-0.01
332.157	-0.02
332.367	-0.04
332.578	0.01
332.788	0.04
332.999	-0.02
333.209	-0.02
333.419	-0.03
333.629	0
333.84	0.02
334.05	-0.03
334.26	0.05
334.47	0.03
334.681	0.05
334.891	-0.03
335.101	0.05
335.311	0.06
335.521	-0.02
335.732	-0.08
335.942	0.09
336.152	0.02
336.362	0.01
336.572	-0.04
336.782	0.04
336.992	-0.05
337.202	-0.08
337.412	-0.03
337.622	0
337.832	-0.02
338.042	-0.02
338.252	-0.02
338.462	-0.05
338.672	-0
338.882	-0.04
339.092	0
339.302	0.06
339.511	-0
339.721	-0
339.931	-0.05
340.141	0.05
340.351	0.07
340.561	0.01
340.77	0
340.98	-0.03
341.19	0
341.4	-0.02
341.609	-0.08
341.819	-0.01
342.029	-0.06
342.238	-0.02
342.448	-0.01
342.658	0.05
342.867	0
343.077	-0
343.286	-0.03
343.496	0.02
343.706	0.08
343.915	-0.08
344.125	-0.03
344.334	0.01
344.544	-0.08
344.753	-0.03
344.963	-0.02
345.172	-0.03
345.381	-0.03
345.591	-0
345.8	-0.02
346.01	0.07
346.219	0.02
346.428	-0.12
346.638	-0.01
346.847	-0.01
347.056	0.05
347.266	-0.04
347.475	-0
347.684	0.01
347.893	0.03
348.103	-0.02
348.312	0
348.521	-0.03
348.73	-0.02
348.94	0.01
349.149	-0.02
349.358	-0.02
349.567	-0.03
349.776	-0.09
349.985	-0.02
350.194	0.04
350.403	0.03
350.612	-0.08
350.821	-0.06
351.03	-0
351.239	-0.06
351.448	-0.01
351.657	-0.03
351.866	0.05
352.075	-0.02
352.284	-0.03
352.493	-0.05
352.702	0.08
352.911	0.01
353.12	-0.03
353.329	-0.05
353.538	0.03
353.746	0
353.955	-0.05
354.164	0.01
354.373	-0.03
354.582	0.04
354.79	0.03
354.999	0.01
355.208	-0.04
355.416	0.03
355.625	-0.04
355.834	-0.05
356.042	0.03
356.251	-0.02
356.46	-0.06
356.668	-0.03
356.877	0.06
357.085	0.03
357.294	-0.04
357.503	0.01
357.711	-0.01
357.92	0.14
358.128	-0.01
358.337	-0.05
358.545	0.02
358.754	0
358.962	0.05
359.17	-0.01
359.379	0.04
359.587	0.03
359.796	-0.02
360.004	0.02
360.212	0.01
360.421	0.06
360.629	-0.05
360.837	-0
361.046	0.04
361.254	0.1
361.462	-0.01
361.67	-0.01
361.879	-0.01
362.087	0.05
362.295	0
362.503	-0.01
362.711	-0.04
362.92	-0.03
363.128	-0.03
363.336	-0.04
363.544	-0.04
363.752	0
363.96	-0.09
364.168	-0.02
364.376	-0.02
364.584	0.01
364.792	0.03
365	0.01
365.208	-0.02
365.416	0
365.624	0.01
365.832	-0.02
366.04	0.09
366.248	0.03
366.456	0.02
366.664	0
366.872	-0.03
367.079	-0.01
367.287	0.02
367.495	0.01
367.703	0.01
367.911	-0.03
368.118	-0.03
368.326	-0.02
368.534	-0.04
368.742	0.04
368.949	-0.05
369.157	-0.07
369.365	0.02
369.572	-0.02
369.78	-0.07
369.988	0.03
370.195	0.04
370.403	0.02
370.61	-0.02
370.818	-0.04
371.026	0.07
371.233	-0.03
371.441	-0.01
371.648	-0.03
371.856	-0.01
372.063	0.03
372.271	-0.02
372.478	-0
372.685	-0.02
372.893	-0
373.1	-0.03
373.308	-0.04
373.515	0.05
373.722	0.06
373.93	-0.03
374.137	0.03
374.344	0.11
374.552	0.05
374.759	-0.01
374.966	0.04
375.173	0.03
375.381	0.02
375.588	-0.02
375.795	-0.11
376.002	-0.03
376.209	-0.06
376.417	-0.02
376.624	0.03
376.831	0.01
377.038	-0.02
377.245	-0.1
377.452	-0.02
377.659	-0.02
377.866	-0.06
378.073	-0.03
378.28	-0
378.487	0.02
378.694	-0
378.901	-0.02
379.108	-0.02
379.315	0.02
379.522	0.05
379.729	0.02
379.936	-0.02
380.143	-0
380.35	0.01
380.557	-0.04
380.763	-0.01
380.97	0.02
381.177	0.01
381.384	-0.04
381.591	-0.08
381.797	0.03
382.004	0.02
382.211	-0.04
382.418	-0.03
382.624	0.03
382.831	0.05
383.038	-0.03
383.244	-0.03
383.451	-0.01
383.658	0
383.864	-0.02
384.071	-0.04
384.277	0.02
384.484	-0.01
384.69	0.05
384.897	-0.01
385.103	-0.04
385.31	-0.05
385.516	-0.01
385.723	-0.05
385.929	-0.02
386.136	-0.09
386.342	0.02
386.549	-0.05
386.755	0.04
386.961	0.03
387.168	-0.01
387.374	-0.01
387.58	0.02
387.787	-0.02
387.993	-0
388.199	-0.03
388.406	-0.06
388.612	-0
388.818	-0.04
389.024	-0.05
389.231	0.02
389.437	0.08
389.643	0.03
389.849	-0
390.055	0.02
390.261	-0.05
390.467	-0.06
390.674	-0.05
390.88	0.02
391.086	0.01
391.292	-0.07
391.498	0.04
391.704	0.02
391.91	-0.03
392.116	-0.02
392.322	-0.1
392.528	0.02
392.734	0.01
392.94	-0.02
393.146	-0.02
393.352	-0.03
393.557	-0.02
393.763	-0.02
393.969	0.02
394.175	0.01
394.381	0.04
394.587	-0.08
394.792	-0.03
394.998	-0
395.204	0.05
395.41	-0.05
395.615	0.03
395.821	-0.04
396.027	-0.03
396.233	-0.03
396.438	-0.03
396.644	0.03
396.85	0.03
397.055	-0.05
397.261	-0.01
397.466	-0.06
397.672	0.02
397.878	0.01
398.083	0.05
398.289	-0.01
398.494	0.04
398.7	0.01
398.905	-0.06
399.111	0.02
399.316	-0.07
399.522	0.01
399.727	-0.04
399.932	-0.03
400.138	-0.07
400.343	0.02
400.549	0.02
400.754	-0.02
400.959	0.02
401.165	-0.01
401.37	-0
401.575	0.12
401.78	0.02
401.986	-0.06
402.191	-0.05
402.396	-0.02
402.601	0.02
402.807	-0
403.012	-0.03
403.217	0.01
403.422	-0.01
403.627	-0.02
403.832	-0.04
404.037	-0.01
404.243	0.07
404.448	-0.06
404.653	-0.03
404.858	0.04
405.063	0.08
405.268	-0.01
405.473	-0.03
405.678	-0.02
405.883	0.07
406.088	0.02
406.293	-0.03
406.498	-0.05
406.703	0.04
406.907	-0.03
407.112	-0.04
407.317	0.03
407.522	0.03
407.727	-0.04
407.932	0.02
408.136	0.14
408.341	-0.01
408.546	0.03
408.751	0.07
408.956	0.03
409.16	0.06
409.365	0.02
409.57	0.04
409.774	-0.01
409.979	0.07
410.184	0.03
410.388	0.01
410.593	0.09
410.798	0.08
411.002	-0.01
411.207	0.12
411.411	0.08
411.616	0.04
411.82	0.05
412.025	0.09
412.229	0.04
412.434	0.17
412.638	0.1
412.843	0.09
413.047	0.05
413.252	0.06
413.456	0.07
413.66	0.13
413.865	0.11
414.069	0.16
414.273	0.05
414.478	0.09
414.682	0.09
414.886	0.04
415.091	0.09
415.295	0.05
415.499	0.12
415.703	0.1
415.908	0.18
416.112	0.05
416.316	0.21
416.52	0.11
416.724	0.05
416.929	0.14
417.133	0.3
417.337	0.13
417.541	0.17
417.745	0.16
417.949	0.23
418.153	0.18
418.357	0.13
418.561	0.25
418.765	0.21
418.969	0.29
419.173	0.28
419.377	0.19
419.581	0.35
419.785	0.23
419.989	0.2
420.193	0.26
420.397	0.23
420.601	0.36
420.804	0.36
421.008	0.32
421.212	0.32
421.416	0.38
421.62	0.33
421.823	0.31
422.027	0.42
422.231	0.34
422.435	0.26
422.638	0.3
422.842	0.3
423.046	0.27
423.249	0.33
423.453	0.32
423.657	0.35
423.86	0.29
424.064	0.3
424.268	0.39
424.471	0.27
424.675	0.37
424.878	0.36
425.082	0.31
425.285	0.4
425.489	0.32
425.692	0.3
425.896	0.28
426.099	0.31
426.303	0.27
426.506	0.19
426.71	0.29
426.913	0.34
427.116	0.35
427.32	0.28
427.523	0.25
427.726	0.32
427.93	0.24
428.133	0.28
428.336	0.19
428.54	0.23
428.743	0.23
428.946	0.29
429.149	0.19
429.353	0.21
429.556	0.26
429.759	0.2
429.962	0.13
430.165	0.16
430.368	0.22
430.571	0.11
430.775	0.15
430.978	0.15
431.181	0.18
431.384	0.18
431.587	0.12
431.79	0.13
431.993	0.15
432.196	0.12
432.399	0.13
432.602	0.19
432.805	0.1
433.008	0.11
433.211	0.06
433.414	0.13
433.616	0.14
433.819	0.16
434.022	-0.01
434.225	0.15
434.428	0.08
434.631	0.22
434.833	0.13
435.036	0.06
435.239	0.12
435.442	0.1
435.645	0.02
435.847	0.09
436.05	0.14
436.253	0.09
436.455	0.01
436.658	0.07
436.861	0.12
437.063	0.08
437.266	0.09
437.468	0.11
437.671	0.21
437.874	0.06
438.076	-0.01
438.279	-0.06
438.481	0.09
438.684	0.02
438.886	0.11
439.089	-0.02
439.291	0.06
439.494	0.04
439.696	0.03
439.899	-0
440.101	0.04
440.303	-0.05
440.506	0.05
440.708	0.05
440.91	0.07
441.113	0.03
441.315	0.11
441.517	-0.04
441.72	0.03
441.922	0.01
442.124	-0.01
442.326	0.07
442.529	0.08
442.731	0.01
442.933	0.12
443.135	0.03
443.337	0.04
443.539	0
443.742	0.02
443.944	0.09
444.146	-0.03
444.348	-0
444.55	0.01
444.752	0.01
444.954	-0.04
445.156	0.05
445.358	-0.04
445.56	0.04
445.762	-0
445.964	0.02
446.166	-0.03
446.368	0.01
446.57	0.05
446.772	0
446.974	-0.03
447.175	0.04
447.377	-0.02
447.579	0
447.781	-0.07
447.983	0.06
448.184	-0.02
448.386	0.03
448.588	-0.12
448.79	0.01
448.991	0
449.193	0.02
449.395	0
449.597	0.02
449.798	0.01
450	0.02
450.202	-0.02
450.403	0.01
450.605	-0
450.806	-0.03
451.008	-0.12
451.21	-0
451.411	-0
451.613	-0.02
451.814	-0.02
452.016	0.04
452.217	-0.02
452.419	0.04
452.62	-0.04
452.821	0.03
453.023	0.04
453.224	0.03
453.426	-0.01
453.627	0.04
453.828	-0.02
454.03	-0.01
454.231	0.05
454.432	-0.06
454.634	0.12
454.835	-0.04
455.036	-0.05
455.238	0.02
455.439	0.07
455.64	-0.06
455.841	-0.04
456.042	0.13
456.244	0.01
456.445	-0.05
456.646	-0.07
456.847	-0.02
457.048	0.09
457.249	0.05
457.45	0.19
457.651	-0.03
457.852	0.06
458.054	-0.01
458.255	-0.03
458.456	0.06
458.657	0
458.858	-0.06
459.058	0.03
459.259	0.07
459.46	-0.02
459.661	-0.02
459.862	0.14
460.063	-0.01
460.264	0.05
460.465	-0.07
460.666	0.13
460.866	-0.04
461.067	0
461.268	-0.02
461.469	-0.01
461.67	-0.02
461.87	-0.03
462.071	-0.02
462.272	-0.03
462.473	0.05
462.673	0.01
462.874	-0.06
463.075	-0.02
463.275	-0.05
463.476	-0
463.676	-0.06
463.877	0.01
464.078	0
464.278	0.05
464.479	-0.02
464.679	-0.05
464.88	-0.03
465.08	0.05
465.281	-0.09
465.481	-0.04
465.682	-0.05
465.882	0.04
466.083	0.05
466.283	-0.02
466.483	-0.06
466.684	-0.07
466.884	-0.02
467.085	-0.01
467.285	0.03
467.485	-0.05
467.686	-0.02
467.886	-0.04
468.086	-0.01
468.286	0.01
468.487	0.05
468.687	-0.07
468.887	-0.04
469.087	0.02
469.287	-0.03
469.488	-0.07
469.688	0.04
469.888	0.04
470.088	0.03
470.288	0.05
470.488	0.02
470.688	-0.07
470.888	-0.03
471.088	-0.07
471.288	0.05
471.488	0.03
471.688	0.01
471.888	0.01
472.088	0.09
472.288	0.06
472.488	-0.05
472.688	-0.01
472.888	0.01
473.088	-0.02
473.288	0.01
473.488	0.01
473.688	0.04
473.887	-0.03
474.087	0
474.287	0.01
474.487	-0.06
474.687	0.01
474.886	-0.09
475.086	-0
475.286	0
475.486	0
475.685	-0
475.885	-0.01
476.085	-0.02
476.284	0.04
476.484	-0.04
476.684	0.04
476.883	0.06
477.083	-0
477.282	-0.04
477.482	0.06
477.681	0.05
477.881	-0.01
478.08	-0.04
478.28	-0.06
478.479	0.02
478.679	0.06
478.878	-0.02
479.078	-0.04
479.277	-0.04
479.477	-0.03
479.676	0.01
479.875	-0.02
480.075	-0.07
480.274	0.01
480.473	-0.01
480.673	-0.02
480.872	0.02
481.071	-0.01
481.271	0.02
481.47	-0.04
481.669	-0.01
481.868	-0.03
482.067	-0.06
482.267	-0.02
482.466	-0.04
482.665	-0.03
482.864	-0.06
483.063	-0.04
483.262	0
483.461	0.06
483.661	0.03
483.86	-0.02
484.059	0.01
484.258	-0
484.457	-0.01
484.656	0
484.855	0.02
485.054	-0.06
485.253	-0.02
485.452	-0.04
485.651	0.01
485.849	0.01
486.048	-0.03
486.247	-0.05
486.446	-0.01
486.645	-0.02
486.844	-0.01
487.043	-0.01
487.241	-0
487.44	-0.01
487.639	-0.02
487.838	0.05
488.037	0.02
488.235	0.04
488.434	-0.02
488.633	-0.03
488.831	-0
489.03	0.03
489.229	-0
489.427	-0.01
489.626	0.01
489.825	0.06
490.023	-0.02
490.222	-0.03
490.42	0.02
490.619	0.03
490.817	0.02
491.016	-0.03
491.214	0.03
491.413	-0.02
491.611	0
491.81	-0.02
492.008	-0
492.207	0.03
492.405	-0.03
492.604	-0.05
492.802	-0.03
493	0.01
493.199	-0.03
493.397	-0.03
493.595	-0.02
493.794	-0.02
493.992	0.03
494.19	0
494.388	0
494.587	-0.04
494.785	0.01
494.983	-0.03
495.181	0
495.379	-0.02
495.578	-0.01
495.776	-0.02
495.974	-0.01
496.172	-0.02
496.37	-0.02
496.568	-0.04
496.766	-0.05
496.964	0.03
497.162	-0
497.36	-0.04
497.558	0
497.756	0.02
497.954	-0.01
498.152	-0.04
498.35	-0
498.548	0
498.746	-0
498.944	-0.03
499.142	-0.03
499.34	-0.04
499.538	0.01
499.736	-0.02
499.933	0.03
500.131	0.01
500.329	-0
500.527	0.03
500.725	0.03
500.922	0.01
501.12	-0.02
501.318	0.01
501.516	-0.04
501.713	-0.01
501.911	-0.03
502.109	-0.03
502.306	-0
502.504	-0.02
502.701	-0.03
502.899	-0.04
503.097	0.03
503.294	-0.01
503.492	-0.01
503.689	-0
503.887	0
504.084	0.05
504.282	0
504.479	-0.04
504.677	0
504.874	-0.03
505.072	-0.02
505.269	-0.01
505.466	0.02
505.664	0.01
505.861	-0.06
506.059	0
506.256	0.02
506.453	-0
506.651	0.04
506.848	0.02
507.045	0.02
507.242	0.02
507.44	-0.04
507.637	0
507.834	-0.01
508.031	0.02
508.229	-0.02
508.426	0
508.623	0
508.82	-0.01
509.017	-0.03
509.214	-0.03
509.411	-0
509.608	-0.05
509.805	-0.01
510.003	-0.02
510.2	-0.02
510.397	0.02
510.594	-0.03
510.791	-0.02
510.988	-0.02
511.184	0.02
511.381	-0.01
511.578	-0.04
511.775	0.03
511.972	-0.02
512.169	0.01
512.366	0.01
512.563	0
512.76	-0.04
512.956	0.01
513.153	-0.02
513.35	-0.02
513.547	-0.02
513.744	-0.02
513.94	-0.03
514.137	0.01
514.334	-0.01
514.53	-0.01
514.727	-0.03
514.924	0.05
515.12	-0.03
515.317	-0.04
515.514	-0.03
515.71	-0.04
515.907	-0
516.103	-0.01
516.3	-0.02
516.497	0.01
516.693	0.04
516.89	-0.01
517.086	-0.02
517.283	0.02
517.479	-0.01
517.676	-0.01
517.872	-0.01
518.068	0
518.265	-0.02
518.461	-0.02
518.658	-0.02
518.854	-0
519.05	-0.01
519.247	-0.01
519.443	-0
519.639	-0.01
519.836	-0.01
520.032	-0.01
520.228	-0.01
520.424	0.02
520.621	0.01
520.817	-0.02
521.013	-0
521.209	-0.01
521.405	0.03
521.601	-0.01
521.798	0
521.994	0.02
522.19	-0.02
522.386	-0.04
522.582	-0.01
522.778	0
522.974	-0.02
523.17	-0.01
523.366	0.02
523.562	0.01
523.758	-0
523.954	-0.03
524.15	-0.02
524.346	0.01
524.542	-0.01
524.738	-0.03
524.934	-0
525.129	-0
525.325	0.01
525.521	-0.02
525.717	0.02
525.913	0
526.109	-0
526.304	-0.02
526.5	0.01
526.696	0.01
526.892	-0.03
527.087	-0.02
527.283	-0.03
527.479	-0
527.674	-0.04
527.87	-0.01
528.066	-0.04
528.261	0.02
528.457	-0
528.653	-0.02
528.848	-0.01
529.044	0.02
529.239	-0.02
529.435	0.02
529.63	0
529.826	0.04
530.021	0
530.217	0.01
530.412	-0.01
530.608	-0.03
530.803	-0.04
530.999	-0.01
531.194	-0.05
531.389	-0.02
531.585	-0.05
531.78	-0.01
531.975	0
532.171	0.04
532.366	-0.01
532.561	0.01
532.757	-0.03
532.952	-0.02
533.147	-0
533.342	-0.02
533.538	-0.02
533.733	0.03
533.928	-0.02
534.123	-0.02
534.318	-0.05
534.513	-0
534.709	-0
534.904	-0.03
535.099	-0.03
535.294	0.01
535.489	-0
535.684	-0.02
535.879	-0.01
536.074	0
536.269	-0.04
536.464	-0.02
536.659	-0.01
536.854	-0.01
537.049	-0.01
537.244	-0.01
537.439	-0.03
537.634	0.02
537.828	-0.03
538.023	-0.02
538.218	-0.05
538.413	-0.02
538.608	-0.03
538.803	0.02
538.997	-0.04
539.192	0.01
539.387	0.01
539.582	-0.03
539.776	0.01
539.971	-0.01
540.166	-0.01
540.36	-0.03
540.555	-0.02
540.75	-0.03
540.944	-0
541.139	-0.07
541.334	-0.02
541.528	0
541.723	0.01
541.917	-0.02
542.112	-0.04
542.306	-0.02
542.501	0.02
542.695	0
542.89	-0.01
543.084	0
543.279	0
543.473	-0.01
543.668	-0.01
543.862	-0.01
544.056	0.01
544.251	-0.01
544.445	-0
544.64	-0.02
544.834	-0.04
545.028	-0.01
545.222	0.01
545.417	0.03
545.611	0.02
545.805	0.01
546	-0.02
546.194	-0.01
546.388	-0.02
546.582	0.01
546.776	0.01
546.97	0.02
547.165	0.01
547.359	0.01
547.553	-0.02
547.747	-0.01
547.941	-0.01
548.135	-0.01
548.329	0.02
548.523	-0.01
548.717	-0.04
548.911	-0.02
549.105	-0.02
549.299	0
549.493	-0
549.687	-0.01
549.881	0.01
550.075	0.01
550.269	-0.05
550.463	-0.01
550.657	-0.02
550.85	0.01
551.044	-0.01
551.238	-0.02
551.432	-0.04
551.626	-0.04
551.82	-0
552.013	-0.01
552.207	0.01
552.401	0.01
552.594	0
552.788	-0
552.982	-0.02
553.176	-0.01
553.369	0.02
553.563	0.02
553.756	-0.04
553.95	-0.03
554.144	-0.02
554.337	0.01
554.531	0.01
554.724	0
554.918	-0.03
555.111	0.01
555.305	-0.01
555.498	0.03
555.692	0.02
555.885	-0.01
556.079	0.01
556.272	-0.02
556.466	0.02
556.659	-0.01
556.852	-0.03
557.046	-0.03
557.239	0.01
557.432	-0.04
557.626	-0.02
557.819	-0
558.012	0.03
558.206	0.01
558.399	-0
558.592	-0.01
558.785	-0.02
558.979	0.02
559.172	0.01
559.365	-0.01
559.558	0
559.751	0.01
559.944	-0.03
560.138	-0.02
560.331	-0.01
560.524	-0.02
560.717	-0
560.91	-0.01
561.103	0.02
561.296	-0.01
561.489	-0.02
561.682	-0.01
561.875	0.03
562.068	0.01
562.261	0
562.454	0.03
562.647	0
562.84	-0
563.032	-0.02
563.225	-0
563.418	-0.02
563.611	-0.02
563.804	-0.02
563.997	-0.05
564.19	-0.03
564.382	-0.02
564.575	-0.03
564.768	0.02
564.961	-0.01
565.153	-0.01
565.346	0.01
565.539	0.01
565.731	0.01
565.924	0.02
566.117	0.01
566.309	-0.01
566.502	-0.01
566.695	-0.01
566.887	-0.02
567.08	-0.03
567.272	-0.04
567.465	-0.01
567.657	0.01
567.85	0
568.042	0.05
568.235	0.04
568.427	-0
568.62	0
568.812	0.02
569.005	-0.01
569.197	-0.03
569.389	0
569.582	-0.02
569.774	0.02
569.966	-0.04
570.159	-0.04
570.351	0.01
570.543	-0.03
570.736	-0.03
570.928	-0.03
571.12	-0.01
571.312	-0.02
571.505	-0.04
571.697	0.01
571.889	-0.03
572.081	-0.02
572.273	-0.05
572.465	0.02
572.658	-0.02
572.85	-0
573.042	-0
573.234	-0
573.426	0.02
573.618	-0.04
573.81	-0
574.002	0.04
574.194	0.04
574.386	-0.06
574.578	-0.03
574.77	-0.04
574.962	-0.02
575.154	-0.03
575.346	-0.02
575.538	-0.01
575.729	-0.02
575.921	-0.04
576.113	-0.03
576.305	0.02
576.497	-0.01
576.689	-0.02
576.88	-0.04
577.072	-0.01
577.264	-0.03
577.456	-0.02
577.647	-0.08
577.839	-0
578.031	0.03
578.223	-0.07
578.414	-0.05
578.606	0.01
578.798	-0
578.989	-0.03
579.181	-0.02
579.372	-0
579.564	-0.03
579.755	-0.02
579.947	-0.01
580.139	0.02
580.33	-0.09
580.522	-0.02
580.713	-0.1
580.905	-0.01
581.096	0.01
581.287	0
581.479	-0
581.67	-0.01
581.862	-0.04
582.053	-0.04
582.244	-0.05
582.436	-0.01
582.627	-0.01
582.818	-0.05
583.01	-0.05
583.201	0.01
583.392	0.01
583.583	0.01
583.775	-0.04
583.966	-0.03
584.157	-0.02
584.348	-0.02
584.54	-0.05
584.731	0
584.922	-0.01
585.113	-0.06
585.304	-0.01
585.495	0.03
585.686	-0.02
585.877	0.02
586.068	0
586.259	-0.01
586.45	-0
586.641	-0.06
586.832	-0.08
587.023	-0.01
587.214	-0.03
587.405	-0.02
587.596	-0.03
587.787	0.05
587.978	0.01
588.169	-0.05
588.36	-0.02
588.551	-0
588.742	-0.03
588.932	0
589.123	-0.03
589.314	0.01
589.505	0
589.696	-0.01
589.886	-0.04
590.077	-0.05
590.268	-0.01
590.458	-0.05
590.649	-0.07
590.84	0.02
591.03	-0.02
591.221	-0.05
591.412	-0.06
591.602	-0.01
591.793	-0
591.984	-0.05
592.174	-0.05
592.365	0.06
592.555	-0.04
592.746	-0.01
592.936	0.01
593.127	-0
593.317	0.01
593.508	-0.03
593.698	-0.04
593.889	0.02
594.079	0.01
594.269	-0.03
594.46	-0.03
594.65	-0.01
594.84	0.02
595.031	-0.05
595.221	-0.03
595.411	-0.04
595.602	0.03
595.792	0
595.982	-0.02
596.172	0.04
596.363	0.01
596.553	-0.01
596.743	-0.02
596.933	-0.03
597.123	0.03
597.314	-0.04
597.504	-0.04
597.694	0.05
597.884	0
598.074	-0.03
598.264	-0.02
598.454	-0.03
598.644	0
598.834	-0.01
599.024	-0.07
599.214	-0.03
599.404	0.04
599.594	-0.05
599.784	-0.03
599.974	0.05
600.164	0.02
600.354	-0.06
600.544	-0.03
600.734	-0
600.924	0.01
601.114	-0.05
601.303	-0.01
601.493	-0.02
601.683	-0.03
601.873	-0.01
602.063	-0.07
602.252	0.01
602.442	-0.08
602.632	-0.04
602.821	-0.07
603.011	0.03
603.201	-0.03
603.39	-0.05
603.58	-0.05
603.77	0
603.959	0.02
604.149	-0.01
604.339	-0.05
604.528	0
604.718	0.02
604.907	-0.02
605.097	-0.04
605.286	-0.03
605.476	0.02
605.665	0.01
605.855	-0.04
606.044	0.05
606.234	-0.02
606.423	-0.02
606.612	-0.07
606.802	-0.02
606.991	0.01
607.181	0.01
607.37	-0.08
607.559	0
607.749	-0.05
607.938	-0.01
608.127	-0.02
608.316	-0.04
608.506	0.01
608.695	-0.02
608.884	-0.05
609.073	-0.03
609.263	0.02
609.452	0.01
609.641	-0.03
609.83	-0.05
610.019	-0.02
610.208	-0.06
610.397	-0.01
610.586	0.01
610.775	-0.03
610.965	-0.02
611.154	-0.04
611.343	0.01
611.532	-0.02
611.721	-0.06
611.91	-0.05
612.099	0
612.287	-0.01
612.476	-0.04
612.665	0
612.854	-0.02
613.043	0.02
613.232	-0.02
613.421	-0.06
613.61	-0.01
613.798	-0.03
613.987	-0.02
614.176	-0
614.365	0.03
614.554	0.01
614.742	0
614.931	-0.03
615.12	0.01
615.309	-0.02
615.497	-0
615.686	-0.06
615.875	-0.02
616.063	0.02
616.252	-0.05
616.44	-0.03
616.629	-0.03
616.818	0.02
617.006	-0.04
617.195	-0.02
617.383	-0.01
617.572	0.01
617.76	-0.02
617.949	-0.02
618.137	0.01
618.326	0.05
618.514	-0.03
618.703	-0.03
618.891	0.05
619.079	-0.05
619.268	-0
619.456	-0.08
619.644	0.03
619.833	-0.02
620.021	-0.03
620.209	-0.09
620.398	0.01
620.586	-0.01
620.774	-0.01
620.962	-0.03
621.151	0.03
621.339	-0
621.527	-0.06
621.715	-0.08
621.903	-0.04
622.092	-0.05
622.28	0.01
622.468	-0.02
622.656	-0.03
622.844	0.03
623.032	-0.01
623.22	-0.08
623.408	0.02
623.596	0.02
623.784	0.01
623.972	-0.02
624.16	-0.04
624.348	0.06
624.536	-0.06
624.724	-0.05
624.912	0.02
625.1	0
625.288	-0.05
625.476	-0.05
625.664	-0
625.851	-0.04
626.039	0
626.227	0.01
626.415	-0.01
626.603	-0.08
626.79	-0.03
626.978	-0.02
627.166	0.01
627.354	-0.05
627.541	-0.05
627.729	-0.09
627.917	-0
628.104	0
628.292	-0.01
628.48	-0.01
628.667	0.01
628.855	-0.01
629.042	-0
629.23	-0.05
629.418	0
629.605	-0.04
629.793	-0.06
629.98	-0.06
630.168	-0.03
630.355	-0.03
630.543	0
630.73	-0.05
630.917	0.02
631.105	0.04
631.292	-0.03
631.48	-0.01
631.667	0.04
631.854	-0.02
632.042	-0.02
632.229	-0.08
632.416	-0.02
632.604	-0.06
632.791	-0.06
632.978	0
633.165	0.01
633.353	0.04
633.54	0.02
633.727	-0.07
633.914	-0.03
634.101	0.03
634.289	0.02
634.476	-0.05
634.663	-0.04
634.85	0
635.037	-0.03
635.224	-0.09
635.411	0.02
635.598	0.01
635.785	-0.02
635.972	-0.05
636.159	0.01
636.346	-0.05
636.533	-0.04
636.72	-0.03
636.907	-0.05
637.094	0.01
637.281	-0.02
637.468	0.02
637.655	-0.03
637.842	0.01
638.029	-0.05
638.215	-0.01
638.402	0.01
638.589	-0.07
638.776	-0.04
638.963	-0.07
639.149	0.06
639.336	0.04
639.523	-0.01
639.709	-0
639.896	-0.04
640.083	0.07
640.27	-0
640.456	-0.03
640.643	-0
640.829	-0.04
641.016	-0.03
641.203	-0.08
641.389	-0
641.576	-0.02
641.762	-0.08
641.949	-0.03
642.135	-0.02
642.322	0.02
642.508	-0.08
642.695	-0.04
642.881	-0.04
643.068	-0.03
643.254	-0.01
643.441	0.02
643.627	-0.02
643.813	-0.04
644	-0.01
644.186	-0.04
644.372	0.01
644.559	0.04
644.745	-0.02
644.931	-0.04
645.118	-0
645.304	-0.05
645.49	-0.04
645.676	-0.02
645.862	0
646.049	0.03
646.235	-0.01
646.421	0.05
646.607	0.05
646.793	-0.07
646.979	-0.05
647.165	-0.04
647.352	0.02
647.538	0.03
647.724	-0.03
647.91	-0.01
648.096	0.01
648.282	0.04
648.468	-0.03
648.654	0.01
648.84	0.02
649.026	-0.01
649.212	-0.01
649.397	-0.06
649.583	-0.05
649.769	0.04
649.955	-0
650.141	-0.03
650.327	0.05
650.513	-0.05
650.698	0
650.884	-0.08
651.07	-0
651.256	-0.01
651.442	-0.02
651.627	-0.02
651.813	-0.02
651.999	0.03
652.184	0
652.37	-0.03
652.556	-0.03
652.741	0.05
652.927	-0.06
653.113	-0.03
653.298	-0
653.484	-0.06
653.669	-0.11
653.855	0.02
654.04	0.02
654.226	0.01
654.412	-0.02
654.597	-0.05
654.782	-0.04
654.968	0.02
655.153	-0.01
655.339	-0.06
655.524	-0.06
655.71	-0
655.895	-0.03
656.08	-0.03
656.266	0.03
656.451	-0.02
656.636	-0.06
656.822	-0.03
657.007	-0.03
657.192	-0.05
657.378	-0.08
657.563	0.01
657.748	0.01
657.933	-0
658.118	-0.02
658.304	-0.04
658.489	0.02
658.674	-0
658.859	-0.06
659.044	-0.02
659.229	-0
659.414	-0.08
659.599	-0.05
659.785	-0.08
659.97	-0.02
660.155	0.01
660.34	-0
660.525	-0.01
660.71	-0.02
660.895	0
661.08	-0.03
661.264	-0.05
661.449	0.02
661.634	0.04
661.819	-0.02
662.004	0.01
662.189	-0.11
662.374	-0.02
662.559	-0.08
662.743	-0.1
662.928	-0.01
663.113	-0.04
663.298	-0.08
663.483	-0.05
663.667	0
663.852	-0.06
664.037	0
664.221	-0.03
664.406	0.04
664.591	0.01
664.775	0.02
664.96	-0.08
665.145	-0.02
665.329	0.06
665.514	-0.07
665.698	-0.03
665.883	-0.09
666.068	0.06
666.252	-0.04
666.437	-0.05
666.621	0
666.806	-0.02
666.99	-0.04
667.174	-0.08
667.359	0.05
667.543	-0.02
667.728	-0.06
667.912	-0.11
668.096	-0.01
668.281	-0.03
668.465	-0.06
668.649	0
668.834	-0.06
669.018	-0.02
669.202	-0.04
669.387	-0.07
669.571	0.05
669.755	-0.06
669.939	-0.03
670.124	-0.02
670.308	0.05
670.492	0.05
670.676	-0.05
670.86	-0.01
671.044	-0.07
671.228	0.02
671.413	-0.05
671.597	-0.05
671.781	-0.07
671.965	0.01
672.149	-0.01
672.333	-0.01
672.517	-0.06
672.701	-0.01
672.885	-0.05
673.069	-0.13
673.253	0.03
673.437	-0.02
673.621	-0.05
673.804	-0.02
673.988	-0.03
674.172	-0.02
674.356	-0.09
674.54	-0.02
674.724	0.11
674.908	-0.02
675.091	-0.04
675.275	-0.04
675.459	-0.02
675.643	0
675.826	-0.02
676.01	-0.07
676.194	-0.05
676.377	0.04
676.561	-0.03
676.745	-0
676.928	-0.01
677.112	0.04
677.296	-0.04
677.479	-0.04
677.663	-0
677.846	0.05
678.03	-0.05
678.213	-0.06
678.397	-0.03
678.58	-0
678.764	-0.04
678.947	-0.03
679.131	-0.02
679.314	-0.01
679.498	0.01
679.681	0
679.865	0.03
680.048	-0.05
680.231	-0.01
680.415	-0.05
680.598	-0.01
680.781	-0.03
680.965	-0.06
681.148	0.01
681.331	-0.03
681.514	-0
681.698	-0.04
681.881	-0.01
682.064	-0.03
682.247	0.01
682.43	-0.1
682.614	-0.01
682.797	0.04
682.98	0.05
683.163	-0.06
683.346	0.01
683.529	-0.07
683.712	-0.04
683.895	-0.03
684.078	-0.12
684.261	-0
684.444	-0.01
684.627	-0.01
684.81	-0.06
684.993	-0.04
685.176	0
685.359	-0.08
685.542	-0.02
685.725	0.1
685.908	-0.04
686.091	0.01
686.274	0.05
686.457	0.02
686.639	-0.05
686.822	0.01
687.005	-0.01
687.188	-0.01
687.371	0.07
687.553	0.01
687.736	-0.03
687.919	0.09
688.102	0.1
688.284	-0.07
688.467	-0.03
688.65	-0.02
688.832	-0.07
689.015	0.03
689.197	-0.03
689.38	0.12
689.563	0.05
689.745	-0.06
689.928	-0.06
690.11	-0.03
690.293	-0
690.475	-0.07
690.658	0
690.84	-0.04
691.023	-0.06
691.205	-0.07
691.388	-0.04
691.57	0.02
691.752	0
691.935	-0.1
692.117	-0.04
692.3	0.04
692.482	-0.02
692.664	-0.06
692.847	0.05
693.029	0.03
693.211	-0.05
693.393	-0.06
693.576	-0.02
693.758	-0.02
693.94	-0.02
694.122	-0.05
694.304	-0.02
694.487	-0.06
694.669	0.07
694.851	-0.04
695.033	-0.01
695.215	-0.05
695.397	-0.03
695.579	-0.01
695.761	-0.05
695.943	-0.1
696.125	0.04
696.308	0.01
696.49	-0.13
696.671	0.09
696.853	-0.03
697.035	0.09
697.217	-0.08
697.399	0.03
697.581	-0.05
697.763	-0
697.945	-0.05
698.127	0.04
698.309	0.04
698.491	0.01
698.672	-0
698.854	0
699.036	0.06
699.218	-0.04
699.399	-0.01
699.581	0.04
699.763	0
699.945	-0.08
700.126	-0.05
700.308	0.02
700.49	-0.04
700.671	-0.14
700.853	-0.08
701.035	-0.04
701.216	0
701.398	-0.05
701.579	-0.04
701.761	-0.04
701.943	-0.07
702.124	-0.07
702.306	-0.07
702.487	0.09
702.669	0.03
702.85	-0.08
703.031	-0.06
703.213	0.11
703.394	0.01
703.576	-0.09
703.757	0.05
703.938	0.04
704.12	0.17
704.301	0.04
704.483	-0.04
704.664	0.05
704.845	0.1
705.026	0.03
705.208	-0.04
705.389	0.02
705.57	-0.01
705.751	-0.04
705.933	-0.02
706.114	-0.01
706.295	-0.03
706.476	-0.04
706.657	0.1
706.838	0.03
707.02	0.05
707.201	-0.07
707.382	-0.05
707.563	0.05
707.744	-0.02
707.925	-0.09
708.106	-0.06
708.287	-0.02
708.468	0.07
708.649	-0.07
708.83	0.01
709.011	0.02
709.192	0.01
709.373	-0.08
709.554	-0.07
709.734	-0.04
709.915	-0
710.096	-0.02
710.277	-0.15
710.458	-0.03
710.639	0.05
710.819	-0.08
711	-0.07
711.181	0.07
711.362	0.07
711.542	-0
711.723	-0.07
711.904	0.06
712.085	0.05
712.265	-0.06
712.446	-0.04
712.627	-0.03
712.807	-0.05
712.988	-0.02
713.168	-0.1
713.349	0.03
713.53	-0.16
713.71	-0.06
713.891	-0.11
714.071	0.02
714.252	-0.08
714.432	-0
714.613	-0.15
714.793	-0.03
714.974	0.07
715.154	0.09
715.334	0.04
715.515	0.08
715.695	-0.08
715.876	-0.09
716.056	-0.05
716.236	-0.03
716.417	-0.09
716.597	-0.08
716.777	0.07
716.957	-0
717.138	-0.02
717.318	-0
717.498	-0.1
717.678	0.07
717.859	0.05
718.039	-0.1
718.219	-0
718.399	0.02
718.579	-0.12
718.759	-0.1
718.939	-0.01
719.12	-0.07
719.3	-0.06
719.48	-0.16
719.66	-0.1
719.84	0.08
720.02	-0.04
720.2	-0.01
720.38	-0.06
720.56	0.08
720.74	-0.08
720.92	-0.04
721.1	0.1
721.279	0.07
721.459	0.09
721.639	-0.11
721.819	0.02
721.999	-0.06
722.179	0.1
722.359	-0.15
722.538	-0.03
722.718	-0.05
722.898	-0.07
723.078	-0.02
723.257	-0.09
723.437	0.03
723.617	-0.04
723.797	-0.06
723.976	0.01
724.156	0.07
724.336	0.04
724.515	0.11
724.695	-0.04
724.874	0.05
725.054	0.05
725.234	-0.07
725.413	0
725.593	-0.04
725.772	-0.03
725.952	-0.03
726.131	-0.04
726.311	-0.06
726.49	-0.06
726.67	-0.11
726.849	-0.1
727.028	0.01
727.208	-0.02
727.387	-0.01
727.567	-0.11
727.746	-0.01
727.925	-0
728.105	-0.11
728.284	-0.16
728.463	-0.19
728.643	-0.04
728.822	-0.05
729.001	-0.11
729.18	-0.06
729.359	0.03
729.539	-0.07
729.718	-0.01
729.897	0.01
730.076	-0.07
730.255	-0.12
730.434	-0.01
730.614	-0.01
730.793	0.1
730.972	-0.08
731.151	-0.09
731.33	0.07
731.509	-0
731.688	-0.07
731.867	0.01
732.046	-0.13
732.225	0.16
732.404	-0.11
732.583	-0.13
732.762	-0.02
732.941	0.05
733.12	0.07
733.298	-0.08
733.477	0.02
733.656	-0.01
733.835	-0.1
734.014	0.16
734.193	-0.02
734.371	-0.06
734.55	-0.07
734.729	-0.13
734.908	0.02
735.086	-0.05
735.265	0
735.444	-0.24
735.623	-0.04
735.801	-0.15
735.98	-0.06
736.159	0.04
736.337	0.04
736.516	0.03
736.694	0.03
736.873	-0.1
737.052	0.2
737.23	0.12
737.409	-0.11
737.587	0.15
737.766	-0.18
737.944	-0.03
738.123	-0
738.301	0.07
738.479	-0.06
738.658	0.09
738.836	-0.23
739.015	0.02
739.193	0.04
739.371	-0.13
739.55	-0.01
739.728	-0.21
739.906	0.17
740.085	0.23
740.263	-0.01
740.441	-0.17
740.62	0.12
740.798	0.06
740.976	-0.07
741.154	-0.08
741.332	0.16
741.511	-0.03
741.689	-0.06
741.867	0.1
742.045	0
742.223	-0.09
742.401	-0.1
742.579	-0.08
742.757	0.01
742.935	-0.12
743.114	-0.05
743.292	-0.09
743.47	0.03
743.648	-0.1
743.826	0.02
744.004	0.02
744.181	0.06
744.359	-0
744.537	-0.03
744.715	-0.04
744.893	-0.04
745.071	-0.09
745.249	0.02
745.427	-0.11
745.605	0.05
745.782	-0.07
745.96	-0
746.138	0.01
746.316	0.12
746.493	-0.05
746.671	-0.02
746.849	-0.09
747.027	0.05
747.204	-0.08
747.382	0.03
747.56	-0.15
747.737	0.02
747.915	-0.12
748.093	-0.02
748.27	-0.08
748.448	-0.07
748.625	-0.17
748.803	-0.14
748.98	-0.02
749.158	0.04
749.335	0.07
749.513	0.04
749.69	-0.03
749.868	-0.03
750.045	-0.03
750.223	0.03
750.4	-0.24
750.578	0.19
750.755	-0.04
750.932	-0.17
751.11	0.05
751.287	-0.14
751.464	0.1
751.642	-0.04
751.819	0.02
751.996	0.03
752.173	-0.08
752.351	-0.19
752.528	0.07
752.705	-0.07
752.882	-0.07
753.06	-0.02
753.237	-0
753.414	0.07
753.591	0.22
753.768	0.03
753.945	-0.05
754.122	-0.18
754.299	-0
754.476	-0.13
754.654	0.01
754.831	0.06
755.008	0.07
755.185	-0.12
755.362	-0.15
755.539	0.12
755.716	-0.1
755.892	0.02
756.069	-0.06
756.246	-0.01
756.423	-0.01
756.6	0.12
756.777	-0.05
756.954	0.01
757.131	-0.01
757.307	-0.16
757.484	-0.12
757.661	0.02
757.838	0.07
758.015	-0.27
758.191	0.02
758.368	-0.03
758.545	0.22
758.721	-0.02
758.898	-0.09
759.075	0.01
759.251	0.15
759.428	-0.01
759.605	-0.2
759.781	-0.04
759.958	0.07
760.134	-0.07
760.311	-0.1
760.488	0.15
760.664	0.13
760.841	0.01
761.017	-0.18
761.194	-0.02
761.37	0.17
761.547	-0.02
761.723	-0.03
761.899	0.17
762.076	-0.09
762.252	-0.09
762.429	-0.09
762.605	0.01
762.781	-0.16
762.958	0.04
763.134	-0.12
763.31	-0.11
763.486	0.17
763.663	-0.21
763.839	-0.07
764.015	-0.23
764.191	-0.04
764.368	-0.08
764.544	-0.01
764.72	0.1
764.896	0.07
765.072	-0.09
765.248	-0.01
765.425	-0.11
765.601	-0.04
765.777	-0
765.953	-0.25
766.129	-0.16
766.305	0.01
766.481	0.04
766.657	-0.02
766.833	0.14
767.009	-0.16
767.185	-0.06
767.361	-0.02
767.537	-0.24
767.713	0.09
767.889	-0.04
768.065	-0.04
768.24	0.02
768.416	0.1
768.592	-0.2
768.768	-0.02
768.944	0.03
769.12	-0.2
769.295	-0.21
769.471	-0.08
769.647	-0.17
769.823	0.12
769.998	-0.14
770.174	-0.15
770.35	0.31
770.525	0.27
770.701	0.02
770.877	-0.15
771.052	-0.07
771.228	0.01
771.403	-0.03
771.579	-0.03
771.755	0.25
771.93	-0.05
772.106	-0.11
772.281	-0.12
772.457	0.01
772.632	0.15
772.808	-0.16
772.983	-0.13
773.159	-0.33
773.334	0.1
773.509	-0.06
773.685	-0.2
773.86	0.33
774.036	0.17
774.211	0.01
774.386	-0.09
774.562	0.03
774.737	0.12
774.912	-0.1
775.087	0.08
775.263	-0.08
775.438	-0.07
775.613	-0.26
775.788	-0.07
775.964	0.19
776.139	0.46
776.314	-0.2
776.489	-0
776.664	-0.12
776.839	-0.14
777.014	0.04
777.19	0.09
777.365	0.24
777.54	0.25
777.715	-0.04
777.89	-0.24
778.065	-0.22
778.24	0.14
778.415	0.08
778.59	-0.24
778.765	-0.09
778.94	0.12
779.115	-0.09
779.289	-0.13
779.464	-0.1
779.639	0.05
779.814	-0.4
779.989	-0.37
780.164	0.17
780.339	0.04
780.513	-0.35
780.688	-0.26
780.863	-0.22
781.038	0.18
781.212	-0.11
781.387	-0.08
781.562	0.3
781.737	0.13
781.911	0.16
782.086	-0.17
782.261	0.02
782.435	0.23
782.61	-0.23
782.784	-0.16
782.959	0.21
783.134	-0.14
783.308	-0.25
783.483	-0.21
783.657	0.25
783.832	0.08
784.006	-0.5
784.181	0.05
784.355	0.04
784.53	-0.34
784.704	-0.27
784.878	0.21
785.053	0.07
785.227	0.17
785.402	0.37
785.576	-0.46
785.75	-0.19
785.925	-0.11
786.099	-0.07
786.273	0.07
786.448	0.08
786.622	0.05
786.796	-0.02
786.97	-0.13
787.145	0.54
787.319	-0.39
787.493	-0.19
787.667	-0.51
787.841	0.08
788.015	0.1
788.19	-0.19
788.364	0.03
788.538	0.29
788.712	0.07
788.886	-0.27
789.06	0.29
789.234	0.05
789.408	-0.33
789.582	-0.11
789.756	-0.11
789.93	-0.28
790.104	-0.07
790.278	-0.26
790.452	-0.2
790.626	-0.03
790.8	-0.16
790.973	0.25
791.147	0.12
791.321	0.07
791.495	0.22
791.669	-0.08
791.843	-0.06
792.016	-0.03
792.19	0.4
792.364	-0.23
792.538	0.46
792.711	0.34
792.885	-0.15
793.059	-0.31
793.233	-0.85
793.406	0.28
793.58	0.01
793.754	0.04
793.927	0.09
794.101	0.41
794.274	0.06
794.448	0.03
794.622	-0
794.795	0.2
794.969	-0.4
795.142	0.3
795.316	-0.14
795.489	-0.33
795.663	0.2
795.836	-0.06
796.009	-0.38
796.183	0.09
796.356	-0.07
796.53	0.04
796.703	0.02
796.876	0.58
797.05	-0.35
797.223	-0.11
797.396	0.03
797.57	-0.05
797.743	0.38
797.916	0.07
798.09	-0.1
798.263	0.23
798.436	0.05
798.609	-0.22
798.782	-0.25
798.956	-0.15
799.129	-0.15
799.302	-0.17
799.475	-0.16
799.648	-0.32
799.821	-0.17
799.994	-0.1
800.167	-0.5
800.34	-0.33
800.514	-0.19
800.687	0.02
800.86	0.04
801.033	0.02
801.206	0
801.379	-0.08
801.551	-0.07
801.724	0.02
801.897	0.38
802.07	-0.22
802.243	-0.45
802.416	-0.1
802.589	-0.25
802.762	-0.1
802.935	-0.23
803.107	0.33
803.28	0.31
803.453	0.17
803.626	-0.46
803.798	-0.33
803.971	-0.3
804.144	0.09
804.317	-0.05
804.489	0.06
804.662	-0.26
804.835	-0.06
805.007	-0.3
805.18	0.22
805.353	0.04
805.525	-0.12
805.698	-0.29
805.87	-0.04
806.043	0.22
806.215	-0.45
806.388	-0.28
806.56	0.2
806.733	0.4
806.905	0.01
807.078	-0.25
807.25	-0.26
807.423	0.12
807.595	-0.27
807.768	0.02
807.94	0.36
808.112	0.33
808.285	-0
808.457	-0.26
808.629	-0.1
808.802	0.34
808.974	-0.23
809.146	-0.48
809.318	-0.53
809.491	-0.13
809.663	-0.05
809.835	-0.37
810.007	0.31
810.18	-0.13
810.352	-0.41
810.524	-0.06
810.696	0.24
810.868	0.48
811.04	-0.19
811.212	0.01
811.384	0.37
811.556	0.26
811.728	0.03
811.901	0.99
812.073	0.17
812.245	0.31
812.417	-0.2
812.589	-0.98
812.76	0.12
812.932	0.01
813.104	0.13
813.276	-0.22
813.448	-0.05
813.62	-0.26
813.792	0.1
813.964	0
814.136	0.43
814.307	-0.3
814.479	-0.27
814.651	-0.05
814.823	0.68
814.995	-0.25
815.166	0.36
815.338	-0.56
815.51	-0.95
815.681	0.8
815.853	-0.01
816.025	0.04
816.196	0.22
816.368	0.1
816.54	-0.73
816.711	-1.1
816.883	0.39
817.054	0.92
817.226	-0.82
817.398	0.63
817.569	-0.29
817.741	0.03
817.912	-0.16
818.084	-0.48
818.255	0.56
818.426	-0.33
818.598	-0.18
818.769	-0.18
818.941	-0.02
819.112	0.65
819.283	-0.08
819.455	-0.69
819.626	-0.25
819.798	-0.08
819.969	-0.18
820.14	-0.13
820.311	0.1
820.483	-0.16
820.654	0.3
820.825	-0.19
820.996	-0.56
821.168	-0.53
821.339	-0.15
821.51	-0.63
821.681	0.09
821.852	-0.19
822.023	-0.47
822.195	-0.28
822.366	0.24
822.537	0.07
822.708	0.15
822.879	-0.63
823.05	0.78
823.221	-0.28
823.392	0.03
823.563	0.09
823.734	-0.26
823.905	-0.43
824.076	-0.43
824.247	-0.48
824.418	-0.03
824.589	0.51
824.759	-0.25
824.93	0.01
825.101	-0.54
825.272	0.62
825.443	0.58
825.614	1
825.784	-1.78
825.955	0.92
826.126	0.85
826.297	0.16
826.467	0.34
826.638	0.86
826.809	-1.02
826.98	-0.12
827.15	0.29
827.321	0.17
827.492	0.47
827.662	0.07
827.833	1.43
828.003	0.11
828.174	-0.54
828.345	-0.44
828.515	0.61
828.686	-0.03
828.856	-0.47
829.027	-0.25
829.197	-0.49
829.368	0.48
829.538	-0.1
829.709	-0.06
829.879	-0.25
830.049	0.25
830.22	-0.29
830.39	0.36
830.56	0.52
830.731	-0.49
830.901	-0.9
831.072	-0.08
831.242	-0.15
831.412	-0.01
831.582	-0.15
831.753	-1.01
831.923	0.44
832.093	-0.16
832.263	-0.19
832.434	-0.68
832.604	-0.47
832.774	0.57
832.944	-0.24
833.114	-0.23
833.284	0.29
833.454	-0.59
833.624	-0.42
833.795	-1.11
833.965	0.42
834.135	0.15
834.305	-0.75
834.475	-0.98
834.645	-0.23
834.815	-0.04
834.985	-0.77
835.155	-0.91
835.325	0.31
835.494	0.13
835.664	-0.29
835.834	-0.91
836.004	-0.07
836.174	0.14
836.344	0.06
836.514	-1.25
836.684	-0.27
836.853	-0.5
837.023	-0.12
837.193	-0.31
837.363	0.84
837.532	0.19
837.702	-0.91
837.872	-0.99
838.041	0
838.211	1.3
838.381	-1.06
838.55	-0.01
838.72	2.05
838.89	1.01
839.059	-0.57
839.229	-1
839.398	1.32
839.568	0.15
839.738	-0.46
839.907	1.26
840.077	-0.2
840.246	-0.75
840.416	-0.44
840.585	-0.14
840.755	1.32
840.924	1.29
841.093	-1.03
841.263	-0.53
841.432	0.42
841.602	-0.83
841.771	-1.31
841.94	-0.16
842.11	2.03
842.279	1.13
842.448	-1.68
842.617	-1.5
842.787	0.99
842.956	-1.02
843.125	-0.12
843.294	-0.68
843.464	1.53
843.633	-0.67
843.802	-0.4
843.971	-0.85
844.14	0.2
844.309	1.02
844.479	-0.56
844.648	-0.33
844.817	-0.75
844.986	0.36
845.155	-0.47
845.324	0.04
845.493	-0.02
845.662	-1.25
845.831	0.54
846	-0.35
846.169	0.03
846.338	1.25
846.507	0.52
846.676	0.28
846.844	-0.93
847.013	-0.7
847.182	-0.36
847.351	-0.33
847.52	0.78
847.689	-0.19
847.858	-0.76
848.026	-0.35
848.195	0.19
848.364	-0.97
848.533	-0.51
848.701	-0.84
848.87	0.13
849.039	0.98
849.207	0.97
849.376	0.68
849.545	0.63
849.713	-1.74
849.882	-0.9
850.051	-0.68
850.219	-0.05
850.388	0.33
850.556	-0.22
850.725	-1.53
850.893	-0.13
851.062	-0.86
851.23	0.69
851.399	-1.49
851.567	-0.19
851.736	-1.39
851.904	-1.13
852.073	0.15
852.241	0.24
852.41	-0.47
852.578	-0.02
852.746	-0.29
852.915	0.86
853.083	-0.35
853.251	-0.78
853.42	-0.4
853.588	0.28
853.756	0.4
853.924	0.29
854.093	-0.11
854.261	-1.48
854.429	-1.3
854.597	-0.46
854.765	-1.16
854.934	0.22
855.102	0.9
855.27	0.1
855.438	0.8
855.606	0.65
855.774	2.11
855.942	-1.26
856.11	-2.24
856.278	-1.24
856.446	2.1
856.614	-1.46
856.782	-2.09
856.95	-0.1
857.118	-0.21
857.286	-0.28
857.454	-1.61
857.622	1.28
857.79	0.5
857.958	-1.11
858.126	-0.93
858.294	-3.33
858.462	0.14
858.629	-0.78
858.797	-0.86
858.965	0.54
859.133	-0.6
859.301	-0.97
859.468	-0.42
859.636	-0.65
859.804	1.43
859.971	0.45
860.139	-1.68
860.307	0.2
860.474	1.02
860.642	-1.32
860.81	-2.02
860.977	0.46
861.145	-0.27
861.313	-0.89
861.48	0.19
861.648	0.64
861.815	-0.49
861.983	-2.28
862.15	-1.63
862.318	-0.38
862.485	0.1
862.653	-0.44
862.82	-0.33
862.988	2.34
863.155	1.14
863.322	-2.03
863.49	-1.65
863.657	-0.49
863.824	0.85
863.992	-0.69
864.159	0.64
864.326	1.61
864.494	-1.05
864.661	1.66
864.828	-2.14
864.996	1.6
865.163	1.81
865.33	-1.57
865.497	-2.59
865.664	-1.56
865.832	-2.18
865.999	-1.33
866.166	-1.83
866.333	-0.42
866.5	-1.03
866.667	0.09
866.834	-1.9
867.001	0.69
867.168	-2.11
867.335	-0.84
867.502	-2.15
867.669	-0.35
867.836	3.05
868.003	-0.77
868.17	-0.33
868.337	-1.11
868.504	1.9
868.671	-2.45
868.838	-1.01
869.005	-1
869.172	0.86
869.339	-0.92
869.505	0.03
869.672	-0.35
869.839	0.84
870.006	0.8
870.173	-1.17
870.339	0.03
870.506	3.02
870.673	-1.09
870.84	1.93
871.006	-0.19
871.173	-0.49
871.34	-0.09
871.506	-2.2
871.673	1.12
871.839	-2.48
872.006	0.07
872.173	-0.06
872.339	0.07
872.506	1.23
872.672	-1.25
872.839	-0.85
873.005	0.38
873.172	-0.32
873.338	1.22
873.505	0
873.671	-0.45
873.838	1.49
874.004	-2.43
874.171	0.04
874.337	1.7
874.503	0.17
874.67	-1.5
874.836	-1.65
875.002	1.04
875.169	0.64
875.335	0.52
875.501	-0.35
875.668	1.08
875.834	0.73
876	-0.67
876.166	0.18
876.332	0.67
876.499	2.87
876.665	-1.03
876.831	0.18
876.997	2.64
877.163	1.42
877.329	-1.68
877.495	0.35
877.662	1.27
877.828	0.13
877.994	0.13
878.16	-2.94
878.326	-0.87
878.492	-0.31
878.658	-1.92
878.824	-0.04
878.99	0.71
879.156	-0.41
879.322	2.84
879.487	-0.8
879.653	0.52
879.819	0.54
879.985	-1.78
880.151	0.32
880.317	2.19
880.483	0.43
880.648	1.44
880.814	-5.19
880.98	-0.64
881.146	-3.55
881.312	-0.52
881.477	-0.84
881.643	-0.45
881.809	0.6
881.974	2.71
882.14	-1.8
882.306	0.74
882.471	4.69
882.637	-2.23
882.803	-0.34
882.968	2.88
883.134	3.46
883.299	-1.38
883.465	-0.88
883.63	1.03
883.796	1.59
883.961	0.64
884.127	-0.28
884.292	-4.49
884.458	-3.71
884.623	-3.7
