Data from Apollo_Calib_20240827__AbsoluteIrradiance__190__02-19-01-433.txt Node

Date: Wed Aug 28 02:19:01 BST 2024
User: biology
Spectrometer: FLMT08252
Trigger mode: 0
Integration Time (sec): 5.000000E-1
Scans to average: 5
Electric dark correction enabled: true
Nonlinearity correction enabled: false
Boxcar width: 0
XAxis mode: Wavelengths
Number of Pixels in Spectrum: 3648
>>>>>Begin Spectral Data<<<<<
179.588	-0
179.809	-0
180.03	-0
180.251	-0
180.473	-0
180.694	0
180.915	0
181.136	-0
181.357	0
181.578	0
181.799	-0
182.02	-0
182.241	-0
182.462	-0
182.683	0
182.904	-0
183.125	0
183.346	0
183.567	0
183.788	-0
184.009	-0
184.23	0
184.451	0
184.672	0
184.892	-0
185.113	0
185.334	0
185.555	-0
185.776	-0
185.996	0
186.217	0
186.438	0
186.659	-0
186.879	0
187.1	0
187.321	0
187.541	0
187.762	-0
187.983	0
188.203	0
188.424	0
188.644	0
188.865	0
189.086	-0
189.306	0
189.527	0
189.747	0
189.968	-0
190.188	0
190.409	0
190.629	0
190.849	0
191.07	-0
191.29	0
191.511	0
191.731	-0
191.951	-0
192.172	0
192.392	0
192.612	0
192.833	0
193.053	0
193.273	0
193.493	0
193.714	0
193.934	0
194.154	0
194.374	0
194.594	0
194.815	0
195.035	0
195.255	0
195.475	-0
195.695	0
195.915	0
196.135	0
196.355	0
196.575	0
196.795	0
197.015	-0
197.235	-0
197.455	0
197.675	0
197.895	-0
198.115	-0
198.335	0
198.555	0
198.775	0
198.995	0
199.214	0
199.434	0
199.654	-0
199.874	0
200.094	1.06
200.313	-0.22
200.533	0.66
200.753	-0.46
200.973	1.43
201.192	0.59
201.412	-0.97
201.632	0.02
201.851	1.68
202.071	-0.06
202.291	0
202.51	-0.14
202.73	0.93
202.95	0.5
203.169	-0.49
203.389	0.36
203.608	0.48
203.828	0.52
204.047	0.18
204.267	0.44
204.486	0.64
204.706	0.66
204.925	0.41
205.145	-0.52
205.364	0.78
205.583	1.05
205.803	0.1
206.022	-0.04
206.242	0.46
206.461	0.69
206.68	-0.18
206.9	0.31
207.119	0.5
207.338	0.76
207.557	0.07
207.777	0.07
207.996	0.05
208.215	0.64
208.434	-0.1
208.654	-0.14
208.873	0.43
209.092	0.73
209.311	-0.14
209.53	-0.05
209.749	-0.04
209.968	0.16
210.187	-0.08
210.407	-0.43
210.626	0
210.845	0.37
211.064	0.25
211.283	-0.11
211.502	0.53
211.721	0.37
211.94	0.1
212.159	0.39
212.377	0.56
212.596	0.53
212.815	0.3
213.034	0.18
213.253	0.21
213.472	0.41
213.691	-0.04
213.91	-0.12
214.128	0.07
214.347	0.49
214.566	-0.24
214.785	-0.16
215.003	0.44
215.222	0.27
215.441	0.14
215.66	-0.06
215.878	0.15
216.097	0.3
216.316	-0.28
216.534	0.11
216.753	0.39
216.972	-0.01
217.19	0.2
217.409	0.04
217.627	0.05
217.846	0.02
218.064	0.15
218.283	-0.11
218.501	0.62
218.72	0.43
218.938	-0.1
219.157	-0.01
219.375	0.33
219.594	0.34
219.812	0.06
220.031	-0.07
220.249	0.47
220.467	0.42
220.686	0.04
220.904	-0.12
221.122	0
221.341	0.43
221.559	0.14
221.777	-0.03
221.995	0.16
222.214	0.37
222.432	0.11
222.65	0.25
222.868	0.06
223.086	0.16
223.305	0.19
223.523	0.15
223.741	0.25
223.959	-0.04
224.177	-0.15
224.395	0.03
224.613	0.21
224.831	0.14
225.049	-0.06
225.267	0.09
225.485	0.11
225.703	-0.02
225.921	-0.03
226.139	-0.06
226.357	0.19
226.575	0.06
226.793	0
227.011	0.66
227.229	0.09
227.447	0.28
227.665	-0.04
227.883	-0.19
228.1	0.19
228.318	0.27
228.536	-0.12
228.754	-0.04
228.972	0.18
229.189	0.27
229.407	0
229.625	0.06
229.843	0.2
230.06	0.19
230.278	0.05
230.496	0.08
230.713	0.09
230.931	0.29
231.149	-0.02
231.366	-0.12
231.584	0.15
231.801	0.51
232.019	-0.06
232.236	0.01
232.454	-0.04
232.671	0.18
232.889	0.08
233.106	-0.04
233.324	0.08
233.541	0.1
233.759	0.14
233.976	0
234.194	0.1
234.411	0.03
234.628	-0.07
234.846	0.07
235.063	0.12
235.28	0.11
235.498	0.02
235.715	-0.03
235.932	0.32
236.149	0.07
236.367	-0.06
236.584	0.1
236.801	-0.03
237.018	0.18
237.236	0.07
237.453	-0.05
237.67	0.22
237.887	0.1
238.104	0.02
238.321	-0.01
238.538	0.01
238.755	0.21
238.973	-0.02
239.19	0.06
239.407	0.11
239.624	0.15
239.841	-0.11
240.058	-0.01
240.275	0.12
240.492	0.09
240.709	0.07
240.925	0.03
241.142	0.17
241.359	-0.08
241.576	-0.06
241.793	0.03
242.01	0.05
242.227	0.2
242.444	0.11
242.66	0.09
242.877	0.07
243.094	-0.06
243.311	0.08
243.527	0.09
243.744	0.13
243.961	0.15
244.178	-0.01
244.394	0.03
244.611	0.23
244.828	0.2
245.044	-0.08
245.261	-0.01
245.477	0.08
245.694	0.22
245.911	0.06
246.127	0.13
246.344	0.21
246.56	0.16
246.777	0.06
246.993	0.03
247.21	0.1
247.426	0.17
247.643	0.01
247.859	-0.01
248.076	0
248.292	0.27
248.508	0.07
248.725	0.12
248.941	0.15
249.157	0.16
249.374	0
249.59	0.02
249.806	0.1
250.023	0.2
250.239	-0.02
250.455	-0.07
250.671	0.09
250.888	0.12
251.104	0.15
251.32	0.01
251.536	0.02
251.752	-0.02
251.969	0.07
252.185	0.15
252.401	0.36
252.617	0.08
252.833	0.07
253.049	0.03
253.265	0.15
253.481	0.1
253.697	-0
253.913	-0.01
254.129	0.1
254.345	0.04
254.561	0.01
254.777	0.02
254.993	0.11
255.209	0.06
255.425	0.01
255.641	0
255.857	0.11
256.073	0.09
256.288	-0.05
256.504	-0.04
256.72	0.08
256.936	0.12
257.152	0.06
257.367	-0.03
257.583	0.14
257.799	0.08
258.015	-0.05
258.23	0.06
258.446	0.2
258.662	0.12
258.877	0.01
259.093	-0.02
259.309	0.05
259.524	0.11
259.74	0
259.955	0
260.171	0.08
260.387	0.06
260.602	0.12
260.818	0.12
261.033	0
261.249	0.05
261.464	0.03
261.68	-0.08
261.895	0.06
262.11	0.08
262.326	-0.07
262.541	-0.02
262.757	0.04
262.972	0.09
263.187	0.11
263.403	0.03
263.618	0.09
263.833	0.05
264.049	0.03
264.264	0.04
264.479	0.1
264.694	0.13
264.91	-0.05
265.125	0.03
265.34	0.13
265.555	0.25
265.77	0.01
265.986	0.04
266.201	0.08
266.416	0.15
266.631	-0
266.846	0.05
267.061	0.08
267.276	0.13
267.491	-0.05
267.706	0.06
267.921	0.11
268.136	0.08
268.351	0.07
268.566	-0.05
268.781	0.14
268.996	0.12
269.211	-0.01
269.426	0.01
269.641	0.03
269.856	0.14
270.071	-0.05
270.285	-0.04
270.5	0.17
270.715	0.16
270.93	0.05
271.145	0.06
271.359	0.14
271.574	0.03
271.789	0.08
272.004	-0.03
272.218	0.09
272.433	0.06
272.648	0
272.862	0.11
273.077	0.07
273.292	0.04
273.506	0.01
273.721	0.02
273.936	0.1
274.15	0.13
274.365	-0.01
274.579	0.09
274.794	0.05
275.008	0.11
275.223	-0.02
275.437	0.09
275.652	0.11
275.866	0.09
276.081	0.03
276.295	0.13
276.509	0.08
276.724	0.05
276.938	0.08
277.153	0.04
277.367	0.11
277.581	-0.02
277.796	0.05
278.01	0.04
278.224	0.13
278.438	0.16
278.653	-0.06
278.867	0.01
279.081	-0.08
279.295	0
279.51	0.08
279.724	-0
279.938	0.07
280.152	0.1
280.366	-0.01
280.58	0.09
280.794	0.14
281.008	0.1
281.222	0.09
281.437	0.17
281.651	0.09
281.865	0.17
282.079	0.07
282.293	-0.09
282.507	0.03
282.721	0.05
282.935	0.03
283.148	-0.05
283.362	0.06
283.576	-0.02
283.79	-0.01
284.004	-0
284.218	0.14
284.432	0.07
284.646	0.07
284.859	0.05
285.073	0.02
285.287	0.09
285.501	0.09
285.714	-0
285.928	0.06
286.142	0.08
286.356	0
286.569	0.03
286.783	0.12
286.997	0.04
287.21	0.1
287.424	0.09
287.637	0.02
287.851	0.03
288.065	0.12
288.278	0.07
288.492	0.05
288.705	0.04
288.919	0.09
289.132	-0.05
289.346	0.09
289.559	-0.05
289.773	-0.03
289.986	0.07
290.2	0.11
290.413	0.06
290.626	0
290.84	0.01
291.053	0.06
291.267	0.13
291.48	0.03
291.693	0.09
291.906	-0
292.12	0.05
292.333	0
292.546	0.01
292.76	0.16
292.973	0.07
293.186	0.07
293.399	0.03
293.612	0.08
293.826	0.06
294.039	0.07
294.252	0
294.465	0.12
294.678	0.04
294.891	0.04
295.104	0.02
295.317	0.04
295.53	0.01
295.743	0.05
295.956	0.07
296.169	0.09
296.382	0.12
296.595	0.02
296.808	-0.01
297.021	0.1
297.234	0.09
297.447	0.05
297.66	0.09
297.873	0.06
298.086	0.07
298.299	-0.01
298.511	0.01
298.724	0.07
298.937	-0
299.15	-0
299.363	0.05
299.575	0.07
299.788	0.11
300.001	0.06
300.213	0.01
300.426	0.05
300.639	0.06
300.852	-0
301.064	0.09
301.277	0.11
301.489	0.12
301.702	0.06
301.915	0.05
302.127	0.06
302.34	0.06
302.552	0.1
302.765	0.03
302.977	0.14
303.19	0.01
303.402	0.02
303.615	0.01
303.827	0.01
304.04	0.06
304.252	0.05
304.464	0.03
304.677	0.15
304.889	0.05
305.102	0.05
305.314	0.04
305.526	0.1
305.739	0.07
305.951	0
306.163	0.04
306.375	0.11
306.588	0.03
306.8	0
307.012	-0.02
307.224	0.03
307.436	0.15
307.649	-0.01
307.861	0.08
308.073	0.05
308.285	0.02
308.497	0.04
308.709	0.03
308.921	0.05
309.133	0.1
309.346	0.05
309.558	0.03
309.77	0.07
309.982	0.14
310.194	0.13
310.406	0
310.617	0.16
310.829	0.04
311.041	0.07
311.253	0.02
311.465	0.01
311.677	0.03
311.889	0.03
312.101	0.04
312.313	0.07
312.524	0.12
312.736	-0.02
312.948	0.04
313.16	0.17
313.372	0.08
313.583	0.11
313.795	0.05
314.007	0.02
314.218	0.12
314.43	0.07
314.642	0.06
314.853	-0.01
315.065	0.07
315.277	0.07
315.488	0.04
315.7	0.1
315.912	0.07
316.123	0.02
316.335	0.03
316.546	0.21
316.758	0.07
316.969	0.04
317.181	0.03
317.392	0.06
317.604	0.11
317.815	0.01
318.026	0
318.238	0.03
318.449	0.09
318.661	-0.04
318.872	0
319.083	0
319.295	0.08
319.506	0.06
319.717	0.07
319.929	0.11
320.14	0.03
320.351	0.05
320.562	0.02
320.774	0.03
320.985	0.07
321.196	-0.03
321.407	-0.03
321.618	0.09
321.829	0.08
322.041	0.02
322.252	0.05
322.463	0.05
322.674	0.08
322.885	0.02
323.096	0.02
323.307	0.06
323.518	0.06
323.729	0.04
323.94	0.03
324.151	0.04
324.362	0.09
324.573	0.09
324.784	0.01
324.995	0.08
325.206	0.07
325.417	0.02
325.628	-0.02
325.838	0.07
326.049	0.07
326.26	0.07
326.471	0.08
326.682	0.09
326.892	0.09
327.103	-0.02
327.314	-0.01
327.525	0.13
327.735	0.08
327.946	-0.01
328.157	0.02
328.368	0.12
328.578	0.05
328.789	0.09
328.999	0.07
329.21	0.03
329.421	0.09
329.631	0.04
329.842	0.02
330.052	0.09
330.263	0.09
330.473	0.08
330.684	0.04
330.894	0.06
331.105	0.06
331.315	0.06
331.526	0.02
331.736	0.14
331.947	0.07
332.157	0.06
332.367	0.02
332.578	0.12
332.788	0.12
332.999	0.09
333.209	0.05
333.419	0.02
333.629	0.06
333.84	0.08
334.05	0.07
334.26	0.12
334.47	0.07
334.681	0.12
334.891	0.03
335.101	0.09
335.311	0.18
335.521	0.04
335.732	0.02
335.942	0.12
336.152	0.11
336.362	0.08
336.572	0.06
336.782	0.13
336.992	0.03
337.202	0.05
337.412	0
337.622	0.08
337.832	0.04
338.042	0.06
338.252	0.04
338.462	0.04
338.672	0.06
338.882	0.05
339.092	0.03
339.302	0.13
339.511	0.08
339.721	0.05
339.931	0.05
340.141	0.07
340.351	0.11
340.561	0.09
340.77	0.09
340.98	0.05
341.19	0.07
341.4	0.03
341.609	0.02
341.819	0.03
342.029	0.01
342.238	0.05
342.448	0.03
342.658	0.07
342.867	0.12
343.077	0.06
343.286	0.06
343.496	0.11
343.706	0.11
343.915	0.02
344.125	0.05
344.334	0.05
344.544	0.02
344.753	0.03
344.963	0.04
345.172	0.05
345.381	0.01
345.591	-0
345.8	0.06
346.01	0.07
346.219	0.13
346.428	0.04
346.638	0.03
346.847	0.05
347.056	0.15
347.266	0.02
347.475	0.07
347.684	0.06
347.893	0.06
348.103	0.07
348.312	0.05
348.521	0.04
348.73	0.07
348.94	0.08
349.149	0.02
349.358	0.02
349.567	0.04
349.776	0.04
349.985	0.06
350.194	0.07
350.403	0.12
350.612	0
350.821	0.08
351.03	0.09
351.239	-0.02
351.448	0.06
351.657	0.06
351.866	0.14
352.075	0.06
352.284	0.04
352.493	0.04
352.702	0.12
352.911	0.12
353.12	0.07
353.329	0.05
353.538	0.08
353.746	0.07
353.955	0.03
354.164	0.06
354.373	0.07
354.582	0.08
354.79	0.08
354.999	0.1
355.208	0.08
355.416	0.13
355.625	0.02
355.834	0.07
356.042	0.08
356.251	0.06
356.46	-0
356.668	0.09
356.877	0.14
357.085	0.09
357.294	0
357.503	0.1
357.711	0.06
357.92	0.16
358.128	0.05
358.337	0.05
358.545	0.1
358.754	0.05
358.962	0.06
359.17	0.05
359.379	0.09
359.587	0.13
359.796	0.03
360.004	0.1
360.212	0.09
360.421	0.12
360.629	0.07
360.837	0.06
361.046	0.14
361.254	0.13
361.462	0.07
361.67	0.04
361.879	0.09
362.087	0.13
362.295	0.1
362.503	0.05
362.711	0.01
362.92	0.05
363.128	0.03
363.336	0.04
363.544	0.01
363.752	0.06
363.96	0.02
364.168	0.04
364.376	0.06
364.584	0.11
364.792	0.1
365	0.09
365.208	0.07
365.416	0.12
365.624	0.11
365.832	0.03
366.04	0.13
366.248	0.09
366.456	0.08
366.664	0.07
366.872	0.09
367.079	0.04
367.287	0.06
367.495	0.06
367.703	0.1
367.911	0.08
368.118	0.05
368.326	0.06
368.534	0.03
368.742	0.11
368.949	0.05
369.157	0.04
369.365	0.11
369.572	0.06
369.78	0.06
369.988	0.11
370.195	0.11
370.403	0.08
370.61	0.06
370.818	0.06
371.026	0.16
371.233	0.08
371.441	0.11
371.648	0.02
371.856	0.1
372.063	0.12
372.271	0.09
372.478	0.07
372.685	0.09
372.893	0.1
373.1	0.08
373.308	0.04
373.515	0.14
373.722	0.12
373.93	0.08
374.137	0.13
374.344	0.16
374.552	0.1
374.759	0.15
374.966	0.09
375.173	0.06
375.381	0.13
375.588	0.07
375.795	0.06
376.002	0.07
376.209	0.06
376.417	0.1
376.624	0.08
376.831	0.14
377.038	0.1
377.245	0.04
377.452	0.06
377.659	0.07
377.866	0.1
378.073	0.09
378.28	0.09
378.487	0.18
378.694	0.15
378.901	0.11
379.108	0.11
379.315	0.18
379.522	0.23
379.729	0.15
379.936	0.11
380.143	0.13
380.35	0.1
380.557	0.13
380.763	0.12
380.97	0.13
381.177	0.13
381.384	0.12
381.591	0.11
381.797	0.13
382.004	0.16
382.211	0.16
382.418	0.16
382.624	0.21
382.831	0.18
383.038	0.13
383.244	0.17
383.451	0.14
383.658	0.16
383.864	0.16
384.071	0.14
384.277	0.27
384.484	0.16
384.69	0.24
384.897	0.17
385.103	0.19
385.31	0.19
385.516	0.22
385.723	0.19
385.929	0.24
386.136	0.18
386.342	0.27
386.549	0.26
386.755	0.3
386.961	0.31
387.168	0.3
387.374	0.33
387.58	0.37
387.787	0.35
387.993	0.36
388.199	0.34
388.406	0.31
388.612	0.42
388.818	0.4
389.024	0.38
389.231	0.48
389.437	0.49
389.643	0.51
389.849	0.52
390.055	0.53
390.261	0.59
390.467	0.61
390.674	0.54
390.88	0.58
391.086	0.68
391.292	0.69
391.498	0.79
391.704	0.84
391.91	0.79
392.116	0.79
392.322	0.78
392.528	0.95
392.734	0.94
392.94	1.01
393.146	1.09
393.352	1.17
393.557	1.17
393.763	1.21
393.969	1.34
394.175	1.35
394.381	1.4
394.587	1.42
394.792	1.55
394.998	1.76
395.204	1.78
395.41	1.72
395.615	1.89
395.821	2.02
396.027	2.14
396.233	2.24
396.438	2.37
396.644	2.61
396.85	2.66
397.055	2.79
397.261	2.86
397.466	3.14
397.672	3.15
397.878	3.33
398.083	3.39
398.289	3.5
398.494	3.65
398.7	3.85
398.905	3.88
399.111	4.2
399.316	4.22
399.522	4.43
399.727	4.65
399.932	4.82
400.138	4.87
400.343	5.3
400.549	5.26
400.754	5.64
400.959	5.87
401.165	6.18
401.37	6.37
401.575	6.94
401.78	6.95
401.986	7.18
402.191	7.45
402.396	7.79
402.601	8.13
402.807	8.41
403.012	8.63
403.217	9.31
403.422	9.35
403.627	9.64
403.832	10.05
404.037	10.37
404.243	10.39
404.448	10.77
404.653	11.2
404.858	11.36
405.063	11.15
405.268	11.66
405.473	12
405.678	12.1
405.883	12.63
406.088	12.89
406.293	12.61
406.498	13.13
406.703	12.92
406.907	13.34
407.112	13.87
407.317	14.08
407.522	14.31
407.727	14.54
407.932	14.43
408.136	14.74
408.341	14.5
408.546	14.54
408.751	14.52
408.956	14.32
409.16	14.59
409.365	14.5
409.57	14.1
409.774	14.04
409.979	13.95
410.184	13.76
410.388	13.47
410.593	13.63
410.798	13.49
411.002	13.44
411.207	13.17
411.411	12.91
411.616	12.5
411.82	12.4
412.025	12.05
412.229	11.82
412.434	11.53
412.638	11.28
412.843	11.05
413.047	10.62
413.252	10.27
413.456	10.4
413.66	9.97
413.865	9.69
414.069	9.26
414.273	9.17
414.478	8.82
414.682	8.74
414.886	8.46
415.091	8.12
415.295	7.97
415.499	7.77
415.703	7.32
415.908	7.32
416.112	7.03
416.316	7.03
416.52	6.77
416.724	6.55
416.929	6.35
417.133	6.6
417.337	6.15
417.541	6.07
417.745	5.91
417.949	5.71
418.153	5.68
418.357	5.56
418.561	5.57
418.765	5.28
418.969	5.28
419.173	5.26
419.377	4.97
419.581	5.09
419.785	4.93
419.989	4.75
420.193	4.7
420.397	4.59
420.601	4.55
420.804	4.49
421.008	4.19
421.212	4.25
421.416	3.99
421.62	3.88
421.823	3.74
422.027	3.71
422.231	3.48
422.435	3.34
422.638	3.26
422.842	3.2
423.046	3.09
423.249	3.1
423.453	2.93
423.657	2.89
423.86	2.75
424.064	2.77
424.268	2.77
424.471	2.54
424.675	2.6
424.878	2.53
425.082	2.42
425.285	2.51
425.489	2.27
425.692	2.21
425.896	2.1
426.099	2.1
426.303	2.04
426.506	1.95
426.71	1.98
426.913	1.94
427.116	1.94
427.32	1.81
427.523	1.76
427.726	1.85
427.93	1.66
428.133	1.73
428.336	1.68
428.54	1.67
428.743	1.68
428.946	1.7
429.149	1.56
429.353	1.57
429.556	1.47
429.759	1.45
429.962	1.3
430.165	1.41
430.368	1.26
430.571	1.18
430.775	1.29
430.978	1.18
431.181	1.18
431.384	1.15
431.587	1.07
431.79	1.11
431.993	1.12
432.196	1.06
432.399	1.09
432.602	1.18
432.805	1.03
433.008	1.06
433.211	1
433.414	1.12
433.616	1.05
433.819	1.01
434.022	0.82
434.225	1.02
434.428	1
434.631	1.04
434.833	0.88
435.036	0.9
435.239	0.99
435.442	0.87
435.645	0.81
435.847	0.92
436.05	0.9
436.253	0.85
436.455	0.76
436.658	0.77
436.861	0.86
437.063	0.74
437.266	0.66
437.468	0.78
437.671	0.85
437.874	0.75
438.076	0.64
438.279	0.66
438.481	0.72
438.684	0.62
438.886	0.74
439.089	0.6
439.291	0.66
439.494	0.63
439.696	0.58
439.899	0.64
440.101	0.68
440.303	0.6
440.506	0.63
440.708	0.56
440.91	0.64
441.113	0.51
441.315	0.62
441.517	0.51
441.72	0.61
441.922	0.49
442.124	0.46
442.326	0.52
442.529	0.56
442.731	0.5
442.933	0.6
443.135	0.49
443.337	0.48
443.539	0.46
443.742	0.45
443.944	0.51
444.146	0.41
444.348	0.43
444.55	0.39
444.752	0.44
444.954	0.37
445.156	0.36
445.358	0.36
445.56	0.46
445.762	0.4
445.964	0.38
446.166	0.35
446.368	0.36
446.57	0.42
446.772	0.33
446.974	0.33
447.175	0.37
447.377	0.29
447.579	0.34
447.781	0.23
447.983	0.37
448.184	0.33
448.386	0.37
448.588	0.26
448.79	0.35
448.991	0.27
449.193	0.24
449.395	0.33
449.597	0.34
449.798	0.31
450	0.31
450.202	0.31
450.403	0.27
450.605	0.29
450.806	0.28
451.008	0.22
451.21	0.28
451.411	0.32
451.613	0.26
451.814	0.29
452.016	0.32
452.217	0.25
452.419	0.32
452.62	0.23
452.821	0.29
453.023	0.31
453.224	0.29
453.426	0.25
453.627	0.25
453.828	0.24
454.03	0.23
454.231	0.3
454.432	0.21
454.634	0.34
454.835	0.24
455.036	0.16
455.238	0.29
455.439	0.36
455.64	0.19
455.841	0.2
456.042	0.34
456.244	0.27
456.445	0.2
456.646	0.15
456.847	0.24
457.048	0.28
457.249	0.32
457.45	0.5
457.651	0.22
457.852	0.29
458.054	0.24
458.255	0.18
458.456	0.31
458.657	0.23
458.858	0.19
459.058	0.21
459.259	0.26
459.46	0.21
459.661	0.21
459.862	0.39
460.063	0.19
460.264	0.27
460.465	0.17
460.666	0.34
460.866	0.22
461.067	0.19
461.268	0.24
461.469	0.19
461.67	0.24
461.87	0.19
462.071	0.21
462.272	0.16
462.473	0.2
462.673	0.26
462.874	0.18
463.075	0.29
463.275	0.17
463.476	0.26
463.676	0.23
463.877	0.25
464.078	0.25
464.278	0.32
464.479	0.23
464.679	0.25
464.88	0.23
465.08	0.32
465.281	0.2
465.481	0.21
465.682	0.2
465.882	0.24
466.083	0.23
466.283	0.19
466.483	0.23
466.684	0.14
466.884	0.17
467.085	0.19
467.285	0.23
467.485	0.17
467.686	0.18
467.886	0.16
468.086	0.21
468.286	0.18
468.487	0.22
468.687	0.13
468.887	0.17
469.087	0.24
469.287	0.22
469.488	0.14
469.688	0.24
469.888	0.2
470.088	0.23
470.288	0.19
470.488	0.22
470.688	0.14
470.888	0.16
471.088	0.12
471.288	0.23
471.488	0.2
471.688	0.24
471.888	0.13
472.088	0.27
472.288	0.18
472.488	0.17
472.688	0.15
472.888	0.21
473.088	0.17
473.288	0.19
473.488	0.14
473.688	0.27
473.887	0.18
474.087	0.16
474.287	0.18
474.487	0.13
474.687	0.16
474.886	0.18
475.086	0.19
475.286	0.17
475.486	0.18
475.685	0.14
475.885	0.13
476.085	0.19
476.284	0.16
476.484	0.15
476.684	0.2
476.883	0.18
477.083	0.15
477.282	0.11
477.482	0.15
477.681	0.22
477.881	0.12
478.08	0.09
478.28	0.11
478.479	0.16
478.679	0.23
478.878	0.13
479.078	0.14
479.277	0.12
479.477	0.15
479.676	0.18
479.875	0.13
480.075	0.08
480.274	0.16
480.473	0.18
480.673	0.1
480.872	0.14
481.071	0.09
481.271	0.11
481.47	0.08
481.669	0.12
481.868	0.11
482.067	0.08
482.267	0.09
482.466	0.1
482.665	0.08
482.864	0.05
483.063	0.04
483.262	0.12
483.461	0.15
483.661	0.13
483.86	0.09
484.059	0.09
484.258	0.11
484.457	0.1
484.656	0.09
484.855	0.13
485.054	0.04
485.253	0.09
485.452	0.07
485.651	0.11
485.849	0.1
486.048	0.07
486.247	0.06
486.446	0.09
486.645	0.03
486.844	0.06
487.043	0.08
487.241	0.09
487.44	0.07
487.639	0.06
487.838	0.12
488.037	0.09
488.235	0.12
488.434	0.09
488.633	0.06
488.831	0.11
489.03	0.14
489.229	0.08
489.427	0.09
489.626	0.13
489.825	0.11
490.023	0.07
490.222	0.06
490.42	0.1
490.619	0.13
490.817	0.09
491.016	0.07
491.214	0.1
491.413	0.07
491.611	0.07
491.81	0.08
492.008	0.08
492.207	0.11
492.405	0.07
492.604	0.03
492.802	0.06
493	0.08
493.199	0.08
493.397	0.09
493.595	0.07
493.794	0.08
493.992	0.13
494.19	0.1
494.388	0.08
494.587	0.08
494.785	0.08
494.983	0.06
495.181	0.1
495.379	0.08
495.578	0.07
495.776	0.09
495.974	0.08
496.172	0.06
496.37	0.05
496.568	0.04
496.766	0.03
496.964	0.09
497.162	0.07
497.36	0.04
497.558	0.08
497.756	0.09
497.954	0.07
498.152	0.05
498.35	0.06
498.548	0.07
498.746	0.09
498.944	0.04
499.142	0.05
499.34	0.02
499.538	0.06
499.736	0.02
499.933	0.09
500.131	0.07
500.329	0.1
500.527	0.09
500.725	0.09
500.922	0.08
501.12	0.08
501.318	0.08
501.516	0.05
501.713	0.06
501.911	0.05
502.109	0.03
502.306	0.08
502.504	0.06
502.701	0.07
502.899	0.05
503.097	0.12
503.294	0.06
503.492	0.06
503.689	0.06
503.887	0.1
504.084	0.11
504.282	0.06
504.479	0.02
504.677	0.05
504.874	0.04
505.072	0.07
505.269	0.06
505.466	0.08
505.664	0.09
505.861	0.04
506.059	0.05
506.256	0.09
506.453	0.06
506.651	0.11
506.848	0.07
507.045	0.09
507.242	0.06
507.44	0.06
507.637	0.05
507.834	0.06
508.031	0.09
508.229	0.02
508.426	0.07
508.623	0.06
508.82	0.05
509.017	0.05
509.214	0.05
509.411	0.07
509.608	0.04
509.805	0.05
510.003	0.02
510.2	0.04
510.397	0.08
510.594	0.01
510.791	0.04
510.988	0.06
511.184	0.06
511.381	0.03
511.578	0.02
511.775	0.09
511.972	0.03
512.169	0.03
512.366	0.04
512.563	0.07
512.76	0.04
512.956	0.05
513.153	0.04
513.35	0.08
513.547	0.04
513.744	0.03
513.94	0.01
514.137	0.07
514.334	0.05
514.53	0.05
514.727	0.05
514.924	0.1
515.12	0.05
515.317	0
515.514	0.02
515.71	0
515.907	0.05
516.103	0.04
516.3	0.03
516.497	0.08
516.693	0.07
516.89	0.03
517.086	0.01
517.283	0.08
517.479	0.04
517.676	0.03
517.872	0.03
518.068	0.03
518.265	0.04
518.461	0.02
518.658	0.02
518.854	0.08
519.05	0.03
519.247	0.03
519.443	0.07
519.639	0.06
519.836	0.03
520.032	0.02
520.228	0.05
520.424	0.06
520.621	0.07
520.817	0.03
521.013	0.05
521.209	0.05
521.405	0.08
521.601	0.04
521.798	0.03
521.994	0.09
522.19	0.02
522.386	0.01
522.582	0.05
522.778	0.03
522.974	0.03
523.17	0.03
523.366	0.06
523.562	0.08
523.758	0.06
523.954	0.03
524.15	0.03
524.346	0.05
524.542	0.03
524.738	0.02
524.934	0.03
525.129	0.04
525.325	0.06
525.521	0.03
525.717	0.07
525.913	0.05
526.109	0.02
526.304	0.04
526.5	0.05
526.696	0.07
526.892	0.04
527.087	0.06
527.283	0.02
527.479	0.04
527.674	0.02
527.87	0.03
528.066	0.02
528.261	0.07
528.457	0.06
528.653	0.02
528.848	0.02
529.044	0.06
529.239	0.06
529.435	0.05
529.63	0.04
529.826	0.09
530.021	0.06
530.217	0.05
530.412	0.03
530.608	0.01
530.803	0.04
530.999	0.04
531.194	-0.01
531.389	0.05
531.585	-0.01
531.78	0.04
531.975	0.04
532.171	0.05
532.366	0.04
532.561	0.04
532.757	0.02
532.952	0.04
533.147	0.05
533.342	0.03
533.538	0.01
533.733	0.09
533.928	0.05
534.123	0.03
534.318	0.01
534.513	0.04
534.709	0.02
534.904	0.02
535.099	0.02
535.294	0.03
535.489	0.04
535.684	0.04
535.879	0
536.074	0.05
536.269	0.02
536.464	0.04
536.659	0.04
536.854	0.05
537.049	0.03
537.244	0.06
537.439	0.04
537.634	0.04
537.828	0.03
538.023	0.01
538.218	0.01
538.413	0.02
538.608	-0.01
538.803	0.03
538.997	-0.01
539.192	0.07
539.387	0.05
539.582	0.04
539.776	0.04
539.971	0.02
540.166	0.04
540.36	-0
540.555	0.04
540.75	0
540.944	0.03
541.139	-0
541.334	0.01
541.528	0.05
541.723	0.06
541.917	0.01
542.112	-0
542.306	0.01
542.501	0.02
542.695	0.04
542.89	0.01
543.084	0.03
543.279	-0
543.473	0.03
543.668	0.04
543.862	0.03
544.056	0.04
544.251	0.05
544.445	0.03
544.64	0.02
544.834	-0.02
545.028	0.02
545.222	0.04
545.417	0.03
545.611	0.04
545.805	0.05
546	0.03
546.194	0.03
546.388	0.02
546.582	0.06
546.776	0.03
546.97	0.03
547.165	0.02
547.359	0.06
547.553	0
547.747	0.04
547.941	0.05
548.135	0.02
548.329	0.06
548.523	0.03
548.717	0.01
548.911	0.02
549.105	0.02
549.299	0.03
549.493	0.04
549.687	0.06
549.881	0.04
550.075	0.03
550.269	0
550.463	0.04
550.657	0.01
550.85	0.03
551.044	-0
551.238	0.02
551.432	-0
551.626	-0
551.82	0.02
552.013	0.01
552.207	0.02
552.401	0.05
552.594	0.02
552.788	0.03
552.982	0.03
553.176	0.01
553.369	0.04
553.563	0.02
553.756	-0.01
553.95	0.01
554.144	0.03
554.337	0.04
554.531	0.03
554.724	0.03
554.918	0.02
555.111	0.06
555.305	0.01
555.498	0.08
555.692	0.01
555.885	0.01
556.079	0.05
556.272	0.03
556.466	0.07
556.659	0.03
556.852	0.02
557.046	0.02
557.239	0.06
557.432	0.01
557.626	0.01
557.819	0.03
558.012	0.06
558.206	0.04
558.399	0.04
558.592	0.04
558.785	0
558.979	0.05
559.172	0.01
559.365	0.04
559.558	0.04
559.751	0.01
559.944	0.04
560.138	0.01
560.331	0.01
560.524	-0.01
560.717	0.02
560.91	0.02
561.103	0.03
561.296	0.05
561.489	0.04
561.682	0.02
561.875	0.04
562.068	0.06
562.261	0.05
562.454	0.07
562.647	0.02
562.84	0.03
563.032	0.02
563.225	0.05
563.418	0.02
563.611	0.01
563.804	0.02
563.997	0
564.19	0.01
564.382	0.02
564.575	0
564.768	0.03
564.961	0.03
565.153	0.01
565.346	0.05
565.539	0.05
565.731	0.04
565.924	0.05
566.117	0.03
566.309	0.04
566.502	0.02
566.695	0.03
566.887	0.02
567.08	0.01
567.272	0.02
567.465	0.03
567.657	0.03
567.85	0.03
568.042	0.05
568.235	0.07
568.427	0.02
568.62	0.02
568.812	0.06
569.005	0.03
569.197	-0.03
569.389	0.01
569.582	0.05
569.774	-0.01
569.966	-0
570.159	-0
570.351	0.05
570.543	0.02
570.736	0.03
570.928	-0.02
571.12	0.03
571.312	-0
571.505	-0
571.697	0.08
571.889	0
572.081	0.01
572.273	-0.02
572.465	0.04
572.658	0
572.85	0.02
573.042	0.01
573.234	0.02
573.426	0.06
573.618	-0.01
573.81	0.04
574.002	0.05
574.194	0.08
574.386	-0.02
574.578	-0.06
574.77	0.01
574.962	0.01
575.154	-0
575.346	0
575.538	0.04
575.729	-0.01
575.921	0.01
576.113	0.01
576.305	0.05
576.497	0.02
576.689	0.02
576.88	-0
577.072	0.06
577.264	0.02
577.456	0.01
577.647	-0.05
577.839	-0
578.031	0.06
578.223	-0.01
578.414	-0.02
578.606	0.03
578.798	0.05
578.989	0
579.181	0.01
579.372	0.02
579.564	-0.02
579.755	0.04
579.947	0.02
580.139	0.05
580.33	-0.01
580.522	0
580.713	-0.04
580.905	0.02
581.096	0.03
581.287	0.01
581.479	-0
581.67	0.04
581.862	0.02
582.053	0.03
582.244	-0.03
582.436	0
582.627	0.03
582.818	-0.01
583.01	-0.04
583.201	0.04
583.392	0.06
583.583	0.01
583.775	-0
583.966	0
584.157	0.01
584.348	-0
584.54	-0.02
584.731	0.05
584.922	0.04
585.113	-0.01
585.304	0.06
585.495	0.02
585.686	0.02
585.877	0.03
586.068	0.04
586.259	0.03
586.45	0.03
586.641	-0.01
586.832	-0.03
587.023	0.02
587.214	0.01
587.405	0.06
587.596	0
587.787	0.07
587.978	0.03
588.169	-0
588.36	0.01
588.551	0.01
588.742	0
588.932	0.03
589.123	0.04
589.314	0.04
589.505	0.04
589.696	0.03
589.886	-0.01
590.077	0.01
590.268	0.02
590.458	-0.02
590.649	-0.03
590.84	0.05
591.03	0.01
591.221	-0.04
591.412	-0.03
591.602	0.07
591.793	0.03
591.984	-0.04
592.174	0.02
592.365	0.09
592.555	-0.03
592.746	0.03
592.936	0.03
593.127	0.04
593.317	0.04
593.508	-0.03
593.698	-0.01
593.889	0.01
594.079	0.03
594.269	0
594.46	-0.01
594.65	0.04
594.84	0.01
595.031	-0.02
595.221	0.01
595.411	-0.04
595.602	0.05
595.792	0.01
595.982	-0.01
596.172	0.08
596.363	0.01
596.553	-0.01
596.743	0.02
596.933	0.04
597.123	0.05
597.314	-0.01
597.504	-0.01
597.694	0.05
597.884	0.04
598.074	-0.01
598.264	-0
598.454	0.05
598.644	0.02
598.834	0.02
599.024	-0.03
599.214	0.03
599.404	0.06
599.594	0.01
599.784	0.01
599.974	0.09
600.164	0.06
600.354	-0.03
600.544	-0.01
600.734	0.02
600.924	0.05
601.114	-0
601.303	0.01
601.493	0.02
601.683	0.02
601.873	0.04
602.063	-0.05
602.252	0.06
602.442	-0.01
602.632	0.02
602.821	0
603.011	0.05
603.201	0.02
603.39	0
603.58	-0.01
603.77	0.03
603.959	0.03
604.149	0.03
604.339	0
604.528	0.06
604.718	0.05
604.907	0
605.097	-0.01
605.286	-0.03
605.476	0.03
605.665	0.02
605.855	-0
606.044	0.06
606.234	0.01
606.423	-0
606.612	-0.02
606.802	0.02
606.991	0.06
607.181	0.04
607.37	-0.01
607.559	0.04
607.749	-0.03
607.938	0.03
608.127	-0.02
608.316	0.01
608.506	0.04
608.695	0.02
608.884	-0.03
609.073	0.01
609.263	0.02
609.452	0.04
609.641	0.01
609.83	-0.03
610.019	0.02
610.208	0.02
610.397	0.03
610.586	0.04
610.775	0
610.965	-0.03
611.154	-0
611.343	0.02
611.532	0.04
611.721	-0.02
611.91	0.01
612.099	0.03
612.287	0.03
612.476	-0.01
612.665	0.07
612.854	0
613.043	0.07
613.232	-0.04
613.421	-0.02
613.61	0.01
613.798	-0.03
613.987	0.04
614.176	0.02
614.365	0.05
614.554	0.05
614.742	0.04
614.931	-0
615.12	0.04
615.309	0.01
615.497	0.04
615.686	-0.01
615.875	0.03
616.063	0.04
616.252	-0.02
616.44	0.02
616.629	0.01
616.818	0.04
617.006	-0.01
617.195	0.01
617.383	0.03
617.572	0.01
617.76	0
617.949	0.02
618.137	0.05
618.326	0.05
618.514	0.02
618.703	0.01
618.891	0.05
619.079	-0.03
619.268	0.03
619.456	-0.01
619.644	0.06
619.833	0.02
620.021	-0
620.209	-0.04
620.398	0.02
620.586	0.01
620.774	0.04
620.962	0.02
621.151	0.06
621.339	-0
621.527	-0.03
621.715	-0.01
621.903	-0.02
622.092	-0.02
622.28	0.01
622.468	0.01
622.656	0.01
622.844	0.03
623.032	-0
623.22	-0.04
623.408	0.05
623.596	0.04
623.784	0.02
623.972	-0.02
624.16	0.03
624.348	0.1
624.536	-0.03
624.724	-0.02
624.912	0.07
625.1	0.04
625.288	-0.02
625.476	-0
625.664	0.04
625.851	-0.03
626.039	0.02
626.227	0.04
626.415	-0
626.603	-0.07
626.79	0.01
626.978	0.02
627.166	0.05
627.354	0.04
627.541	-0.02
627.729	-0.05
627.917	0.03
628.104	0.02
628.292	0.04
628.48	0.02
628.667	0.03
628.855	0.02
629.042	0.03
629.23	0.01
629.418	0.01
629.605	0.02
629.793	0.01
629.98	-0.02
630.168	-0.01
630.355	0.02
630.543	0.01
630.73	-0.01
630.917	0.01
631.105	0.07
631.292	0.02
631.48	0.03
631.667	0.07
631.854	0.02
632.042	0.01
632.229	-0.03
632.416	0.01
632.604	0.06
632.791	0
632.978	0.05
633.165	0.04
633.353	0.1
633.54	0.01
633.727	-0.06
633.914	-0.01
634.101	-0.05
634.289	0.06
634.476	-0
634.663	-0.02
634.85	0.02
635.037	-0.02
635.224	-0.05
635.411	0.03
635.598	0.05
635.785	0.01
635.972	0.04
636.159	0.07
636.346	-0.01
636.533	0.03
636.72	0.01
636.907	0
637.094	0.02
637.281	-0
637.468	0.04
637.655	0.04
637.842	0.02
638.029	0
638.215	0.03
638.402	0.01
638.589	-0.02
638.776	-0.01
638.963	-0.01
639.149	0.04
639.336	0.06
639.523	0.01
639.709	-0.01
639.896	0.01
640.083	0.06
640.27	0.02
640.456	0.02
640.643	0
640.829	-0.06
641.016	0.04
641.203	-0.01
641.389	0.07
641.576	-0.02
641.762	0.02
641.949	-0.05
642.135	-0.01
642.322	0.02
642.508	-0.05
642.695	0.01
642.881	0.02
643.068	-0.01
643.254	0.01
643.441	0.07
643.627	-0
643.813	-0.01
644	0.04
644.186	-0.02
644.372	-0
644.559	0.04
644.745	0
644.931	-0.01
645.118	0.03
645.304	0.02
645.49	-0
645.676	0.01
645.862	0.03
646.049	0.08
646.235	0.02
646.421	0.06
646.607	0.07
646.793	0
646.979	0
647.165	0.01
647.352	0.02
647.538	0.06
647.724	0.02
647.91	0.02
648.096	0.06
648.282	0.05
648.468	-0
648.654	0.02
648.84	0.02
649.026	0.03
649.212	0.01
649.397	-0.01
649.583	-0.02
649.769	0.01
649.955	0.02
650.141	0.02
650.327	0.07
650.513	-0.03
650.698	0.03
650.884	-0.05
651.07	0.05
651.256	0.01
651.442	0.02
651.627	0
651.813	0
651.999	0.04
652.184	0
652.37	0.02
652.556	-0.04
652.741	0.05
652.927	-0.04
653.113	-0.01
653.298	0.01
653.484	0.02
653.669	-0.04
653.855	0.02
654.04	0.01
654.226	0.01
654.412	-0.01
654.597	-0.05
654.782	0.05
654.968	0.05
655.153	0.01
655.339	-0.04
655.524	-0.02
655.71	0.03
655.895	-0
656.08	-0
656.266	0.06
656.451	0.07
656.636	-0.01
656.822	0.03
657.007	-0.06
657.192	-0.02
657.378	-0.04
657.563	0.02
657.748	0.03
657.933	0.01
658.118	-0.02
658.304	0.03
658.489	0.01
658.674	0.01
658.859	-0.04
659.044	0.04
659.229	0.06
659.414	-0.02
659.599	-0.03
659.785	-0.05
659.97	0.01
660.155	0.01
660.34	0.04
660.525	0.03
660.71	0.02
660.895	0.03
661.08	0.01
661.264	-0.01
661.449	0.06
661.634	0.04
661.819	0.04
662.004	0.04
662.189	-0.06
662.374	-0.03
662.559	-0.07
662.743	-0.05
662.928	0.02
663.113	-0.02
663.298	-0.07
663.483	-0.02
663.667	0.02
663.852	-0.08
664.037	0.05
664.221	0.02
664.406	0.07
664.591	0.03
664.775	0.03
664.96	0.04
665.145	-0
665.329	0.01
665.514	0
665.698	0.02
665.883	-0.01
666.068	0.07
666.252	-0
666.437	-0.01
666.621	0.02
666.806	0.04
666.99	0.03
667.174	-0.02
667.359	0.07
667.543	0
667.728	-0.01
667.912	-0.06
668.096	0.04
668.281	0.01
668.465	-0
668.649	-0
668.834	-0.02
669.018	0
669.202	0
669.387	-0.02
669.571	0.05
669.755	-0.02
669.939	0.03
670.124	-0.01
670.308	0.04
670.492	0.09
670.676	0.03
670.86	0.01
671.044	-0.01
671.228	0.03
671.413	0
671.597	-0.02
671.781	0.01
671.965	0.02
672.149	-0.01
672.333	-0.01
672.517	-0.04
672.701	0.04
672.885	-0
673.069	-0.06
673.253	0.06
673.437	-0.01
673.621	-0.03
673.804	0.01
673.988	0.03
674.172	-0.02
674.356	-0.04
674.54	0.02
674.724	0.1
674.908	0
675.091	0.04
675.275	0.02
675.459	0.05
675.643	0.09
675.826	0.01
676.01	0
676.194	0.05
676.377	0.05
676.561	0.05
676.745	0.01
676.928	0.03
677.112	0.04
677.296	-0.06
677.479	-0
677.663	-0.02
677.846	0.05
678.03	0.02
678.213	-0.03
678.397	0.05
678.58	-0.03
678.764	0.01
678.947	-0.03
679.131	-0.02
679.314	0.05
679.498	0.03
679.681	0.01
679.865	0.03
680.048	0.02
680.231	0.02
680.415	0.01
680.598	0.02
680.781	0.02
680.965	0.02
681.148	0.06
681.331	0.02
681.514	0.04
681.698	-0
681.881	0.02
682.064	0.03
682.247	0.02
682.43	-0.05
682.614	0.08
682.797	0.06
682.98	0.04
683.163	-0.01
683.346	0.06
683.529	0.01
683.712	-0.01
683.895	0.07
684.078	-0.05
684.261	0.02
684.444	0.03
684.627	0.04
684.81	0.01
684.993	-0
685.176	0.09
685.359	-0.05
685.542	-0.01
685.725	0.06
685.908	0
686.091	-0.01
686.274	0.08
686.457	0.05
686.639	-0
686.822	0.09
687.005	0.02
687.188	0.05
687.371	0.09
687.553	0
687.736	0.05
687.919	0.12
688.102	0.1
688.284	-0.04
688.467	0
688.65	-0.03
688.832	-0
689.015	0.04
689.197	-0.06
689.38	0.13
689.563	0.08
689.745	-0.02
689.928	-0.01
690.11	0.03
690.293	0.03
690.475	-0.06
690.658	0.09
690.84	0.02
691.023	0
691.205	0.05
691.388	0.01
691.57	0.07
691.752	0.02
691.935	-0.08
692.117	-0.04
692.3	0.04
692.482	-0
692.664	0.02
692.847	0.03
693.029	0.08
693.211	0.06
693.393	-0
693.576	-0.01
693.758	0.09
693.94	0.03
694.122	-0.01
694.304	0.02
694.487	0.02
694.669	0.03
694.851	-0.01
695.033	0.03
695.215	0.01
695.397	-0.06
695.579	0.06
695.761	0.02
695.943	-0.05
696.125	0.09
696.308	0.07
696.49	-0.12
696.671	0.18
696.853	0.02
697.035	0.12
697.217	0.06
697.399	0.08
697.581	0.04
697.763	0.03
697.945	-0.04
698.127	-0.01
698.309	0.07
698.491	0.02
698.672	0.07
698.854	0.1
699.036	0.06
699.218	0.01
699.399	0.11
699.581	0.08
699.763	0.06
699.945	-0.01
700.126	-0.04
700.308	-0
700.49	0.02
700.671	-0.03
700.853	-0
701.035	-0.02
701.216	-0.01
701.398	-0.07
701.579	0.01
701.761	0.06
701.943	0.01
702.124	-0.07
702.306	-0.02
702.487	0.13
702.669	0.03
702.85	0.02
703.031	-0.02
703.213	0.14
703.394	0.07
703.576	0.02
703.757	0.12
703.938	0.07
704.12	0.16
704.301	0
704.483	-0.04
704.664	0.02
704.845	0.11
705.026	0.01
705.208	0.01
705.389	-0.01
705.57	0.05
705.751	0.08
705.933	-0
706.114	0.09
706.295	0.09
706.476	-0.04
706.657	0.08
706.838	0.08
707.02	0.07
707.201	-0.02
707.382	-0.04
707.563	0.03
707.744	0.02
707.925	-0.06
708.106	-0.04
708.287	0.09
708.468	0.16
708.649	0.02
708.83	0.05
709.011	-0.04
709.192	0.04
709.373	-0.03
709.554	0.01
709.734	0.06
709.915	0.12
710.096	0.03
710.277	-0.06
710.458	0.08
710.639	0.04
710.819	-0.09
711	-0.03
711.181	0.12
711.362	0.08
711.542	-0
711.723	0.03
711.904	0.01
712.085	0.06
712.265	0.04
712.446	-0.06
712.627	0.01
712.807	0.01
712.988	0.02
713.168	-0.04
713.349	0.04
713.53	-0.1
713.71	-0.08
713.891	-0.08
714.071	0.05
714.252	-0.01
714.432	-0.03
714.613	-0.09
714.793	0.05
714.974	0.15
715.154	0.1
715.334	0.06
715.515	0.11
715.695	-0.04
715.876	0.01
716.056	0.02
716.236	0.04
716.417	0.01
716.597	-0.03
716.777	0.19
716.957	-0.05
717.138	0.06
717.318	0.02
717.498	-0.09
717.678	0.01
717.859	0.05
718.039	-0.04
718.219	0.03
718.399	0.03
718.579	-0.04
718.759	0.03
718.939	0.01
719.12	0.01
719.3	0.03
719.48	-0.09
719.66	-0.07
719.84	0.13
720.02	-0.05
720.2	0.01
720.38	0.12
720.56	0.09
720.74	-0.06
720.92	0.02
721.1	0.17
721.279	0.05
721.459	-0.01
721.639	-0.03
721.819	0.06
721.999	0.05
722.179	0.03
722.359	-0.01
722.538	0
722.718	0.07
722.898	-0.04
723.078	0.01
723.257	-0.08
723.437	0.09
723.617	0.05
723.797	-0
723.976	0.07
724.156	0.04
724.336	0.16
724.515	0.2
724.695	-0.1
724.874	0.01
725.054	0.12
725.234	-0.05
725.413	0.1
725.593	0.07
725.772	0
725.952	-0.05
726.131	0.02
726.311	0
726.49	-0.02
726.67	-0.12
726.849	0
727.028	0.08
727.208	0.05
727.387	0
727.567	-0.11
727.746	-0.03
727.925	-0.09
728.105	-0.07
728.284	-0.06
728.463	-0.07
728.643	0.04
728.822	-0.09
729.001	-0.03
729.18	0.08
729.359	0.04
729.539	0.07
729.718	-0.03
729.897	0.05
730.076	0.01
730.255	-0.04
730.434	0.1
730.614	0.12
730.793	0.08
730.972	-0
731.151	-0.04
731.33	0.06
731.509	0.04
731.688	0.02
731.867	0.05
732.046	-0.2
732.225	0.24
732.404	0.04
732.583	-0.01
732.762	0.06
732.941	0.17
733.12	0.01
733.298	0.03
733.477	0.15
733.656	-0
733.835	-0.01
734.014	0.11
734.193	0.06
734.371	0.2
734.55	0.11
734.729	-0.08
734.908	0.01
735.086	0.06
735.265	0.11
735.444	-0.06
735.623	-0.09
735.801	-0.04
735.98	0.13
736.159	-0
736.337	0.11
736.516	0.06
736.694	-0.04
736.873	0.09
737.052	0.1
737.23	0.26
737.409	-0.07
737.587	0.18
737.766	-0.04
737.944	0.02
738.123	0.13
738.301	0.1
738.479	-0.05
738.658	0.02
738.836	-0.14
739.015	0.02
739.193	0.12
739.371	-0.08
739.55	-0.03
739.728	0.07
739.906	0.09
740.085	0.23
740.263	0.05
740.441	-0.16
740.62	0.19
740.798	0.11
740.976	-0
741.154	-0.08
741.332	0.26
741.511	-0.01
741.689	0.04
741.867	0.17
742.045	0.04
742.223	0.05
742.401	-0.03
742.579	-0.09
742.757	0.08
742.935	-0.07
743.114	0.04
743.292	0.02
743.47	0.1
743.648	0.07
743.826	0.12
744.004	0.11
744.181	0.07
744.359	-0
744.537	0.17
744.715	-0.03
744.893	0.05
745.071	0.05
745.249	0.02
745.427	-0.03
745.605	0.1
745.782	-0.02
745.96	0.18
746.138	0.08
746.316	0.18
746.493	0.03
746.671	0.11
746.849	-0.05
747.027	0.21
747.204	0.05
747.382	0.03
747.56	-0.03
747.737	0.05
747.915	0.07
748.093	0.08
748.27	-0.03
748.448	0.11
748.625	-0.1
748.803	0.06
748.98	0.03
749.158	0.1
749.335	0.07
749.513	-0
749.69	0.04
749.868	-0.01
750.045	0.09
750.223	-0.05
750.4	-0.22
750.578	0.3
750.755	0.08
750.932	-0.08
751.11	0.07
751.287	-0.1
751.464	0.18
751.642	-0.08
751.819	-0.01
751.996	0.14
752.173	0.03
752.351	-0.1
752.528	0.07
752.705	0.06
752.882	0.02
753.06	0.03
753.237	0.11
753.414	0.25
753.591	0.28
753.768	0.06
753.945	-0.05
754.122	0.01
754.299	0.17
754.476	-0.07
754.654	0.04
754.831	0.01
755.008	0.03
755.185	0.03
755.362	-0.06
755.539	0.1
755.716	0
755.892	0.02
756.069	0.03
756.246	0.01
756.423	0.02
756.6	0.07
756.777	-0.06
756.954	0.12
757.131	-0.05
757.307	0.05
757.484	-0.15
757.661	0.04
757.838	0.08
758.015	-0.04
758.191	0.08
758.368	-0
758.545	0.25
758.721	0.16
758.898	0.01
759.075	0.18
759.251	0.16
759.428	0.09
759.605	-0.04
759.781	0.09
759.958	0.18
760.134	0.1
760.311	0.06
760.488	0.15
760.664	0.2
760.841	0.1
761.017	-0.03
761.194	0.03
761.37	0.23
761.547	0.13
761.723	0.08
761.899	0.21
762.076	0.01
762.252	-0.07
762.429	-0.02
762.605	0.12
762.781	0.02
762.958	0.22
763.134	-0.09
763.31	-0.1
763.486	0.28
763.663	-0.1
763.839	0.09
764.015	-0.17
764.191	-0.17
764.368	-0.12
764.544	-0.06
764.72	0.15
764.896	0.09
765.072	0.12
765.248	-0.01
765.425	-0.02
765.601	0.08
765.777	0.09
765.953	-0.15
766.129	-0.06
766.305	0.04
766.481	0.06
766.657	0.05
766.833	0.28
767.009	-0.02
767.185	-0.04
767.361	0.14
767.537	-0.16
767.713	0.27
767.889	-0.17
768.065	0
768.24	-0.12
768.416	0.25
768.592	-0.04
768.768	0.05
768.944	0.18
769.12	0.01
769.295	-0.15
769.471	-0.09
769.647	0.07
769.823	0.18
769.998	-0.09
770.174	-0.03
770.35	0.46
770.525	0.33
770.701	0.12
770.877	0.11
771.052	-0.06
771.228	0.15
771.403	0.1
771.579	0.19
771.755	0.35
771.93	-0.09
772.106	0.09
772.281	-0.23
772.457	0.12
772.632	0.03
772.808	-0.16
772.983	0.08
773.159	-0.15
773.334	0.13
773.509	0.07
773.685	-0.04
773.86	0.38
774.036	0.26
774.211	0.1
774.386	-0.02
774.562	0.09
774.737	0.38
774.912	-0.15
775.087	0.09
775.263	0.12
775.438	0.06
775.613	-0.21
775.788	0.08
775.964	0.3
776.139	0.45
776.314	-0.13
776.489	0.11
776.664	0.17
776.839	-0.09
777.014	0.2
777.19	0.23
777.365	0.26
777.54	0.24
777.715	-0.02
777.89	0.07
778.065	-0.06
778.24	-0.14
778.415	0.16
778.59	-0.09
778.765	0.02
778.94	0.22
779.115	0.01
779.289	-0.13
779.464	0.14
779.639	0.08
779.814	-0.14
779.989	-0.05
780.164	0.34
780.339	0.12
780.513	-0.06
780.688	-0.03
780.863	-0.02
781.038	0.28
781.212	0.09
781.387	0.18
781.562	0.5
781.737	0.17
781.911	0.25
782.086	0.12
782.261	0.15
782.435	0.22
782.61	0.08
782.784	0.02
782.959	0.2
783.134	0.05
783.308	-0.19
783.483	0.06
783.657	0.43
783.832	0.15
784.006	-0.25
784.181	0.08
784.355	0.28
784.53	0.21
784.704	-0.17
784.878	0.29
785.053	0.25
785.227	0.32
785.402	0.3
785.576	-0.05
785.75	-0.2
785.925	-0.13
786.099	0.11
786.273	0.08
786.448	0.31
786.622	0.11
786.796	-0.07
786.97	-0.13
787.145	0.86
787.319	-0.28
787.493	0.14
787.667	-0.28
787.841	-0.09
788.015	0.22
788.19	-0.15
788.364	0.06
788.538	0.26
788.712	0.3
788.886	-0.02
789.06	0.25
789.234	0.35
789.408	-0.35
789.582	-0.09
789.756	-0.09
789.93	0.16
790.104	0.13
790.278	0.01
790.452	-0.06
790.626	0.19
790.8	0.01
790.973	0.32
791.147	0.37
791.321	0.42
791.495	0.55
791.669	0.23
791.843	0.34
792.016	0.21
792.19	0.57
792.364	-0
792.538	0.47
792.711	0.37
792.885	-0.16
793.059	-0.12
793.233	-0.54
793.406	0.34
793.58	0.2
793.754	0.18
793.927	0.3
794.101	0.29
794.274	0.2
794.448	0.36
794.622	-0.11
794.795	0.3
794.969	-0.24
795.142	0.33
795.316	0.07
795.489	-0.08
795.663	0.3
795.836	0.01
796.009	-0.07
796.183	0.59
796.356	0.37
796.53	0.19
796.703	-0
796.876	0.83
797.05	-0.09
797.223	-0.01
797.396	0.41
797.57	0.26
797.743	0.39
797.916	0.07
798.09	0
798.263	0.49
798.436	0.2
798.609	0.1
798.782	-0.07
798.956	0.07
799.129	0.25
799.302	-0.02
799.475	-0.04
799.648	-0.13
799.821	-0.2
799.994	-0.07
800.167	-0.22
800.34	0.08
800.514	0.21
800.687	-0.06
800.86	0.03
801.033	0.14
801.206	0.33
801.379	0.03
801.551	0.38
801.724	0.41
801.897	0.29
802.07	-0.04
802.243	-0.2
802.416	-0.05
802.589	-0.06
802.762	0.1
802.935	0.27
803.107	0.08
803.28	0.28
803.453	0.29
803.626	-0.3
803.798	0.18
803.971	-0.18
804.144	-0.05
804.317	0.16
804.489	0.25
804.662	0.28
804.835	0.11
805.007	-0.44
805.18	0.42
805.353	0.06
805.525	-0.15
805.698	0.02
805.87	0.3
806.043	0.35
806.215	-0.24
806.388	-0.19
806.56	0.61
806.733	0.79
806.905	-0.1
807.078	0.04
807.25	-0.08
807.423	0.49
807.595	0.1
807.768	0.09
807.94	0.51
808.112	0.19
808.285	0.15
808.457	0.02
808.629	0.17
808.802	0
808.974	0.25
809.146	0.03
809.318	-0.07
809.491	0.57
809.663	0.41
809.835	-0.08
810.007	0.28
810.18	0.24
810.352	-0.5
810.524	0.06
810.696	0.4
810.868	0.72
811.04	-0.05
811.212	-0.32
811.384	0.19
811.556	-0.03
811.728	0.23
811.901	1.07
812.073	0.15
812.245	0.64
812.417	0.18
812.589	-0.68
812.76	0.34
812.932	0.04
813.104	0.29
813.276	0.07
813.448	0.62
813.62	0.15
813.792	0.2
813.964	0.22
814.136	0.2
814.307	-0.22
814.479	-0.08
814.651	-0.22
814.823	0.88
814.995	-0.09
815.166	0.23
815.338	0.14
815.51	-0.51
815.681	0.92
815.853	0.09
816.025	-0.22
816.196	0.66
816.368	0.53
816.54	-0.2
816.711	0.23
816.883	0.44
817.054	1.13
817.226	-0.27
817.398	0.56
817.569	0.29
817.741	-0.15
817.912	0.2
818.084	-0.1
818.255	0.45
818.426	0.02
818.598	0.04
818.769	-0.01
818.941	0.78
819.112	0.8
819.283	0.3
819.455	-0.22
819.626	0.47
819.798	0.69
819.969	0.37
820.14	0.27
820.311	0.16
820.483	0.4
820.654	0.41
820.825	0.35
820.996	-0.02
821.168	-0.29
821.339	0.03
821.51	-0.31
821.681	0.34
821.852	0.36
822.023	-0.29
822.195	-0.39
822.366	0.53
822.537	0.53
822.708	0.25
822.879	0.12
823.05	0.9
823.221	-0.47
823.392	0.58
823.563	0.13
823.734	-0.22
823.905	0.16
824.076	-0.04
824.247	-0.03
824.418	-0.09
824.589	1
824.759	0.1
824.93	0.05
825.101	-0.22
825.272	0.86
825.443	0.5
825.614	1.12
825.784	-0.43
825.955	1.41
826.126	0.34
826.297	0.36
826.467	1.24
826.638	0.65
826.809	-0.15
826.98	0.13
827.15	0.69
827.321	0.08
827.492	0.52
827.662	0.26
827.833	0.72
828.003	0.24
828.174	-0.28
828.345	-0.39
828.515	0.88
828.686	0.65
828.856	0.01
829.027	0.54
829.197	0.33
829.368	0.78
829.538	0.01
829.709	0.34
829.879	0.94
830.049	0.22
830.22	-0.46
830.39	0.59
830.56	1.39
830.731	-0.1
830.901	-0.01
831.072	0.59
831.242	0.77
831.412	1.04
831.582	-0.23
831.753	-0.24
831.923	0.34
832.093	0.45
832.263	-0.01
832.434	-0.19
832.604	0.34
832.774	-0.03
832.944	0
833.114	0.23
833.284	0.58
833.454	-0.12
833.624	0
833.795	-0.08
833.965	1.05
834.135	1.11
834.305	-0.75
834.475	-1.29
834.645	0.36
834.815	-0.19
834.985	-0.01
835.155	0.01
835.325	0.22
835.494	0.47
835.664	-0.2
835.834	-0.42
836.004	-0.42
836.174	0.31
836.344	0.2
836.514	-0.3
836.684	-0.16
836.853	0.83
837.023	0.59
837.193	-0.38
837.363	1.21
837.532	1.41
837.702	-0.45
837.872	-0.34
838.041	1.26
838.211	2.06
838.381	-0.15
838.55	0.47
838.72	1.84
838.89	1.75
839.059	-0.43
839.229	-0.13
839.398	1.87
839.568	0.78
839.738	-0.03
839.907	1.17
840.077	0.71
840.246	-0.37
840.416	0.07
840.585	-0.45
840.755	1.15
840.924	1.22
841.093	-0.19
841.263	0.47
841.432	0.35
841.602	0.08
841.771	-0.7
841.94	0.48
842.11	2.85
842.279	2.29
842.448	-0.7
842.617	-0.79
842.787	1.83
842.956	-0.19
843.125	0.34
843.294	-0.21
843.464	1.18
843.633	0.03
843.802	0.15
843.971	0.71
844.14	0.71
844.309	0.58
844.479	-0.14
844.648	-0.08
844.817	0.36
844.986	0.63
845.155	-0.24
845.324	-0.58
845.493	1.16
845.662	-0.22
845.831	1.33
846	0.91
846.169	0.97
846.338	1.28
846.507	0.25
846.676	-0.21
846.844	-0.63
847.013	1.54
847.182	0.26
847.351	0.59
847.52	0.23
847.689	1.49
847.858	0.29
848.026	-0.3
848.195	0.66
848.364	-0.5
848.533	-0.35
848.701	0.25
848.87	0.64
849.039	0.99
849.207	1.85
849.376	0.91
849.545	1.43
849.713	-0.01
849.882	0.32
850.051	0.7
850.219	0.41
850.388	1.98
850.556	0.64
850.725	-0.39
850.893	0.54
851.062	-0.8
851.23	0.98
851.399	-0.9
851.567	-0.05
851.736	-0.16
851.904	-0.9
852.073	0.77
852.241	1.09
852.41	0.21
852.578	-0.05
852.746	-0.17
852.915	0.71
853.083	0.66
853.251	-0.64
853.42	0.21
853.588	0.04
853.756	1.27
853.924	-0.23
854.093	-0.23
854.261	-0.28
854.429	-0.54
854.597	0.42
854.765	-0.44
854.934	0.14
855.102	1.22
855.27	1.65
855.438	1.03
855.606	1.1
855.774	2.53
855.942	-1.38
856.11	-1.09
856.278	0.22
856.446	2
856.614	0.16
856.782	-0.36
856.95	2.01
857.118	1.84
857.286	1.03
857.454	-0.57
857.622	2.47
857.79	0.47
857.958	-0.66
858.126	0.03
858.294	-1.87
858.462	0.06
858.629	-1.27
858.797	-0.39
858.965	1.76
859.133	0.54
859.301	-0.56
859.468	0.31
859.636	-0.21
859.804	1.94
859.971	-0.27
860.139	-0.84
860.307	1.75
860.474	0.49
860.642	-0.83
860.81	-0.21
860.977	0.99
861.145	1.63
861.313	1.12
861.48	0.39
861.648	1.67
861.815	0.58
861.983	-1.54
862.15	-0.93
862.318	0.99
862.485	0.54
862.653	-0.15
862.82	-1.3
862.988	1.9
863.155	1.3
863.322	-0.36
863.49	-0.12
863.657	-1.41
863.824	1.87
863.992	1.03
864.159	1.55
864.326	2.13
864.494	-0.53
864.661	2.81
864.828	-0.88
864.996	2.02
865.163	3.05
865.33	0.67
865.497	-1.53
865.664	-0.17
865.832	-1.75
865.999	0.27
866.166	0.15
866.333	0.72
866.5	0.59
866.667	0.32
866.834	-0.02
867.001	2.05
867.168	-2.45
867.335	-0.53
867.502	-1
867.669	1.67
867.836	2.63
868.003	1.15
868.17	1.7
868.337	0.06
868.504	4.77
868.671	-1.15
868.838	0.04
869.005	1.7
869.172	0.97
869.339	0.11
869.505	1.16
869.672	1.84
869.839	3.48
870.006	1.55
870.173	-1.76
870.339	0.7
870.506	4.13
870.673	0.02
870.84	0.78
871.006	1.16
871.173	0.16
871.34	2.82
871.506	-0.83
871.673	0.72
871.839	-0.89
872.006	1.05
872.173	0.42
872.339	1.28
872.506	0.88
872.672	-0.06
872.839	-1.31
873.005	2.9
873.172	2.44
873.338	1.56
873.505	0.42
873.671	0.98
873.838	1.72
874.004	-0.98
874.171	0.01
874.337	1.99
874.503	2.03
874.67	-1.11
874.836	0.35
875.002	3.57
875.169	2.02
875.335	1.1
875.501	0.08
875.668	0.62
875.834	2.06
876	-0.05
876.166	0.94
876.332	1.15
876.499	2.98
876.665	-0.83
876.831	0.57
876.997	4.82
877.163	-0.25
877.329	-1.07
877.495	1.74
877.662	2.75
877.828	1.49
877.994	1.81
878.16	-1.19
878.326	0.82
878.492	0.28
878.658	-0.31
878.824	1.45
878.99	2.53
879.156	0.51
879.322	3.74
879.487	0.45
879.653	1.02
879.819	-0.7
879.985	-0.01
880.151	1.78
880.317	1.07
880.483	1.13
880.648	2.12
880.814	-1.51
880.98	0.06
881.146	-1.06
881.312	-1.36
881.477	1.53
881.643	2.45
881.809	3.73
881.974	2.64
882.14	-1.01
882.306	2.06
882.471	5.3
882.637	0.04
882.803	1.9
882.968	2.46
883.134	3.88
883.299	0.83
883.465	0.77
883.63	2.65
883.796	2.36
883.961	2.87
884.127	2.68
884.292	-3.17
884.458	-2.23
884.623	-2.22
