Data from Apollo_Calib_20240827__AbsoluteIrradiance__339__04-48-02-390.txt Node

Date: Wed Aug 28 04:48:02 BST 2024
User: biology
Spectrometer: FLMT08252
Trigger mode: 0
Integration Time (sec): 5.000000E-1
Scans to average: 5
Electric dark correction enabled: true
Nonlinearity correction enabled: false
Boxcar width: 0
XAxis mode: Wavelengths
Number of Pixels in Spectrum: 3648
>>>>>Begin Spectral Data<<<<<
179.588	-0
179.809	-0
180.03	-0
180.251	-0
180.473	-0
180.694	0
180.915	0
181.136	-0
181.357	0
181.578	-0
181.799	-0
182.02	-0
182.241	0
182.462	0
182.683	0
182.904	-0
183.125	-0
183.346	0
183.567	0
183.788	-0
184.009	-0
184.23	0
184.451	0
184.672	-0
184.892	-0
185.113	0
185.334	0
185.555	-0
185.776	-0
185.996	0
186.217	0
186.438	-0
186.659	-0
186.879	0
187.1	0
187.321	-0
187.541	-0
187.762	0
187.983	-0
188.203	-0
188.424	0
188.644	0
188.865	0
189.086	-0
189.306	0
189.527	0
189.747	-0
189.968	-0
190.188	0
190.409	0
190.629	0
190.849	-0
191.07	-0
191.29	0
191.511	0
191.731	-0
191.951	-0
192.172	-0
192.392	-0
192.612	0
192.833	0
193.053	0
193.273	0
193.493	-0
193.714	-0
193.934	0
194.154	0
194.374	0
194.594	0
194.815	0
195.035	0
195.255	0
195.475	-0
195.695	0
195.915	0
196.135	-0
196.355	0
196.575	0
196.795	0
197.015	-0
197.235	0
197.455	-0
197.675	0
197.895	-0
198.115	0
198.335	0
198.555	0
198.775	0
198.995	0
199.214	0
199.434	0
199.654	-0
199.874	-0
200.094	0.99
200.313	-0.27
200.533	-0.22
200.753	-0.64
200.973	1.21
201.192	0.98
201.412	-0.83
201.632	-0.17
201.851	0.79
202.071	-0.23
202.291	-0.08
202.51	0.11
202.73	0.79
202.95	-0.22
203.169	-0.57
203.389	0.18
203.608	0.31
203.828	-0.46
204.047	-0.1
204.267	0.61
204.486	0.18
204.706	0.22
204.925	0.27
205.145	-0.12
205.364	0.51
205.583	0.53
205.803	-0.2
206.022	-0.06
206.242	-0.13
206.461	0.18
206.68	-0.23
206.9	0.14
207.119	0.67
207.338	0.82
207.557	-0.25
207.777	-0.23
207.996	-0.01
208.215	0.54
208.434	-0.2
208.654	-0.28
208.873	0.13
209.092	0.66
209.311	-0.22
209.53	0.14
209.749	0
209.968	-0.12
210.187	-0.01
210.407	-0.49
210.626	-0.14
210.845	0.5
211.064	0.26
211.283	-0.26
211.502	0.25
211.721	0.03
211.94	-0.01
212.159	0.33
212.377	0.44
212.596	0.46
212.815	0.22
213.034	0.21
213.253	0.4
213.472	0.46
213.691	0.02
213.91	-0.2
214.128	0.08
214.347	0.26
214.566	-0.27
214.785	-0.35
215.003	0.4
215.222	0.03
215.441	-0.05
215.66	-0.22
215.878	0.1
216.097	0.24
216.316	-0.16
216.534	-0.06
216.753	0.35
216.972	0.01
217.19	0
217.409	-0.16
217.627	0.03
217.846	-0.12
218.064	0.1
218.283	-0.01
218.501	0.62
218.72	0.26
218.938	-0
219.157	-0.11
219.375	0.21
219.594	0.16
219.812	-0.06
220.031	-0.01
220.249	0.33
220.467	0.4
220.686	-0.01
220.904	-0.13
221.122	-0.12
221.341	0.47
221.559	-0.04
221.777	-0.09
221.995	-0
222.214	0.05
222.432	-0
222.65	0.16
222.868	0.09
223.086	0.13
223.305	0.17
223.523	0.02
223.741	0.44
223.959	-0.13
224.177	-0.14
224.395	-0.04
224.613	0.13
224.831	0.31
225.049	-0.16
225.267	-0.1
225.485	0.16
225.703	-0.08
225.921	-0.02
226.139	-0.16
226.357	0.22
226.575	0.14
226.793	0.06
227.011	0.63
227.229	0.2
227.447	0.21
227.665	0.04
227.883	-0.19
228.1	0.08
228.318	0.05
228.536	-0.29
228.754	-0.04
228.972	0.09
229.189	0.23
229.407	-0.02
229.625	-0.03
229.843	0.24
230.06	0.17
230.278	-0.04
230.496	0.14
230.713	0.05
230.931	0.25
231.149	0.02
231.366	-0.21
231.584	-0.02
231.801	0.41
232.019	-0.05
232.236	-0.09
232.454	-0.13
232.671	0.01
232.889	0.06
233.106	-0.14
233.324	0.02
233.541	0.04
233.759	0.04
233.976	-0.03
234.194	0.01
234.411	0.01
234.628	-0.07
234.846	0.01
235.063	0.09
235.28	0.01
235.498	0.1
235.715	-0.12
235.932	0.16
236.149	0.02
236.367	-0.04
236.584	0.12
236.801	0.04
237.018	0.15
237.236	-0.03
237.453	-0.06
237.67	0.19
237.887	0.05
238.104	0.05
238.321	-0.03
238.538	-0
238.755	0.19
238.973	-0.12
239.19	0.08
239.407	0.13
239.624	0.08
239.841	-0.13
240.058	-0.07
240.275	0.14
240.492	0.03
240.709	-0.04
240.925	0.02
241.142	0.1
241.359	-0.03
241.576	-0.09
241.793	0.05
242.01	0.06
242.227	0.08
242.444	0.11
242.66	0.1
242.877	-0.04
243.094	-0.04
243.311	0
243.527	0.05
243.744	0.1
243.961	0.12
244.178	-0.01
244.394	0.04
244.611	0.28
244.828	0.22
245.044	-0.13
245.261	0.01
245.477	0.01
245.694	0.1
245.911	0.04
246.127	0.06
246.344	0.24
246.56	0.11
246.777	-0.06
246.993	-0.04
247.21	0.15
247.426	0.11
247.643	0.04
247.859	-0.06
248.076	0.07
248.292	0.26
248.508	0.05
248.725	0.1
248.941	0.01
249.157	0.07
249.374	-0.01
249.59	-0.02
249.806	0.12
250.023	0.26
250.239	-0.12
250.455	0.01
250.671	0.04
250.888	0.06
251.104	0.09
251.32	-0.04
251.536	-0.01
251.752	0.02
251.969	0.02
252.185	0.04
252.401	0.24
252.617	-0.06
252.833	-0.03
253.049	0.01
253.265	0.08
253.481	0.06
253.697	-0.01
253.913	0.02
254.129	0.03
254.345	0.09
254.561	0.01
254.777	-0.02
254.993	0.12
255.209	0.06
255.425	0.01
255.641	-0.02
255.857	0.12
256.073	0.02
256.288	-0.05
256.504	-0.02
256.72	0.05
256.936	0.14
257.152	0.03
257.367	0.03
257.583	-0.02
257.799	0.15
258.015	-0.02
258.23	-0.06
258.446	0.21
258.662	0.11
258.877	0.03
259.093	-0.1
259.309	0.06
259.524	0.06
259.74	0.01
259.955	-0.11
260.171	0.05
260.387	0.05
260.602	0.13
260.818	0.08
261.033	-0.05
261.249	0.01
261.464	0
261.68	-0.01
261.895	0.05
262.11	0.12
262.326	0.03
262.541	-0.06
262.757	0.06
262.972	0.06
263.187	0.02
263.403	-0.01
263.618	0.09
263.833	0.04
264.049	0.01
264.264	0.03
264.479	0.09
264.694	0.14
264.91	-0.05
265.125	-0.05
265.34	0.08
265.555	0.15
265.77	0.05
265.986	0.04
266.201	0.12
266.416	0.12
266.631	0.06
266.846	0.05
267.061	0.11
267.276	0.13
267.491	-0.1
267.706	0.07
267.921	0.06
268.136	0.06
268.351	0.01
268.566	-0.01
268.781	0.18
268.996	0.04
269.211	-0
269.426	0.06
269.641	0.06
269.856	0.12
270.071	-0.01
270.285	-0.01
270.5	0.15
270.715	0.06
270.93	0.01
271.145	-0
271.359	0.12
271.574	0.03
271.789	0.03
272.004	-0.08
272.218	-0.04
272.433	0.08
272.648	0.01
272.862	0.07
273.077	0.02
273.292	0.04
273.506	-0.01
273.721	0.01
273.936	0.09
274.15	0.13
274.365	0.02
274.579	0.12
274.794	0.11
275.008	0.11
275.223	-0.06
275.437	0.11
275.652	0.12
275.866	0.09
276.081	0.08
276.295	0.08
276.509	0.06
276.724	0.08
276.938	0.09
277.153	0.08
277.367	0.1
277.581	-0.05
277.796	0.01
278.01	-0.03
278.224	0.11
278.438	0.12
278.653	-0.01
278.867	0
279.081	-0.09
279.295	0.01
279.51	0.13
279.724	-0.04
279.938	0.03
280.152	0.08
280.366	0.03
280.58	0.1
280.794	0.12
281.008	0.09
281.222	0.08
281.437	0.13
281.651	0.01
281.865	0.14
282.079	0.06
282.293	-0.09
282.507	-0.01
282.721	0.05
282.935	0
283.148	-0.01
283.362	0.05
283.576	-0.03
283.79	0.05
284.004	0.01
284.218	0.15
284.432	-0.01
284.646	0.04
284.859	0.01
285.073	0.03
285.287	0.05
285.501	0.01
285.714	0.02
285.928	0.09
286.142	0.1
286.356	0.03
286.569	-0.01
286.783	0.12
286.997	0.11
287.21	0.04
287.424	0.04
287.637	0.08
287.851	0.05
288.065	0.07
288.278	0.03
288.492	0.08
288.705	0
288.919	0.12
289.132	-0.04
289.346	0.14
289.559	-0.04
289.773	0.02
289.986	0.05
290.2	0.06
290.413	0.12
290.626	0.02
290.84	0.06
291.053	0.04
291.267	0.12
291.48	0.04
291.693	0.06
291.906	0.03
292.12	0.03
292.333	-0.01
292.546	0.06
292.76	0.1
292.973	0.09
293.186	0.12
293.399	0.03
293.612	0.1
293.826	0.08
294.039	-0.02
294.252	0.04
294.465	0.11
294.678	0.07
294.891	0.02
295.104	0.02
295.317	0.01
295.53	0.06
295.743	0.07
295.956	0.06
296.169	0.14
296.382	0.11
296.595	-0.04
296.808	0.01
297.021	0.11
297.234	0.09
297.447	0.05
297.66	0.08
297.873	0.1
298.086	0.1
298.299	0.04
298.511	-0.02
298.724	0.05
298.937	0.06
299.15	-0
299.363	0.05
299.575	0.06
299.788	0.08
300.001	0.02
300.213	-0.01
300.426	0.05
300.639	0
300.852	0
301.064	0.1
301.277	0.15
301.489	0.11
301.702	0.05
301.915	0.07
302.127	0.05
302.34	0.05
302.552	0.08
302.765	-0.01
302.977	0.1
303.19	0.05
303.402	0.04
303.615	0.07
303.827	0.05
304.04	0.05
304.252	0.09
304.464	0
304.677	0.17
304.889	0.1
305.102	0
305.314	0.05
305.526	0.06
305.739	0.12
305.951	0.01
306.163	0.04
306.375	0.16
306.588	-0
306.8	0.03
307.012	0.02
307.224	0.06
307.436	0.11
307.649	-0.01
307.861	0.06
308.073	0.12
308.285	0.07
308.497	-0.01
308.709	0.03
308.921	0.06
309.133	0.11
309.346	-0.01
309.558	0.04
309.77	0.08
309.982	0.11
310.194	0.08
310.406	-0.01
310.617	0.11
310.829	0.07
311.041	0.08
311.253	0.01
311.465	0.03
311.677	0.08
311.889	0.04
312.101	0.01
312.313	0.14
312.524	0.11
312.736	0
312.948	0.04
313.16	0.13
313.372	0.06
313.583	0.06
313.795	0.02
314.007	0.04
314.218	0.11
314.43	0.02
314.642	0.07
314.853	-0.03
315.065	0.13
315.277	0.06
315.488	0.05
315.7	0.06
315.912	0.07
316.123	0.04
316.335	0.06
316.546	0.17
316.758	0.05
316.969	0.01
317.181	0.04
317.392	0.05
317.604	0.11
317.815	0
318.026	0.03
318.238	0.02
318.449	0.08
318.661	-0.04
318.872	0.03
319.083	0.02
319.295	0.11
319.506	0.02
319.717	0.04
319.929	0.07
320.14	0.05
320.351	0.08
320.562	0.01
320.774	0.08
320.985	0.07
321.196	-0
321.407	-0.04
321.618	0.07
321.829	0.06
322.041	0.09
322.252	0.07
322.463	0.1
322.674	0.06
322.885	-0
323.096	0.02
323.307	0.04
323.518	0.1
323.729	0.03
323.94	0.1
324.151	0.01
324.362	0.08
324.573	0.1
324.784	0.02
324.995	0.11
325.206	0.08
325.417	0.03
325.628	0.03
325.838	0.04
326.049	0.06
326.26	0.08
326.471	0.06
326.682	0.07
326.892	0.07
327.103	0
327.314	-0
327.525	0.08
327.735	0.1
327.946	0.04
328.157	0.04
328.368	0.08
328.578	0.04
328.789	0.07
328.999	0.05
329.21	0.04
329.421	0.06
329.631	0.06
329.842	0.02
330.052	0.1
330.263	0.13
330.473	0.11
330.684	0.06
330.894	0.05
331.105	0.07
331.315	0.03
331.526	-0.02
331.736	0.16
331.947	0.06
332.157	0.1
332.367	0.02
332.578	0.09
332.788	0.12
332.999	0.08
333.209	0.06
333.419	-0.01
333.629	0.08
333.84	0.1
334.05	0.04
334.26	0.08
334.47	0.04
334.681	0.11
334.891	0.02
335.101	0.13
335.311	0.12
335.521	0.03
335.732	0.06
335.942	0.12
336.152	0.05
336.362	0.07
336.572	0.08
336.782	0.09
336.992	0.06
337.202	0.04
337.412	-0
337.622	0.09
337.832	0.07
338.042	0.04
338.252	0.01
338.462	0.03
338.672	0.05
338.882	0.03
339.092	0.02
339.302	0.14
339.511	0.07
339.721	0.05
339.931	0.04
340.141	0.15
340.351	0.1
340.561	0.12
340.77	0.05
340.98	0.04
341.19	0.06
341.4	0.01
341.609	0.02
341.819	0.05
342.029	-0.01
342.238	0.06
342.448	0.01
342.658	0.09
342.867	0.08
343.077	0.05
343.286	0.11
343.496	0.02
343.706	0.13
343.915	0.01
344.125	0.04
344.334	0.05
344.544	-0
344.753	0.02
344.963	0.02
345.172	0.03
345.381	0.03
345.591	0.02
345.8	0.06
346.01	0.13
346.219	0.11
346.428	-0.09
346.638	0.03
346.847	0.07
347.056	0.09
347.266	0.01
347.475	0.03
347.684	0.09
347.893	0.12
348.103	0.09
348.312	0.07
348.521	0.09
348.73	0.06
348.94	0.07
349.149	0.07
349.358	0.03
349.567	0.05
349.776	0
349.985	0.02
350.194	0.1
350.403	0.08
350.612	-0
350.821	0.01
351.03	0.02
351.239	0.02
351.448	0.07
351.657	0.03
351.866	0.15
352.075	0.07
352.284	0.08
352.493	-0.01
352.702	0.08
352.911	0.09
353.12	0.09
353.329	0.04
353.538	0.05
353.746	0.03
353.955	0.03
354.164	0.05
354.373	0.08
354.582	0.07
354.79	0.08
354.999	0.11
355.208	0.03
355.416	0.15
355.625	0
355.834	0.05
356.042	0.09
356.251	0.05
356.46	-0.03
356.668	0.09
356.877	0.14
357.085	0.11
357.294	-0.04
357.503	0.03
357.711	0.01
357.92	0.14
358.128	0.08
358.337	0.02
358.545	0.09
358.754	0.05
358.962	0.08
359.17	0.04
359.379	0.13
359.587	0.1
359.796	0.02
360.004	0.08
360.212	0.09
360.421	0.09
360.629	0.03
360.837	-0.01
361.046	0.1
361.254	0.15
361.462	0.04
361.67	0.05
361.879	0.08
362.087	0.08
362.295	0.07
362.503	0.01
362.711	0.02
362.92	0.03
363.128	0.04
363.336	0.02
363.544	0.04
363.752	0.05
363.96	0.03
364.168	-0.02
364.376	0.06
364.584	0.11
364.792	0.06
365	0.06
365.208	0.08
365.416	0.09
365.624	0.05
365.832	0.02
366.04	0.11
366.248	0.08
366.456	0.07
366.664	0.03
366.872	0.07
367.079	0.07
367.287	0.05
367.495	0.06
367.703	0.09
367.911	0.05
368.118	0.05
368.326	0.05
368.534	0.03
368.742	0.13
368.949	-0.06
369.157	-0
369.365	0.1
369.572	0.05
369.78	0.04
369.988	0.07
370.195	0.07
370.403	0.06
370.61	0.07
370.818	0.05
371.026	0.15
371.233	0.03
371.441	0.04
371.648	0.03
371.856	0.05
372.063	0.05
372.271	0.04
372.478	0.05
372.685	-0.01
372.893	0.1
373.1	0.01
373.308	0.02
373.515	0.18
373.722	0.1
373.93	0.04
374.137	0.06
374.344	0.08
374.552	0.11
374.759	0.11
374.966	0.07
375.173	0.07
375.381	0.13
375.588	0.04
375.795	-0.03
376.002	0.05
376.209	0.02
376.417	0.06
376.624	0.1
376.831	0.11
377.038	0.04
377.245	0.01
377.452	0.01
377.659	0.03
377.866	0.03
378.073	0.03
378.28	0.06
378.487	0.07
378.694	0.07
378.901	0.06
379.108	0.04
379.315	0.06
379.522	0.18
379.729	0.04
379.936	0.04
380.143	0.05
380.35	0.08
380.557	0.06
380.763	0.04
380.97	0.06
381.177	0.06
381.384	0.1
381.591	0.06
381.797	0.09
382.004	0.11
382.211	0.11
382.418	0.07
382.624	0.09
382.831	0.11
383.038	0.06
383.244	0.07
383.451	0.04
383.658	0.1
383.864	0.03
384.071	0.03
384.277	0.14
384.484	-0
384.69	0.09
384.897	0.08
385.103	0.06
385.31	-0.02
385.516	0.04
385.723	0.03
385.929	0.03
386.136	0.04
386.342	0.13
386.549	0.05
386.755	0.13
386.961	0.1
387.168	0.02
387.374	0.06
387.58	0.09
387.787	0.06
387.993	0.08
388.199	0.04
388.406	0.04
388.612	0.04
388.818	0.04
389.024	0.07
389.231	0.07
389.437	0.14
389.643	0.1
389.849	0.05
390.055	0.09
390.261	0.07
390.467	0.12
390.674	0.04
390.88	0.04
391.086	0.11
391.292	0.01
391.498	0.12
391.704	0.09
391.91	0.05
392.116	0.08
392.322	0.01
392.528	0.1
392.734	0.06
392.94	0.07
393.146	0.03
393.352	0.1
393.557	0.05
393.763	0.06
393.969	0.11
394.175	0.07
394.381	0.06
394.587	0.03
394.792	0.08
394.998	0.11
395.204	0.14
395.41	0.04
395.615	0.11
395.821	0.09
396.027	0.06
396.233	0.07
396.438	0.13
396.644	0.14
396.85	0.1
397.055	0.07
397.261	0.12
397.466	0.13
397.672	0.1
397.878	0.12
398.083	0.14
398.289	0.07
398.494	0.14
398.7	0.12
398.905	0.03
399.111	0.14
399.316	0.05
399.522	0.07
399.727	0.1
399.932	0.05
400.138	0.07
400.343	0.14
400.549	0.07
400.754	0.09
400.959	0.14
401.165	0.1
401.37	0.08
401.575	0.04
401.78	0.07
401.986	0.09
402.191	0.12
402.396	0.09
402.601	0.15
402.807	0.16
403.012	0.1
403.217	0.14
403.422	0.11
403.627	0.11
403.832	0.1
404.037	0.13
404.243	0.1
404.448	0.09
404.653	0.12
404.858	0.07
405.063	0.14
405.268	0.12
405.473	0.09
405.678	0.12
405.883	0.23
406.088	0.17
406.293	0.09
406.498	0.11
406.703	0.16
406.907	0.14
407.112	0.08
407.317	0.12
407.522	0.21
407.727	0.11
407.932	0.16
408.136	0.23
408.341	0.14
408.546	0.13
408.751	0.11
408.956	0.09
409.16	0.21
409.365	0.19
409.57	0.1
409.774	0.16
409.979	0.24
410.184	0.19
410.388	0.1
410.593	0.25
410.798	0.2
411.002	0.18
411.207	0.23
411.411	0.23
411.616	0.19
411.82	0.15
412.025	0.24
412.229	0.23
412.434	0.33
412.638	0.29
412.843	0.25
413.047	0.31
413.252	0.22
413.456	0.25
413.66	0.31
413.865	0.26
414.069	0.36
414.273	0.25
414.478	0.33
414.682	0.35
414.886	0.31
415.091	0.31
415.295	0.3
415.499	0.44
415.703	0.32
415.908	0.43
416.112	0.35
416.316	0.54
416.52	0.46
416.724	0.44
416.929	0.44
417.133	0.64
417.337	0.48
417.541	0.51
417.745	0.58
417.949	0.61
418.153	0.64
418.357	0.59
418.561	0.79
418.765	0.72
418.969	0.83
419.173	0.8
419.377	0.77
419.581	0.96
419.785	0.84
419.989	0.8
420.193	0.92
420.397	0.95
420.601	1.11
420.804	1.11
421.008	1.08
421.212	1.16
421.416	1.22
421.62	1.11
421.823	1.21
422.027	1.32
422.231	1.36
422.435	1.31
422.638	1.32
422.842	1.38
423.046	1.41
423.249	1.52
423.453	1.54
423.657	1.67
423.86	1.66
424.064	1.69
424.268	1.85
424.471	1.81
424.675	1.99
424.878	1.98
425.082	2.04
425.285	2.24
425.489	2.24
425.692	2.24
425.896	2.32
426.099	2.47
426.303	2.53
426.506	2.56
426.71	2.71
426.913	2.86
427.116	2.93
427.32	2.93
427.523	3.06
427.726	3.25
427.93	3.27
428.133	3.35
428.336	3.52
428.54	3.54
428.743	3.8
428.946	3.93
429.149	3.93
429.353	3.94
429.556	4.02
429.759	4.1
429.962	4.12
430.165	4.28
430.368	4.19
430.571	4.15
430.775	4.29
430.978	4.25
431.181	4.3
431.384	4.37
431.587	4.47
431.79	4.68
431.993	4.6
432.196	4.8
432.399	5.02
432.602	5.19
432.805	5.23
433.008	5.44
433.211	5.41
433.414	5.79
433.616	5.82
433.819	5.74
434.022	5.91
434.225	6.05
434.428	6.04
434.631	6.42
434.833	6.23
435.036	6.47
435.239	6.55
435.442	6.56
435.645	6.71
435.847	6.86
436.05	7.14
436.253	7.25
436.455	7.31
436.658	7.26
436.861	7.58
437.063	7.72
437.266	7.78
437.468	7.92
437.671	8.35
437.874	8.33
438.076	8.27
438.279	8.74
438.481	8.91
438.684	9.37
438.886	9.22
439.089	9.48
439.291	9.75
439.494	10.13
439.696	10.19
439.899	10.77
440.101	11.06
440.303	11.33
440.506	11.96
440.708	11.9
440.91	12.31
441.113	12.45
441.315	12.87
441.517	12.85
441.72	13.34
441.922	13.2
442.124	13.31
442.326	13.76
442.529	14.16
442.731	14.24
442.933	14.71
443.135	14.8
443.337	14.85
443.539	15.45
443.742	15.25
443.944	16.04
444.146	15.82
444.348	16.11
444.55	16.22
444.752	16.59
444.954	16.69
445.156	16.8
445.358	17.38
445.56	17.79
445.762	17.86
445.964	18.31
446.166	18.12
446.368	18.39
446.57	18.4
446.772	18.2
446.974	18.03
447.175	18.49
447.377	18.3
447.579	18.79
447.781	18.61
447.983	18.48
448.184	18.05
448.386	18.61
448.588	18.19
448.79	18.23
448.991	18.55
449.193	18.72
449.395	17.9
449.597	17.75
449.798	17.56
450	17.13
450.202	17.1
450.403	17.24
450.605	16.92
450.806	16.79
451.008	16.55
451.21	16.28
451.411	15.77
451.613	14.92
451.814	15.17
452.016	15.11
452.217	14.26
452.419	14.25
452.62	13.88
452.821	13.55
453.023	13.45
453.224	13.05
453.426	12.49
453.627	11.69
453.828	11.79
454.03	11.91
454.231	11.79
454.432	11.51
454.634	11.18
454.835	10.85
455.036	10.79
455.238	10.33
455.439	10.06
455.64	9.72
455.841	9.42
456.042	9.58
456.244	9.26
456.445	8.94
456.646	8.55
456.847	8.51
457.048	8.38
457.249	8.45
457.45	8.22
457.651	7.63
457.852	7.46
458.054	7.15
458.255	7.04
458.456	7.14
458.657	7.06
458.858	6.6
459.058	6.41
459.259	6.45
459.46	6.2
459.661	6.08
459.862	6.18
460.063	6.09
460.264	6
460.465	5.71
460.666	5.76
460.866	5.41
461.067	5.15
461.268	5.22
461.469	5.19
461.67	4.96
461.87	4.89
462.071	4.8
462.272	4.67
462.473	4.74
462.673	4.82
462.874	4.7
463.075	4.62
463.275	4.65
463.476	4.61
463.676	4.66
463.877	4.4
464.078	4.37
464.278	4.36
464.479	4.25
464.679	4.1
464.88	3.99
465.08	3.95
465.281	3.87
465.481	3.67
465.682	3.55
465.882	3.44
466.083	3.27
466.283	3.23
466.483	3.17
466.684	2.95
466.884	2.84
467.085	2.85
467.285	3
467.485	2.74
467.686	2.66
467.886	2.54
468.086	2.52
468.286	2.35
468.487	2.48
468.687	2.34
468.887	2.27
469.087	2.38
469.287	2.25
469.488	2.07
469.688	2.16
469.888	2.11
470.088	2.03
470.288	2.03
470.488	1.91
470.688	1.76
470.888	1.7
471.088	1.68
471.288	1.76
471.488	1.72
471.688	1.67
471.888	1.53
472.088	1.64
472.288	1.5
472.488	1.43
472.688	1.39
472.888	1.41
473.088	1.4
473.288	1.3
473.488	1.33
473.688	1.42
473.887	1.25
474.087	1.19
474.287	1.2
474.487	1.14
474.687	1.21
474.886	1.09
475.086	1.12
475.286	1.12
475.486	1.03
475.685	1.02
475.885	0.94
476.085	1.02
476.284	0.97
476.484	0.98
476.684	0.95
476.883	1.01
477.083	0.91
477.282	0.86
477.482	0.97
477.681	0.89
477.881	0.81
478.08	0.79
478.28	0.74
478.479	0.82
478.679	0.84
478.878	0.71
479.078	0.69
479.277	0.72
479.477	0.69
479.676	0.7
479.875	0.64
480.075	0.57
480.274	0.64
480.473	0.67
480.673	0.59
480.872	0.65
481.071	0.63
481.271	0.62
481.47	0.53
481.669	0.53
481.868	0.52
482.067	0.52
482.267	0.49
482.466	0.47
482.665	0.46
482.864	0.46
483.063	0.46
483.262	0.47
483.461	0.5
483.661	0.48
483.86	0.45
484.059	0.45
484.258	0.4
484.457	0.38
484.656	0.39
484.855	0.45
485.054	0.32
485.253	0.33
485.452	0.35
485.651	0.36
485.849	0.36
486.048	0.31
486.247	0.3
486.446	0.33
486.645	0.27
486.844	0.27
487.043	0.27
487.241	0.33
487.44	0.28
487.639	0.28
487.838	0.3
488.037	0.28
488.235	0.32
488.434	0.23
488.633	0.23
488.831	0.26
489.03	0.29
489.229	0.23
489.427	0.23
489.626	0.25
489.825	0.28
490.023	0.23
490.222	0.2
490.42	0.24
490.619	0.24
490.817	0.18
491.016	0.17
491.214	0.23
491.413	0.16
491.611	0.18
491.81	0.17
492.008	0.18
492.207	0.2
492.405	0.17
492.604	0.12
492.802	0.14
493	0.18
493.199	0.14
493.397	0.13
493.595	0.15
493.794	0.13
493.992	0.18
494.19	0.14
494.388	0.16
494.587	0.12
494.785	0.14
494.983	0.09
495.181	0.13
495.379	0.14
495.578	0.11
495.776	0.12
495.974	0.13
496.172	0.11
496.37	0.12
496.568	0.08
496.766	0.11
496.964	0.14
497.162	0.12
497.36	0.07
497.558	0.13
497.756	0.12
497.954	0.09
498.152	0.09
498.35	0.1
498.548	0.09
498.746	0.11
498.944	0.08
499.142	0.07
499.34	0.05
499.538	0.1
499.736	0.07
499.933	0.12
500.131	0.1
500.329	0.11
500.527	0.12
500.725	0.13
500.922	0.12
501.12	0.09
501.318	0.1
501.516	0.07
501.713	0.1
501.911	0.07
502.109	0.03
502.306	0.1
502.504	0.05
502.701	0.08
502.899	0.08
503.097	0.1
503.294	0.08
503.492	0.07
503.689	0.09
503.887	0.09
504.084	0.11
504.282	0.07
504.479	0.02
504.677	0.08
504.874	0.04
505.072	0.06
505.269	0.05
505.466	0.08
505.664	0.08
505.861	0.02
506.059	0.05
506.256	0.08
506.453	0.06
506.651	0.09
506.848	0.09
507.045	0.09
507.242	0.07
507.44	0.06
507.637	0.06
507.834	0.04
508.031	0.08
508.229	0.03
508.426	0.03
508.623	0.07
508.82	0.04
509.017	0.03
509.214	0.06
509.411	0.05
509.608	0.04
509.805	0.05
510.003	0.02
510.2	0.04
510.397	0.06
510.594	0.03
510.791	0.04
510.988	0.03
511.184	0.07
511.381	0.03
511.578	0.02
511.775	0.06
511.972	0.02
512.169	0.06
512.366	0.06
512.563	0.07
512.76	0.02
512.956	0.05
513.153	0.02
513.35	0.03
513.547	0.03
513.744	0.04
513.94	0.01
514.137	0.06
514.334	0.06
514.53	0.04
514.727	0.03
514.924	0.09
515.12	0.03
515.317	0.02
515.514	0.04
515.71	0.02
515.907	0.03
516.103	0.04
516.3	0.06
516.497	0.07
516.693	0.09
516.89	0.05
517.086	0.02
517.283	0.08
517.479	0.03
517.676	0.02
517.872	0.03
518.068	0.03
518.265	0.02
518.461	0.01
518.658	0.02
518.854	0.05
519.05	0.03
519.247	0.02
519.443	0.06
519.639	0.05
519.836	0.05
520.032	0.04
520.228	0.03
520.424	0.08
520.621	0.04
520.817	0.02
521.013	0.07
521.209	0.06
521.405	0.07
521.601	0.03
521.798	0.05
521.994	0.06
522.19	0.01
522.386	-0
522.582	0.04
522.778	0.03
522.974	0.02
523.17	0.03
523.366	0.03
523.562	0.06
523.758	0.03
523.954	0.01
524.15	0.03
524.346	0.05
524.542	0.01
524.738	0.02
524.934	0.03
525.129	0.04
525.325	0.04
525.521	0.03
525.717	0.05
525.913	0.05
526.109	0.04
526.304	0.03
526.5	0.05
526.696	0.05
526.892	0.04
527.087	0.03
527.283	0.01
527.479	0.05
527.674	0.03
527.87	0.01
528.066	0.01
528.261	0.06
528.457	0.04
528.653	0.01
528.848	0.02
529.044	0.03
529.239	0.02
529.435	0.05
529.63	0.02
529.826	0.08
530.021	0.04
530.217	0.03
530.412	0.01
530.608	0.01
530.803	0.02
530.999	0
531.194	-0.02
531.389	0.04
531.585	-0.02
531.78	0.01
531.975	0.02
532.171	0.05
532.366	0.01
532.561	0.03
532.757	0
532.952	0.03
533.147	0.06
533.342	0.01
533.538	0.01
533.733	0.06
533.928	0.02
534.123	0.01
534.318	-0.01
534.513	0.02
534.709	0.04
534.904	-0
535.099	0.01
535.294	0.04
535.489	0.03
535.684	0.02
535.879	0.01
536.074	0.03
536.269	0.01
536.464	0.03
536.659	0.02
536.854	0.01
537.049	0.04
537.244	0.03
537.439	0
537.634	0.04
537.828	0.04
538.023	0.02
538.218	-0.01
538.413	0.03
538.608	-0.02
538.803	0.05
538.997	-0.01
539.192	0.06
539.387	0.04
539.582	-0.01
539.776	0.03
539.971	0.02
540.166	0.02
540.36	0
540.555	0.03
540.75	0.02
540.944	0.02
541.139	-0.02
541.334	0.02
541.528	0.04
541.723	0.05
541.917	0.02
542.112	-0.01
542.306	0.02
542.501	0.01
542.695	0.03
542.89	0.02
543.084	0.03
543.279	0.02
543.473	0.01
543.668	0.03
543.862	0.01
544.056	0.05
544.251	0
544.445	0.02
544.64	0.01
544.834	-0.01
545.028	0.04
545.222	0.04
545.417	0.04
545.611	0.04
545.805	0.02
546	-0
546.194	0.01
546.388	0.01
546.582	0.03
546.776	0.03
546.97	0.03
547.165	0.03
547.359	0.04
547.553	0.01
547.747	0.05
547.941	0.01
548.135	0.03
548.329	0.05
548.523	0.05
548.717	0.01
548.911	0.02
549.105	0.01
549.299	0.02
549.493	0.05
549.687	0.03
549.881	0.02
550.075	0.02
550.269	-0.01
550.463	0.04
550.657	0.02
550.85	0.02
551.044	-0.01
551.238	0.02
551.432	0.01
551.626	0
551.82	0.01
552.013	0
552.207	0.02
552.401	0.04
552.594	0.05
552.788	0.01
552.982	0
553.176	-0.01
553.369	0.04
553.563	0.04
553.756	-0.03
553.95	-0.01
554.144	0.03
554.337	0.03
554.531	0.02
554.724	0.03
554.918	0.01
555.111	0.05
555.305	0.04
555.498	0.06
555.692	0.07
555.885	-0.02
556.079	0.02
556.272	0
556.466	0.06
556.659	0.01
556.852	0.01
557.046	0.01
557.239	0.05
557.432	-0.02
557.626	0.01
557.819	0.02
558.012	0.04
558.206	0.04
558.399	0.01
558.592	0.04
558.785	0.01
558.979	0.03
559.172	0.02
559.365	0.05
559.558	0.03
559.751	0.01
559.944	0.02
560.138	0.02
560.331	-0
560.524	-0.01
560.717	0.01
560.91	0.03
561.103	0.03
561.296	0.01
561.489	0.02
561.682	0.03
561.875	0.06
562.068	0.03
562.261	0.02
562.454	0.07
562.647	0.02
562.84	0.02
563.032	0.02
563.225	0.04
563.418	-0
563.611	0
563.804	0.01
563.997	-0.02
564.19	-0.02
564.382	0.05
564.575	-0.01
564.768	0.02
564.961	0.02
565.153	0.02
565.346	0.04
565.539	0.03
565.731	0.05
565.924	0.03
566.117	0.05
566.309	0.02
566.502	0.02
566.695	-0
566.887	0.04
567.08	-0.01
567.272	0.01
567.465	0.01
567.657	0.02
567.85	0.03
568.042	0.05
568.235	0.06
568.427	0.03
568.62	-0
568.812	0.01
569.005	0
569.197	-0.02
569.389	0.04
569.582	0.01
569.774	0.02
569.966	-0.02
570.159	0.01
570.351	0.03
570.543	-0
570.736	-0
570.928	-0
571.12	0.03
571.312	-0
571.505	-0.02
571.697	0.06
571.889	0.01
572.081	0.01
572.273	-0
572.465	0.05
572.658	0.02
572.85	0.02
573.042	-0.01
573.234	0.02
573.426	0.05
573.618	-0.03
573.81	0.03
574.002	0.04
574.194	0.04
574.386	-0.04
574.578	-0.04
574.77	-0.03
574.962	0.01
575.154	-0.02
575.346	-0.01
575.538	0.02
575.729	0
575.921	-0
576.113	0
576.305	0.03
576.497	0.02
576.689	0
576.88	-0.02
577.072	0.05
577.264	-0.01
577.456	0.02
577.647	-0.05
577.839	0.03
578.031	0.06
578.223	-0.02
578.414	-0.01
578.606	0.03
578.798	0.04
578.989	0.01
579.181	0
579.372	0.02
579.564	-0.02
579.755	0.04
579.947	0.01
580.139	0.04
580.33	-0.02
580.522	-0.01
580.713	-0.05
580.905	0.01
581.096	0.02
581.287	0.03
581.479	0
581.67	0.01
581.862	0.01
582.053	-0.01
582.244	-0.03
582.436	0
582.627	0.02
582.818	-0.02
583.01	-0
583.201	0.04
583.392	0.03
583.583	0.04
583.775	-0.01
583.966	-0.01
584.157	0.02
584.348	0
584.54	-0.02
584.731	0.02
584.922	0.02
585.113	-0.04
585.304	0.01
585.495	0.04
585.686	0.02
585.877	0.02
586.068	0.02
586.259	0.01
586.45	0.02
586.641	-0.01
586.832	-0.03
587.023	0.02
587.214	0.01
587.405	-0.01
587.596	-0.01
587.787	0.06
587.978	0.04
588.169	-0
588.36	-0.02
588.551	-0.02
588.742	-0
588.932	0.02
589.123	-0
589.314	0.02
589.505	0.03
589.696	0.02
589.886	-0.01
590.077	-0.02
590.268	0.04
590.458	-0.03
590.649	-0.01
590.84	0.03
591.03	-0.03
591.221	-0.03
591.412	-0.03
591.602	0.04
591.793	0.04
591.984	-0.01
592.174	-0.02
592.365	0.1
592.555	-0.01
592.746	0.04
592.936	0.03
593.127	0.03
593.317	0.06
593.508	0
593.698	-0.01
593.889	0.01
594.079	0.02
594.269	0.01
594.46	-0.01
594.65	0.02
594.84	-0
595.031	-0.02
595.221	-0.01
595.411	-0.04
595.602	0.06
595.792	0.02
595.982	-0.02
596.172	0.06
596.363	0.03
596.553	0.01
596.743	0.02
596.933	0.02
597.123	0.04
597.314	-0.02
597.504	-0.03
597.694	0.03
597.884	0.02
598.074	-0.02
598.264	-0.02
598.454	0.04
598.644	0.02
598.834	0.01
599.024	-0.07
599.214	0.02
599.404	0.05
599.594	-0.02
599.784	-0.02
599.974	0.09
600.164	0.01
600.354	-0.03
600.544	-0.05
600.734	0.01
600.924	0.05
601.114	-0.01
601.303	0.01
601.493	-0
601.683	-0.01
601.873	0
602.063	-0.05
602.252	0.05
602.442	-0.06
602.632	-0.02
602.821	-0.01
603.011	0.04
603.201	-0.02
603.39	-0
603.58	0
603.77	-0
603.959	0.04
604.149	0.01
604.339	-0.02
604.528	0.03
604.718	0.02
604.907	-0
605.097	0.02
605.286	-0.03
605.476	0.03
605.665	0.03
605.855	0.02
606.044	0.06
606.234	0.03
606.423	-0
606.612	-0.01
606.802	0.01
606.991	0.03
607.181	0
607.37	-0.04
607.559	0.02
607.749	-0.04
607.938	-0.01
608.127	-0.02
608.316	0
608.506	0.03
608.695	-0.01
608.884	-0.01
609.073	0.02
609.263	0.03
609.452	0.06
609.641	0.01
609.83	-0.04
610.019	-0
610.208	-0.03
610.397	0
610.586	0.03
610.775	-0.01
610.965	0.01
611.154	-0.04
611.343	0.01
611.532	0.03
611.721	-0.01
611.91	-0.01
612.099	0.02
612.287	0.01
612.476	-0.02
612.665	0.01
612.854	-0.01
613.043	0.03
613.232	-0.01
613.421	-0.06
613.61	-0
613.798	0
613.987	0.03
614.176	0.03
614.365	0.02
614.554	0
614.742	0.05
614.931	-0.02
615.12	0.04
615.309	-0.01
615.497	0.04
615.686	0
615.875	-0.01
616.063	0.02
616.252	-0.03
616.44	-0
616.629	0.02
616.818	0.01
617.006	0.01
617.195	-0.01
617.383	0.02
617.572	0
617.76	-0.02
617.949	-0.02
618.137	0.04
618.326	0.03
618.514	-0.02
618.703	-0.02
618.891	0.05
619.079	-0.07
619.268	0.03
619.456	-0.03
619.644	0.05
619.833	0.01
620.021	0.01
620.209	-0.03
620.398	0.03
620.586	0.02
620.774	0.02
620.962	-0
621.151	0.01
621.339	0.02
621.527	-0.05
621.715	-0.02
621.903	-0.04
622.092	-0.01
622.28	0.02
622.468	0.03
622.656	-0.01
622.844	0.03
623.032	-0.01
623.22	-0.02
623.408	0.01
623.596	0.01
623.784	0.03
623.972	-0.02
624.16	0.01
624.348	0.08
624.536	0.01
624.724	0.01
624.912	0.07
625.1	0.02
625.288	-0.04
625.476	-0.03
625.664	0.03
625.851	-0.01
626.039	0.01
626.227	0.03
626.415	-0
626.603	-0.06
626.79	-0
626.978	-0.03
627.166	0
627.354	0.01
627.541	-0.04
627.729	-0.06
627.917	0.03
628.104	0.05
628.292	0.01
628.48	0.01
628.667	0.02
628.855	0.02
629.042	0.03
629.23	-0.02
629.418	-0.01
629.605	0.01
629.793	-0.02
629.98	0
630.168	0
630.355	0
630.543	0.02
630.73	-0.01
630.917	0.04
631.105	0.08
631.292	-0.02
631.48	-0
631.667	0.05
631.854	-0.01
632.042	-0.01
632.229	-0.06
632.416	-0.01
632.604	-0.01
632.791	-0.06
632.978	0.02
633.165	0
633.353	0.07
633.54	0.02
633.727	-0.06
633.914	-0.04
634.101	-0.09
634.289	0.02
634.476	0
634.663	-0.03
634.85	0.03
635.037	-0.03
635.224	-0.06
635.411	0.08
635.598	0.05
635.785	-0.01
635.972	-0.01
636.159	0.05
636.346	-0.02
636.533	0.01
636.72	-0.01
636.907	-0.03
637.094	0.03
637.281	0.01
637.468	0.02
637.655	-0.03
637.842	-0.02
638.029	-0
638.215	0.01
638.402	-0
638.589	-0.02
638.776	-0.02
638.963	-0.03
639.149	0.03
639.336	0.07
639.523	-0.02
639.709	-0.01
639.896	-0.03
640.083	0.05
640.27	-0.01
640.456	-0.02
640.643	0.02
640.829	-0.05
641.016	-0
641.203	-0
641.389	0.05
641.576	-0.01
641.762	-0.01
641.949	-0.03
642.135	0.06
642.322	0.03
642.508	-0.07
642.695	-0
642.881	-0.01
643.068	-0.02
643.254	0.01
643.441	0.04
643.627	-0.02
643.813	-0.02
644	0.06
644.186	-0.07
644.372	0.03
644.559	0.02
644.745	-0.01
644.931	-0.02
645.118	-0.01
645.304	0
645.49	-0.04
645.676	0
645.862	0
646.049	0.03
646.235	-0.04
646.421	0.08
646.607	0.07
646.793	-0.03
646.979	-0.05
647.165	0
647.352	0
647.538	0.05
647.724	-0.01
647.91	-0
648.096	0.03
648.282	0.08
648.468	0.01
648.654	0.03
648.84	0
649.026	0.01
649.212	0.02
649.397	-0.03
649.583	-0.04
649.769	0.02
649.955	-0.02
650.141	0.03
650.327	0.07
650.513	0
650.698	0.05
650.884	-0.07
651.07	-0.01
651.256	0.01
651.442	-0.02
651.627	0.03
651.813	0.05
651.999	0.03
652.184	-0
652.37	0
652.556	-0.04
652.741	0.05
652.927	-0.04
653.113	-0.01
653.298	0.01
653.484	-0.03
653.669	-0.07
653.855	-0.04
654.04	0.04
654.226	0.02
654.412	-0.04
654.597	-0.02
654.782	-0.01
654.968	0.06
655.153	-0
655.339	-0.03
655.524	-0.04
655.71	0.01
655.895	0
656.08	0
656.266	0.05
656.451	0.01
656.636	-0.05
656.822	-0.01
657.007	-0.01
657.192	-0
657.378	-0.04
657.563	0.02
657.748	0.02
657.933	0.02
658.118	-0.02
658.304	-0.04
658.489	0.04
658.674	0.02
658.859	-0.04
659.044	0
659.229	0.02
659.414	-0
659.599	-0.03
659.785	-0.02
659.97	0
660.155	0.04
660.34	0.01
660.525	-0.03
660.71	-0.06
660.895	0.02
661.08	-0.01
661.264	-0.03
661.449	0.07
661.634	-0
661.819	0.02
662.004	-0
662.189	-0.05
662.374	0
662.559	-0.03
662.743	-0.1
662.928	-0.01
663.113	-0.05
663.298	-0.06
663.483	-0.02
663.667	0
663.852	-0.05
664.037	0.05
664.221	-0.01
664.406	0.04
664.591	0.03
664.775	-0
664.96	-0.05
665.145	0.02
665.329	0.01
665.514	-0.04
665.698	0.01
665.883	-0.11
666.068	0.06
666.252	-0.03
666.437	0
666.621	-0.03
666.806	0.05
666.99	-0.01
667.174	-0.09
667.359	0.08
667.543	-0.06
667.728	-0.01
667.912	-0.01
668.096	0.05
668.281	-0.01
668.465	0.01
668.649	-0.05
668.834	-0.04
669.018	-0.01
669.202	-0.03
669.387	-0.02
669.571	0.1
669.755	-0.06
669.939	-0.01
670.124	-0.03
670.308	0.08
670.492	0.03
670.676	-0
670.86	-0.01
671.044	-0.05
671.228	0
671.413	-0.03
671.597	-0.05
671.781	-0.04
671.965	0.02
672.149	-0.01
672.333	-0
672.517	-0.07
672.701	0.04
672.885	-0.04
673.069	-0.04
673.253	0.07
673.437	0
673.621	-0.07
673.804	-0.03
673.988	-0.03
674.172	-0.03
674.356	-0.08
674.54	-0.04
674.724	0.11
674.908	-0.02
675.091	0.04
675.275	-0.01
675.459	0.03
675.643	0.04
675.826	-0.01
676.01	0.01
676.194	0.01
676.377	0.07
676.561	0.01
676.745	0.02
676.928	0.03
677.112	0.06
677.296	-0.02
677.479	-0.04
677.663	-0
677.846	0.03
678.03	-0.01
678.213	-0.04
678.397	0.05
678.58	-0.01
678.764	-0.03
678.947	-0.01
679.131	-0.03
679.314	0.03
679.498	0.04
679.681	0.03
679.865	0.07
680.048	0.02
680.231	-0.01
680.415	-0.02
680.598	-0.03
680.781	0
680.965	-0.04
681.148	0.04
681.331	-0.03
681.514	0.03
681.698	-0.05
681.881	0.03
682.064	0.02
682.247	0.05
682.43	-0.03
682.614	0.02
682.797	0.03
682.98	0.05
683.163	-0.05
683.346	0.02
683.529	-0.02
683.712	-0.02
683.895	0.04
684.078	-0.08
684.261	-0.01
684.444	0.01
684.627	-0.01
684.81	-0
684.993	0.03
685.176	0.03
685.359	-0.05
685.542	-0.06
685.725	0.08
685.908	0
686.091	-0.02
686.274	0.05
686.457	-0.04
686.639	-0.03
686.822	0.01
687.005	0.02
687.188	0.04
687.371	0.08
687.553	0
687.736	0.08
687.919	0.04
688.102	0.09
688.284	-0
688.467	-0
688.65	0.03
688.832	-0.01
689.015	-0.06
689.197	-0.04
689.38	0.09
689.563	0.06
689.745	-0.06
689.928	-0.03
690.11	-0.05
690.293	0.04
690.475	-0.06
690.658	-0.02
690.84	-0.01
691.023	0.03
691.205	-0.05
691.388	0.01
691.57	0.04
691.752	-0.02
691.935	-0.07
692.117	-0.07
692.3	0.01
692.482	0.01
692.664	-0.02
692.847	-0
693.029	0.1
693.211	0.05
693.393	-0.03
693.576	-0.03
693.758	0.04
693.94	0.01
694.122	0.02
694.304	-0.05
694.487	-0.04
694.669	0.08
694.851	-0.07
695.033	-0.06
695.215	-0.04
695.397	-0.01
695.579	0.01
695.761	-0.01
695.943	-0.01
696.125	0.06
696.308	-0.01
696.49	-0.09
696.671	0.16
696.853	0.01
697.035	0.14
697.217	0.03
697.399	0.04
697.581	-0.01
697.763	-0.01
697.945	-0.06
698.127	0.01
698.309	0.08
698.491	0.04
698.672	0.05
698.854	0.04
699.036	0.09
699.218	-0.06
699.399	0.04
699.581	0.02
699.763	-0.03
699.945	-0.03
700.126	-0.07
700.308	0
700.49	0.04
700.671	-0.02
700.853	-0.06
701.035	-0.05
701.216	0.01
701.398	-0.04
701.579	-0.02
701.761	0.07
701.943	-0.04
702.124	-0.03
702.306	-0.05
702.487	0.07
702.669	0.02
702.85	-0.02
703.031	-0.02
703.213	0.06
703.394	0.07
703.576	-0.02
703.757	0.06
703.938	0.03
704.12	0.08
704.301	-0.01
704.483	0.01
704.664	0
704.845	0.11
705.026	0.06
705.208	0.03
705.389	-0.03
705.57	-0.05
705.751	-0.1
705.933	-0.04
706.114	0.11
706.295	-0.01
706.476	-0.1
706.657	0.13
706.838	0.09
707.02	0.04
707.201	-0.01
707.382	-0.05
707.563	-0.01
707.744	-0.02
707.925	-0.05
708.106	-0.05
708.287	0.07
708.468	0.09
708.649	-0.02
708.83	0
709.011	-0.03
709.192	0.07
709.373	-0.07
709.554	-0.02
709.734	0.02
709.915	0
710.096	0.04
710.277	-0.11
710.458	-0.02
710.639	0.12
710.819	-0.12
711	-0
711.181	0.07
711.362	0.05
711.542	0.01
711.723	-0.04
711.904	0.05
712.085	0.08
712.265	0.04
712.446	-0.1
712.627	-0.04
712.807	-0.02
712.988	-0.05
713.168	-0.06
713.349	0.04
713.53	-0.06
713.71	-0.08
713.891	-0.07
714.071	-0.02
714.252	-0.01
714.432	-0.09
714.613	-0.13
714.793	-0.04
714.974	0.14
715.154	0.06
715.334	0.04
715.515	0.13
715.695	-0.09
715.876	-0.01
716.056	-0.02
716.236	-0.09
716.417	-0.04
716.597	-0.01
716.777	0.18
716.957	-0.03
717.138	0.03
717.318	0.03
717.498	-0.07
717.678	-0.01
717.859	0.05
718.039	-0.07
718.219	-0.02
718.399	0.08
718.579	-0.04
718.759	-0.11
718.939	0.02
719.12	0.04
719.3	0.01
719.48	-0.09
719.66	-0.11
719.84	0.1
720.02	0.03
720.2	-0.04
720.38	0.09
720.56	0.1
720.74	-0.01
720.92	-0.02
721.1	0.02
721.279	0.02
721.459	-0
721.639	-0.05
721.819	-0
721.999	-0.03
722.179	0.05
722.359	-0.09
722.538	-0.03
722.718	-0.01
722.898	-0.07
723.078	-0.02
723.257	-0.04
723.437	0.01
723.617	0.01
723.797	-0.01
723.976	0.04
724.156	0.01
724.336	0.06
724.515	0.17
724.695	-0.13
724.874	0.01
725.054	0.03
725.234	-0.14
725.413	-0.06
725.593	-0.03
725.772	-0.04
725.952	-0
726.131	-0.09
726.311	0.06
726.49	0.04
726.67	-0.12
726.849	-0.02
727.028	0.04
727.208	-0.06
727.387	0.02
727.567	-0.07
727.746	-0.03
727.925	-0.09
728.105	-0.18
728.284	-0.04
728.463	-0.03
728.643	0.08
728.822	-0.03
729.001	-0.01
729.18	0.08
729.359	0.06
729.539	0.01
729.718	0.06
729.897	0.11
730.076	0.05
730.255	-0.18
730.434	0.04
730.614	0.04
730.793	0.07
730.972	-0.05
731.151	0.04
731.33	0.16
731.509	0.11
731.688	0.06
731.867	0.01
732.046	-0.17
732.225	0.22
732.404	-0.12
732.583	-0.09
732.762	0.03
732.941	0.06
733.12	0.01
733.298	0
733.477	0.07
733.656	-0.07
733.835	-0.08
734.014	0.07
734.193	-0.04
734.371	0.04
734.55	0.04
734.729	-0.08
734.908	0.01
735.086	0.03
735.265	0.05
735.444	-0.16
735.623	-0.11
735.801	-0.15
735.98	-0.05
736.159	-0.01
736.337	-0.03
736.516	-0.03
736.694	0.01
736.873	-0.13
737.052	0.14
737.23	0.14
737.409	0
737.587	0.23
737.766	-0.16
737.944	-0.08
738.123	-0.07
738.301	0.07
738.479	-0
738.658	0.01
738.836	-0.2
739.015	-0.02
739.193	0.13
739.371	-0.1
739.55	-0.02
739.728	-0.05
739.906	0.17
740.085	0.21
740.263	0.1
740.441	-0.23
740.62	0.19
740.798	0.02
740.976	-0.09
741.154	-0.07
741.332	0.14
741.511	-0.15
741.689	0.07
741.867	0.09
742.045	-0.04
742.223	0.08
742.401	-0.13
742.579	0.05
742.757	0.1
742.935	-0.1
743.114	-0.13
743.292	-0.04
743.47	-0.02
743.648	0.14
743.826	-0.03
744.004	0.08
744.181	0.1
744.359	-0.01
744.537	0.04
744.715	0.07
744.893	0.01
745.071	0.03
745.249	0
745.427	-0.07
745.605	-0.03
745.782	0.02
745.96	0.08
746.138	-0.06
746.316	0.07
746.493	-0.04
746.671	-0.03
746.849	-0.05
747.027	0.08
747.204	-0.01
747.382	0.07
747.56	-0.15
747.737	0.1
747.915	-0.15
748.093	0.02
748.27	0.02
748.448	0.02
748.625	-0.11
748.803	-0.18
748.98	-0.1
749.158	-0.03
749.335	0.08
749.513	0
749.69	-0.14
749.868	-0.07
750.045	-0.04
750.223	-0.08
750.4	-0.18
750.578	0.2
750.755	-0.07
750.932	-0.2
751.11	0.13
751.287	-0.07
751.464	0.11
751.642	-0.11
751.819	0.01
751.996	-0.01
752.173	-0.04
752.351	-0.09
752.528	0.05
752.705	0.02
752.882	-0
753.06	-0
753.237	0.1
753.414	0.16
753.591	0.06
753.768	-0.05
753.945	-0.14
754.122	-0.13
754.299	0.03
754.476	-0.13
754.654	-0.04
754.831	0.09
755.008	-0.08
755.185	-0.11
755.362	-0.03
755.539	0.01
755.716	-0.02
755.892	-0.12
756.069	-0.01
756.246	-0.01
756.423	0
756.6	0.08
756.777	0.02
756.954	0.12
757.131	0.06
757.307	-0.1
757.484	-0.07
757.661	-0.01
757.838	0.03
758.015	-0.03
758.191	0.11
758.368	-0.04
758.545	0.2
758.721	0.07
758.898	-0.13
759.075	0.19
759.251	0.04
759.428	0.04
759.605	-0.14
759.781	-0.16
759.958	0.14
760.134	-0.03
760.311	0.02
760.488	0.03
760.664	0.24
760.841	0
761.017	-0.08
761.194	0.04
761.37	0.13
761.547	-0.03
761.723	-0.06
761.899	0.14
762.076	-0.14
762.252	-0.09
762.429	-0.1
762.605	0.07
762.781	0
762.958	0.14
763.134	0.02
763.31	-0.06
763.486	0.21
763.663	-0.17
763.839	0.07
764.015	-0.23
764.191	-0.07
764.368	-0.14
764.544	-0.14
764.72	0.06
764.896	-0.04
765.072	0.06
765.248	-0.07
765.425	-0.07
765.601	-0.01
765.777	-0.04
765.953	-0.25
766.129	-0.14
766.305	-0.16
766.481	0.1
766.657	-0.05
766.833	0.24
767.009	-0.16
767.185	-0.1
767.361	0.01
767.537	-0.06
767.713	0.17
767.889	-0.11
768.065	-0.01
768.24	0.04
768.416	0.14
768.592	-0.1
768.768	-0.08
768.944	0.13
769.12	-0.15
769.295	-0.14
769.471	-0.08
769.647	0.04
769.823	0.1
769.998	-0.09
770.174	-0.1
770.35	0.37
770.525	0.27
770.701	-0.08
770.877	-0
771.052	-0.01
771.228	0.1
771.403	-0.05
771.579	0.04
771.755	0.28
771.93	0.03
772.106	-0.13
772.281	-0.16
772.457	-0.05
772.632	0.09
772.808	-0.15
772.983	-0.03
773.159	-0.16
773.334	0.14
773.509	0.03
773.685	-0.1
773.86	0.34
774.036	0.15
774.211	0.06
774.386	-0
774.562	-0.17
774.737	-0.03
774.912	-0.05
775.087	0.1
775.263	-0.1
775.438	0.01
775.613	-0.07
775.788	-0.06
775.964	0.1
776.139	0.4
776.314	-0.12
776.489	0
776.664	-0.08
776.839	-0.18
777.014	0.11
777.19	0.08
777.365	0.27
777.54	0.21
777.715	-0.16
777.89	-0.07
778.065	-0.14
778.24	0.03
778.415	-0.01
778.59	-0.24
778.765	-0.01
778.94	0.04
779.115	-0.1
779.289	-0.08
779.464	0.09
779.639	-0.04
779.814	-0.3
779.989	-0.25
780.164	0.07
780.339	-0.02
780.513	-0.13
780.688	-0.12
780.863	-0.06
781.038	0.09
781.212	-0.05
781.387	0.06
781.562	0.36
781.737	-0.12
781.911	0.12
782.086	-0.09
782.261	-0.01
782.435	0.35
782.61	-0.24
782.784	0.03
782.959	0.37
783.134	-0
783.308	-0.2
783.483	-0.03
783.657	0.64
783.832	0.19
784.006	-0.33
784.181	-0.07
784.355	0.09
784.53	-0.29
784.704	-0.22
784.878	0.11
785.053	-0.02
785.227	0.03
785.402	0.4
785.576	-0.23
785.75	-0.02
785.925	-0.2
786.099	-0.02
786.273	0.06
786.448	0.09
786.622	0.18
786.796	-0.17
786.97	-0.06
787.145	0.66
787.319	-0.26
787.493	-0.13
787.667	-0.29
787.841	-0.11
788.015	0.07
788.19	-0.11
788.364	0.17
788.538	0.31
788.712	0.06
788.886	-0.08
789.06	0.26
789.234	0.42
789.408	-0.28
789.582	-0.13
789.756	-0.1
789.93	-0.12
790.104	-0.2
790.278	-0.11
790.452	-0.2
790.626	-0
790.8	-0.16
790.973	0.1
791.147	0.1
791.321	0.17
791.495	0.22
791.669	0.05
791.843	0.01
792.016	0.09
792.19	0.47
792.364	-0.06
792.538	0.6
792.711	0.07
792.885	-0.19
793.059	-0.08
793.233	-0.8
793.406	0.3
793.58	0.1
793.754	0.19
793.927	0.12
794.101	0.31
794.274	0.06
794.448	0.3
794.622	-0.17
794.795	0.48
794.969	-0.06
795.142	0.32
795.316	-0.15
795.489	-0.05
795.663	0.23
795.836	-0.12
796.009	-0.06
796.183	0.3
796.356	0.03
796.53	0.12
796.703	-0.11
796.876	0.6
797.05	-0.01
797.223	-0.19
797.396	0.27
797.57	-0.16
797.743	0.31
797.916	-0.02
798.09	-0.17
798.263	0.1
798.436	0.11
798.609	-0.13
798.782	-0.19
798.956	0.03
799.129	-0.12
799.302	-0.06
799.475	-0.25
799.648	-0.33
799.821	-0.29
799.994	-0.09
800.167	-0.4
800.34	-0.04
800.514	0.2
800.687	-0.23
800.86	-0.29
801.033	-0.14
801.206	0.03
801.379	-0.27
801.551	0.31
801.724	-0.01
801.897	0.32
802.07	-0.2
802.243	-0.65
802.416	0.3
802.589	-0.29
802.762	0.12
802.935	-0.03
803.107	0.09
803.28	0.28
803.453	0.11
803.626	-0.26
803.798	-0.07
803.971	-0.12
804.144	0.25
804.317	-0.08
804.489	0.03
804.662	0.08
804.835	0.05
805.007	-0.34
805.18	0.27
805.353	-0.03
805.525	-0.06
805.698	-0.13
805.87	0.3
806.043	0.18
806.215	-0.53
806.388	0.12
806.56	0.21
806.733	0.23
806.905	-0.03
807.078	-0.27
807.25	0.06
807.423	0.33
807.595	-0.09
807.768	-0.29
807.94	0.43
808.112	0.45
808.285	0.17
808.457	-0.15
808.629	0.32
808.802	-0.08
808.974	-0.2
809.146	-0.6
809.318	-0.21
809.491	-0.09
809.663	-0.09
809.835	-0.43
810.007	0.18
810.18	-0.09
810.352	-0.42
810.524	-0.2
810.696	0.24
810.868	0.25
811.04	-0.09
811.212	-0.08
811.384	0.21
811.556	-0.03
811.728	0.08
811.901	0.47
812.073	-0.12
812.245	0.11
812.417	0.03
812.589	-0.68
812.76	-0.24
812.932	0.14
813.104	0.3
813.276	0.13
813.448	0.45
813.62	0.27
813.792	-0.07
813.964	0.06
814.136	0.4
814.307	-0.56
814.479	-0.71
814.651	-0.37
814.823	0.6
814.995	-0.27
815.166	-0.07
815.338	-0.39
815.51	-0.54
815.681	0.57
815.853	0.46
816.025	-0.23
816.196	0.25
816.368	0.49
816.54	-0.59
816.711	-0.35
816.883	-0.12
817.054	0.34
817.226	-0.65
817.398	-0.11
817.569	-0.2
817.741	-0.22
817.912	-0.34
818.084	-0.36
818.255	0.27
818.426	-0.58
818.598	-0.09
818.769	-0.16
818.941	-0.02
819.112	0.28
819.283	0.18
819.455	-0.21
819.626	-0.28
819.798	0.14
819.969	-0.08
820.14	-0.02
820.311	-0.12
820.483	0.07
820.654	0.03
820.825	-0.31
820.996	-0.1
821.168	-0.42
821.339	-0.33
821.51	-0.25
821.681	-0.1
821.852	0.34
822.023	-0.73
822.195	-0.41
822.366	0.05
822.537	0.34
822.708	-0.46
822.879	-0.5
823.05	0.88
823.221	-0.29
823.392	0.43
823.563	-0.25
823.734	0.09
823.905	-0.07
824.076	-0.21
824.247	-0.49
824.418	-0.28
824.589	0.3
824.759	-0.2
824.93	-0.22
825.101	-1.08
825.272	0.47
825.443	0.17
825.614	0.78
825.784	-1.16
825.955	1.17
826.126	0.77
826.297	0.4
826.467	0.59
826.638	0.67
826.809	-0.69
826.98	0.03
827.15	-0.11
827.321	-0.32
827.492	0.18
827.662	-0.21
827.833	0.99
828.003	0.26
828.174	-0.53
828.345	-0.59
828.515	0.78
828.686	0.12
828.856	-0.24
829.027	-0.07
829.197	0.32
829.368	0.05
829.538	-0.49
829.709	-0.43
829.879	-0.36
830.049	-0.49
830.22	-0.4
830.39	0.16
830.56	0.32
830.731	-0.31
830.901	-0.29
831.072	0.53
831.242	0.34
831.412	0.32
831.582	0.2
831.753	-1.47
831.923	0.41
832.093	0.51
832.263	0.26
832.434	-0.79
832.604	-0.28
832.774	0.42
832.944	-0.5
833.114	-0.84
833.284	0.25
833.454	-0.65
833.624	-0.67
833.795	0.31
833.965	0.91
834.135	0.71
834.305	-1.75
834.475	-0.46
834.645	0.65
834.815	0.13
834.985	-0.39
835.155	-0.3
835.325	0.09
835.494	0.17
835.664	-0.19
835.834	-1.37
836.004	0.53
836.174	-0.22
836.344	0.05
836.514	-0.81
836.684	0.04
836.853	-0.19
837.023	-0.3
837.193	-0.3
837.363	0.16
837.532	0.1
837.702	-0.29
837.872	-0.51
838.041	0.55
838.211	1.66
838.381	-1.07
838.55	0.01
838.72	1.98
838.89	0.82
839.059	-0.42
839.229	-0.49
839.398	1.21
839.568	0.24
839.738	0.03
839.907	0.83
840.077	-0.1
840.246	-0.7
840.416	-0.68
840.585	-0.84
840.755	1.54
840.924	1.16
841.093	-0.75
841.263	-0.42
841.432	-0.22
841.602	-0.45
841.771	-0.85
841.94	0.44
842.11	1.52
842.279	1.59
842.448	-0.74
842.617	-0.95
842.787	1.28
842.956	-0.5
843.125	-0.89
843.294	0.2
843.464	1.06
843.633	-0.02
843.802	-1.16
843.971	-0.43
844.14	0.35
844.309	0.54
844.479	-0.59
844.648	-1.03
844.817	-0.93
844.986	-0.36
845.155	-0.24
845.324	-0.5
845.493	-0.07
845.662	-0.61
845.831	0.55
846	0.47
846.169	0.2
846.338	0.68
846.507	0.11
846.676	-0.04
846.844	0.2
847.013	0.22
847.182	-0.1
847.351	-0.54
847.52	-0.51
847.689	-0.29
847.858	-0.37
848.026	0.03
848.195	-0.2
848.364	-0.38
848.533	-0.68
848.701	-1.04
848.87	-0.22
849.039	1.19
849.207	0.3
849.376	1.02
849.545	0.36
849.713	-1.06
849.882	0.36
850.051	-0.03
850.219	0.44
850.388	0.2
850.556	-0.72
850.725	-0.64
850.893	0.56
851.062	0.3
851.23	0.55
851.399	-1.09
851.567	-1.07
851.736	-0.77
851.904	-1.41
852.073	-0.89
852.241	0.3
852.41	0.43
852.578	-0.75
852.746	0.06
852.915	0.37
853.083	-0.91
853.251	-1.47
853.42	0.16
853.588	0.69
853.756	-0
853.924	0.26
854.093	-0.14
854.261	0.1
854.429	-1.46
854.597	0.04
854.765	-0.84
854.934	0.98
855.102	1.26
855.27	-0.58
855.438	0.74
855.606	0.97
855.774	1.32
855.942	-1.54
856.11	-2.58
856.278	-0.53
856.446	1.62
856.614	-0.92
856.782	-0.84
856.95	0.38
857.118	-0
857.286	-0.33
857.454	-0.63
857.622	0.9
857.79	0.57
857.958	-1.46
858.126	0.19
858.294	-2.31
858.462	0.48
858.629	-1.16
858.797	-0.92
858.965	0.35
859.133	-0.04
859.301	0.15
859.468	-0
859.636	0.14
859.804	1.74
859.971	0.09
860.139	-0.57
860.307	1.13
860.474	-0.38
860.642	0.1
860.81	-0.25
860.977	-1.12
861.145	1.25
861.313	-0.24
861.48	-0.47
861.648	0.85
861.815	-0.48
861.983	-2.13
862.15	-0.72
862.318	1.02
862.485	0.07
862.653	-0.7
862.82	-0.9
862.988	1.05
863.155	0.63
863.322	-1.32
863.49	-1.76
863.657	-0.24
863.824	1.01
863.992	0.22
864.159	-0.39
864.326	-1
864.494	-0.2
864.661	2.37
864.828	-1.84
864.996	0.53
865.163	2.37
865.33	-0.83
865.497	-2.63
865.664	-0.61
865.832	-2.97
865.999	-0.31
866.166	-2.38
866.333	-0.45
866.5	-0.14
866.667	-1.02
866.834	-0.44
867.001	1.53
867.168	-1.7
867.335	0.16
867.502	-1.14
867.669	-0.08
867.836	3.2
868.003	-0.79
868.17	1.17
868.337	-1.39
868.504	2.99
868.671	-2.87
868.838	-1.03
869.005	-1.13
869.172	-0.46
869.339	-0.68
869.505	-0.89
869.672	-0.51
869.839	3.33
870.006	0.31
870.173	-2.64
870.339	-0.86
870.506	2.14
870.673	-1.76
870.84	0.49
871.006	-0.78
871.173	-0.37
871.34	1.02
871.506	-2.6
871.673	1.41
871.839	-1.59
872.006	-0.63
872.173	-1.11
872.339	0.54
872.506	0.01
872.672	-2.15
872.839	-2.18
873.005	-0.55
873.172	3.1
873.338	0.16
873.505	0.16
873.671	1.33
873.838	1.55
874.004	-1.45
874.171	-1.11
874.337	-0.02
874.503	0.96
874.67	-0.52
874.836	-2.85
875.002	3.21
875.169	0.03
875.335	1.13
875.501	-0.92
875.668	1.67
875.834	0.65
876	-1.52
876.166	1.03
876.332	1.88
876.499	1.93
876.665	-0.75
876.831	-0.95
876.997	4.46
877.163	0.95
877.329	-1.18
877.495	0.86
877.662	1.61
877.828	0.38
877.994	-0.04
878.16	-3.29
878.326	-2.41
878.492	1.24
878.658	-1.69
878.824	2.35
878.99	1.72
879.156	-2.07
879.322	2.53
879.487	-1.33
879.653	-0.57
879.819	-1.38
879.985	-1.14
880.151	-0.17
880.317	0.52
880.483	-1.2
880.648	-0.15
880.814	-3.96
880.98	0.13
881.146	-3.42
881.312	-0.74
881.477	-0.79
881.643	-2.22
881.809	-0.17
881.974	1.73
882.14	-0.79
882.306	1.39
882.471	3.46
882.637	-1.34
882.803	1.55
882.968	4.33
883.134	2.93
883.299	-0.57
883.465	-0.88
883.63	0.91
883.796	0.33
883.961	0.92
884.127	1.15
884.292	-4.42
884.458	-2.5
884.623	-2.49
