Data from Apollo_Calib_20240827__AbsoluteIrradiance__691__10-40-01-586.txt Node

Date: Wed Aug 28 10:40:01 BST 2024
User: biology
Spectrometer: FLMT08252
Trigger mode: 0
Integration Time (sec): 5.000000E-1
Scans to average: 5
Electric dark correction enabled: true
Nonlinearity correction enabled: false
Boxcar width: 0
XAxis mode: Wavelengths
Number of Pixels in Spectrum: 3648
>>>>>Begin Spectral Data<<<<<
179.588	-0
179.809	-0
180.03	-0
180.251	-0
180.473	-0
180.694	0
180.915	0
181.136	-0
181.357	0
181.578	-0
181.799	-0
182.02	-0
182.241	-0
182.462	-0
182.683	0
182.904	-0
183.125	-0
183.346	-0
183.567	0
183.788	0
184.009	-0
184.23	0
184.451	0
184.672	0
184.892	-0
185.113	0
185.334	0
185.555	0
185.776	0
185.996	0
186.217	0
186.438	0
186.659	-0
186.879	0
187.1	-0
187.321	0
187.541	0
187.762	0
187.983	0
188.203	0
188.424	0
188.644	0
188.865	0
189.086	0
189.306	-0
189.527	0
189.747	0
189.968	0
190.188	0
190.409	0
190.629	0
190.849	0
191.07	0
191.29	0
191.511	0
191.731	-0
191.951	0
192.172	0
192.392	0
192.612	0
192.833	0
193.053	0
193.273	0
193.493	0
193.714	0
193.934	0
194.154	0
194.374	0
194.594	0
194.815	0
195.035	0
195.255	0
195.475	0
195.695	0
195.915	0
196.135	0
196.355	0
196.575	0
196.795	0
197.015	-0
197.235	0
197.455	0
197.675	0
197.895	0
198.115	-0
198.335	0
198.555	0
198.775	0
198.995	0
199.214	0
199.434	0
199.654	0
199.874	-0
200.094	1.36
200.313	0.04
200.533	0.05
200.753	-0.41
200.973	1.36
201.192	1.03
201.412	-0.36
201.632	0.33
201.851	0.96
202.071	-0.1
202.291	0.06
202.51	-0.11
202.73	0.39
202.95	0.31
203.169	-0.04
203.389	0.57
203.608	0.57
203.828	-0.15
204.047	0.01
204.267	0.91
204.486	0.62
204.706	0.5
204.925	0.32
205.145	0.2
205.364	0.98
205.583	1.21
205.803	0.1
206.022	0.1
206.242	0.39
206.461	0.2
206.68	0.05
206.9	0.5
207.119	0.94
207.338	0.96
207.557	-0.06
207.777	0.01
207.996	0.2
208.215	0.97
208.434	0.17
208.654	-0.03
208.873	0.39
209.092	0.87
209.311	0.2
209.53	0.1
209.749	0.09
209.968	-0.07
210.187	0.13
210.407	-0.21
210.626	0.24
210.845	0.27
211.064	0.14
211.283	0.08
211.502	0.39
211.721	0.25
211.94	0.41
212.159	0.49
212.377	0.55
212.596	0.51
212.815	0.41
213.034	0.19
213.253	0.47
213.472	0.56
213.691	0.21
213.91	-0.18
214.128	0.04
214.347	0.72
214.566	-0.11
214.785	-0.07
215.003	0.28
215.222	0.32
215.441	0.24
215.66	0.05
215.878	0.28
216.097	0.51
216.316	-0.15
216.534	0.28
216.753	0.28
216.972	0.14
217.19	0.09
217.409	-0.12
217.627	0.03
217.846	0.13
218.064	0.1
218.283	0.08
218.501	0.57
218.72	0.41
218.938	0
219.157	-0.02
219.375	0.35
219.594	0.4
219.812	-0.05
220.031	-0.01
220.249	0.34
220.467	0.33
220.686	0.12
220.904	-0.01
221.122	-0.08
221.341	0.33
221.559	0.38
221.777	-0.14
221.995	0.08
222.214	0.18
222.432	-0.16
222.65	0.34
222.868	0.2
223.086	0.19
223.305	0.23
223.523	0.07
223.741	0.43
223.959	-0.08
224.177	-0.07
224.395	0.12
224.613	0.24
224.831	0.17
225.049	-0.13
225.267	0.12
225.485	0.16
225.703	0.06
225.921	0.1
226.139	0.02
226.357	0.22
226.575	0.18
226.793	0.06
227.011	0.73
227.229	0.07
227.447	0.29
227.665	0.1
227.883	0.09
228.1	0.13
228.318	0.16
228.536	-0.14
228.754	-0.1
228.972	0.2
229.189	0.2
229.407	0.01
229.625	0.13
229.843	0.32
230.06	0.24
230.278	0.09
230.496	0.11
230.713	0.2
230.931	0.24
231.149	0.1
231.366	-0.08
231.584	0.13
231.801	0.41
232.019	0.06
232.236	-0.04
232.454	-0.08
232.671	0.22
232.889	0.06
233.106	0
233.324	0.03
233.541	0.09
233.759	0.07
233.976	0.03
234.194	0.02
234.411	0.1
234.628	-0.07
234.846	0.07
235.063	0.16
235.28	0.12
235.498	0.19
235.715	-0.07
235.932	0.17
236.149	0.12
236.367	0.03
236.584	0.11
236.801	-0.05
237.018	0.13
237.236	0.07
237.453	-0.08
237.67	0.22
237.887	0.13
238.104	-0.05
238.321	-0.03
238.538	0.03
238.755	0.27
238.973	0.03
239.19	0.11
239.407	0.21
239.624	0.2
239.841	-0.07
240.058	0.04
240.275	0.08
240.492	0.04
240.709	0.03
240.925	-0.02
241.142	0.22
241.359	0.01
241.576	-0.04
241.793	-0.02
242.01	0.05
242.227	0.25
242.444	0.16
242.66	0.2
242.877	0.12
243.094	0.08
243.311	0.15
243.527	0.01
243.744	0.1
243.961	0.16
244.178	-0.02
244.394	0.04
244.611	0.21
244.828	0.2
245.044	0
245.261	0.14
245.477	0.09
245.694	0.22
245.911	0.03
246.127	0.08
246.344	0.23
246.56	0.13
246.777	0.07
246.993	0.08
247.21	0.1
247.426	0.24
247.643	-0.01
247.859	-0.05
248.076	0.05
248.292	0.16
248.508	-0.01
248.725	0.17
248.941	0.15
249.157	0.23
249.374	-0.02
249.59	0.07
249.806	0.06
250.023	0.08
250.239	0
250.455	0.02
250.671	0.01
250.888	0.07
251.104	0.11
251.32	0.07
251.536	0.03
251.752	0.08
251.969	0.14
252.185	0.07
252.401	0.21
252.617	0.09
252.833	0.03
253.049	0.13
253.265	0.05
253.481	0.08
253.697	0.05
253.913	0.05
254.129	0.12
254.345	0.04
254.561	0.09
254.777	0.04
254.993	0.07
255.209	0.06
255.425	0.01
255.641	0.01
255.857	0.17
256.073	0.07
256.288	-0.02
256.504	0.04
256.72	0.06
256.936	0.22
257.152	0.1
257.367	-0
257.583	0.12
257.799	0.1
258.015	-0.03
258.23	-0.01
258.446	0.14
258.662	0.12
258.877	0.02
259.093	-0.03
259.309	-0.02
259.524	0.05
259.74	0.02
259.955	-0.08
260.171	0.12
260.387	0.03
260.602	0.1
260.818	0.12
261.033	-0.02
261.249	0.07
261.464	-0.01
261.68	-0.03
261.895	0.07
262.11	0.15
262.326	0.08
262.541	-0.08
262.757	0.15
262.972	0.08
263.187	0.15
263.403	0.08
263.618	0.09
263.833	-0
264.049	0.06
264.264	0.1
264.479	0.09
264.694	0.14
264.91	-0
265.125	0.1
265.34	0.15
265.555	0.18
265.77	0.09
265.986	0.02
266.201	0.07
266.416	0.08
266.631	-0.03
266.846	0.05
267.061	0.1
267.276	0.1
267.491	-0.05
267.706	0.14
267.921	0.08
268.136	0.03
268.351	0.14
268.566	0
268.781	0.13
268.996	0.12
269.211	0.13
269.426	0.02
269.641	0.04
269.856	0.13
270.071	0.05
270.285	-0.03
270.5	0.12
270.715	0.1
270.93	0.01
271.145	0.03
271.359	0.14
271.574	-0.02
271.789	0.03
272.004	0.02
272.218	0.06
272.433	0.12
272.648	-0
272.862	0.16
273.077	0.05
273.292	0.04
273.506	0.02
273.721	0.05
273.936	0.11
274.15	0.14
274.365	0.02
274.579	0.12
274.794	0.02
275.008	0.08
275.223	0.01
275.437	0.09
275.652	0.09
275.866	0.12
276.081	0.08
276.295	0.1
276.509	0.07
276.724	0.09
276.938	0.1
277.153	0.04
277.367	0.14
277.581	-0.01
277.796	0.01
278.01	-0.01
278.224	0.07
278.438	0.14
278.653	0.01
278.867	0.04
279.081	-0.1
279.295	0.1
279.51	0.1
279.724	-0.03
279.938	0.09
280.152	0.13
280.366	0.06
280.58	0.03
280.794	0.15
281.008	0.12
281.222	0.12
281.437	0.13
281.651	0.06
281.865	0.1
282.079	0.08
282.293	-0.07
282.507	0.02
282.721	0.09
282.935	0.11
283.148	-0.03
283.362	0.07
283.576	-0
283.79	0.07
284.004	0.06
284.218	0.15
284.432	-0
284.646	0.03
284.859	0.02
285.073	0.06
285.287	0.07
285.501	0.07
285.714	0.03
285.928	0.1
286.142	0.02
286.356	0.03
286.569	0.03
286.783	0.12
286.997	0.07
287.21	0.06
287.424	0.05
287.637	0.05
287.851	0.03
288.065	0.08
288.278	0.09
288.492	0.02
288.705	0.02
288.919	0.05
289.132	0
289.346	0.12
289.559	-0.03
289.773	-0.02
289.986	0.01
290.2	0.06
290.413	0.11
290.626	0.03
290.84	0.05
291.053	0
291.267	0.12
291.48	0.07
291.693	0.01
291.906	-0.02
292.12	0.05
292.333	0.04
292.546	0.05
292.76	0.16
292.973	0.04
293.186	0.14
293.399	-0.03
293.612	0.05
293.826	0.05
294.039	0.03
294.252	0.03
294.465	0.05
294.678	0.09
294.891	0.05
295.104	-0.03
295.317	0.03
295.53	0.07
295.743	-0.01
295.956	0.04
296.169	0.12
296.382	0.07
296.595	0
296.808	0.03
297.021	0.09
297.234	0.11
297.447	0.02
297.66	0.06
297.873	0.15
298.086	0.06
298.299	0
298.511	-0.02
298.724	0.03
298.937	-0.02
299.15	0.02
299.363	0.09
299.575	0.11
299.788	0.1
300.001	0.08
300.213	-0.01
300.426	-0.01
300.639	0.04
300.852	0.01
301.064	0.09
301.277	0.08
301.489	0.07
301.702	0.07
301.915	0.06
302.127	0.03
302.34	0.07
302.552	0.07
302.765	0
302.977	0.11
303.19	0.02
303.402	0.03
303.615	-0.03
303.827	0
304.04	0.03
304.252	0.1
304.464	0.03
304.677	0.17
304.889	0.12
305.102	0
305.314	0.05
305.526	0.07
305.739	0.08
305.951	-0.02
306.163	0.04
306.375	0.08
306.588	0.04
306.8	0
307.012	-0.03
307.224	0.08
307.436	0.14
307.649	-0.02
307.861	0.08
308.073	0.01
308.285	0.01
308.497	-0.02
308.709	-0
308.921	0.07
309.133	0.08
309.346	0.05
309.558	0
309.77	0.11
309.982	0.09
310.194	0.06
310.406	-0.03
310.617	0.09
310.829	0.03
311.041	0
311.253	0.02
311.465	-0.03
311.677	0.02
311.889	0.03
312.101	0
312.313	0.09
312.524	0.05
312.736	-0.04
312.948	0.02
313.16	0.12
313.372	0.07
313.583	0.08
313.795	0.03
314.007	0.03
314.218	0.04
314.43	0.05
314.642	-0.02
314.853	-0.02
315.065	0.01
315.277	0.07
315.488	0.06
315.7	0.09
315.912	0.04
316.123	0.06
316.335	0.01
316.546	0.17
316.758	0.01
316.969	0
317.181	0.04
317.392	0.09
317.604	0.08
317.815	-0.04
318.026	-0.02
318.238	0.04
318.449	0.06
318.661	-0.01
318.872	-0
319.083	0.03
319.295	0.06
319.506	-0.01
319.717	0.05
319.929	0.07
320.14	0.01
320.351	0.04
320.562	0.01
320.774	0.04
320.985	0.04
321.196	0.02
321.407	-0.02
321.618	0.08
321.829	0.07
322.041	0.08
322.252	0.05
322.463	0.05
322.674	0.09
322.885	-0.03
323.096	0.01
323.307	-0
323.518	0.04
323.729	0
323.94	-0.03
324.151	0.03
324.362	0.03
324.573	0.04
324.784	-0
324.995	0.09
325.206	0.01
325.417	-0.01
325.628	0.05
325.838	0.02
326.049	0.03
326.26	0.09
326.471	0.02
326.682	0.09
326.892	0.02
327.103	-0.03
327.314	-0.01
327.525	0.07
327.735	0.06
327.946	0.05
328.157	0.05
328.368	0.06
328.578	0.03
328.789	0.09
328.999	0.02
329.21	0.04
329.421	0.07
329.631	-0.02
329.842	-0.04
330.052	0.08
330.263	0.08
330.473	0.07
330.684	0.02
330.894	0.06
331.105	0.04
331.315	0.05
331.526	-0
331.736	0.1
331.947	0.07
332.157	0.06
332.367	-0
332.578	0.09
332.788	0.07
332.999	0.07
333.209	0.03
333.419	-0
333.629	0.02
333.84	0.11
334.05	0.06
334.26	0.06
334.47	0.01
334.681	0.09
334.891	0.04
335.101	0.07
335.311	0.12
335.521	0.04
335.732	-0
335.942	0.12
336.152	0.11
336.362	0.04
336.572	0.04
336.782	0.09
336.992	-0.01
337.202	0.04
337.412	0.01
337.622	0.06
337.832	0.04
338.042	0.04
338.252	0.02
338.462	0.03
338.672	0.03
338.882	0.02
339.092	0.06
339.302	0.12
339.511	0.02
339.721	0.02
339.931	-0.04
340.141	0.09
340.351	0.09
340.561	0.08
340.77	0.05
340.98	0.02
341.19	0.04
341.4	0.03
341.609	-0.01
341.819	0.02
342.029	-0
342.238	0.07
342.448	0.03
342.658	0.08
342.867	0.01
343.077	0.03
343.286	0.06
343.496	0.04
343.706	0.07
343.915	0.01
344.125	0.04
344.334	0.04
344.544	-0.03
344.753	-0
344.963	0.03
345.172	0
345.381	-0.02
345.591	0.02
345.8	0.04
346.01	0.05
346.219	0.08
346.428	-0.11
346.638	0.02
346.847	0.09
347.056	0.1
347.266	-0
347.475	0.03
347.684	0.08
347.893	0.06
348.103	0.08
348.312	0.03
348.521	0.04
348.73	0.1
348.94	0.01
349.149	0.02
349.358	0.02
349.567	0.06
349.776	-0.03
349.985	0.04
350.194	0.05
350.403	0.06
350.612	-0.02
350.821	0.02
351.03	0.07
351.239	-0.05
351.448	0.03
351.657	0.01
351.866	0.11
352.075	0.06
352.284	0.07
352.493	-0.02
352.702	0.08
352.911	0.07
353.12	0.03
353.329	0.01
353.538	0.05
353.746	0.03
353.955	-0.01
354.164	0.07
354.373	0.01
354.582	0.06
354.79	0.06
354.999	0.08
355.208	0.03
355.416	0.09
355.625	-0.01
355.834	0.02
356.042	0.04
356.251	0.03
356.46	0.01
356.668	0.01
356.877	0.1
357.085	0.08
357.294	-0.04
357.503	0.04
357.711	0.05
357.92	0.17
358.128	0.05
358.337	0.03
358.545	0.04
358.754	0.02
358.962	0.06
359.17	-0
359.379	0.04
359.587	0.04
359.796	0.04
360.004	0.05
360.212	0.05
360.421	0.07
360.629	0.02
360.837	0.03
361.046	0.04
361.254	0.14
361.462	0.04
361.67	0.04
361.879	0.07
362.087	0.09
362.295	0.06
362.503	-0
362.711	-0
362.92	-0.01
363.128	0.01
363.336	0
363.544	-0
363.752	-0.01
363.96	0.02
364.168	0.01
364.376	0.01
364.584	0.06
364.792	0.03
365	0.06
365.208	0.08
365.416	0.03
365.624	0.08
365.832	0.01
366.04	0.08
366.248	0.05
366.456	0.03
366.664	0.08
366.872	0.02
367.079	-0
367.287	0.05
367.495	0.04
367.703	0.01
367.911	0.05
368.118	0.04
368.326	0.01
368.534	0.02
368.742	0.1
368.949	-0
369.157	0
369.365	0.05
369.572	0.03
369.78	-0.05
369.988	0.07
370.195	0.06
370.403	0.05
370.61	0
370.818	0.07
371.026	0.04
371.233	0.04
371.441	0.09
371.648	0.01
371.856	0.03
372.063	0.05
372.271	0.01
372.478	-0
372.685	0.02
372.893	0.05
373.1	0.02
373.308	0
373.515	0.12
373.722	0.01
373.93	0.03
374.137	0.05
374.344	0.11
374.552	0.08
374.759	0.03
374.966	0.05
375.173	0.03
375.381	0.06
375.588	0.04
375.795	-0.02
376.002	0.03
376.209	0.01
376.417	0.02
376.624	0.04
376.831	0.07
377.038	0.02
377.245	-0.06
377.452	0.04
377.659	0.03
377.866	-0.05
378.073	-0.04
378.28	0.02
378.487	0.05
378.694	0.04
378.901	0.03
379.108	0.01
379.315	0.06
379.522	0.11
379.729	0.06
379.936	-0.01
380.143	0.04
380.35	0.08
380.557	0.01
380.763	0.03
380.97	0.07
381.177	0.01
381.384	0.03
381.591	-0
381.797	0.03
382.004	0.05
382.211	0.03
382.418	-0.02
382.624	0.07
382.831	0.07
383.038	-0.01
383.244	0.08
383.451	0.03
383.658	0.07
383.864	0.06
384.071	-0.02
384.277	0.12
384.484	0.04
384.69	0.08
384.897	-0.01
385.103	0.03
385.31	0.01
385.516	-0
385.723	0
385.929	0.06
386.136	-0
386.342	0.04
386.549	0.02
386.755	0.08
386.961	0.03
387.168	-0.02
387.374	0.01
387.58	0.06
387.787	0.04
387.993	0.07
388.199	0.05
388.406	-0
388.612	0.02
388.818	0.02
389.024	-0.02
389.231	0.08
389.437	0.08
389.643	0.08
389.849	0.02
390.055	0.01
390.261	0.01
390.467	0.06
390.674	-0.02
390.88	0.04
391.086	0.04
391.292	-0.02
391.498	0.05
391.704	0.04
391.91	0.04
392.116	-0.01
392.322	-0.06
392.528	0.05
392.734	0
392.94	0.04
393.146	0
393.352	0.04
393.557	0.02
393.763	0.05
393.969	0.07
394.175	0.02
394.381	0.01
394.587	-0.02
394.792	0.06
394.998	0.07
395.204	0.06
395.41	-0
395.615	0.03
395.821	0.04
396.027	0.07
396.233	0.01
396.438	0.05
396.644	0.06
396.85	0.05
397.055	-0.01
397.261	0.02
397.466	0.05
397.672	0.02
397.878	0.05
398.083	0.01
398.289	-0.01
398.494	0.06
398.7	0.05
398.905	-0.01
399.111	0.07
399.316	-0.01
399.522	0.03
399.727	-0.01
399.932	0.04
400.138	0.03
400.343	0.06
400.549	-0.01
400.754	0.05
400.959	0.03
401.165	0.04
401.37	0.03
401.575	-0.01
401.78	0.02
401.986	0.02
402.191	0.01
402.396	0.04
402.601	0.06
402.807	0.02
403.012	0.06
403.217	0.06
403.422	0.02
403.627	0
403.832	0.04
404.037	0.04
404.243	0.03
404.448	-0.05
404.653	0
404.858	0.02
405.063	0.04
405.268	-0.02
405.473	-0.05
405.678	0.03
405.883	0.15
406.088	0.02
406.293	0.01
406.498	0.02
406.703	0.01
406.907	0.01
407.112	-0
407.317	0.06
407.522	0.07
407.727	-0.05
407.932	0.05
408.136	0.12
408.341	0.06
408.546	0.04
408.751	0.07
408.956	0.03
409.16	0.05
409.365	-0.02
409.57	-0.01
409.774	0.05
409.979	0.07
410.184	0.04
410.388	0.02
410.593	0.07
410.798	0.03
411.002	0.02
411.207	0.03
411.411	0.05
411.616	0.03
411.82	0.02
412.025	0.04
412.229	0.03
412.434	0.11
412.638	0.09
412.843	-0.01
413.047	0.04
413.252	0.03
413.456	-0.01
413.66	0.08
413.865	0.03
414.069	0.07
414.273	0.03
414.478	0.01
414.682	-0.02
414.886	0.03
415.091	-0.05
415.295	-0.01
415.499	0.06
415.703	0.03
415.908	0.04
416.112	-0.06
416.316	0.02
416.52	0.07
416.724	0.01
416.929	0.02
417.133	0.11
417.337	-0
417.541	0
417.745	0.03
417.949	0.04
418.153	0.04
418.357	-0.03
418.561	0.08
418.765	0.04
418.969	0.13
419.173	0.07
419.377	0.03
419.581	0.11
419.785	0.02
419.989	-0.07
420.193	0.04
420.397	-0.02
420.601	0.05
420.804	0.08
421.008	0.03
421.212	0.06
421.416	0.05
421.62	0.01
421.823	0.02
422.027	0.13
422.231	0.09
422.435	-0.02
422.638	0.06
422.842	0.03
423.046	-0
423.249	0.04
423.453	0.04
423.657	0.06
423.86	0.03
424.064	0.03
424.268	0.05
424.471	0.04
424.675	0.09
424.878	0.07
425.082	0.01
425.285	0.07
425.489	0.06
425.692	0.04
425.896	-0.01
426.099	0.07
426.303	-0.02
426.506	-0.02
426.71	0.06
426.913	0.08
427.116	0.11
427.32	0.05
427.523	0.02
427.726	0.11
427.93	-0.03
428.133	-0
428.336	0
428.54	-0.04
428.743	0.06
428.946	0.1
429.149	-0.05
429.353	0
429.556	-0.02
429.759	0.02
429.962	-0.01
430.165	0.03
430.368	0.04
430.571	0.02
430.775	0.07
430.978	0.03
431.181	0.03
431.384	0.07
431.587	0.02
431.79	0.04
431.993	-0.07
432.196	0.03
432.399	0.01
432.602	0.07
432.805	0.03
433.008	0.01
433.211	-0.04
433.414	0.05
433.616	0.08
433.819	0.02
434.022	-0.07
434.225	0.1
434.428	0.04
434.631	0.12
434.833	-0.01
435.036	0.02
435.239	0.05
435.442	0.07
435.645	0.01
435.847	0.07
436.05	0.06
436.253	0.08
436.455	-0.03
436.658	0.03
436.861	0.11
437.063	-0.01
437.266	0.03
437.468	0.02
437.671	0.15
437.874	0.05
438.076	-0.02
438.279	-0.03
438.481	0.03
438.684	-0.06
438.886	0.03
439.089	0.01
439.291	-0.01
439.494	0.03
439.696	-0.05
439.899	0.02
440.101	0.09
440.303	-0.02
440.506	0.02
440.708	0.03
440.91	0.09
441.113	0.02
441.315	0.07
441.517	-0.04
441.72	0.09
441.922	-0.03
442.124	-0.04
442.326	0.03
442.529	0.13
442.731	-0.05
442.933	0.06
443.135	0.04
443.337	-0.04
443.539	0
443.742	-0.01
443.944	0.01
444.146	0
444.348	0.05
444.55	-0.01
444.752	0
444.954	-0.03
445.156	0.06
445.358	-0.01
445.56	0.04
445.762	0.01
445.964	0.01
446.166	-0.01
446.368	-0.03
446.57	0.04
446.772	0.05
446.974	0.01
447.175	0.05
447.377	-0
447.579	-0
447.781	-0.04
447.983	0.08
448.184	0.02
448.386	0
448.588	-0.02
448.79	0.04
448.991	0
449.193	0.01
449.395	0.03
449.597	0.06
449.798	0.05
450	0.05
450.202	0.01
450.403	-0
450.605	0.07
450.806	0
451.008	-0.08
451.21	-0
451.411	0.03
451.613	0.01
451.814	-0.05
452.016	0.01
452.217	0.03
452.419	0.09
452.62	0.02
452.821	0.09
453.023	0.09
453.224	0.09
453.426	-0.01
453.627	0.04
453.828	0.05
454.03	-0.01
454.231	0.03
454.432	-0.01
454.634	0.12
454.835	0.02
455.036	-0.07
455.238	0.04
455.439	0.1
455.64	-0.08
455.841	-0.03
456.042	0.12
456.244	0.05
456.445	-0.04
456.646	-0.03
456.847	0.03
457.048	0.03
457.249	0.09
457.45	0.23
457.651	-0.06
457.852	0.08
458.054	0.04
458.255	0.01
458.456	0.08
458.657	0.03
458.858	-0.02
459.058	0.05
459.259	0.06
459.46	-0.01
459.661	-0
459.862	0.16
460.063	0.03
460.264	0.03
460.465	-0.07
460.666	0.09
460.866	0.01
461.067	0.03
461.268	-0.01
461.469	-0.01
461.67	-0.01
461.87	-0.02
462.071	-0.05
462.272	0.01
462.473	0.02
462.673	0.08
462.874	-0.04
463.075	-0.01
463.275	-0.03
463.476	0
463.676	0
463.877	-0.02
464.078	0.03
464.278	0.06
464.479	0.02
464.679	0.02
464.88	0.01
465.08	0.08
465.281	-0.01
465.481	0.01
465.682	0.01
465.882	0.08
466.083	0.04
466.283	0.06
466.483	-0.04
466.684	-0.05
466.884	-0.01
467.085	-0
467.285	0.02
467.485	-0.02
467.686	0
467.886	0.02
468.086	0.02
468.286	0.04
468.487	0.05
468.687	-0.02
468.887	-0.01
469.087	0.01
469.287	0
469.488	-0.06
469.688	0.03
469.888	0.1
470.088	0.02
470.288	0.06
470.488	0.09
470.688	-0.05
470.888	-0
471.088	-0.03
471.288	0.05
471.488	0.06
471.688	0.02
471.888	-0.02
472.088	0.05
472.288	0.04
472.488	-0.02
472.688	-0.02
472.888	0
473.088	0.02
473.288	0.03
473.488	0.04
473.688	0.08
473.887	0.06
474.087	-0.03
474.287	0.04
474.487	0.03
474.687	0.06
474.886	0.03
475.086	0.01
475.286	0.03
475.486	0.09
475.685	0.02
475.885	-0
476.085	-0.01
476.284	0.04
476.484	-0.02
476.684	0.08
476.883	0.05
477.083	0.03
477.282	-0.02
477.482	0.09
477.681	0.1
477.881	0.06
478.08	-0.01
478.28	-0
478.479	0.05
478.679	0.11
478.878	-0.02
479.078	-0.03
479.277	0.04
479.477	0
479.676	0.03
479.875	0
480.075	-0.03
480.274	0.03
480.473	0.02
480.673	-0.01
480.872	0.06
481.071	0.02
481.271	0.03
481.47	-0.01
481.669	0.02
481.868	-0
482.067	-0.04
482.267	-0
482.466	-0.03
482.665	-0.02
482.864	0.02
483.063	-0.01
483.262	0.03
483.461	0.05
483.661	0.03
483.86	0.01
484.059	-0.01
484.258	0.01
484.457	0.01
484.656	0.02
484.855	0.06
485.054	-0.04
485.253	-0.02
485.452	-0.04
485.651	-0
485.849	0.03
486.048	-0.02
486.247	-0.02
486.446	0
486.645	-0.04
486.844	-0.01
487.043	-0.01
487.241	0.03
487.44	-0.01
487.639	0.01
487.838	0.03
488.037	0.04
488.235	0.06
488.434	0.02
488.633	-0.01
488.831	0.02
489.03	0.04
489.229	0.02
489.427	0.01
489.626	0.06
489.825	0.07
490.023	0.02
490.222	0.02
490.42	0.03
490.619	0.04
490.817	0.02
491.016	0
491.214	0.03
491.413	0.01
491.611	0.01
491.81	0.02
492.008	0.05
492.207	0.01
492.405	0.02
492.604	-0.06
492.802	0
493	0.02
493.199	0.02
493.397	0
493.595	0.01
493.794	-0.03
493.992	0.05
494.19	0.02
494.388	0.03
494.587	0.01
494.785	0.02
494.983	-0.02
495.181	-0
495.379	0
495.578	-0.02
495.776	0.02
495.974	0.01
496.172	-0.01
496.37	0.01
496.568	-0.03
496.766	-0
496.964	0.04
497.162	0.02
497.36	-0.03
497.558	0.04
497.756	0.02
497.954	0
498.152	-0.02
498.35	0.01
498.548	-0.02
498.746	0.02
498.944	-0
499.142	-0
499.34	-0.02
499.538	-0.01
499.736	-0.04
499.933	0.04
500.131	0.03
500.329	0
500.527	0.04
500.725	0.04
500.922	0.01
501.12	0.01
501.318	0
501.516	0
501.713	0.02
501.911	0
502.109	-0.01
502.306	0.03
502.504	0.01
502.701	0.01
502.899	0
503.097	0.05
503.294	0.02
503.492	0
503.689	0
503.887	0.04
504.084	0.06
504.282	0.01
504.479	-0
504.677	0.01
504.874	-0.04
505.072	0
505.269	-0
505.466	0.02
505.664	0.04
505.861	-0.03
506.059	-0.03
506.256	0.03
506.453	-0
506.651	0.04
506.848	0.04
507.045	0.02
507.242	0.02
507.44	-0.01
507.637	0.01
507.834	0.02
508.031	0.04
508.229	-0.02
508.426	0
508.623	0.03
508.82	-0.03
509.017	-0.01
509.214	-0.01
509.411	0.01
509.608	-0.01
509.805	0
510.003	0
510.2	-0.01
510.397	0.06
510.594	0
510.791	-0.02
510.988	-0.01
511.184	0.02
511.381	0.01
511.578	-0.01
511.775	0.03
511.972	0.01
512.169	0
512.366	0.02
512.563	0.02
512.76	-0.03
512.956	0.02
513.153	0
513.35	-0
513.547	-0
513.744	-0.02
513.94	-0.03
514.137	0.03
514.334	0.01
514.53	0.01
514.727	0.01
514.924	0.03
515.12	-0.01
515.317	-0.02
515.514	-0.01
515.71	-0.02
515.907	-0.01
516.103	0.02
516.3	0.03
516.497	0.03
516.693	0.05
516.89	-0
517.086	-0
517.283	0.06
517.479	0
517.676	-0.01
517.872	0.02
518.068	-0.02
518.265	-0.01
518.461	-0.01
518.658	-0.01
518.854	0
519.05	-0.01
519.247	-0.02
519.443	0.02
519.639	0.02
519.836	0.02
520.032	0.04
520.228	0
520.424	0.05
520.621	0.02
520.817	0.01
521.013	0.02
521.209	-0
521.405	0.03
521.601	0.03
521.798	0
521.994	0.04
522.19	-0
522.386	-0.03
522.582	0
522.778	0.01
522.974	0.01
523.17	0.02
523.366	0.01
523.562	0.03
523.758	0.02
523.954	-0
524.15	0.01
524.346	0.02
524.542	0.01
524.738	-0.01
524.934	0.01
525.129	-0.02
525.325	0
525.521	-0
525.717	0.04
525.913	0.02
526.109	0
526.304	0.02
526.5	0.04
526.696	0.03
526.892	0.01
527.087	0.02
527.283	0
527.479	0.04
527.674	-0.01
527.87	-0
528.066	-0.02
528.261	0.03
528.457	0
528.653	0.01
528.848	0
529.044	0
529.239	-0
529.435	0.04
529.63	0.01
529.826	0.05
530.021	0.02
530.217	0.02
530.412	-0
530.608	0.01
530.803	-0.02
530.999	0.01
531.194	-0.02
531.389	-0
531.585	-0.04
531.78	0.01
531.975	0.02
532.171	0.03
532.366	-0.02
532.561	-0
532.757	-0.01
532.952	-0
533.147	0.02
533.342	0.01
533.538	-0
533.733	0.02
533.928	0.01
534.123	-0
534.318	-0.01
534.513	0.01
534.709	-0.01
534.904	0.01
535.099	-0.02
535.294	0.01
535.489	0.02
535.684	0
535.879	-0.01
536.074	0.01
536.269	-0.01
536.464	0.01
536.659	0.02
536.854	-0.01
537.049	0.02
537.244	-0
537.439	-0.01
537.634	0.03
537.828	0.02
538.023	-0.02
538.218	-0.02
538.413	0.01
538.608	-0.02
538.803	0.03
538.997	-0.01
539.192	0.01
539.387	0.03
539.582	0.03
539.776	0.01
539.971	0
540.166	0.01
540.36	-0.02
540.555	0.02
540.75	-0.01
540.944	0.02
541.139	-0.03
541.334	-0.01
541.528	0.02
541.723	0.03
541.917	0.01
542.112	-0.02
542.306	-0.01
542.501	0
542.695	0.02
542.89	-0.01
543.084	-0
543.279	0.02
543.473	0.01
543.668	-0.01
543.862	0.01
544.056	0.04
544.251	0.01
544.445	0.03
544.64	0.03
544.834	-0.02
545.028	0
545.222	0.02
545.417	0.02
545.611	0.02
545.805	0.01
546	0.01
546.194	0
546.388	-0.01
546.582	0.02
546.776	0.01
546.97	0.02
547.165	0.02
547.359	0.03
547.553	-0
547.747	0.02
547.941	0
548.135	0
548.329	0.01
548.523	0.03
548.717	0.01
548.911	0
549.105	0.02
549.299	0.01
549.493	0.05
549.687	0.03
549.881	0.02
550.075	-0
550.269	-0.02
550.463	0.01
550.657	-0
550.85	0.01
551.044	-0.02
551.238	0.01
551.432	0.01
551.626	-0.02
551.82	0.02
552.013	-0.01
552.207	0.01
552.401	0.01
552.594	-0.01
552.788	0.01
552.982	0.01
553.176	-0.01
553.369	0.04
553.563	0.01
553.756	-0.03
553.95	-0.01
554.144	-0
554.337	0.02
554.531	0.03
554.724	0.01
554.918	0.03
555.111	0.01
555.305	0.01
555.498	0.06
555.692	0.01
555.885	-0
556.079	0.03
556.272	-0
556.466	0.03
556.659	0.01
556.852	0.01
557.046	-0.01
557.239	0.04
557.432	-0.03
557.626	0.01
557.819	0.03
558.012	0.02
558.206	0.02
558.399	0.01
558.592	0.03
558.785	0.01
558.979	0.02
559.172	0.02
559.365	0.02
559.558	0.02
559.751	0
559.944	0.04
560.138	-0.02
560.331	0.02
560.524	-0
560.717	0.02
560.91	-0
561.103	0.02
561.296	0.01
561.489	0.01
561.682	-0
561.875	0.02
562.068	0.03
562.261	0.01
562.454	0.07
562.647	0
562.84	0.02
563.032	-0
563.225	0.02
563.418	0.02
563.611	0.01
563.804	0.01
563.997	-0.02
564.19	-0.01
564.382	-0.06
564.575	0.01
564.768	-0.01
564.961	0.02
565.153	-0.01
565.346	0.04
565.539	0.02
565.731	0.01
565.924	0.02
566.117	0.04
566.309	0.01
566.502	-0
566.695	0.01
566.887	0.03
567.08	-0.01
567.272	-0.01
567.465	0
567.657	0.01
567.85	0.02
568.042	-0.01
568.235	0.04
568.427	0.01
568.62	0.03
568.812	0.04
569.005	-0.01
569.197	-0.01
569.389	0.02
569.582	0.01
569.774	0.02
569.966	-0.02
570.159	0
570.351	0.02
570.543	-0.03
570.736	-0
570.928	0
571.12	0.03
571.312	-0
571.505	-0.03
571.697	0.01
571.889	-0.02
572.081	0.01
572.273	-0.02
572.465	0.04
572.658	0
572.85	0.02
573.042	-0
573.234	0.03
573.426	0.05
573.618	-0.03
573.81	0.02
574.002	0.04
574.194	0.04
574.386	-0
574.578	-0.04
574.77	-0.02
574.962	0.03
575.154	-0.04
575.346	-0
575.538	0.02
575.729	-0.04
575.921	-0.01
576.113	0
576.305	0.04
576.497	-0.01
576.689	0.01
576.88	-0.01
577.072	0.03
577.264	-0.01
577.456	-0.01
577.647	-0.04
577.839	-0.01
578.031	0.04
578.223	-0.03
578.414	-0.02
578.606	0.03
578.798	0.01
578.989	-0
579.181	0.01
579.372	0.01
579.564	0.01
579.755	-0.01
579.947	0.01
580.139	0.03
580.33	-0.05
580.522	-0.02
580.713	-0.06
580.905	0
581.096	0.03
581.287	0.01
581.479	-0
581.67	0.01
581.862	0.01
582.053	-0
582.244	-0.04
582.436	0.02
582.627	-0.02
582.818	-0.02
583.01	-0.01
583.201	0.02
583.392	0.04
583.583	0.01
583.775	0.01
583.966	-0.02
584.157	-0.03
584.348	-0
584.54	-0.02
584.731	0.03
584.922	0
585.113	-0.01
585.304	0.04
585.495	0.04
585.686	-0
585.877	0.02
586.068	0.02
586.259	0.02
586.45	0.01
586.641	-0.01
586.832	-0.04
587.023	-0.02
587.214	-0.01
587.405	0.02
587.596	-0.03
587.787	0.05
587.978	0.01
588.169	-0
588.36	-0.01
588.551	0.01
588.742	-0.01
588.932	0.03
589.123	0.02
589.314	0.03
589.505	0.02
589.696	0.01
589.886	-0.04
590.077	-0.04
590.268	0.02
590.458	-0.03
590.649	-0.04
590.84	0.02
591.03	-0.02
591.221	-0.03
591.412	-0.03
591.602	0.03
591.793	0.04
591.984	-0.02
592.174	-0.01
592.365	0.06
592.555	-0.02
592.746	0.04
592.936	-0
593.127	0.02
593.317	0.04
593.508	-0.01
593.698	-0.03
593.889	-0
594.079	-0.01
594.269	-0.02
594.46	0.01
594.65	0.01
594.84	-0
595.031	-0.02
595.221	-0.01
595.411	-0.03
595.602	0.03
595.792	0.01
595.982	0.02
596.172	0.07
596.363	0.03
596.553	0.02
596.743	0.03
596.933	0.01
597.123	0.05
597.314	-0.03
597.504	-0.01
597.694	0.07
597.884	0.02
598.074	-0.01
598.264	-0.02
598.454	0.04
598.644	-0.02
598.834	0
599.024	-0.06
599.214	0.01
599.404	0.06
599.594	-0.02
599.784	-0.02
599.974	0.07
600.164	0.04
600.354	-0.02
600.544	-0.02
600.734	0.01
600.924	0.04
601.114	-0.02
601.303	-0
601.493	0.01
601.683	-0.03
601.873	0.02
602.063	-0.04
602.252	0.03
602.442	-0.06
602.632	-0.01
602.821	-0.04
603.011	0.04
603.201	0.01
603.39	0
603.58	-0
603.77	-0.01
603.959	0.04
604.149	0.02
604.339	0
604.528	0.05
604.718	0.03
604.907	-0.01
605.097	-0.01
605.286	-0.04
605.476	0.03
605.665	0.04
605.855	-0.01
606.044	0.04
606.234	0.01
606.423	-0.01
606.612	-0.02
606.802	0.02
606.991	0.03
607.181	0.01
607.37	-0.01
607.559	0.02
607.749	-0.01
607.938	0.01
608.127	-0.01
608.316	-0.04
608.506	0.03
608.695	-0.01
608.884	-0.01
609.073	0.01
609.263	0.01
609.452	0.03
609.641	-0
609.83	-0.03
610.019	0.03
610.208	-0.04
610.397	-0.01
610.586	0.03
610.775	-0.03
610.965	0.02
611.154	-0.01
611.343	0.01
611.532	0.02
611.721	-0.01
611.91	0.02
612.099	0.01
612.287	-0.02
612.476	-0.05
612.665	0.02
612.854	0.01
613.043	0.06
613.232	-0
613.421	-0
613.61	0.01
613.798	-0.02
613.987	0.02
614.176	0.01
614.365	0.01
614.554	-0.01
614.742	0.01
614.931	-0
615.12	0.03
615.309	-0
615.497	0.04
615.686	-0.02
615.875	-0.01
616.063	0.04
616.252	0.01
616.44	-0.03
616.629	0.02
616.818	0.01
617.006	0.02
617.195	0.01
617.383	0.01
617.572	0.01
617.76	0.02
617.949	-0.01
618.137	0.07
618.326	0.02
618.514	-0.01
618.703	-0.02
618.891	0.06
619.079	-0.03
619.268	0.01
619.456	-0.01
619.644	0.04
619.833	-0.01
620.021	0.01
620.209	-0.01
620.398	0
620.586	0.01
620.774	0.05
620.962	0.02
621.151	0.04
621.339	0.01
621.527	-0
621.715	-0.04
621.903	-0.04
622.092	-0.02
622.28	0.02
622.468	0.03
622.656	0.01
622.844	0.04
623.032	0
623.22	-0.04
623.408	0.04
623.596	0.02
623.784	0.05
623.972	-0.04
624.16	-0.02
624.348	0.04
624.536	-0
624.724	-0.02
624.912	0.05
625.1	0.05
625.288	-0.01
625.476	-0.01
625.664	0.04
625.851	-0.04
626.039	-0.02
626.227	0.01
626.415	0.01
626.603	-0.07
626.79	0.04
626.978	0.02
627.166	0.03
627.354	0.03
627.541	-0.02
627.729	-0.06
627.917	0
628.104	0.03
628.292	0.02
628.48	0.02
628.667	0.03
628.855	0.04
629.042	0.02
629.23	-0.02
629.418	0.02
629.605	-0
629.793	0.01
629.98	-0.02
630.168	0.01
630.355	-0.01
630.543	0.01
630.73	-0
630.917	0.03
631.105	0.11
631.292	0
631.48	-0.01
631.667	0.08
631.854	0.03
632.042	0.03
632.229	-0.04
632.416	0.03
632.604	-0.01
632.791	-0.02
632.978	0.05
633.165	0.03
633.353	0.04
633.54	0.02
633.727	-0.03
633.914	-0.03
634.101	0.04
634.289	0.07
634.476	-0.06
634.663	-0.03
634.85	0.04
635.037	-0.03
635.224	-0.03
635.411	0.04
635.598	0.02
635.785	0.02
635.972	0.02
636.159	0.06
636.346	-0.01
636.533	-0
636.72	0.01
636.907	0.01
637.094	0.04
637.281	0.03
637.468	0.03
637.655	0.01
637.842	0.01
638.029	-0.03
638.215	0.02
638.402	0.05
638.589	0.01
638.776	-0.03
638.963	-0
639.149	0.05
639.336	0.08
639.523	0.02
639.709	0
639.896	0.03
640.083	0.08
640.27	0.04
640.456	-0.01
640.643	0.07
640.829	0.01
641.016	0.01
641.203	-0.03
641.389	0.06
641.576	0.06
641.762	0.01
641.949	-0.01
642.135	0.03
642.322	0.04
642.508	-0.03
642.695	-0.01
642.881	-0.01
643.068	-0.01
643.254	0.03
643.441	0.05
643.627	0
643.813	-0.01
644	0.07
644.186	-0.03
644.372	-0.01
644.559	0.08
644.745	0.02
644.931	-0.01
645.118	0.03
645.304	-0.02
645.49	0.01
645.676	0.01
645.862	0.04
646.049	0.07
646.235	0.01
646.421	0.07
646.607	0.07
646.793	0.01
646.979	-0.02
647.165	0.04
647.352	0.03
647.538	0.06
647.724	0.03
647.91	0.05
648.096	0.05
648.282	0.07
648.468	0.02
648.654	0.03
648.84	0.04
649.026	0.02
649.212	0.02
649.397	0.01
649.583	0
649.769	0.04
649.955	0.05
650.141	0.05
650.327	0.08
650.513	-0.01
650.698	0.05
650.884	-0.04
651.07	0.04
651.256	0.03
651.442	0.03
651.627	0.02
651.813	0.05
651.999	0.01
652.184	0.07
652.37	0.04
652.556	-0
652.741	0.07
652.927	-0.04
653.113	0.02
653.298	0.07
653.484	-0.01
653.669	-0.02
653.855	0.03
654.04	0.04
654.226	0.05
654.412	0.06
654.597	0.02
654.782	0.04
654.968	0.05
655.153	0.08
655.339	0.02
655.524	0.01
655.71	0.07
655.895	0.01
656.08	0.02
656.266	0.1
656.451	0.06
656.636	-0
656.822	0.05
657.007	0
657.192	0.04
657.378	-0.01
657.563	0.04
657.748	0.06
657.933	0.09
658.118	0.03
658.304	0.02
658.489	0.07
658.674	0.04
658.859	0.02
659.044	0.06
659.229	0.07
659.414	0.01
659.599	0.05
659.785	0.02
659.97	0.04
660.155	0.07
660.34	0.05
660.525	0.04
660.71	0.01
660.895	0.07
661.08	0.05
661.264	0.02
661.449	0.09
661.634	0.09
661.819	0.05
662.004	0.12
662.189	0.02
662.374	0.03
662.559	0.04
662.743	-0.01
662.928	0.05
663.113	0.02
663.298	0.01
663.483	-0
663.667	0.06
663.852	0.01
664.037	0.12
664.221	0.01
664.406	0.1
664.591	0.06
664.775	0.07
664.96	0
665.145	0.06
665.329	0.1
665.514	0.04
665.698	0.07
665.883	-0.01
666.068	0.12
666.252	0.04
666.437	0.02
666.621	0.07
666.806	0.1
666.99	0.08
667.174	0.03
667.359	0.15
667.543	0.04
667.728	0.07
667.912	0.01
668.096	0.15
668.281	0.08
668.465	0.09
668.649	0.06
668.834	0.04
669.018	0.03
669.202	0.07
669.387	0.06
669.571	0.12
669.755	0.04
669.939	0.09
670.124	0.12
670.308	0.13
670.492	0.19
670.676	0.08
670.86	0.09
671.044	0.05
671.228	0.12
671.413	0.06
671.597	0.1
671.781	0.1
671.965	0.13
672.149	0.12
672.333	0.09
672.517	0.05
672.701	0.15
672.885	0.1
673.069	0.05
673.253	0.12
673.437	0.09
673.621	0.09
673.804	0.11
673.988	0.12
674.172	0.12
674.356	0.1
674.54	0.09
674.724	0.18
674.908	0.12
675.091	0.17
675.275	0.09
675.459	0.18
675.643	0.12
675.826	0.17
676.01	0.13
676.194	0.13
676.377	0.18
676.561	0.18
676.745	0.18
676.928	0.18
677.112	0.17
677.296	0.14
677.479	0.13
677.663	0.11
677.846	0.18
678.03	0.14
678.213	0.17
678.397	0.17
678.58	0.16
678.764	0.18
678.947	0.15
679.131	0.19
679.314	0.2
679.498	0.17
679.681	0.19
679.865	0.25
680.048	0.21
680.231	0.2
680.415	0.22
680.598	0.21
680.781	0.18
680.965	0.22
681.148	0.26
681.331	0.17
681.514	0.22
681.698	0.21
681.881	0.29
682.064	0.21
682.247	0.24
682.43	0.23
682.614	0.29
682.797	0.24
682.98	0.32
683.163	0.22
683.346	0.34
683.529	0.26
683.712	0.22
683.895	0.25
684.078	0.22
684.261	0.24
684.444	0.31
684.627	0.28
684.81	0.25
684.993	0.28
685.176	0.33
685.359	0.25
685.542	0.3
685.725	0.37
685.908	0.29
686.091	0.36
686.274	0.41
686.457	0.34
686.639	0.33
686.822	0.4
687.005	0.35
687.188	0.36
687.371	0.48
687.553	0.4
687.736	0.46
687.919	0.5
688.102	0.44
688.284	0.4
688.467	0.42
688.65	0.39
688.832	0.39
689.015	0.41
689.197	0.39
689.38	0.52
689.563	0.49
689.745	0.37
689.928	0.42
690.11	0.4
690.293	0.46
690.475	0.43
690.658	0.45
690.84	0.49
691.023	0.49
691.205	0.48
691.388	0.51
691.57	0.56
691.752	0.56
691.935	0.47
692.117	0.51
692.3	0.55
692.482	0.52
692.664	0.53
692.847	0.59
693.029	0.68
693.211	0.61
693.393	0.61
693.576	0.58
693.758	0.6
693.94	0.62
694.122	0.61
694.304	0.64
694.487	0.63
694.669	0.7
694.851	0.63
695.033	0.71
695.215	0.68
695.397	0.7
695.579	0.74
695.761	0.69
695.943	0.68
696.125	0.85
696.308	0.78
696.49	0.64
696.671	0.86
696.853	0.88
697.035	0.99
697.217	0.84
697.399	0.89
697.581	0.81
697.763	0.89
697.945	0.8
698.127	0.9
698.309	0.83
698.491	0.97
698.672	0.96
698.854	1
699.036	1
699.218	1.01
699.399	1.06
699.581	1.03
699.763	1
699.945	0.96
700.126	0.96
700.308	1.1
700.49	1.12
700.671	1.06
700.853	1.09
701.035	1.12
701.216	1.19
701.398	1.17
701.579	1.2
701.761	1.23
701.943	1.15
702.124	1.27
702.306	1.27
702.487	1.39
702.669	1.35
702.85	1.29
703.031	1.32
703.213	1.54
703.394	1.44
703.576	1.43
703.757	1.55
703.938	1.5
704.12	1.62
704.301	1.51
704.483	1.56
704.664	1.6
704.845	1.74
705.026	1.71
705.208	1.6
705.389	1.68
705.57	1.73
705.751	1.74
705.933	1.84
706.114	1.96
706.295	1.84
706.476	1.83
706.657	2.01
706.838	1.91
707.02	1.97
707.201	2.07
707.382	1.93
707.563	2.11
707.744	2.13
707.925	1.99
708.106	2.09
708.287	2.24
708.468	2.34
708.649	2.24
708.83	2.31
709.011	2.29
709.192	2.41
709.373	2.35
709.554	2.41
709.734	2.5
709.915	2.49
710.096	2.54
710.277	2.47
710.458	2.72
710.639	2.7
710.819	2.56
711	2.7
711.181	2.81
711.362	2.92
711.542	2.89
711.723	2.84
711.904	3.06
712.085	2.93
712.265	2.99
712.446	3
712.627	3.11
712.807	3.21
712.988	3.28
713.168	3.15
713.349	3.39
713.53	3.32
713.71	3.41
713.891	3.37
714.071	3.47
714.252	3.59
714.432	3.63
714.613	3.54
714.793	3.83
714.974	3.97
715.154	3.98
715.334	4.05
715.515	4.03
715.695	3.9
715.876	4.17
716.056	4.16
716.236	4.17
716.417	4.35
716.597	4.32
716.777	4.45
716.957	4.46
717.138	4.66
717.318	4.67
717.498	4.64
717.678	4.88
717.859	4.87
718.039	4.94
718.219	5
718.399	5.11
718.579	5.05
718.759	5.3
718.939	5.39
719.12	5.43
719.3	5.35
719.48	5.33
719.66	5.36
719.84	5.8
720.02	5.72
720.2	5.8
720.38	5.96
720.56	6.14
720.74	5.97
720.92	6.25
721.1	6.43
721.279	6.55
721.459	6.48
721.639	6.55
721.819	6.65
721.999	6.77
722.179	6.79
722.359	6.78
722.538	6.99
722.718	7.15
722.898	7.39
723.078	7.45
723.257	7.5
723.437	7.63
723.617	7.64
723.797	7.69
723.976	7.91
724.156	8.15
724.336	8.09
724.515	8.4
724.695	8.39
724.874	8.45
725.054	8.6
725.234	8.69
725.413	8.79
725.593	8.75
725.772	8.92
725.952	9.09
726.131	9.21
726.311	9.26
726.49	9.38
726.67	9.51
726.849	9.77
727.028	9.81
727.208	9.88
727.387	10.07
727.567	10.07
727.746	10.23
727.925	10.46
728.105	10.43
728.284	10.38
728.463	10.69
728.643	10.86
728.822	10.88
729.001	10.97
729.18	11.25
729.359	11.42
729.539	11.53
729.718	11.76
729.897	11.61
730.076	11.93
730.255	11.77
730.434	12.13
730.614	12.37
730.793	12.58
730.972	12.42
731.151	12.52
731.33	12.71
731.509	12.86
731.688	12.96
731.867	13.09
732.046	12.99
732.225	13.48
732.404	13.34
732.583	13.34
732.762	13.94
732.941	13.76
733.12	14.29
733.298	14.12
733.477	14.3
733.656	14.33
733.835	14.49
734.014	14.7
734.193	14.58
734.371	15.05
734.55	15.13
734.729	15.23
734.908	15.11
735.086	15.39
735.265	15.75
735.444	15.3
735.623	15.93
735.801	15.93
735.98	16.07
736.159	15.94
736.337	16.17
736.516	16.33
736.694	16.23
736.873	16.39
737.052	16.91
737.23	16.61
737.409	16.39
737.587	16.97
737.766	16.58
737.944	16.65
738.123	16.86
738.301	17.31
738.479	17.02
738.658	17
738.836	16.7
739.015	17.1
739.193	16.98
739.371	16.63
739.55	16.12
739.728	16.44
739.906	16.82
740.085	16.8
740.263	16.55
740.441	16.04
740.62	16.59
740.798	16.1
740.976	15.8
741.154	15.41
741.332	15.64
741.511	15.36
741.689	14.97
741.867	15.02
742.045	14.53
742.223	14.28
742.401	14.26
742.579	13.85
742.757	13.71
742.935	13.31
743.114	13.26
743.292	12.94
743.47	12.68
743.648	12.61
743.826	12.47
744.004	12.14
744.181	11.84
744.359	11.26
744.537	11.17
744.715	10.57
744.893	10.56
745.071	10.23
745.249	10.07
745.427	9.84
745.605	9.51
745.782	9.03
745.96	9.18
746.138	9.02
746.316	8.53
746.493	8.29
746.671	8.07
746.849	7.92
747.027	7.83
747.204	7.51
747.382	7.34
747.56	6.73
747.737	6.76
747.915	6.48
748.093	6.55
748.27	6.07
748.448	5.99
748.625	5.8
748.803	5.42
748.98	5.41
749.158	5.35
749.335	5.25
749.513	4.84
749.69	4.57
749.868	4.63
750.045	4.5
750.223	4.31
750.4	4.1
750.578	4.37
750.755	4.16
750.932	3.77
751.11	3.93
751.287	3.56
751.464	3.92
751.642	3.41
751.819	3.37
751.996	3.19
752.173	3.21
752.351	3.07
752.528	3.05
752.705	2.91
752.882	2.89
753.06	2.72
753.237	2.63
753.414	2.82
753.591	2.67
753.768	2.47
753.945	2.27
754.122	2.29
754.299	2.23
754.476	2.1
754.654	2.17
754.831	2.05
755.008	2.01
755.185	2.02
755.362	1.75
755.539	1.83
755.716	1.64
755.892	1.74
756.069	1.79
756.246	1.71
756.423	1.53
756.6	1.74
756.777	1.5
756.954	1.65
757.131	1.48
757.307	1.34
757.484	1.27
757.661	1.41
757.838	1.44
758.015	1.16
758.191	1.31
758.368	1.12
758.545	1.31
758.721	1.21
758.898	0.98
759.075	1.09
759.251	1.1
759.428	1
759.605	0.83
759.781	0.97
759.958	1.04
760.134	0.95
760.311	0.85
760.488	1.04
760.664	1.08
760.841	0.73
761.017	0.69
761.194	0.82
761.37	0.94
761.547	0.76
761.723	0.73
761.899	0.86
762.076	0.66
762.252	0.56
762.429	0.57
762.605	0.72
762.781	0.62
762.958	0.72
763.134	0.52
763.31	0.48
763.486	0.68
763.663	0.39
763.839	0.6
764.015	0.35
764.191	0.45
764.368	0.61
764.544	0.43
764.72	0.57
764.896	0.54
765.072	0.42
765.248	0.49
765.425	0.38
765.601	0.49
765.777	0.49
765.953	0.2
766.129	0.32
766.305	0.29
766.481	0.53
766.657	0.46
766.833	0.51
767.009	0.2
767.185	0.41
767.361	0.2
767.537	0.25
767.713	0.45
767.889	0.23
768.065	0.28
768.24	0.25
768.416	0.44
768.592	0.33
768.768	0.35
768.944	0.43
769.12	0.16
769.295	0.34
769.471	0.24
769.647	0.22
769.823	0.47
769.998	0.19
770.174	0.2
770.35	0.59
770.525	0.38
770.701	0.41
770.877	0.41
771.052	-0.05
771.228	0.28
771.403	0.34
771.579	0.28
771.755	0.72
771.93	0.13
772.106	0.04
772.281	-0.02
772.457	0.2
772.632	0.2
772.808	0.08
772.983	0.22
773.159	0.1
773.334	0.36
773.509	0.22
773.685	-0.07
773.86	0.56
774.036	0.32
774.211	0.16
774.386	0.12
774.562	0.24
774.737	0.09
774.912	0.16
775.087	0.22
775.263	0.31
775.438	0.18
775.613	0.14
775.788	0.17
775.964	0.32
776.139	0.5
776.314	-0.06
776.489	0.24
776.664	0.17
776.839	0.19
777.014	0.33
777.19	0.42
777.365	0.33
777.54	0.4
777.715	0.07
777.89	0.06
778.065	0.08
778.24	0.23
778.415	0.39
778.59	0.04
778.765	0.16
778.94	0.14
779.115	0.15
779.289	0.17
779.464	0.26
779.639	0.08
779.814	-0.03
779.989	-0.07
780.164	0.39
780.339	0.37
780.513	0.08
780.688	0.09
780.863	0.12
781.038	0.29
781.212	-0.12
781.387	0.22
781.562	0.53
781.737	-0.03
781.911	0.36
782.086	0.05
782.261	0.1
782.435	0.31
782.61	0.01
782.784	0.18
782.959	0.22
783.134	0.08
783.308	-0.06
783.483	0.08
783.657	0.41
783.832	0.38
784.006	-0.32
784.181	0.07
784.355	0.1
784.53	-0.14
784.704	-0.01
784.878	0.4
785.053	0.18
785.227	0.17
785.402	0.75
785.576	0.05
785.75	0.08
785.925	0.03
786.099	0.34
786.273	0.09
786.448	0.24
786.622	0.32
786.796	0.14
786.97	0.15
787.145	0.57
787.319	-0.28
787.493	0.02
787.667	-0.31
787.841	0.04
788.015	0.4
788.19	-0.1
788.364	0.06
788.538	0.23
788.712	0.49
788.886	0.23
789.06	0.24
789.234	0.46
789.408	0.1
789.582	0.03
789.756	-0.01
789.93	0.06
790.104	0.05
790.278	0.08
790.452	-0.06
790.626	0.15
790.8	0.12
790.973	0.17
791.147	0.41
791.321	0.44
791.495	0.41
791.669	0.18
791.843	0.3
792.016	0.04
792.19	0.35
792.364	-0.17
792.538	0.64
792.711	0.29
792.885	-0.02
793.059	0
793.233	-0.46
793.406	0.16
793.58	0.18
793.754	0.29
793.927	0.1
794.101	0.1
794.274	0.26
794.448	0.26
794.622	-0.05
794.795	0.55
794.969	-0.03
795.142	0.37
795.316	0.1
795.489	-0.02
795.663	0.58
795.836	0.21
796.009	0.07
796.183	0.25
796.356	0.11
796.53	0.04
796.703	0.18
796.876	0.54
797.05	0.04
797.223	0.28
797.396	0.23
797.57	0.13
797.743	0.36
797.916	0.25
798.09	0.01
798.263	0.19
798.436	0.24
798.609	0.08
798.782	0.01
798.956	0.19
799.129	-0
799.302	0.13
799.475	0.08
799.648	-0.06
799.821	-0.07
799.994	0.2
800.167	-0.13
800.34	0.15
800.514	0.08
800.687	-0.02
800.86	-0.01
801.033	0.08
801.206	0.16
801.379	0.27
801.551	0.16
801.724	0.29
801.897	0.69
802.07	0.27
802.243	-0.39
802.416	0.14
802.589	0.08
802.762	0.3
802.935	0.08
803.107	0.54
803.28	0.39
803.453	0.42
803.626	-0.07
803.798	0.34
803.971	-0.12
804.144	0.43
804.317	0.13
804.489	0.12
804.662	0
804.835	0.03
805.007	-0.23
805.18	0.52
805.353	0.41
805.525	-0.06
805.698	0.08
805.87	0.4
806.043	0.45
806.215	-0.02
806.388	0
806.56	0.23
806.733	0.42
806.905	0.01
807.078	0.11
807.25	-0.07
807.423	0.24
807.595	0.32
807.768	0.13
807.94	0.37
808.112	0.28
808.285	0.01
808.457	0.1
808.629	0.18
808.802	0.24
808.974	-0.36
809.146	0.09
809.318	-0.04
809.491	0.23
809.663	0.52
809.835	-0.11
810.007	0.19
810.18	0.26
810.352	-0.37
810.524	0.04
810.696	0.15
810.868	0.48
811.04	0.06
811.212	-0.03
811.384	0.34
811.556	0.15
811.728	-0.11
811.901	0.95
812.073	0.24
812.245	0.1
812.417	-0.18
812.589	-0.47
812.76	-0.05
812.932	0.33
813.104	0.38
813.276	0.21
813.448	0.58
813.62	0.13
813.792	0.42
813.964	-0.12
814.136	0.36
814.307	-0.06
814.479	-0.43
814.651	-0.09
814.823	1
814.995	-0.01
815.166	0.3
815.338	0.11
815.51	-0.31
815.681	1.13
815.853	0.15
816.025	0.27
816.196	0.49
816.368	0.32
816.54	-0.19
816.711	0.11
816.883	0.25
817.054	0.68
817.226	-0.5
817.398	0.27
817.569	-0.32
817.741	0.32
817.912	0.13
818.084	0.06
818.255	0.44
818.426	-0.17
818.598	0.04
818.769	0.04
818.941	0.65
819.112	0.6
819.283	0.33
819.455	-0.15
819.626	0.2
819.798	0.14
819.969	-0.27
820.14	0.34
820.311	-0.07
820.483	0.44
820.654	0.45
820.825	-0.08
820.996	0
821.168	-0.22
821.339	0.32
821.51	0.06
821.681	1.37
821.852	0.04
822.023	-0.06
822.195	0.04
822.366	0.45
822.537	-0.04
822.708	0.26
822.879	-0.26
823.05	0.61
823.221	0.33
823.392	0.7
823.563	-0.05
823.734	0.36
823.905	-0.34
824.076	0.01
824.247	-0.56
824.418	-0.13
824.589	0.75
824.759	0.4
824.93	0.38
825.101	-0.86
825.272	0.61
825.443	1.1
825.614	0.9
825.784	-0.94
825.955	0.95
826.126	0.51
826.297	0.31
826.467	0.73
826.638	1.3
826.809	-0.66
826.98	-0.37
827.15	0.27
827.321	0.57
827.492	0.93
827.662	-0
827.833	1.4
828.003	0.45
828.174	0.1
828.345	-0.15
828.515	0.86
828.686	0.73
828.856	-0.04
829.027	0.42
829.197	0.52
829.368	0.62
829.538	-0.35
829.709	-0.09
829.879	0.13
830.049	0.47
830.22	0.15
830.39	-0.12
830.56	0.78
830.731	-0.1
830.901	-0.32
831.072	0.2
831.242	0.87
831.412	0.66
831.582	0.72
831.753	-0.09
831.923	0.67
832.093	0.99
832.263	-0.09
832.434	0.29
832.604	0.25
832.774	0.73
832.944	-0.01
833.114	-0.09
833.284	0.66
833.454	-0.81
833.624	-0.03
833.795	0.51
833.965	0.9
834.135	0.25
834.305	-0.55
834.475	-0.41
834.645	-0.17
834.815	0.32
834.985	0.09
835.155	-0.16
835.325	0.41
835.494	0.15
835.664	-0.04
835.834	-0.53
836.004	0.17
836.174	0.51
836.344	0.65
836.514	-0.53
836.684	0.3
836.853	0.05
837.023	0.24
837.193	0.22
837.363	0.49
837.532	0.87
837.702	0.06
837.872	-0.14
838.041	0.84
838.211	1.26
838.381	-0.77
838.55	0.86
838.72	1.96
838.89	1.68
839.059	0.08
839.229	-0.28
839.398	1.4
839.568	0.21
839.738	0.06
839.907	1.71
840.077	0.28
840.246	-0.52
840.416	-0.15
840.585	-0.39
840.755	1.18
840.924	0
841.093	-0.29
841.263	0.17
841.432	0.79
841.602	-0.67
841.771	-0.26
841.94	0.09
842.11	1.34
842.279	1.82
842.448	-0.64
842.617	0.13
842.787	1.71
842.956	-0.38
843.125	0.18
843.294	0.54
843.464	1.27
843.633	0.87
843.802	-0.7
843.971	0.02
844.14	1.03
844.309	1.15
844.479	-1.46
844.648	-0.52
844.817	-0.15
844.986	0.62
845.155	0.24
845.324	-0.22
845.493	0.27
845.662	-0.34
845.831	0.87
846	1.39
846.169	-0.13
846.338	0.83
846.507	0.38
846.676	0.43
846.844	0.75
847.013	1.29
847.182	0.36
847.351	0.04
847.52	0.78
847.689	0.96
847.858	-0.04
848.026	-0.49
848.195	0.05
848.364	0.27
848.533	0.08
848.701	-0.92
848.87	0.16
849.039	1.53
849.207	0.3
849.376	2.42
849.545	2.44
849.713	0.25
849.882	0.6
850.051	0.38
850.219	1.06
850.388	0.96
850.556	-0.59
850.725	0.54
850.893	0.66
851.062	0.1
851.23	1.16
851.399	-0.72
851.567	0.75
851.736	-0.93
851.904	0.07
852.073	1.09
852.241	1.19
852.41	0.27
852.578	-0.42
852.746	0
852.915	0.63
853.083	1.2
853.251	-0.63
853.42	0.2
853.588	1.51
853.756	1.52
853.924	-0.02
854.093	0.49
854.261	0.37
854.429	-0.91
854.597	0.68
854.765	-1.19
854.934	1.36
855.102	1.97
855.27	0.79
855.438	1.03
855.606	1.75
855.774	1.59
855.942	-0.8
856.11	-1.11
856.278	-0.13
856.446	0.63
856.614	0.53
856.782	-0.63
856.95	1.05
857.118	1.64
857.286	1.06
857.454	0.32
857.622	0.5
857.79	1.02
857.958	0.1
858.126	-0.1
858.294	-0.83
858.462	-0.85
858.629	-0.1
858.797	-0.28
858.965	-0.02
859.133	-0.02
859.301	0.82
859.468	0.05
859.636	-0.32
859.804	2.8
859.971	1.3
860.139	-0.98
860.307	1.76
860.474	0.14
860.642	0.06
860.81	0.84
860.977	0.63
861.145	1.42
861.313	0.09
861.48	0.04
861.648	1.88
861.815	0.94
861.983	-0.3
862.15	0.72
862.318	2.1
862.485	1.2
862.653	0.09
862.82	-0.34
862.988	1.76
863.155	1.46
863.322	-0.67
863.49	-0.74
863.657	-0.57
863.824	2.33
863.992	1.13
864.159	1.84
864.326	1.65
864.494	-0.42
864.661	3.11
864.828	-0.91
864.996	0.96
865.163	1.37
865.33	0.39
865.497	-1.11
865.664	-0.34
865.832	-0.39
865.999	-0.49
866.166	0.08
866.333	0.99
866.5	0
866.667	1.4
866.834	0.44
867.001	3
867.168	-1.04
867.335	1.99
867.502	-0.14
867.669	2.02
867.836	3.23
868.003	0.2
868.17	2.68
868.337	-0.52
868.504	2.17
868.671	-0.12
868.838	-0.29
869.005	1.64
869.172	1.23
869.339	-0.59
869.505	2.41
869.672	0.59
869.839	2.87
870.006	0.79
870.173	-1.53
870.339	2.04
870.506	3
870.673	-1.07
870.84	2.21
871.006	2.83
871.173	0.77
871.34	0.98
871.506	-0.43
871.673	0.52
871.839	-1.42
872.006	0.76
872.173	0.99
872.339	-0.14
872.506	2.11
872.672	0.99
872.839	-1.26
873.005	0.6
873.172	3.5
873.338	2.52
873.505	1.03
873.671	1.45
873.838	0.9
874.004	0.31
874.171	0.67
874.337	2.26
874.503	3.75
874.67	-0.25
874.836	-0.91
875.002	2.67
875.169	1.71
875.335	1.28
875.501	0.97
875.668	2.33
875.834	3.57
876	2.05
876.166	2.51
876.332	1.94
876.499	3.07
876.665	-0.83
876.831	0.59
876.997	4.51
877.163	3.13
877.329	0.32
877.495	1.85
877.662	1.65
877.828	1.73
877.994	1.26
878.16	-0.16
878.326	-1.01
878.492	0.08
878.658	1.43
878.824	1.53
878.99	2.96
879.156	1.01
879.322	2.82
879.487	0.7
879.653	1.41
879.819	1.59
879.985	-0.59
880.151	2.21
880.317	1.07
880.483	1.67
880.648	3.61
880.814	-2.37
880.98	1.24
881.146	-0.45
881.312	2.09
881.477	-0.56
881.643	2.3
881.809	3.13
881.974	3.61
882.14	-1.48
882.306	0.21
882.471	5.58
882.637	-1.09
882.803	3.38
882.968	3.67
883.134	5.41
883.299	1.76
883.465	1.82
883.63	2.47
883.796	0.75
883.961	1.64
884.127	2.5
884.292	-3.04
884.458	-0.16
884.623	-0.16
