Data from Apollo_Calib_20240827__AbsoluteIrradiance__640__09-49-02-503.txt Node

Date: Wed Aug 28 09:49:02 BST 2024
User: biology
Spectrometer: FLMT08252
Trigger mode: 0
Integration Time (sec): 5.000000E-1
Scans to average: 5
Electric dark correction enabled: true
Nonlinearity correction enabled: false
Boxcar width: 0
XAxis mode: Wavelengths
Number of Pixels in Spectrum: 3648
>>>>>Begin Spectral Data<<<<<
179.588	-0
179.809	-0
180.03	-0
180.251	-0
180.473	-0
180.694	0
180.915	0
181.136	-0
181.357	0
181.578	-0
181.799	-0
182.02	0
182.241	0
182.462	-0
182.683	0
182.904	-0
183.125	-0
183.346	-0
183.567	0
183.788	-0
184.009	-0
184.23	-0
184.451	-0
184.672	-0
184.892	-0
185.113	0
185.334	0
185.555	-0
185.776	-0
185.996	0
186.217	-0
186.438	-0
186.659	-0
186.879	0
187.1	-0
187.321	-0
187.541	-0
187.762	-0
187.983	0
188.203	0
188.424	-0
188.644	-0
188.865	-0
189.086	-0
189.306	-0
189.527	-0
189.747	-0
189.968	-0
190.188	-0
190.409	0
190.629	0
190.849	-0
191.07	-0
191.29	0
191.511	0
191.731	-0
191.951	-0
192.172	0
192.392	-0
192.612	-0
192.833	-0
193.053	0
193.273	0
193.493	-0
193.714	-0
193.934	0
194.154	0
194.374	-0
194.594	-0
194.815	0
195.035	-0
195.255	-0
195.475	-0
195.695	0
195.915	-0
196.135	0
196.355	0
196.575	0
196.795	-0
197.015	-0
197.235	-0
197.455	-0
197.675	-0
197.895	-0
198.115	-0
198.335	-0
198.555	-0
198.775	0
198.995	-0
199.214	0
199.434	0
199.654	-0
199.874	-0
200.094	0.5
200.313	-0.86
200.533	-1.04
200.753	-0.68
200.973	0.7
201.192	0.15
201.412	-1.15
201.632	-0.46
201.851	0.54
202.071	-0.62
202.291	-0.24
202.51	-1.08
202.73	0.02
202.95	-0.52
203.169	-0.52
203.389	-0.04
203.608	-0.01
203.828	-0.69
204.047	-0.03
204.267	0.09
204.486	0.03
204.706	0.09
204.925	0.31
205.145	-0.32
205.364	0.22
205.583	0.58
205.803	-0.28
206.022	-0.86
206.242	-0.29
206.461	-0.01
206.68	-0.6
206.9	-0.2
207.119	0.02
207.338	0.28
207.557	-0.37
207.777	-0.08
207.996	-0.43
208.215	0.14
208.434	-0.38
208.654	-0.52
208.873	-0.02
209.092	0.78
209.311	-0.07
209.53	-0.15
209.749	-0.18
209.968	-0.31
210.187	-0.06
210.407	-0.69
210.626	-0.16
210.845	0.01
211.064	0.02
211.283	-0.27
211.502	-0.13
211.721	-0.17
211.94	-0.16
212.159	-0.06
212.377	0.11
212.596	0.01
212.815	-0.15
213.034	-0.05
213.253	0.25
213.472	0.14
213.691	-0.31
213.91	-0.22
214.128	-0.24
214.347	0.21
214.566	-0.52
214.785	-0.31
215.003	0.09
215.222	-0.05
215.441	0.07
215.66	-0.34
215.878	-0.22
216.097	0.14
216.316	-0.37
216.534	-0.29
216.753	-0.11
216.972	0.02
217.19	-0.15
217.409	-0.36
217.627	-0.16
217.846	-0.22
218.064	-0.04
218.283	-0.26
218.501	0.2
218.72	0.15
218.938	-0.3
219.157	-0.04
219.375	0.08
219.594	0
219.812	-0.21
220.031	-0.31
220.249	0.15
220.467	-0.01
220.686	-0.09
220.904	-0.29
221.122	-0.21
221.341	0.25
221.559	-0.02
221.777	-0.12
221.995	-0.23
222.214	0.1
222.432	-0.22
222.65	-0.02
222.868	-0.06
223.086	-0.02
223.305	-0.08
223.523	-0.07
223.741	0.07
223.959	-0.18
224.177	-0.31
224.395	-0.13
224.613	0.04
224.831	0.12
225.049	-0.14
225.267	-0.13
225.485	-0.1
225.703	-0.24
225.921	-0.22
226.139	-0.13
226.357	-0.01
226.575	0.04
226.793	-0.19
227.011	0.37
227.229	-0.11
227.447	0.14
227.665	-0.18
227.883	-0.25
228.1	-0.03
228.318	-0.12
228.536	-0.25
228.754	-0.18
228.972	0.01
229.189	0.04
229.407	-0.15
229.625	-0.21
229.843	0.15
230.06	-0
230.278	-0.15
230.496	-0.12
230.713	0.06
230.931	-0.02
231.149	-0.18
231.366	-0.38
231.584	-0.07
231.801	0.22
232.019	-0.14
232.236	-0.25
232.454	-0.2
232.671	-0.1
232.889	-0.03
233.106	-0.18
233.324	-0.06
233.541	-0.09
233.759	-0.09
233.976	-0.15
234.194	-0.07
234.411	-0.12
234.628	-0.1
234.846	-0.1
235.063	-0.07
235.28	-0.21
235.498	-0.01
235.715	-0.24
235.932	0.04
236.149	-0.13
236.367	-0.1
236.584	0.01
236.801	-0.12
237.018	0.07
237.236	0.06
237.453	-0.19
237.67	0.08
237.887	-0.04
238.104	-0.09
238.321	-0.27
238.538	-0.06
238.755	0
238.973	-0.22
239.19	-0.06
239.407	-0
239.624	0.02
239.841	-0.18
240.058	-0.12
240.275	-0.02
240.492	-0.08
240.709	-0.01
240.925	-0.11
241.142	-0.09
241.359	-0.13
241.576	-0.16
241.793	-0.08
242.01	-0.06
242.227	0.01
242.444	0
242.66	-0
242.877	-0.05
243.094	-0.08
243.311	-0.06
243.527	-0.04
243.744	-0.05
243.961	0.06
244.178	-0.06
244.394	-0.1
244.611	0.02
244.828	0.13
245.044	-0.1
245.261	-0.03
245.477	-0.05
245.694	0.09
245.911	-0.08
246.127	-0.08
246.344	0.1
246.56	0.01
246.777	-0.04
246.993	-0.03
247.21	0.1
247.426	0.1
247.643	-0.01
247.859	-0.15
248.076	-0.07
248.292	0.13
248.508	-0.06
248.725	-0.06
248.941	-0.05
249.157	0.06
249.374	-0.09
249.59	-0.08
249.806	0.01
250.023	0.03
250.239	-0.12
250.455	-0.11
250.671	-0.02
250.888	0.01
251.104	0.02
251.32	-0.12
251.536	-0.09
251.752	-0.05
251.969	-0.08
252.185	-0.02
252.401	0.17
252.617	-0.01
252.833	-0.03
253.049	-0.05
253.265	-0.04
253.481	-0.02
253.697	-0.07
253.913	-0.15
254.129	-0.01
254.345	-0.05
254.561	-0.09
254.777	-0.08
254.993	0
255.209	-0.04
255.425	-0.05
255.641	-0.07
255.857	0.05
256.073	0
256.288	-0.13
256.504	-0.12
256.72	-0.01
256.936	0.07
257.152	-0
257.367	-0.1
257.583	-0.06
257.799	-0.01
258.015	-0.11
258.23	-0.01
258.446	0.1
258.662	-0.03
258.877	-0.08
259.093	-0.13
259.309	-0.03
259.524	0
259.74	-0.05
259.955	-0.2
260.171	0.09
260.387	-0.12
260.602	0.04
260.818	0.08
261.033	-0.12
261.249	-0.08
261.464	-0.12
261.68	-0.11
261.895	0.06
262.11	0.07
262.326	-0.04
262.541	-0.16
262.757	0.04
262.972	-0.02
263.187	-0.07
263.403	-0.01
263.618	0.03
263.833	-0.06
264.049	-0.12
264.264	-0.04
264.479	0.01
264.694	0.05
264.91	-0.09
265.125	-0.04
265.34	-0.04
265.555	0.13
265.77	-0.05
265.986	-0.07
266.201	-0.06
266.416	0.05
266.631	-0.01
266.846	0
267.061	-0.01
267.276	0.02
267.491	-0.14
267.706	-0.03
267.921	0.03
268.136	-0.03
268.351	0.01
268.566	-0.14
268.781	0.07
268.996	0
269.211	-0.02
269.426	-0.09
269.641	-0.08
269.856	-0.04
270.071	-0.08
270.285	-0.13
270.5	0.01
270.715	-0
270.93	-0.05
271.145	-0.02
271.359	0.04
271.574	-0.11
271.789	-0.1
272.004	-0.08
272.218	-0.05
272.433	0.04
272.648	-0.09
272.862	0.02
273.077	-0
273.292	-0.04
273.506	-0.04
273.721	-0.08
273.936	-0
274.15	0.02
274.365	-0.05
274.579	-0
274.794	0.07
275.008	0.01
275.223	-0.14
275.437	-0.04
275.652	-0
275.866	-0.01
276.081	-0.06
276.295	0.01
276.509	-0.06
276.724	-0.05
276.938	0.02
277.153	-0.04
277.367	0.02
277.581	-0.03
277.796	-0.08
278.01	-0.05
278.224	0.08
278.438	0.13
278.653	-0.12
278.867	-0.03
279.081	-0.01
279.295	-0.07
279.51	0.02
279.724	-0.12
279.938	0.03
280.152	0.01
280.366	-0.08
280.58	-0.03
280.794	0.05
281.008	0.05
281.222	0.06
281.437	0.03
281.651	-0.02
281.865	0.1
282.079	-0.06
282.293	-0.17
282.507	-0.05
282.721	-0.02
282.935	-0.03
283.148	-0.17
283.362	-0.08
283.576	-0.11
283.79	-0.04
284.004	-0.05
284.218	0.04
284.432	-0.05
284.646	-0.04
284.859	-0.05
285.073	-0.02
285.287	-0.05
285.501	-0.03
285.714	-0.05
285.928	-0.01
286.142	-0.03
286.356	-0.08
286.569	-0.05
286.783	0.07
286.997	0.04
287.21	-0.02
287.424	0
287.637	-0.06
287.851	-0.05
288.065	-0.03
288.278	-0.03
288.492	-0.03
288.705	-0.02
288.919	-0.02
289.132	-0.12
289.346	0.05
289.559	-0.1
289.773	-0.1
289.986	-0.09
290.2	-0.05
290.413	0.05
290.626	-0.07
290.84	-0.03
291.053	-0.05
291.267	0.06
291.48	0.02
291.693	-0.06
291.906	-0.04
292.12	0.01
292.333	-0.02
292.546	-0.04
292.76	0.06
292.973	0
293.186	0
293.399	-0.07
293.612	0.03
293.826	-0
294.039	-0.01
294.252	-0.09
294.465	-0.01
294.678	0.02
294.891	-0.01
295.104	-0.05
295.317	-0.05
295.53	-0.02
295.743	-0.01
295.956	-0
296.169	0.08
296.382	-0.01
296.595	-0.05
296.808	-0.07
297.021	0.02
297.234	0.02
297.447	-0.04
297.66	-0.04
297.873	0.05
298.086	0.01
298.299	-0.02
298.511	-0.05
298.724	-0.07
298.937	-0.08
299.15	-0.06
299.363	0.03
299.575	0.05
299.788	-0
300.001	-0
300.213	-0.04
300.426	-0.01
300.639	-0.05
300.852	-0.05
301.064	0.01
301.277	0.02
301.489	0.02
301.702	0.01
301.915	-0.03
302.127	-0.07
302.34	0.01
302.552	0.05
302.765	-0.08
302.977	0.01
303.19	-0.02
303.402	-0.03
303.615	-0.04
303.827	-0.02
304.04	-0.02
304.252	-0.01
304.464	-0
304.677	0.08
304.889	0.04
305.102	-0.02
305.314	-0.06
305.526	0.01
305.739	0
305.951	-0.05
306.163	-0.04
306.375	0.03
306.588	-0.06
306.8	-0.06
307.012	-0.03
307.224	0.02
307.436	0
307.649	-0.06
307.861	0
308.073	0.03
308.285	-0.03
308.497	-0.07
308.709	-0.05
308.921	0.01
309.133	0.05
309.346	-0.03
309.558	-0.02
309.77	0
309.982	0.06
310.194	0.01
310.406	-0.03
310.617	0.07
310.829	-0.02
311.041	0
311.253	-0.1
311.465	-0.07
311.677	0
311.889	-0.06
312.101	-0.05
312.313	0.04
312.524	0.02
312.736	-0.05
312.948	-0.04
313.16	0.06
313.372	-0.03
313.583	0.01
313.795	-0.02
314.007	-0.03
314.218	0.03
314.43	-0.03
314.642	-0.05
314.853	-0.05
315.065	0
315.277	-0.02
315.488	-0.02
315.7	0.04
315.912	-0
316.123	-0.04
316.335	-0.05
316.546	0.07
316.758	0.01
316.969	-0.04
317.181	0.02
317.392	-0.01
317.604	0.02
317.815	-0.07
318.026	-0.04
318.238	0.05
318.449	-0.02
318.661	-0.1
318.872	-0.1
319.083	-0.05
319.295	0
319.506	-0.03
319.717	0.01
319.929	-0.01
320.14	0.01
320.351	0
320.562	-0.08
320.774	-0.03
320.985	-0.01
321.196	-0.08
321.407	-0.12
321.618	0
321.829	0.02
322.041	0
322.252	-0.03
322.463	0
322.674	0.03
322.885	-0.06
323.096	-0.05
323.307	-0.05
323.518	-0
323.729	-0.06
323.94	-0.01
324.151	-0.02
324.362	-0.01
324.573	-0
324.784	-0.06
324.995	-0.01
325.206	-0.05
325.417	-0.07
325.628	-0.07
325.838	-0.03
326.049	-0.06
326.26	-0.01
326.471	0.01
326.682	-0.02
326.892	-0.01
327.103	-0.09
327.314	-0.08
327.525	0.01
327.735	-0.02
327.946	-0.03
328.157	-0.06
328.368	-0.03
328.578	-0.07
328.789	-0.01
328.999	0.01
329.21	-0.05
329.421	0.01
329.631	-0.05
329.842	-0.04
330.052	0.02
330.263	-0
330.473	0.01
330.684	-0.04
330.894	-0.02
331.105	0
331.315	-0.04
331.526	-0.04
331.736	0.05
331.947	0.02
332.157	-0.02
332.367	-0.05
332.578	0.02
332.788	0.03
332.999	0.01
333.209	-0.03
333.419	-0.07
333.629	-0.01
333.84	-0.01
334.05	-0.03
334.26	-0
334.47	-0.05
334.681	0.03
334.891	-0.06
335.101	0.02
335.311	0.08
335.521	-0.03
335.732	-0.07
335.942	0.03
336.152	-0.02
336.362	-0.03
336.572	0.02
336.782	0.03
336.992	-0.04
337.202	-0.03
337.412	-0.04
337.622	-0.01
337.832	-0.02
338.042	-0.05
338.252	-0.02
338.462	-0.03
338.672	-0.04
338.882	0.01
339.092	-0.03
339.302	0.11
339.511	0.02
339.721	-0.06
339.931	-0.04
340.141	0.01
340.351	0.01
340.561	-0.05
340.77	-0.02
340.98	0
341.19	-0
341.4	-0.03
341.609	-0.07
341.819	-0.01
342.029	-0.07
342.238	-0.02
342.448	-0.05
342.658	0.02
342.867	-0
343.077	-0.04
343.286	0.01
343.496	-0.01
343.706	0.06
343.915	-0.07
344.125	-0.01
344.334	0.03
344.544	-0.07
344.753	-0.05
344.963	-0.03
345.172	-0.07
345.381	-0.04
345.591	-0.07
345.8	-0
346.01	-0.03
346.219	-0.01
346.428	-0.04
346.638	-0.01
346.847	-0.04
347.056	0.01
347.266	-0.05
347.475	-0.02
347.684	0
347.893	0.04
348.103	-0.02
348.312	-0.05
348.521	-0.05
348.73	-0.02
348.94	0.01
349.149	0.03
349.358	-0
349.567	-0.05
349.776	-0.08
349.985	-0.02
350.194	0.01
350.403	0
350.612	-0.08
350.821	-0.04
351.03	-0.04
351.239	-0.1
351.448	-0
351.657	-0.05
351.866	-0
352.075	-0.05
352.284	0
352.493	-0.07
352.702	-0.01
352.911	0
353.12	-0
353.329	-0.03
353.538	-0.01
353.746	-0.02
353.955	-0.06
354.164	0.04
354.373	-0.04
354.582	-0.01
354.79	-0.01
354.999	0.03
355.208	-0.05
355.416	0.02
355.625	-0.05
355.834	-0.02
356.042	0.01
356.251	-0.02
356.46	-0.05
356.668	-0.02
356.877	0.07
357.085	-0.01
357.294	-0.11
357.503	-0.01
357.711	-0.02
357.92	0.07
358.128	0.01
358.337	0.01
358.545	0.03
358.754	-0.07
358.962	0
359.17	-0.02
359.379	-0.01
359.587	0.01
359.796	-0.03
360.004	0.02
360.212	0.02
360.421	-0.05
360.629	-0.06
360.837	-0.06
361.046	0
361.254	0.04
361.462	-0.01
361.67	-0.06
361.879	-0.04
362.087	0.08
362.295	-0.06
362.503	-0.02
362.711	-0.07
362.92	-0.04
363.128	-0.02
363.336	-0.05
363.544	-0.07
363.752	-0.01
363.96	-0.05
364.168	-0.07
364.376	-0.02
364.584	-0.01
364.792	0.01
365	0.01
365.208	-0.02
365.416	-0
365.624	0.02
365.832	-0.04
366.04	0.05
366.248	0
366.456	-0.01
366.664	0.02
366.872	-0.02
367.079	-0.03
367.287	-0
367.495	-0.02
367.703	-0.01
367.911	-0.07
368.118	0.02
368.326	-0.05
368.534	-0.06
368.742	0.05
368.949	-0.06
369.157	-0.04
369.365	-0.02
369.572	-0.02
369.78	-0.05
369.988	0.03
370.195	0.02
370.403	0.01
370.61	0.01
370.818	-0.02
371.026	0.01
371.233	-0.02
371.441	0.01
371.648	-0.02
371.856	-0.03
372.063	-0.03
372.271	-0.01
372.478	-0.02
372.685	-0.03
372.893	0.06
373.1	-0.02
373.308	-0.06
373.515	-0
373.722	0.02
373.93	-0.05
374.137	0.03
374.344	0.06
374.552	0.02
374.759	-0.02
374.966	-0.04
375.173	0.01
375.381	0.05
375.588	0.01
375.795	-0.06
376.002	-0.06
376.209	-0.08
376.417	-0.05
376.624	-0.04
376.831	0.02
377.038	-0.02
377.245	-0.09
377.452	0.01
377.659	-0.02
377.866	-0.03
378.073	-0.01
378.28	-0.04
378.487	-0.02
378.694	0.02
378.901	-0.04
379.108	0.02
379.315	0.01
379.522	0.05
379.729	-0.04
379.936	-0.05
380.143	-0.07
380.35	-0.04
380.557	-0.01
380.763	-0.01
380.97	-0.02
381.177	0.02
381.384	-0.02
381.591	-0.06
381.797	-0.01
382.004	0
382.211	-0.02
382.418	-0.1
382.624	0.03
382.831	-0.01
383.038	-0.05
383.244	-0.03
383.451	-0.05
383.658	-0.02
383.864	-0.03
384.071	-0.07
384.277	0.01
384.484	-0.06
384.69	0.04
384.897	-0.04
385.103	-0.02
385.31	-0.06
385.516	-0.02
385.723	-0.06
385.929	-0.04
386.136	-0.06
386.342	-0.03
386.549	-0.05
386.755	0.07
386.961	0.01
387.168	-0.04
387.374	-0.02
387.58	-0.01
387.787	-0.01
387.993	0
388.199	-0.05
388.406	-0.04
388.612	-0.03
388.818	-0.03
389.024	-0.02
389.231	0
389.437	0.05
389.643	0.01
389.849	-0.05
390.055	0.01
390.261	-0.01
390.467	-0.01
390.674	-0.05
390.88	-0.05
391.086	0
391.292	-0.08
391.498	0.01
391.704	-0.02
391.91	-0.04
392.116	-0.07
392.322	-0.07
392.528	-0.01
392.734	0.01
392.94	0.02
393.146	-0.04
393.352	-0.02
393.557	-0.04
393.763	-0.01
393.969	0.02
394.175	-0.02
394.381	-0.01
394.587	-0.05
394.792	-0.03
394.998	-0.01
395.204	0.01
395.41	-0.07
395.615	0.02
395.821	0.05
396.027	-0.01
396.233	-0.09
396.438	-0.04
396.644	0.05
396.85	-0.01
397.055	0.01
397.261	0.02
397.466	-0.06
397.672	0.03
397.878	-0.01
398.083	-0.01
398.289	-0.07
398.494	0.01
398.7	0.01
398.905	-0.12
399.111	0.05
399.316	-0.06
399.522	0
399.727	-0.04
399.932	-0.04
400.138	-0.03
400.343	-0
400.549	0.02
400.754	-0.04
400.959	-0.01
401.165	-0.04
401.37	-0.04
401.575	0.04
401.78	-0.05
401.986	-0.07
402.191	-0.07
402.396	-0.03
402.601	-0.01
402.807	0.01
403.012	0.02
403.217	0.03
403.422	-0.05
403.627	-0.03
403.832	-0.04
404.037	-0.04
404.243	-0.01
404.448	-0.05
404.653	-0.02
404.858	0.03
405.063	0.01
405.268	-0.04
405.473	-0.06
405.678	-0.06
405.883	0.12
406.088	0.02
406.293	-0.07
406.498	-0.07
406.703	-0.05
406.907	-0.02
407.112	-0.07
407.317	-0.01
407.522	-0.01
407.727	-0.02
407.932	-0.05
408.136	0.07
408.341	-0.03
408.546	-0.03
408.751	-0.03
408.956	-0.04
409.16	-0.04
409.365	-0.05
409.57	-0.05
409.774	-0.05
409.979	0.04
410.184	0
410.388	-0.03
410.593	-0
410.798	-0.03
411.002	-0.08
411.207	0.05
411.411	-0.01
411.616	-0.08
411.82	-0.05
412.025	-0.04
412.229	-0.06
412.434	0.03
412.638	0.02
412.843	-0.05
413.047	-0.02
413.252	-0.02
413.456	-0.05
413.66	-0.01
413.865	-0.05
414.069	0.06
414.273	-0.04
414.478	-0.05
414.682	-0.01
414.886	-0.08
415.091	-0.07
415.295	-0.09
415.499	-0.01
415.703	-0.05
415.908	0
416.112	-0.11
416.316	0.01
416.52	-0.07
416.724	-0.06
416.929	-0.04
417.133	0.11
417.337	-0.05
417.541	-0.02
417.745	-0
417.949	0
418.153	-0.01
418.357	-0.07
418.561	0.05
418.765	-0.03
418.969	0.08
419.173	-0.03
419.377	-0.1
419.581	0
419.785	-0.05
419.989	-0.09
420.193	-0.03
420.397	-0.07
420.601	0.02
420.804	0
421.008	-0.04
421.212	0
421.416	0.08
421.62	-0.05
421.823	-0.06
422.027	0.06
422.231	-0
422.435	-0.03
422.638	-0.04
422.842	-0.04
423.046	-0.07
423.249	0.07
423.453	0.01
423.657	-0.03
423.86	0
424.064	-0.03
424.268	0.04
424.471	-0.03
424.675	0.06
424.878	0.07
425.082	0
425.285	0.05
425.489	-0.01
425.692	-0.04
425.896	-0.06
426.099	0.03
426.303	-0.06
426.506	-0.1
426.71	-0.01
426.913	0
427.116	0.03
427.32	-0.02
427.523	-0.04
427.726	0.01
427.93	-0.1
428.133	-0.03
428.336	-0.06
428.54	-0.07
428.743	-0.04
428.946	0.02
429.149	-0.06
429.353	-0.01
429.556	0
429.759	-0.03
429.962	-0.11
430.165	-0.03
430.368	0.01
430.571	-0.07
430.775	-0.01
430.978	-0.01
431.181	-0.02
431.384	0.03
431.587	-0.05
431.79	-0.05
431.993	-0.06
432.196	-0.01
432.399	-0.06
432.602	0.02
432.805	-0.06
433.008	-0.05
433.211	-0.09
433.414	0.02
433.616	0.02
433.819	-0.03
434.022	-0.12
434.225	0.01
434.428	-0.02
434.631	0.03
434.833	-0.01
435.036	-0.06
435.239	0
435.442	-0.03
435.645	-0.07
435.847	-0.03
436.05	0.03
436.253	-0.01
436.455	-0.07
436.658	-0.02
436.861	0.02
437.063	-0.05
437.266	-0.06
437.468	0
437.671	0.09
437.874	-0.04
438.076	-0.1
438.279	-0.11
438.481	-0.04
438.684	-0.06
438.886	0.03
439.089	-0.13
439.291	-0.05
439.494	-0.01
439.696	-0.06
439.899	-0.04
440.101	-0.05
440.303	-0.12
440.506	0.01
440.708	-0.04
440.91	0.03
441.113	-0.07
441.315	0.04
441.517	-0.12
441.72	0.01
441.922	-0.11
442.124	-0.1
442.326	-0.03
442.529	0.03
442.731	-0.07
442.933	0.08
443.135	-0.05
443.337	-0.08
443.539	-0.05
443.742	-0.02
443.944	-0.04
444.146	-0.05
444.348	-0.07
444.55	-0.09
444.752	0.01
444.954	-0.11
445.156	-0.03
445.358	-0.08
445.56	-0
445.762	0.02
445.964	-0.02
446.166	-0.04
446.368	-0.08
446.57	0.03
446.772	-0.01
446.974	-0.05
447.175	-0.05
447.377	-0.04
447.579	-0.08
447.781	-0.08
447.983	0.02
448.184	-0.02
448.386	-0.01
448.588	-0.13
448.79	-0
448.991	-0.02
449.193	-0.04
449.395	-0.03
449.597	-0.06
449.798	-0.03
450	-0
450.202	-0.02
450.403	-0.02
450.605	0
450.806	0
451.008	-0.11
451.21	-0.04
451.411	-0.01
451.613	-0.03
451.814	0.01
452.016	-0.01
452.217	-0.03
452.419	-0
452.62	-0.02
452.821	-0.01
453.023	0.01
453.224	0.02
453.426	-0.02
453.627	-0
453.828	0.01
454.03	0.01
454.231	-0.01
454.432	-0.07
454.634	0.08
454.835	-0.04
455.036	-0.06
455.238	0.03
455.439	0.06
455.64	-0.09
455.841	-0.04
456.042	0.06
456.244	0.02
456.445	-0.1
456.646	-0.06
456.847	-0.04
457.048	0.07
457.249	0.05
457.45	0.14
457.651	-0.1
457.852	0.05
458.054	-0.01
458.255	-0.02
458.456	-0.01
458.657	0.01
458.858	-0.03
459.058	-0.05
459.259	0.03
459.46	-0.07
459.661	-0.03
459.862	0.02
460.063	-0.03
460.264	0.04
460.465	-0.05
460.666	0.06
460.866	-0.04
461.067	0.02
461.268	-0.04
461.469	-0.05
461.67	-0.01
461.87	-0.07
462.071	-0.04
462.272	-0.06
462.473	-0.05
462.673	-0
462.874	-0.08
463.075	-0.03
463.275	-0.07
463.476	-0.02
463.676	-0
463.877	-0.02
464.078	-0.05
464.278	0.01
464.479	-0.04
464.679	-0.03
464.88	-0.03
465.08	0.05
465.281	-0.1
465.481	-0.05
465.682	-0.02
465.882	0.02
466.083	-0.03
466.283	-0.01
466.483	-0.02
466.684	-0.07
466.884	-0.03
467.085	-0.08
467.285	-0.01
467.485	-0.06
467.686	-0.03
467.886	-0.06
468.086	-0.01
468.286	-0.03
468.487	0
468.687	-0.09
468.887	-0.01
469.087	-0.01
469.287	-0
469.488	-0.11
469.688	-0.02
469.888	0.01
470.088	0.02
470.288	0.04
470.488	-0.02
470.688	-0.09
470.888	-0.01
471.088	-0.06
471.288	0.04
471.488	-0
471.688	-0.01
471.888	-0.06
472.088	-0
472.288	0.02
472.488	-0.06
472.688	-0.06
472.888	0
473.088	-0.01
473.288	-0.03
473.488	-0.02
473.688	0.05
473.887	0
474.087	-0.02
474.287	-0.02
474.487	-0.04
474.687	-0.01
474.886	-0.03
475.086	-0.03
475.286	-0.04
475.486	-0.02
475.685	-0.04
475.885	-0.02
476.085	-0.01
476.284	0
476.484	-0.04
476.684	0.02
476.883	0.04
477.083	-0.02
477.282	-0.07
477.482	0.02
477.681	0.03
477.881	-0.01
478.08	-0.04
478.28	-0.02
478.479	0.01
478.679	0.04
478.878	-0.07
479.078	-0.06
479.277	-0.02
479.477	-0.02
479.676	0
479.875	-0.03
480.075	-0.08
480.274	-0.01
480.473	0.01
480.673	-0.06
480.872	0
481.071	-0.02
481.271	0.02
481.47	-0.04
481.669	-0.01
481.868	-0.04
482.067	-0.01
482.267	-0.03
482.466	-0.01
482.665	-0.06
482.864	-0.07
483.063	-0.08
483.262	0
483.461	0.03
483.661	-0.01
483.86	-0.04
484.059	-0.02
484.258	-0.02
484.457	-0
484.656	-0.03
484.855	0
485.054	-0.06
485.253	-0.04
485.452	-0.04
485.651	-0.01
485.849	-0.01
486.048	-0.03
486.247	-0.03
486.446	-0.04
486.645	-0.05
486.844	-0.03
487.043	-0.02
487.241	0.01
487.44	-0.05
487.639	-0.04
487.838	0.01
488.037	-0.01
488.235	0.02
488.434	-0.03
488.633	-0.02
488.831	-0.04
489.03	0.01
489.229	-0.02
489.427	-0.01
489.626	0.02
489.825	0.03
490.023	-0.02
490.222	-0.01
490.42	0.02
490.619	0.01
490.817	-0
491.016	-0.02
491.214	0.03
491.413	-0.01
491.611	-0.03
491.81	-0.02
492.008	0
492.207	-0.01
492.405	0
492.604	-0.05
492.802	-0.03
493	-0.01
493.199	-0.04
493.397	-0.02
493.595	-0.02
493.794	-0.01
493.992	0.05
494.19	-0.01
494.388	-0.02
494.587	-0.03
494.785	0.01
494.983	-0.02
495.181	-0.03
495.379	-0
495.578	-0.04
495.776	-0.01
495.974	-0
496.172	-0.03
496.37	-0.04
496.568	-0.04
496.766	-0.02
496.964	0
497.162	-0.03
497.36	-0.04
497.558	-0
497.756	0.03
497.954	-0.03
498.152	-0
498.35	-0.02
498.548	-0.03
498.746	0.01
498.944	-0.04
499.142	-0.04
499.34	-0.03
499.538	-0.02
499.736	-0.03
499.933	0.03
500.131	0.03
500.329	-0.01
500.527	0.01
500.725	-0.01
500.922	-0.01
501.12	-0
501.318	-0.01
501.516	-0.02
501.713	-0
501.911	-0
502.109	-0.04
502.306	-0.01
502.504	-0.03
502.701	-0.04
502.899	-0.03
503.097	0.02
503.294	0.02
503.492	-0.02
503.689	-0.03
503.887	0
504.084	0.03
504.282	-0.01
504.479	-0.04
504.677	-0.01
504.874	-0.05
505.072	-0.02
505.269	-0.03
505.466	0.01
505.664	-0.01
505.861	-0.04
506.059	-0.05
506.256	0.02
506.453	-0.02
506.651	0.04
506.848	0
507.045	0
507.242	-0.02
507.44	-0.04
507.637	-0.03
507.834	-0.02
508.031	0.01
508.229	-0.03
508.426	-0.02
508.623	0
508.82	-0.04
509.017	-0.04
509.214	-0.03
509.411	-0.02
509.608	-0.03
509.805	-0.03
510.003	-0.02
510.2	-0.04
510.397	0.02
510.594	-0.03
510.791	-0.03
510.988	-0.03
511.184	0.03
511.381	-0.02
511.578	-0.02
511.775	-0
511.972	-0.03
512.169	-0.04
512.366	-0.02
512.563	-0.01
512.76	-0.05
512.956	0
513.153	-0.03
513.35	-0.01
513.547	-0.03
513.744	-0.03
513.94	-0.03
514.137	-0.02
514.334	-0.01
514.53	0.01
514.727	-0.01
514.924	0.01
515.12	-0.03
515.317	-0.04
515.514	-0.04
515.71	-0.04
515.907	-0.03
516.103	-0.01
516.3	-0.01
516.497	-0.01
516.693	0.01
516.89	-0.02
517.086	-0.03
517.283	-0
517.479	-0
517.676	-0.01
517.872	-0.01
518.068	-0.02
518.265	-0.04
518.461	-0.02
518.658	-0.02
518.854	0
519.05	-0.02
519.247	-0.03
519.443	-0.01
519.639	0
519.836	-0.03
520.032	-0.02
520.228	-0.03
520.424	0.03
520.621	0.01
520.817	-0.02
521.013	0.01
521.209	0.01
521.405	0.04
521.601	-0.02
521.798	-0.01
521.994	0.02
522.19	-0.03
522.386	-0.04
522.582	-0.01
522.778	-0.01
522.974	-0.02
523.17	-0.01
523.366	-0.03
523.562	0.03
523.758	-0.01
523.954	-0.02
524.15	-0.02
524.346	-0
524.542	-0.02
524.738	-0.04
524.934	-0.03
525.129	-0.07
525.325	0.01
525.521	-0.01
525.717	-0.02
525.913	0
526.109	-0
526.304	-0
526.5	0
526.696	0.01
526.892	-0.01
527.087	-0.01
527.283	-0.02
527.479	-0.02
527.674	-0.03
527.87	-0.01
528.066	-0.01
528.261	-0.02
528.457	-0
528.653	-0.01
528.848	-0.02
529.044	-0.01
529.239	-0.03
529.435	0.01
529.63	0
529.826	0.01
530.021	0.01
530.217	-0.01
530.412	-0.02
530.608	-0.03
530.803	0.01
530.999	-0.01
531.194	-0.04
531.389	-0
531.585	-0.06
531.78	-0.02
531.975	-0.01
532.171	0.01
532.366	-0.01
532.561	-0
532.757	-0.03
532.952	-0.03
533.147	0
533.342	-0
533.538	-0.02
533.733	-0
533.928	-0.01
534.123	-0.03
534.318	-0.03
534.513	-0.01
534.709	-0.02
534.904	-0.04
535.099	-0.02
535.294	0
535.489	-0.02
535.684	-0.02
535.879	-0.04
536.074	-0.01
536.269	-0.05
536.464	-0.01
536.659	-0.02
536.854	-0.03
537.049	0.02
537.244	-0.01
537.439	-0.02
537.634	0.01
537.828	0
538.023	-0.02
538.218	-0.03
538.413	-0.03
538.608	-0.07
538.803	-0
538.997	-0.06
539.192	0
539.387	0.01
539.582	0
539.776	-0
539.971	-0.02
540.166	-0
540.36	-0.03
540.555	-0.01
540.75	-0.02
540.944	0
541.139	-0.04
541.334	-0.04
541.528	-0.01
541.723	-0.01
541.917	-0.02
542.112	-0.05
542.306	-0.02
542.501	-0.03
542.695	0
542.89	-0.03
543.084	-0.02
543.279	-0.04
543.473	-0.02
543.668	-0.02
543.862	-0.01
544.056	0
544.251	-0.01
544.445	-0.02
544.64	-0.02
544.834	-0.03
545.028	-0
545.222	-0.02
545.417	-0.02
545.611	-0.01
545.805	-0
546	-0.02
546.194	-0.04
546.388	-0.03
546.582	0.01
546.776	-0
546.97	-0.01
547.165	0
547.359	0
547.553	-0.04
547.747	0
547.941	-0.01
548.135	-0.01
548.329	0
548.523	-0.01
548.717	-0.04
548.911	-0.05
549.105	-0.03
549.299	-0.01
549.493	0.02
549.687	0
549.881	-0
550.075	-0.01
550.269	-0.04
550.463	-0.01
550.657	-0.03
550.85	-0.02
551.044	-0.03
551.238	0
551.432	-0.03
551.626	-0.04
551.82	-0.01
552.013	-0.03
552.207	-0
552.401	0
552.594	0
552.788	-0.03
552.982	-0.02
553.176	-0.03
553.369	-0
553.563	-0
553.756	-0.04
553.95	-0.04
554.144	-0.02
554.337	0.01
554.531	0.01
554.724	0
554.918	-0.02
555.111	-0
555.305	-0.04
555.498	0.03
555.692	0.01
555.885	-0.02
556.079	-0.01
556.272	-0.04
556.466	-0
556.659	-0.01
556.852	-0.01
557.046	-0.02
557.239	0
557.432	-0.05
557.626	-0.05
557.819	-0.01
558.012	-0.02
558.206	-0
558.399	-0
558.592	0.01
558.785	-0.05
558.979	0.01
559.172	-0.01
559.365	0
559.558	-0.02
559.751	-0.03
559.944	-0.01
560.138	-0.03
560.331	-0.03
560.524	-0.02
560.717	-0.01
560.91	-0
561.103	-0.01
561.296	-0.02
561.489	0.01
561.682	-0.01
561.875	0
562.068	-0
562.261	-0.01
562.454	0.01
562.647	-0.01
562.84	0.01
563.032	-0.03
563.225	-0.01
563.418	-0.02
563.611	-0.03
563.804	-0.01
563.997	-0.04
564.19	-0.04
564.382	-0.06
564.575	-0.01
564.768	-0.02
564.961	-0
565.153	-0.04
565.346	0
565.539	-0.01
565.731	0
565.924	0.01
566.117	0.01
566.309	-0
566.502	-0.02
566.695	-0.01
566.887	0.01
567.08	-0.01
567.272	-0.01
567.465	-0.05
567.657	-0.03
567.85	-0.01
568.042	0.01
568.235	0.02
568.427	-0.02
568.62	-0.01
568.812	0.01
569.005	-0.01
569.197	-0.06
569.389	-0.03
569.582	-0.01
569.774	0
569.966	-0.04
570.159	-0.05
570.351	-0.01
570.543	-0.03
570.736	-0.01
570.928	-0.06
571.12	0.01
571.312	-0.04
571.505	-0.06
571.697	0.02
571.889	-0.04
572.081	-0.02
572.273	-0.01
572.465	0.01
572.658	-0.03
572.85	-0
573.042	-0.04
573.234	-0.04
573.426	0.01
573.618	-0.03
573.81	-0
574.002	0.01
574.194	0.03
574.386	-0.06
574.578	-0.07
574.77	-0.06
574.962	0.01
575.154	-0.05
575.346	-0.03
575.538	0
575.729	-0.05
575.921	-0.03
576.113	-0.02
576.305	0
576.497	-0.03
576.689	0.01
576.88	-0.04
577.072	-0
577.264	-0.01
577.456	-0.02
577.647	-0.07
577.839	-0.03
578.031	0.02
578.223	-0.03
578.414	-0.03
578.606	-0.01
578.798	-0.02
578.989	-0.03
579.181	-0.02
579.372	-0.02
579.564	-0
579.755	-0.01
579.947	-0.01
580.139	-0.02
580.33	-0.05
580.522	-0.01
580.713	-0.05
580.905	-0.03
581.096	-0.01
581.287	-0.01
581.479	-0.02
581.67	0.03
581.862	-0.01
582.053	-0.05
582.244	-0.05
582.436	-0.04
582.627	-0.02
582.818	-0.05
583.01	-0.04
583.201	0.02
583.392	-0.02
583.583	-0.01
583.775	-0.05
583.966	-0.04
584.157	-0.03
584.348	-0.02
584.54	-0.06
584.731	0.02
584.922	-0.02
585.113	-0.03
585.304	0
585.495	-0.01
585.686	-0.01
585.877	-0.01
586.068	-0.01
586.259	-0
586.45	-0.01
586.641	-0.04
586.832	-0.07
587.023	-0.03
587.214	-0.02
587.405	-0.02
587.596	-0.05
587.787	0.01
587.978	-0.01
588.169	-0.05
588.36	-0.04
588.551	-0
588.742	-0.05
588.932	-0.01
589.123	-0.02
589.314	-0
589.505	0.01
589.696	-0.02
589.886	-0.03
590.077	-0.05
590.268	-0.01
590.458	-0.05
590.649	-0.07
590.84	-0
591.03	-0.02
591.221	-0.05
591.412	-0.06
591.602	-0.02
591.793	0.03
591.984	-0.04
592.174	-0.01
592.365	0.02
592.555	-0.04
592.746	-0
592.936	-0.03
593.127	-0.01
593.317	0.02
593.508	-0.02
593.698	-0.04
593.889	-0.01
594.079	-0.01
594.269	-0.04
594.46	-0.03
594.65	-0.01
594.84	-0.03
595.031	-0.04
595.221	-0.04
595.411	-0.04
595.602	0.01
595.792	-0.02
595.982	-0.04
596.172	0.02
596.363	-0.02
596.553	-0.01
596.743	-0.02
596.933	-0.01
597.123	-0.01
597.314	-0.02
597.504	-0.05
597.694	-0
597.884	-0.03
598.074	-0.01
598.264	-0.01
598.454	-0.01
598.644	-0.01
598.834	-0.02
599.024	-0.04
599.214	-0.04
599.404	0.01
599.594	-0.04
599.784	-0.05
599.974	0.02
600.164	0.01
600.354	-0.06
600.544	-0.06
600.734	-0.02
600.924	0.03
601.114	-0.03
601.303	0
601.493	-0.01
601.683	-0.04
601.873	-0.01
602.063	-0.06
602.252	-0.01
602.442	-0.08
602.632	-0.06
602.821	-0.05
603.011	0.01
603.201	-0.04
603.39	-0.08
603.58	-0.03
603.77	0.01
603.959	0.01
604.149	0
604.339	-0.03
604.528	0.02
604.718	0.01
604.907	-0.03
605.097	-0.04
605.286	-0.05
605.476	-0.01
605.665	-0.01
605.855	-0.03
606.044	0
606.234	-0.01
606.423	-0.02
606.612	-0.04
606.802	-0.02
606.991	0.02
607.181	-0.02
607.37	-0.06
607.559	-0.03
607.749	-0.06
607.938	-0.02
608.127	-0.02
608.316	-0.04
608.506	-0.01
608.695	-0.02
608.884	-0.06
609.073	-0
609.263	-0.01
609.452	0.01
609.641	-0.02
609.83	-0.05
610.019	-0.03
610.208	-0.05
610.397	-0.03
610.586	0.01
610.775	-0.04
610.965	-0.01
611.154	-0.04
611.343	-0.02
611.532	-0.04
611.721	-0.06
611.91	-0.04
612.099	-0.02
612.287	-0.03
612.476	-0.03
612.665	-0.02
612.854	-0.03
613.043	0.03
613.232	-0.02
613.421	-0.06
613.61	-0.02
613.798	-0.04
613.987	0.01
614.176	-0.01
614.365	-0
614.554	0
614.742	0.01
614.931	-0.04
615.12	0.03
615.309	-0.04
615.497	-0.01
615.686	-0.02
615.875	-0.02
616.063	0
616.252	-0.04
616.44	-0.05
616.629	-0.04
616.818	0.01
617.006	-0.05
617.195	-0.04
617.383	0.01
617.572	-0.02
617.76	-0.06
617.949	-0.06
618.137	0.03
618.326	0.01
618.514	-0.04
618.703	-0.04
618.891	0.03
619.079	-0.08
619.268	-0.01
619.456	-0.02
619.644	0.01
619.833	-0.02
620.021	-0.05
620.209	-0.07
620.398	-0.03
620.586	-0.03
620.774	-0.01
620.962	-0
621.151	0.02
621.339	-0.04
621.527	-0.06
621.715	-0.03
621.903	-0.06
622.092	-0.04
622.28	-0.01
622.468	-0.02
622.656	-0.04
622.844	0
623.032	-0.04
623.22	-0.08
623.408	0.01
623.596	-0.03
623.784	-0.01
623.972	-0.04
624.16	-0.04
624.348	0.06
624.536	-0.02
624.724	-0.03
624.912	0
625.1	0.01
625.288	-0.06
625.476	-0.06
625.664	-0
625.851	-0.06
626.039	-0.01
626.227	-0.01
626.415	-0.04
626.603	-0.05
626.79	-0.03
626.978	-0.04
627.166	-0.02
627.354	-0.02
627.541	-0.04
627.729	-0.1
627.917	-0.02
628.104	-0.01
628.292	-0.02
628.48	-0.04
628.667	0.01
628.855	-0.01
629.042	0.03
629.23	-0.03
629.418	-0.06
629.605	-0.03
629.793	-0.05
629.98	-0.04
630.168	-0.02
630.355	0.02
630.543	-0.06
630.73	-0.07
630.917	0
631.105	0.05
631.292	-0.06
631.48	-0.05
631.667	0.03
631.854	-0.02
632.042	-0.04
632.229	-0.04
632.416	-0.02
632.604	-0.04
632.791	-0.05
632.978	-0.01
633.165	-0.03
633.353	0.05
633.54	0.01
633.727	-0.09
633.914	-0.06
634.101	-0.08
634.289	0.02
634.476	-0.03
634.663	-0.06
634.85	-0
635.037	-0.05
635.224	-0.07
635.411	0.01
635.598	0
635.785	-0.03
635.972	-0.03
636.159	0.02
636.346	-0.05
636.533	-0.05
636.72	-0.01
636.907	-0.02
637.094	-0.01
637.281	-0.01
637.468	0.01
637.655	-0.03
637.842	-0.01
638.029	-0.07
638.215	-0.01
638.402	-0.04
638.589	-0.06
638.776	-0
638.963	-0.06
639.149	0.02
639.336	0.03
639.523	-0.01
639.709	-0.03
639.896	-0.03
640.083	0.06
640.27	0.01
640.456	-0.08
640.643	-0.03
640.829	-0.09
641.016	-0.05
641.203	-0.09
641.389	0.01
641.576	-0.01
641.762	0.01
641.949	-0.04
642.135	-0.01
642.322	-0.02
642.508	-0.07
642.695	-0.04
642.881	-0.04
643.068	-0.04
643.254	-0.01
643.441	0.03
643.627	-0.05
643.813	-0.05
644	0
644.186	-0.04
644.372	-0.07
644.559	0
644.745	-0
644.931	-0.05
645.118	-0.02
645.304	-0
645.49	-0.03
645.676	-0.02
645.862	-0
646.049	0.01
646.235	-0.03
646.421	0.05
646.607	0.03
646.793	-0.03
646.979	-0.01
647.165	0.01
647.352	-0.01
647.538	-0.01
647.724	0
647.91	0.01
648.096	0.02
648.282	0
648.468	-0.04
648.654	-0.01
648.84	-0.04
649.026	-0.02
649.212	0.01
649.397	-0.04
649.583	-0.05
649.769	0.02
649.955	-0.03
650.141	0
650.327	0.02
650.513	-0.06
650.698	-0.01
650.884	-0.09
651.07	-0.03
651.256	-0
651.442	-0.01
651.627	-0.04
651.813	0.01
651.999	-0.04
652.184	0
652.37	-0.03
652.556	-0.04
652.741	0.02
652.927	-0.09
653.113	-0.03
653.298	-0.02
653.484	-0.04
653.669	-0.07
653.855	-0.04
654.04	-0.01
654.226	-0.01
654.412	-0.02
654.597	-0.05
654.782	-0.01
654.968	0.01
655.153	0.04
655.339	-0.05
655.524	-0.05
655.71	-0.01
655.895	-0.06
656.08	-0
656.266	0.01
656.451	-0.01
656.636	-0.04
656.822	-0.03
657.007	-0.05
657.192	-0.05
657.378	-0.03
657.563	0
657.748	0.01
657.933	-0.03
658.118	-0.05
658.304	-0.06
658.489	0.02
658.674	0.01
658.859	-0.04
659.044	-0.03
659.229	-0.05
659.414	-0.03
659.599	-0.03
659.785	-0.06
659.97	-0.04
660.155	-0
660.34	-0.03
660.525	-0.03
660.71	-0.01
660.895	0.04
661.08	-0.04
661.264	-0.03
661.449	0.02
661.634	0.03
661.819	-0
662.004	-0.03
662.189	-0.13
662.374	-0.02
662.559	-0.06
662.743	-0.08
662.928	0.01
663.113	-0.03
663.298	-0.08
663.483	-0.03
663.667	-0.02
663.852	-0.07
664.037	0.02
664.221	-0.02
664.406	0
664.591	-0
664.775	-0
664.96	-0.01
665.145	-0.02
665.329	-0
665.514	-0.05
665.698	-0.06
665.883	-0.08
666.068	0.04
666.252	-0.03
666.437	-0.06
666.621	-0.03
666.806	0.01
666.99	-0.04
667.174	-0.07
667.359	0.05
667.543	-0.05
667.728	-0.04
667.912	-0.08
668.096	-0.01
668.281	-0.06
668.465	-0.03
668.649	0.01
668.834	-0.05
669.018	-0.04
669.202	-0.06
669.387	-0.06
669.571	0.01
669.755	-0.07
669.939	-0
670.124	-0.04
670.308	-0
670.492	0.03
670.676	-0.02
670.86	-0.02
671.044	-0.03
671.228	0.01
671.413	-0.05
671.597	-0.01
671.781	-0.07
671.965	0.01
672.149	-0.03
672.333	0.01
672.517	-0.04
672.701	0.02
672.885	-0.03
673.069	-0.09
673.253	0.03
673.437	-0.03
673.621	-0.05
673.804	-0.03
673.988	0.01
674.172	-0.04
674.356	-0.07
674.54	-0.04
674.724	0.07
674.908	-0.03
675.091	0.03
675.275	0.01
675.459	0.01
675.643	-0.01
675.826	0
676.01	-0
676.194	-0.05
676.377	0.04
676.561	0.03
676.745	0
676.928	-0.01
677.112	0.03
677.296	-0.03
677.479	-0.03
677.663	-0.02
677.846	0.01
678.03	-0.04
678.213	0.01
678.397	0.04
678.58	-0.03
678.764	-0.02
678.947	-0.06
679.131	-0.05
679.314	0.02
679.498	-0.06
679.681	0
679.865	0.05
680.048	0
680.231	-0.02
680.415	-0.04
680.598	-0.03
680.781	-0.03
680.965	0.01
681.148	0.02
681.331	0.01
681.514	0.01
681.698	0.01
681.881	0.02
682.064	-0.01
682.247	0.02
682.43	-0.04
682.614	0.02
682.797	0.06
682.98	0.03
683.163	-0.02
683.346	0.02
683.529	-0
683.712	-0.02
683.895	-0
684.078	-0.04
684.261	-0.04
684.444	-0
684.627	0.01
684.81	-0.01
684.993	-0
685.176	0.03
685.359	0
685.542	0.01
685.725	0.05
685.908	0.01
686.091	0
686.274	0.06
686.457	0.01
686.639	0.02
686.822	0.05
687.005	0.04
687.188	0.03
687.371	0.11
687.553	0.06
687.736	0.06
687.919	0.08
688.102	0.06
688.284	-0.02
688.467	0.06
688.65	0.03
688.832	0
689.015	0.01
689.197	-0.04
689.38	0.11
689.563	0.12
689.745	0.03
689.928	0
690.11	0.02
690.293	0.05
690.475	-0.02
690.658	0.02
690.84	0
691.023	0.01
691.205	0.01
691.388	0.03
691.57	0.1
691.752	0.06
691.935	-0.05
692.117	0
692.3	0.08
692.482	0.02
692.664	0.02
692.847	0.04
693.029	0.08
693.211	0.09
693.393	0.04
693.576	-0.03
693.758	0.12
693.94	0.03
694.122	0.04
694.304	0.06
694.487	0.06
694.669	0.17
694.851	0.04
695.033	0.1
695.215	0.02
695.397	0.07
695.579	0.06
695.761	0.03
695.943	0
696.125	0.17
696.308	0.09
696.49	-0.01
696.671	0.19
696.853	0.04
697.035	0.22
697.217	0.12
697.399	0.1
697.581	0.06
697.763	0.08
697.945	0.02
698.127	0.13
698.309	0.14
698.491	0.11
698.672	0.14
698.854	0.09
699.036	0.24
699.218	0.1
699.399	0.17
699.581	0.15
699.763	0.1
699.945	0.09
700.126	0.04
700.308	0.15
700.49	0.13
700.671	0.04
700.853	0.09
701.035	0.08
701.216	0.15
701.398	0.12
701.579	0.1
701.761	0.25
701.943	0.08
702.124	0.13
702.306	0.12
702.487	0.29
702.669	0.14
702.85	0.14
703.031	0.18
703.213	0.27
703.394	0.23
703.576	0.1
703.757	0.29
703.938	0.23
704.12	0.29
704.301	0.17
704.483	0.11
704.664	0.18
704.845	0.26
705.026	0.26
705.208	0.18
705.389	0.25
705.57	0.19
705.751	0.2
705.933	0.23
706.114	0.31
706.295	0.23
706.476	0.18
706.657	0.34
706.838	0.29
707.02	0.37
707.201	0.2
707.382	0.22
707.563	0.31
707.744	0.23
707.925	0.22
708.106	0.19
708.287	0.29
708.468	0.36
708.649	0.28
708.83	0.31
709.011	0.27
709.192	0.25
709.373	0.31
709.554	0.32
709.734	0.33
709.915	0.37
710.096	0.36
710.277	0.26
710.458	0.34
710.639	0.38
710.819	0.29
711	0.27
711.181	0.48
711.362	0.38
711.542	0.41
711.723	0.38
711.904	0.45
712.085	0.45
712.265	0.45
712.446	0.37
712.627	0.42
712.807	0.49
712.988	0.46
713.168	0.37
713.349	0.45
713.53	0.32
713.71	0.43
713.891	0.37
714.071	0.46
714.252	0.46
714.432	0.46
714.613	0.39
714.793	0.47
714.974	0.59
715.154	0.67
715.334	0.62
715.515	0.65
715.695	0.47
715.876	0.6
716.056	0.6
716.236	0.59
716.417	0.61
716.597	0.63
716.777	0.76
716.957	0.59
717.138	0.65
717.318	0.66
717.498	0.62
717.678	0.77
717.859	0.68
718.039	0.62
718.219	0.75
718.399	0.66
718.579	0.7
718.759	0.71
718.939	0.78
719.12	0.82
719.3	0.8
719.48	0.71
719.66	0.73
719.84	0.9
720.02	0.85
720.2	0.78
720.38	0.93
720.56	1.01
720.74	0.95
720.92	0.94
721.1	1.11
721.279	1.03
721.459	0.93
721.639	0.89
721.819	1.03
721.999	0.99
722.179	1.08
722.359	0.92
722.538	1.06
722.718	1.04
722.898	1.12
723.078	1.19
723.257	1.16
723.437	1.17
723.617	1.27
723.797	1.21
723.976	1.26
724.156	1.42
724.336	1.4
724.515	1.45
724.695	1.22
724.874	1.31
725.054	1.3
725.234	1.27
725.413	1.37
725.593	1.45
725.772	1.48
725.952	1.42
726.131	1.41
726.311	1.34
726.49	1.42
726.67	1.41
726.849	1.47
727.028	1.6
727.208	1.46
727.387	1.62
727.567	1.46
727.746	1.61
727.925	1.65
728.105	1.54
728.284	1.55
728.463	1.67
728.643	1.72
728.822	1.55
729.001	1.75
729.18	1.85
729.359	1.85
729.539	1.84
729.718	1.89
729.897	1.89
730.076	1.92
730.255	1.88
730.434	1.93
730.614	2.05
730.793	2.03
730.972	2.1
731.151	2.02
731.33	2.25
731.509	2.21
731.688	2.05
731.867	2.29
732.046	2.12
732.225	2.44
732.404	2.18
732.583	2.08
732.762	2.37
732.941	2.39
733.12	2.44
733.298	2.33
733.477	2.46
733.656	2.39
733.835	2.43
734.014	2.47
734.193	2.5
734.371	2.47
734.55	2.62
734.729	2.43
734.908	2.53
735.086	2.47
735.265	2.53
735.444	2.35
735.623	2.47
735.801	2.51
735.98	2.55
736.159	2.53
736.337	2.45
736.516	2.6
736.694	2.48
736.873	2.47
737.052	2.67
737.23	2.36
737.409	2.34
737.587	2.63
737.766	2.23
737.944	2.31
738.123	2.33
738.301	2.16
738.479	2.21
738.658	2.26
738.836	1.93
739.015	2.24
739.193	2.17
739.371	1.93
739.55	1.96
739.728	1.93
739.906	2.02
740.085	2.04
740.263	1.9
740.441	1.56
740.62	2.03
740.798	1.84
740.976	1.55
741.154	1.5
741.332	1.58
741.511	1.44
741.689	1.45
741.867	1.45
742.045	1.26
742.223	1.24
742.401	1.11
742.579	1.23
742.757	1.21
742.935	1.04
743.114	0.99
743.292	1.02
743.47	1
743.648	0.94
743.826	0.89
744.004	1.04
744.181	0.94
744.359	0.81
744.537	0.82
744.715	0.76
744.893	0.74
745.071	0.7
745.249	0.68
745.427	0.63
745.605	0.71
745.782	0.63
745.96	0.69
746.138	0.76
746.316	0.69
746.493	0.54
746.671	0.57
746.849	0.45
747.027	0.57
747.204	0.45
747.382	0.52
747.56	0.38
747.737	0.43
747.915	0.37
748.093	0.37
748.27	0.36
748.448	0.4
748.625	0.24
748.803	0.35
748.98	0.23
749.158	0.29
749.335	0.41
749.513	0.29
749.69	0.19
749.868	0.25
750.045	0.28
750.223	0.19
750.4	-0.02
750.578	0.36
750.755	0.29
750.932	0.17
751.11	0.27
751.287	0.12
751.464	0.32
751.642	0.11
751.819	0.2
751.996	0.13
752.173	0.12
752.351	-0.04
752.528	0.16
752.705	0.2
752.882	0.11
753.06	0.01
753.237	0.15
753.414	0.27
753.591	0.28
753.768	0.12
753.945	0.09
754.122	0.14
754.299	0.09
754.476	-0.09
754.654	0.15
754.831	0.11
755.008	0.21
755.185	0.01
755.362	-0.09
755.539	0.03
755.716	-0.03
755.892	-0.1
756.069	0.11
756.246	0.1
756.423	0.04
756.6	0.2
756.777	0.07
756.954	0.11
757.131	-0.11
757.307	0
757.484	-0.08
757.661	-0.02
757.838	0.05
758.015	-0.05
758.191	0.07
758.368	0.07
758.545	0.06
758.721	0.13
758.898	-0.08
759.075	0.06
759.251	0.11
759.428	0.12
759.605	-0.13
759.781	0.02
759.958	-0.01
760.134	-0.03
760.311	0
760.488	0.03
760.664	0.06
760.841	0.02
761.017	0
761.194	0.01
761.37	0.14
761.547	0.02
761.723	-0.06
761.899	0.03
762.076	-0.06
762.252	-0.11
762.429	-0.08
762.605	0.12
762.781	0.01
762.958	0.03
763.134	-0.03
763.31	-0.13
763.486	0.1
763.663	-0.1
763.839	0.07
764.015	-0.24
764.191	-0.04
764.368	0.03
764.544	-0.05
764.72	-0
764.896	-0.02
765.072	-0.05
765.248	-0.13
765.425	0.03
765.601	-0.14
765.777	0.03
765.953	-0.23
766.129	-0.15
766.305	-0.2
766.481	0.07
766.657	0.01
766.833	0.21
767.009	-0.19
767.185	-0.14
767.361	-0.11
767.537	-0.12
767.713	0.06
767.889	-0.16
768.065	-0.16
768.24	-0.05
768.416	0.06
768.592	-0.1
768.768	-0.15
768.944	-0.02
769.12	-0.26
769.295	-0.12
769.471	-0.04
769.647	-0.08
769.823	0.16
769.998	-0.09
770.174	-0.06
770.35	0.24
770.525	0.16
770.701	-0.05
770.877	-0.1
771.052	-0.02
771.228	0.12
771.403	0.03
771.579	-0.05
771.755	0.14
771.93	-0.28
772.106	-0.22
772.281	-0.36
772.457	-0.05
772.632	0.07
772.808	-0.25
772.983	-0.1
773.159	-0.31
773.334	0.1
773.509	0.04
773.685	-0.06
773.86	0.15
774.036	0.18
774.211	-0.15
774.386	-0.1
774.562	-0.11
774.737	-0.14
774.912	-0.3
775.087	0.02
775.263	-0.02
775.438	0
775.613	-0.16
775.788	-0.09
775.964	0.06
776.139	0.22
776.314	-0.23
776.489	0.01
776.664	0.01
776.839	-0.18
777.014	0.03
777.19	0.07
777.365	0.15
777.54	0.12
777.715	-0.13
777.89	-0.01
778.065	-0.06
778.24	-0.13
778.415	0.01
778.59	-0.13
778.765	-0.06
778.94	-0.08
779.115	-0.26
779.289	0.02
779.464	-0.06
779.639	-0.09
779.814	-0.28
779.989	-0.23
780.164	0.11
780.339	0.12
780.513	-0.17
780.688	-0.19
780.863	-0.08
781.038	0.07
781.212	-0.28
781.387	-0.03
781.562	0.19
781.737	-0.04
781.911	0.11
782.086	-0.14
782.261	-0.07
782.435	0.24
782.61	-0.26
782.784	-0.02
782.959	0.22
783.134	-0.16
783.308	-0.38
783.483	-0.2
783.657	0.18
783.832	0.06
784.006	-0.42
784.181	0.1
784.355	0.04
784.53	-0.38
784.704	-0.27
784.878	0.29
785.053	0.19
785.227	0
785.402	0.24
785.576	-0.42
785.75	-0.18
785.925	-0.09
786.099	-0.03
786.273	0.11
786.448	0.05
786.622	-0.12
786.796	-0.05
786.97	-0.1
787.145	0.29
787.319	-0.6
787.493	-0.24
787.667	-0.46
787.841	-0.19
788.015	0.13
788.19	-0.17
788.364	-0.05
788.538	0.14
788.712	-0.12
788.886	-0.22
789.06	0.1
789.234	0.03
789.408	-0.39
789.582	-0.26
789.756	-0.15
789.93	-0.32
790.104	-0.04
790.278	-0.18
790.452	-0.23
790.626	0.03
790.8	-0.17
790.973	0.12
791.147	0.21
791.321	0.04
791.495	0.04
791.669	-0.13
791.843	0.05
792.016	0.07
792.19	0.42
792.364	-0.13
792.538	0.24
792.711	0.04
792.885	-0.07
793.059	-0.39
793.233	-0.5
793.406	0.12
793.58	-0.35
793.754	-0.04
793.927	-0.11
794.101	0.15
794.274	0.02
794.448	0.25
794.622	-0.33
794.795	0.34
794.969	-0.36
795.142	0.02
795.316	-0.16
795.489	-0.03
795.663	0.19
795.836	-0.26
796.009	-0.32
796.183	0.14
796.356	-0.06
796.53	-0.1
796.703	-0.14
796.876	0.57
797.05	-0.17
797.223	-0.17
797.396	0.17
797.57	-0.1
797.743	0.16
797.916	-0.23
798.09	-0.07
798.263	0.15
798.436	0.19
798.609	-0.11
798.782	0.04
798.956	-0.17
799.129	-0.09
799.302	-0.22
799.475	-0.09
799.648	-0.28
799.821	-0.28
799.994	-0.25
800.167	-0.4
800.34	-0.03
800.514	-0.09
800.687	-0.26
800.86	-0.15
801.033	-0.07
801.206	-0.27
801.379	-0.26
801.551	0.34
801.724	-0.06
801.897	0.43
802.07	-0.24
802.243	-0.44
802.416	-0.3
802.589	-0.44
802.762	0.18
802.935	-0.09
803.107	0.18
803.28	-0.05
803.453	0.3
803.626	-0.45
803.798	-0.12
803.971	-0.17
804.144	-0.16
804.317	0.12
804.489	-0.3
804.662	-0.28
804.835	-0.19
805.007	-0.36
805.18	0.08
805.353	-0.13
805.525	-0.29
805.698	-0.48
805.87	0.09
806.043	0.04
806.215	-0.33
806.388	-0.25
806.56	0.03
806.733	0.26
806.905	0.07
807.078	-0.34
807.25	-0.51
807.423	0.13
807.595	-0.16
807.768	0.03
807.94	0.29
808.112	0.03
808.285	-0.18
808.457	-0.16
808.629	-0.23
808.802	-0.06
808.974	0.14
809.146	-0.32
809.318	-0.28
809.491	-0.21
809.663	-0.17
809.835	-0.31
810.007	0.29
810.18	0.08
810.352	-0.58
810.524	-0.23
810.696	0.01
810.868	-0.01
811.04	-0.55
811.212	0.07
811.384	0.07
811.556	-0.22
811.728	-0.22
811.901	0.49
812.073	-0.48
812.245	0.12
812.417	-0.24
812.589	-0.63
812.76	-0.11
812.932	-0.32
813.104	0.24
813.276	-0.12
813.448	0.19
813.62	-0.26
813.792	-0.09
813.964	-0.14
814.136	-0.2
814.307	-0.06
814.479	-0.08
814.651	-0.32
814.823	0.59
814.995	-0.3
815.166	-0.03
815.338	-0.39
815.51	-0.63
815.681	0.31
815.853	0.12
816.025	-0.11
816.196	0.48
816.368	0
816.54	-0.74
816.711	-0.7
816.883	0.17
817.054	0.65
817.226	-0.93
817.398	0.08
817.569	-0.3
817.741	-0.15
817.912	-0.41
818.084	-0.29
818.255	0.17
818.426	-0.12
818.598	-0.43
818.769	-0.33
818.941	0.12
819.112	0.36
819.283	-0.12
819.455	-0.27
819.626	0.1
819.798	0.16
819.969	-0.04
820.14	-0.29
820.311	-0.47
820.483	-0.05
820.654	0.1
820.825	-0.48
820.996	-0.21
821.168	-0.67
821.339	0.17
821.51	-0.67
821.681	-0.7
821.852	0.05
822.023	-0.72
822.195	-0.48
822.366	0.3
822.537	-0.21
822.708	-0.32
822.879	-0.01
823.05	0.47
823.221	-0.5
823.392	-0.27
823.563	-0.15
823.734	0.03
823.905	0.01
824.076	-0.85
824.247	-0.51
824.418	-0.14
824.589	0.4
824.759	-0.57
824.93	-0.44
825.101	-0.7
825.272	0.13
825.443	0.15
825.614	-0.06
825.784	-0.78
825.955	0.13
826.126	0.72
826.297	-0.49
826.467	0.49
826.638	0.32
826.809	-0.88
826.98	-0.25
827.15	-0.03
827.321	-0.27
827.492	0.46
827.662	-0.31
827.833	0.53
828.003	-0.51
828.174	-1.3
828.345	-0.97
828.515	0.88
828.686	0.08
828.856	-0.54
829.027	-0.29
829.197	0.17
829.368	-0.14
829.538	-0.38
829.709	-0.44
829.879	-0.45
830.049	-0.34
830.22	-0.58
830.39	-0.37
830.56	0.52
830.731	-0.48
830.901	-0.87
831.072	-0.14
831.242	-0.21
831.412	-0.55
831.582	0.13
831.753	-1.09
831.923	0.29
832.093	-0.42
832.263	-0.8
832.434	-0.68
832.604	-0.66
832.774	0.26
832.944	-0.38
833.114	-0.54
833.284	0.15
833.454	-0.9
833.624	-0.22
833.795	-1.21
833.965	0.15
834.135	0.17
834.305	-1.6
834.475	-1.02
834.645	-0.64
834.815	-0.71
834.985	-0.74
835.155	-0.94
835.325	0.19
835.494	0.44
835.664	-0.53
835.834	-0.93
836.004	-0.47
836.174	0.16
836.344	-0.42
836.514	-1.7
836.684	-0.48
836.853	0.04
837.023	-0.29
837.193	-0.19
837.363	0.37
837.532	0.81
837.702	-0.18
837.872	-0.98
838.041	0.41
838.211	1.05
838.381	-0.9
838.55	-0.03
838.72	0.9
838.89	0.76
839.059	-0.38
839.229	-0.7
839.398	0.25
839.568	-0.39
839.738	-0.74
839.907	0.55
840.077	0.13
840.246	-0.58
840.416	-0.95
840.585	-1.12
840.755	0.76
840.924	0.19
841.093	-0.86
841.263	-0.82
841.432	-0.03
841.602	-0.9
841.771	-1.37
841.94	-1.04
842.11	1.11
842.279	1.36
842.448	-0.63
842.617	-0.8
842.787	-0.05
842.956	-0.55
843.125	-0.46
843.294	0.27
843.464	0.8
843.633	-0.17
843.802	-1.86
843.971	-0.48
844.14	0.19
844.309	0.19
844.479	-0.79
844.648	-1.06
844.817	-0.71
844.986	0.57
845.155	-0.67
845.324	-1.36
845.493	-0.9
845.662	-0.99
845.831	-0.37
846	-0.57
846.169	-0.02
846.338	0.79
846.507	-0.31
846.676	0.08
846.844	-0.28
847.013	0.42
847.182	-0.49
847.351	-0.46
847.52	-0.1
847.689	0.08
847.858	-0.34
848.026	-0.57
848.195	-0.91
848.364	-1.57
848.533	-0.82
848.701	-0.56
848.87	-0.77
849.039	0.17
849.207	0.93
849.376	0.66
849.545	-0.9
849.713	-0.79
849.882	-0.98
850.051	-0.74
850.219	0.04
850.388	0.6
850.556	-1.59
850.725	-0.36
850.893	-0.43
851.062	-0.05
851.23	0.15
851.399	-1.94
851.567	-0.76
851.736	-0.73
851.904	-0.76
852.073	-0.87
852.241	-0.27
852.41	-0.1
852.578	-0.59
852.746	-0.9
852.915	-0.38
853.083	-0.22
853.251	-2.67
853.42	-1.25
853.588	0.4
853.756	0.52
853.924	-1.07
854.093	-1.02
854.261	-1.18
854.429	-1.86
854.597	-0.47
854.765	-1.07
854.934	-0.44
855.102	-0.07
855.27	0.07
855.438	-0.83
855.606	-0.46
855.774	1
855.942	-1.02
856.11	-1.81
856.278	-0.14
856.446	1.26
856.614	-0.9
856.782	-1.59
856.95	0.06
857.118	0.47
857.286	0.7
857.454	-0.52
857.622	0.72
857.79	-0.36
857.958	-0.51
858.126	-1.63
858.294	-2.06
858.462	-2.36
858.629	-0.88
858.797	-1.13
858.965	0.49
859.133	0.79
859.301	-1.72
859.468	0.51
859.636	-0.87
859.804	0.84
859.971	0.57
860.139	-0.63
860.307	0.42
860.474	-1.13
860.642	-1.68
860.81	-0.8
860.977	-2.05
861.145	1.04
861.313	-0.86
861.48	-1.21
861.648	0.5
861.815	-0.7
861.983	-1.5
862.15	-0.33
862.318	0.85
862.485	0.12
862.653	-0.98
862.82	-2.45
862.988	0.21
863.155	-0.29
863.322	-2.51
863.49	-1.41
863.657	-1.84
863.824	1.4
863.992	0.91
864.159	0.14
864.326	1.72
864.494	-1.41
864.661	1.67
864.828	-1.61
864.996	-0.01
865.163	2.57
865.33	-1.97
865.497	-1.4
865.664	-1.38
865.832	-3.28
865.999	-1.27
866.166	-1.62
866.333	-1.88
866.5	-0.97
866.667	-0.96
866.834	0.06
867.001	0.63
867.168	-1.32
867.335	0.12
867.502	-2.25
867.669	0.46
867.836	1.81
868.003	-0.37
868.17	0.22
868.337	1.26
868.504	2.63
868.671	-1.79
868.838	-1.62
869.005	-0.59
869.172	0.72
869.339	-0.36
869.505	-1.31
869.672	-1.83
869.839	1.46
870.006	-1.35
870.173	-2.16
870.339	0.46
870.506	2.26
870.673	-0.66
870.84	0.19
871.006	0.21
871.173	-0.97
871.34	-2.31
871.506	-2.77
871.673	0.2
871.839	-2.33
872.006	-0.24
872.173	-0.84
872.339	-2.01
872.506	1.48
872.672	-0.53
872.839	-1.71
873.005	-0.46
873.172	1.94
873.338	0.82
873.505	0.52
873.671	-0.4
873.838	0.48
874.004	-2.4
874.171	-1.33
874.337	0.07
874.503	-1.75
874.67	-2.18
874.836	-2.14
875.002	1.56
875.169	0.19
875.335	-0.84
875.501	-1.98
875.668	0.09
875.834	-0.81
876	0.61
876.166	0.7
876.332	1.11
876.499	1.7
876.665	-0.25
876.831	-0.93
876.997	0.28
877.163	1.84
877.329	-1.81
877.495	0.59
877.662	0.79
877.828	-0.53
877.994	-1.64
878.16	-2.7
878.326	-1.11
878.492	-1.5
878.658	-1.46
878.824	0.84
878.99	0.91
879.156	-3.28
879.322	2.3
879.487	-1.4
879.653	1.24
879.819	1.55
879.985	-2.36
880.151	-0.39
880.317	0.45
880.483	1.01
880.648	0.3
880.814	-4.35
880.98	1.03
881.146	-2.21
881.312	-0.67
881.477	-2.16
881.643	-0.15
881.809	0.57
881.974	1.09
882.14	-2.46
882.306	-0.45
882.471	3.02
882.637	-1.14
882.803	0.11
882.968	2.83
883.134	2.38
883.299	-0.84
883.465	-1.1
883.63	0.13
883.796	0.26
883.961	0.49
884.127	-1.6
884.292	-4.53
884.458	-0.96
884.623	-0.96
