Data from Apollo_Calib_20240827__AbsoluteIrradiance__321__04-30-00-832.txt Node

Date: Wed Aug 28 04:30:00 BST 2024
User: biology
Spectrometer: FLMT08252
Trigger mode: 0
Integration Time (sec): 5.000000E-1
Scans to average: 5
Electric dark correction enabled: true
Nonlinearity correction enabled: false
Boxcar width: 0
XAxis mode: Wavelengths
Number of Pixels in Spectrum: 3648
>>>>>Begin Spectral Data<<<<<
179.588	-0
179.809	-0
180.03	-0
180.251	-0
180.473	-0
180.694	0
180.915	0
181.136	-0
181.357	0
181.578	-0
181.799	-0
182.02	-0
182.241	-0
182.462	-0
182.683	0
182.904	-0
183.125	0
183.346	0
183.567	0
183.788	-0
184.009	-0
184.23	0
184.451	0
184.672	-0
184.892	-0
185.113	0
185.334	0
185.555	-0
185.776	-0
185.996	0
186.217	0
186.438	0
186.659	-0
186.879	0
187.1	-0
187.321	-0
187.541	-0
187.762	0
187.983	-0
188.203	0
188.424	-0
188.644	-0
188.865	0
189.086	-0
189.306	-0
189.527	0
189.747	0
189.968	-0
190.188	0
190.409	0
190.629	0
190.849	-0
191.07	-0
191.29	0
191.511	0
191.731	-0
191.951	-0
192.172	-0
192.392	0
192.612	0
192.833	-0
193.053	0
193.273	0
193.493	-0
193.714	-0
193.934	0
194.154	0
194.374	-0
194.594	0
194.815	-0
195.035	0
195.255	0
195.475	-0
195.695	0
195.915	0
196.135	-0
196.355	0
196.575	0
196.795	0
197.015	-0
197.235	-0
197.455	-0
197.675	0
197.895	-0
198.115	-0
198.335	0
198.555	0
198.775	0
198.995	0
199.214	0
199.434	0
199.654	-0
199.874	0
200.094	0.92
200.313	-0.66
200.533	-0.32
200.753	-0.97
200.973	1.03
201.192	0.88
201.412	-0.58
201.632	-0.27
201.851	0.69
202.071	-0.28
202.291	-0.55
202.51	-0.28
202.73	0.52
202.95	-0.06
203.169	-0.8
203.389	-0.26
203.608	0.02
203.828	-0.35
204.047	-0.34
204.267	0.31
204.486	0.1
204.706	0.49
204.925	0.02
205.145	-0.35
205.364	0.62
205.583	0.63
205.803	-0.22
206.022	-0.49
206.242	0.09
206.461	0.35
206.68	-0.7
206.9	-0.02
207.119	0.39
207.338	0.58
207.557	-0.24
207.777	-0.02
207.996	-0.09
208.215	0.49
208.434	-0.35
208.654	-0.44
208.873	0.11
209.092	0.65
209.311	-0.25
209.53	0.04
209.749	-0.11
209.968	-0.14
210.187	-0.49
210.407	-0.36
210.626	0.07
210.845	-0
211.064	-0.07
211.283	-0.44
211.502	0.29
211.721	-0.22
211.94	-0.24
212.159	0.22
212.377	0.17
212.596	0.37
212.815	-0.02
213.034	0.11
213.253	-0.03
213.472	0.23
213.691	-0.1
213.91	-0.18
214.128	-0.1
214.347	0.5
214.566	-0.57
214.785	-0.35
215.003	0.08
215.222	0.18
215.441	-0.15
215.66	-0.21
215.878	0.12
216.097	0.29
216.316	-0.36
216.534	-0.28
216.753	0.15
216.972	-0.1
217.19	-0.1
217.409	-0.26
217.627	-0.11
217.846	-0.12
218.064	0.03
218.283	-0.02
218.501	0.3
218.72	0.28
218.938	-0.19
219.157	-0.07
219.375	0.2
219.594	0.06
219.812	-0.26
220.031	-0.22
220.249	0.29
220.467	0.22
220.686	-0.08
220.904	-0.2
221.122	-0.21
221.341	0.39
221.559	0.06
221.777	-0.29
221.995	-0.03
222.214	0.17
222.432	-0.02
222.65	0.08
222.868	-0.13
223.086	0.16
223.305	0.11
223.523	-0.03
223.741	0.27
223.959	-0.11
224.177	-0.4
224.395	-0.07
224.613	0.1
224.831	0.21
225.049	-0.21
225.267	-0.17
225.485	0.04
225.703	-0.06
225.921	-0.03
226.139	-0.05
226.357	0.18
226.575	-0.06
226.793	-0.01
227.011	0.68
227.229	-0.06
227.447	0.09
227.665	-0.01
227.883	-0.35
228.1	0.01
228.318	0.1
228.536	-0.25
228.754	-0.17
228.972	0.04
229.189	0.08
229.407	-0.13
229.625	-0.01
229.843	0.18
230.06	0.21
230.278	-0.05
230.496	-0.03
230.713	0.04
230.931	-0.17
231.149	0.07
231.366	-0.16
231.584	-0.05
231.801	0.32
232.019	-0.03
232.236	-0.17
232.454	-0.16
232.671	-0.05
232.889	0.01
233.106	-0.19
233.324	0.01
233.541	-0.01
233.759	0
233.976	-0.12
234.194	0.03
234.411	-0.01
234.628	-0.2
234.846	0
235.063	-0.04
235.28	0.1
235.498	0.08
235.715	-0.12
235.932	0.17
236.149	-0.04
236.367	-0.12
236.584	0.05
236.801	-0.09
237.018	0.05
237.236	0
237.453	-0.18
237.67	0.18
237.887	-0.07
238.104	0.05
238.321	-0.18
238.538	-0.08
238.755	0.11
238.973	-0.15
239.19	0.04
239.407	0.08
239.624	0.09
239.841	-0.05
240.058	-0.06
240.275	0.06
240.492	-0.07
240.709	-0.02
240.925	-0.11
241.142	-0.05
241.359	-0.09
241.576	-0.08
241.793	-0.09
242.01	-0.03
242.227	0.17
242.444	0.05
242.66	0.06
242.877	0
243.094	-0.04
243.311	-0.09
243.527	0
243.744	0.11
243.961	0.1
244.178	-0.12
244.394	-0.02
244.611	0.16
244.828	0.24
245.044	-0.14
245.261	-0.03
245.477	0.04
245.694	0.13
245.911	-0.02
246.127	-0.04
246.344	0.1
246.56	0.04
246.777	-0.02
246.993	0.01
247.21	0.02
247.426	0.02
247.643	-0.08
247.859	-0.1
248.076	-0.05
248.292	0.19
248.508	-0.1
248.725	0.1
248.941	0.01
249.157	0.11
249.374	-0.14
249.59	-0.02
249.806	-0.06
250.023	0.07
250.239	-0.1
250.455	-0.01
250.671	0.02
250.888	-0.02
251.104	0.02
251.32	-0.03
251.536	-0.02
251.752	0
251.969	-0.02
252.185	-0.05
252.401	0.22
252.617	-0.02
252.833	-0.07
253.049	-0
253.265	0.01
253.481	0.08
253.697	-0.11
253.913	-0.11
254.129	0.04
254.345	0.03
254.561	0
254.777	0.01
254.993	0.12
255.209	0.04
255.425	0.01
255.641	-0.05
255.857	0.09
256.073	0.01
256.288	-0.07
256.504	-0.06
256.72	0.07
256.936	0.17
257.152	-0.05
257.367	-0.1
257.583	0.01
257.799	0.1
258.015	-0.04
258.23	-0.05
258.446	0.18
258.662	-0.06
258.877	-0.1
259.093	-0.1
259.309	0.03
259.524	0.07
259.74	0.04
259.955	-0.13
260.171	-0.03
260.387	-0.02
260.602	0.07
260.818	0.06
261.033	-0.05
261.249	-0.05
261.464	-0.04
261.68	-0.09
261.895	0.09
262.11	0.06
262.326	-0.01
262.541	-0.12
262.757	0.13
262.972	0.02
263.187	-0.05
263.403	-0.01
263.618	0.1
263.833	0.04
264.049	-0.12
264.264	0.02
264.479	0.02
264.694	0.1
264.91	-0.1
265.125	0.01
265.34	0.09
265.555	0.13
265.77	0.04
265.986	-0.06
266.201	0.07
266.416	0.08
266.631	0.02
266.846	-0.03
267.061	0.03
267.276	0.05
267.491	-0.14
267.706	0.04
267.921	0.02
268.136	0.06
268.351	-0.04
268.566	-0.1
268.781	0.12
268.996	0.08
269.211	-0.05
269.426	-0.06
269.641	-0.04
269.856	0.06
270.071	-0.05
270.285	-0.07
270.5	0.09
270.715	0.1
270.93	-0.05
271.145	-0.01
271.359	0.09
271.574	-0.06
271.789	0.03
272.004	-0.05
272.218	0
272.433	0.08
272.648	-0.05
272.862	0.09
273.077	0.01
273.292	-0.01
273.506	-0.02
273.721	0.02
273.936	0.12
274.15	0.06
274.365	-0.01
274.579	0.06
274.794	0.05
275.008	0.11
275.223	-0.02
275.437	-0
275.652	0.04
275.866	0.08
276.081	0.03
276.295	0.02
276.509	0.03
276.724	0.01
276.938	0.11
277.153	0.01
277.367	0.03
277.581	-0.01
277.796	-0.03
278.01	-0.05
278.224	0.05
278.438	0.15
278.653	-0.08
278.867	0.01
279.081	0.1
279.295	0.06
279.51	-0.01
279.724	-0.07
279.938	0.08
280.152	0.01
280.366	-0.05
280.58	0.02
280.794	0.08
281.008	0.05
281.222	0.05
281.437	0.16
281.651	0.04
281.865	0.07
282.079	0.02
282.293	-0.12
282.507	-0.03
282.721	0.03
282.935	0.03
283.148	-0.1
283.362	0.02
283.576	-0.07
283.79	0.02
284.004	-0.04
284.218	0.06
284.432	-0.02
284.646	0.02
284.859	0
285.073	0
285.287	0.07
285.501	0
285.714	-0.02
285.928	0.02
286.142	0.05
286.356	-0.03
286.569	-0.11
286.783	0.15
286.997	0.05
287.21	0.05
287.424	-0.03
287.637	-0
287.851	0.01
288.065	0.12
288.278	0.01
288.492	0.05
288.705	-0
288.919	0.06
289.132	-0.04
289.346	0.04
289.559	-0.03
289.773	-0.09
289.986	-0.01
290.2	0.02
290.413	0.03
290.626	-0.02
290.84	-0.04
291.053	0.01
291.267	0.1
291.48	0
291.693	0.01
291.906	-0.07
292.12	0.02
292.333	-0.06
292.546	-0.01
292.76	0.09
292.973	0.03
293.186	0.06
293.399	0
293.612	0.07
293.826	0.02
294.039	0.03
294.252	0.02
294.465	0.02
294.678	0.05
294.891	0.05
295.104	-0.02
295.317	-0.03
295.53	0.02
295.743	-0.01
295.956	0.01
296.169	0.08
296.382	0.08
296.595	0.01
296.808	-0.06
297.021	0.06
297.234	0.08
297.447	-0.01
297.66	0.07
297.873	0.08
298.086	0.01
298.299	-0.02
298.511	-0.03
298.724	0.01
298.937	-0.03
299.15	0.01
299.363	-0
299.575	0.02
299.788	0.04
300.001	-0.04
300.213	-0.05
300.426	0.01
300.639	0.02
300.852	-0.03
301.064	0.03
301.277	0.03
301.489	0.09
301.702	0.04
301.915	0.02
302.127	-0
302.34	0.04
302.552	0.03
302.765	-0.01
302.977	0.05
303.19	0.01
303.402	-0.04
303.615	-0
303.827	-0
304.04	0
304.252	0.08
304.464	-0.01
304.677	0.13
304.889	0.08
305.102	0
305.314	0.01
305.526	0.03
305.739	0.06
305.951	-0.02
306.163	-0
306.375	0.12
306.588	0.01
306.8	-0.01
307.012	-0.03
307.224	0.05
307.436	0.05
307.649	-0.06
307.861	0.03
308.073	0.05
308.285	0.01
308.497	-0
308.709	-0.02
308.921	-0
309.133	0.08
309.346	-0
309.558	0.01
309.77	0.09
309.982	0.07
310.194	0.04
310.406	-0
310.617	0.13
310.829	0.05
311.041	0.06
311.253	-0.02
311.465	-0
311.677	0.04
311.889	0.03
312.101	-0.03
312.313	0.09
312.524	0.05
312.736	-0.08
312.948	-0.01
313.16	0.08
313.372	0.06
313.583	0.04
313.795	0.01
314.007	-0.05
314.218	0.08
314.43	0.04
314.642	-0.02
314.853	-0.02
315.065	0.03
315.277	0
315.488	0.02
315.7	0.05
315.912	0.01
316.123	0.04
316.335	0.01
316.546	0.11
316.758	0.07
316.969	-0.01
317.181	0.02
317.392	0.01
317.604	0.08
317.815	-0.06
318.026	-0.03
318.238	0.01
318.449	0.04
318.661	-0.05
318.872	-0.05
319.083	-0.02
319.295	0.06
319.506	-0.01
319.717	0.02
319.929	0.03
320.14	0.02
320.351	0.05
320.562	-0.01
320.774	0.09
320.985	0.07
321.196	-0.06
321.407	-0.08
321.618	0.07
321.829	0.06
322.041	0.01
322.252	0.01
322.463	0.01
322.674	0.04
322.885	-0.02
323.096	-0.02
323.307	0
323.518	0.07
323.729	-0.02
323.94	-0.02
324.151	0.06
324.362	0.03
324.573	0.04
324.784	-0.01
324.995	0.08
325.206	0.05
325.417	-0.02
325.628	-0.01
325.838	0.06
326.049	0.06
326.26	0.07
326.471	0.02
326.682	0.08
326.892	0.01
327.103	-0.07
327.314	-0.06
327.525	0.1
327.735	0.02
327.946	-0.03
328.157	-0.06
328.368	0.1
328.578	-0.01
328.789	0.05
328.999	0.03
329.21	0.03
329.421	0.03
329.631	-0.02
329.842	0.02
330.052	0.02
330.263	0.01
330.473	0.02
330.684	0.02
330.894	0.01
331.105	0.02
331.315	-0
331.526	-0.02
331.736	0.15
331.947	0.06
332.157	0.02
332.367	-0.05
332.578	0.03
332.788	0.07
332.999	0.02
333.209	0.02
333.419	-0.04
333.629	0.01
333.84	0.04
334.05	0.01
334.26	0.08
334.47	0.07
334.681	0.08
334.891	-0.02
335.101	0.08
335.311	0.11
335.521	0.01
335.732	-0.05
335.942	0.11
336.152	0.07
336.362	0.04
336.572	0.02
336.782	0.07
336.992	-0.01
337.202	-0.01
337.412	-0.02
337.622	0.01
337.832	-0.01
338.042	0.03
338.252	0.02
338.462	0.01
338.672	0.05
338.882	-0.01
339.092	0.03
339.302	0.14
339.511	0.05
339.721	-0.01
339.931	-0.05
340.141	0.03
340.351	0.07
340.561	0.01
340.77	0.04
340.98	-0
341.19	0.02
341.4	-0.03
341.609	-0.04
341.819	0.03
342.029	-0.02
342.238	0.03
342.448	-0.04
342.658	0.03
342.867	-0.02
343.077	0.03
343.286	0.04
343.496	0.01
343.706	0.1
343.915	-0.05
344.125	-0.01
344.334	0.04
344.544	-0.03
344.753	-0.02
344.963	-0.01
345.172	0.01
345.381	0.02
345.591	-0.05
345.8	0.04
346.01	0.08
346.219	0.09
346.428	-0.12
346.638	0.05
346.847	0
347.056	0.07
347.266	-0.03
347.475	-0
347.684	0.05
347.893	0.04
348.103	0.01
348.312	0.02
348.521	0.03
348.73	0.02
348.94	0.02
349.149	0
349.358	0.02
349.567	-0
349.776	0.02
349.985	-0.03
350.194	0.06
350.403	0.1
350.612	-0.04
350.821	-0.01
351.03	0.01
351.239	-0.05
351.448	0.01
351.657	-0.02
351.866	0.12
352.075	0.04
352.284	0.04
352.493	-0.03
352.702	0.09
352.911	0.03
353.12	0.02
353.329	0.03
353.538	0.02
353.746	0.02
353.955	-0.02
354.164	0.03
354.373	0
354.582	0.06
354.79	0.03
354.999	0.04
355.208	-0
355.416	0.04
355.625	0
355.834	0.01
356.042	0.05
356.251	0.02
356.46	-0.01
356.668	0.03
356.877	0.12
357.085	0.05
357.294	-0.07
357.503	0.04
357.711	0.02
357.92	0.15
358.128	0.02
358.337	0.01
358.545	0.05
358.754	0.06
358.962	0.05
359.17	0.01
359.379	0.02
359.587	0.05
359.796	-0.01
360.004	0.07
360.212	0.04
360.421	0.1
360.629	-0.01
360.837	-0.03
361.046	0.03
361.254	0.11
361.462	0.01
361.67	-0.02
361.879	0.03
362.087	0.11
362.295	0.02
362.503	-0
362.711	0
362.92	-0.02
363.128	0.01
363.336	-0.04
363.544	-0
363.752	0.02
363.96	-0.04
364.168	-0.04
364.376	0.05
364.584	-0.01
364.792	0.03
365	0.02
365.208	0.02
365.416	0.08
365.624	0.06
365.832	0.03
366.04	0.09
366.248	0.02
366.456	0.05
366.664	0.03
366.872	0.05
367.079	0.01
367.287	0.04
367.495	0.02
367.703	0.02
367.911	0.01
368.118	-0.02
368.326	0
368.534	0.01
368.742	0.08
368.949	-0.03
369.157	-0.02
369.365	-0
369.572	0.01
369.78	0
369.988	0.03
370.195	0.05
370.403	0.06
370.61	-0
370.818	0.03
371.026	0.06
371.233	-0.02
371.441	0.02
371.648	-0
371.856	0.03
372.063	0.06
372.271	0.01
372.478	0.02
372.685	-0.02
372.893	0.06
373.1	0.03
373.308	-0
373.515	0.1
373.722	0.02
373.93	0.02
374.137	0.03
374.344	0.1
374.552	0.03
374.759	0.05
374.966	0.02
375.173	-0.02
375.381	0.07
375.588	0.04
375.795	-0.03
376.002	0.02
376.209	0.03
376.417	0
376.624	0
376.831	0.04
377.038	-0.01
377.245	-0.03
377.452	-0.01
377.659	0
377.866	-0.01
378.073	0.02
378.28	-0
378.487	0.06
378.694	0.06
378.901	0.04
379.108	-0.03
379.315	0.05
379.522	0.1
379.729	0.03
379.936	0
380.143	-0.01
380.35	0.04
380.557	-0.01
380.763	0.01
380.97	0.04
381.177	0.05
381.384	0.05
381.591	-0.02
381.797	0.01
382.004	0.07
382.211	-0.01
382.418	-0
382.624	0.07
382.831	0.03
383.038	-0.04
383.244	0.02
383.451	0.06
383.658	0.04
383.864	0.02
384.071	-0.05
384.277	0.11
384.484	-0.03
384.69	0.06
384.897	-0.01
385.103	0.02
385.31	-0
385.516	-0.01
385.723	-0.01
385.929	0.01
386.136	-0.02
386.342	0.06
386.549	-0
386.755	0.04
386.961	0.1
387.168	0.02
387.374	-0.01
387.58	0.09
387.787	0.06
387.993	0.01
388.199	0.01
388.406	-0.04
388.612	-0.02
388.818	-0.02
389.024	0.01
389.231	0.06
389.437	0.12
389.643	0.05
389.849	-0.03
390.055	0.02
390.261	0.02
390.467	0.08
390.674	-0.04
390.88	0.01
391.086	0.06
391.292	-0.03
391.498	0.06
391.704	0.02
391.91	-0.01
392.116	0.02
392.322	-0.13
392.528	0.05
392.734	0.03
392.94	-0.02
393.146	-0
393.352	0.02
393.557	0.04
393.763	0.02
393.969	0.05
394.175	-0.01
394.381	0.05
394.587	-0
394.792	0.02
394.998	0.06
395.204	0.09
395.41	0.03
395.615	0.04
395.821	0.02
396.027	0.06
396.233	-0.01
396.438	0.02
396.644	0.08
396.85	0.06
397.055	0.01
397.261	0.02
397.466	0.11
397.672	0.03
397.878	0.06
398.083	0.03
398.289	0.01
398.494	0.09
398.7	0.07
398.905	-0.07
399.111	0.13
399.316	-0.03
399.522	0.01
399.727	0.01
399.932	0.02
400.138	0.02
400.343	0.07
400.549	0.04
400.754	0.05
400.959	0.04
401.165	0.01
401.37	0.05
401.575	0.12
401.78	0.05
401.986	0.03
402.191	0.06
402.396	0.05
402.601	0.05
402.807	0.03
403.012	0.05
403.217	0.09
403.422	0.04
403.627	-0.02
403.832	-0
404.037	0.05
404.243	0.05
404.448	0
404.653	0.04
404.858	0.02
405.063	0.06
405.268	0.03
405.473	-0
405.678	0.04
405.883	0.14
406.088	0.08
406.293	-0.05
406.498	-0.02
406.703	0.07
406.907	0.02
407.112	-0.01
407.317	0.05
407.522	0.04
407.727	-0.03
407.932	0.02
408.136	0.13
408.341	0.04
408.546	0.05
408.751	0.03
408.956	0.03
409.16	0.06
409.365	0.07
409.57	-0.02
409.774	0.02
409.979	0.07
410.184	0.09
410.388	0.01
410.593	0.09
410.798	0.1
411.002	0.03
411.207	0.11
411.411	0.09
411.616	0.04
411.82	0.06
412.025	0.05
412.229	0.03
412.434	0.11
412.638	0.07
412.843	0.02
413.047	0.04
413.252	0.02
413.456	0.1
413.66	0.08
413.865	0.06
414.069	0.16
414.273	0.02
414.478	0.04
414.682	0.04
414.886	0.08
415.091	0.02
415.295	0.02
415.499	0.08
415.703	0.07
415.908	0.11
416.112	-0
416.316	0.14
416.52	0.07
416.724	0.06
416.929	0.02
417.133	0.19
417.337	0.1
417.541	0.15
417.745	0.1
417.949	0.12
418.153	0.16
418.357	0.1
418.561	0.23
418.765	0.1
418.969	0.26
419.173	0.17
419.377	0.17
419.581	0.29
419.785	0.17
419.989	0.11
420.193	0.17
420.397	0.19
420.601	0.31
420.804	0.3
421.008	0.21
421.212	0.23
421.416	0.3
421.62	0.21
421.823	0.26
422.027	0.35
422.231	0.29
422.435	0.27
422.638	0.33
422.842	0.3
423.046	0.26
423.249	0.36
423.453	0.4
423.657	0.35
423.86	0.35
424.064	0.43
424.268	0.47
424.471	0.38
424.675	0.53
424.878	0.47
425.082	0.46
425.285	0.53
425.489	0.48
425.692	0.49
425.896	0.47
426.099	0.56
426.303	0.54
426.506	0.5
426.71	0.64
426.913	0.65
427.116	0.71
427.32	0.61
427.523	0.65
427.726	0.82
427.93	0.67
428.133	0.72
428.336	0.69
428.54	0.73
428.743	0.86
428.946	0.9
429.149	0.86
429.353	0.91
429.556	0.9
429.759	0.91
429.962	0.85
430.165	0.96
430.368	0.92
430.571	0.92
430.775	0.9
430.978	0.94
431.181	1
431.384	1.02
431.587	0.95
431.79	1.04
431.993	0.98
432.196	1.08
432.399	1.14
432.602	1.18
432.805	1.18
433.008	1.25
433.211	1.18
433.414	1.34
433.616	1.3
433.819	1.3
434.022	1.27
434.225	1.41
434.428	1.36
434.631	1.57
434.833	1.4
435.036	1.47
435.239	1.53
435.442	1.5
435.645	1.52
435.847	1.61
436.05	1.71
436.253	1.68
436.455	1.69
436.658	1.73
436.861	1.79
437.063	1.8
437.266	1.82
437.468	1.97
437.671	2.1
437.874	2.04
438.076	1.92
438.279	2.01
438.481	2.1
438.684	2.25
438.886	2.25
439.089	2.29
439.291	2.36
439.494	2.41
439.696	2.46
439.899	2.63
440.101	2.72
440.303	2.72
440.506	3.01
440.708	3
440.91	3.04
441.113	3.09
441.315	3.2
441.517	3.19
441.72	3.4
441.922	3.36
442.124	3.4
442.326	3.64
442.529	3.67
442.731	3.63
442.933	3.95
443.135	3.81
443.337	3.89
443.539	4.02
443.742	3.99
443.944	4.32
444.146	4.24
444.348	4.3
444.55	4.29
444.752	4.52
444.954	4.53
445.156	4.56
445.358	4.67
445.56	4.99
445.762	4.83
445.964	5.09
446.166	5
446.368	5.07
446.57	5.18
446.772	5.16
446.974	5.05
447.175	5.28
447.377	5.13
447.579	5.45
447.781	5.28
447.983	5.22
448.184	5.24
448.386	5.43
448.588	5.25
448.79	5.24
448.991	5.36
449.193	5.43
449.395	5.23
449.597	5.18
449.798	5.21
450	4.99
450.202	4.99
450.403	5.03
450.605	4.99
450.806	4.94
451.008	4.82
451.21	4.78
451.411	4.57
451.613	4.37
451.814	4.44
452.016	4.53
452.217	4.23
452.419	4.29
452.62	4.1
452.821	4.14
453.023	3.96
453.224	3.82
453.426	3.7
453.627	3.42
453.828	3.52
454.03	3.45
454.231	3.5
454.432	3.3
454.634	3.28
454.835	3.17
455.036	3.12
455.238	3.03
455.439	2.93
455.64	2.67
455.841	2.72
456.042	2.81
456.244	2.6
456.445	2.51
456.646	2.47
456.847	2.41
457.048	2.45
457.249	2.43
457.45	2.49
457.651	2.12
457.852	2.14
458.054	1.99
458.255	1.93
458.456	2.03
458.657	1.9
458.858	1.79
459.058	1.81
459.259	1.87
459.46	1.74
459.661	1.71
459.862	1.82
460.063	1.67
460.264	1.66
460.465	1.51
460.666	1.63
460.866	1.52
461.067	1.45
461.268	1.47
461.469	1.41
461.67	1.39
461.87	1.32
462.071	1.3
462.272	1.3
462.473	1.35
462.673	1.39
462.874	1.28
463.075	1.28
463.275	1.2
463.476	1.28
463.676	1.24
463.877	1.24
464.078	1.23
464.278	1.22
464.479	1.16
464.679	1.14
464.88	1.09
465.08	1.12
465.281	1.05
465.481	0.97
465.682	0.94
465.882	0.98
466.083	0.95
466.283	0.91
466.483	0.89
466.684	0.82
466.884	0.75
467.085	0.77
467.285	0.84
467.485	0.72
467.686	0.72
467.886	0.68
468.086	0.66
468.286	0.66
468.487	0.69
468.687	0.64
468.887	0.62
469.087	0.65
469.287	0.6
469.488	0.5
469.688	0.59
469.888	0.56
470.088	0.56
470.288	0.57
470.488	0.55
470.688	0.46
470.888	0.5
471.088	0.42
471.288	0.49
471.488	0.48
471.688	0.48
471.888	0.37
472.088	0.46
472.288	0.45
472.488	0.38
472.688	0.41
472.888	0.35
473.088	0.37
473.288	0.4
473.488	0.35
473.688	0.39
473.887	0.34
474.087	0.3
474.287	0.34
474.487	0.3
474.687	0.35
474.886	0.26
475.086	0.27
475.286	0.28
475.486	0.33
475.685	0.26
475.885	0.23
476.085	0.27
476.284	0.26
476.484	0.25
476.684	0.24
476.883	0.29
477.083	0.25
477.282	0.22
477.482	0.28
477.681	0.28
477.881	0.25
478.08	0.16
478.28	0.19
478.479	0.23
478.679	0.28
478.878	0.19
479.078	0.17
479.277	0.18
479.477	0.18
479.676	0.23
479.875	0.17
480.075	0.12
480.274	0.21
480.473	0.2
480.673	0.14
480.872	0.19
481.071	0.15
481.271	0.18
481.47	0.12
481.669	0.14
481.868	0.12
482.067	0.1
482.267	0.09
482.466	0.11
482.665	0.1
482.864	0.11
483.063	0.07
483.262	0.14
483.461	0.18
483.661	0.15
483.86	0.14
484.059	0.11
484.258	0.14
484.457	0.12
484.656	0.12
484.855	0.15
485.054	0.04
485.253	0.09
485.452	0.06
485.651	0.08
485.849	0.1
486.048	0.07
486.247	0.08
486.446	0.09
486.645	0.05
486.844	0.05
487.043	0.06
487.241	0.1
487.44	0.02
487.639	0.08
487.838	0.08
488.037	0.08
488.235	0.1
488.434	0.08
488.633	0.04
488.831	0.08
489.03	0.09
489.229	0.06
489.427	0.05
489.626	0.1
489.825	0.1
490.023	0.08
490.222	0.03
490.42	0.09
490.619	0.12
490.817	0.06
491.016	0.04
491.214	0.09
491.413	0.04
491.611	0.03
491.81	0.03
492.008	0.08
492.207	0.08
492.405	0.05
492.604	-0.03
492.802	0.04
493	0.06
493.199	0.03
493.397	0.05
493.595	0.04
493.794	0.04
493.992	0.1
494.19	0.05
494.388	0.05
494.587	0.02
494.785	0.04
494.983	-0
495.181	0.06
495.379	0.04
495.578	0.01
495.776	0.03
495.974	0.03
496.172	0.04
496.37	0.03
496.568	0.01
496.766	0
496.964	0.05
497.162	0.03
497.36	-0
497.558	0.05
497.756	0.06
497.954	0.01
498.152	0
498.35	-0
498.548	0.03
498.746	0.04
498.944	-0.01
499.142	0.02
499.34	-0.02
499.538	0.01
499.736	-0.01
499.933	0.06
500.131	0.06
500.329	0.03
500.527	0.06
500.725	0.07
500.922	0.04
501.12	0.04
501.318	0.02
501.516	0.01
501.713	0.07
501.911	0.03
502.109	-0.03
502.306	0.03
502.504	0.02
502.701	0.01
502.899	-0
503.097	0.08
503.294	0.03
503.492	0.04
503.689	0.01
503.887	0.02
504.084	0.09
504.282	0.03
504.479	-0.04
504.677	0.02
504.874	-0.03
505.072	0.01
505.269	0.02
505.466	0.03
505.664	0.02
505.861	-0.04
506.059	-0
506.256	0.05
506.453	-0.01
506.651	0.07
506.848	0.03
507.045	-0
507.242	0.04
507.44	0.01
507.637	0.04
507.834	0.02
508.031	0.04
508.229	-0.02
508.426	0.04
508.623	0.03
508.82	-0.01
509.017	-0.02
509.214	-0.01
509.411	-0
509.608	-0.03
509.805	0.02
510.003	0.01
510.2	0
510.397	0.03
510.594	-0.01
510.791	0.01
510.988	0.01
511.184	0.05
511.381	0.01
511.578	-0.01
511.775	0.03
511.972	0.01
512.169	0.03
512.366	0
512.563	0.04
512.76	-0.02
512.956	0.01
513.153	-0.01
513.35	0.03
513.547	-0.01
513.744	-0.01
513.94	-0.03
514.137	0.02
514.334	0
514.53	0.04
514.727	0.04
514.924	0.05
515.12	-0.02
515.317	-0.02
515.514	-0.01
515.71	-0.01
515.907	-0.02
516.103	0.01
516.3	0
516.497	0.04
516.693	0.06
516.89	-0.01
517.086	-0
517.283	0.04
517.479	0.02
517.676	0
517.872	-0.01
518.068	-0
518.265	0
518.461	0.01
518.658	-0.01
518.854	0.04
519.05	-0.01
519.247	-0.02
519.443	0.01
519.639	0.02
519.836	0
520.032	-0
520.228	0.01
520.424	0.06
520.621	0.03
520.817	0
521.013	0.02
521.209	0.01
521.405	0.04
521.601	0
521.798	0
521.994	0.06
522.19	-0.01
522.386	-0.04
522.582	0.01
522.778	-0.01
522.974	-0
523.17	0.01
523.366	0.03
523.562	0.05
523.758	0.02
523.954	-0.02
524.15	-0.02
524.346	0.02
524.542	-0.02
524.738	-0.01
524.934	-0.01
525.129	0.01
525.325	0.01
525.521	0
525.717	0.04
525.913	0.02
526.109	0.02
526.304	-0.01
526.5	0.02
526.696	0.05
526.892	0.01
527.087	0
527.283	-0.01
527.479	0.04
527.674	-0.01
527.87	0
528.066	-0
528.261	0.03
528.457	0.02
528.653	-0.01
528.848	-0.01
529.044	0.01
529.239	-0
529.435	0.02
529.63	0
529.826	0.06
530.021	0
530.217	0.05
530.412	-0
530.608	-0.02
530.803	0
530.999	-0.01
531.194	-0.03
531.389	0.02
531.585	-0.04
531.78	0.03
531.975	-0.01
532.171	0.03
532.366	-0.01
532.561	0.02
532.757	-0.01
532.952	-0
533.147	0.01
533.342	-0
533.538	-0.01
533.733	0.03
533.928	0.01
534.123	0.02
534.318	-0.03
534.513	-0.01
534.709	0.03
534.904	0.01
535.099	0.02
535.294	0.02
535.489	0.03
535.684	-0.01
535.879	-0.02
536.074	0.01
536.269	-0.02
536.464	0.02
536.659	-0
536.854	0
537.049	-0
537.244	0
537.439	-0.01
537.634	0.04
537.828	0.02
538.023	0.01
538.218	-0.02
538.413	0
538.608	-0.02
538.803	0.03
538.997	-0.04
539.192	0.05
539.387	0.02
539.582	0.01
539.776	0.03
539.971	0
540.166	0.01
540.36	-0.02
540.555	-0
540.75	-0.02
540.944	0.01
541.139	-0.03
541.334	-0.01
541.528	0.01
541.723	0.02
541.917	-0.01
542.112	-0.02
542.306	0.01
542.501	-0.02
542.695	-0.01
542.89	-0.02
543.084	0
543.279	-0.02
543.473	-0.01
543.668	0
543.862	0
544.056	0.03
544.251	0.01
544.445	0.03
544.64	0.01
544.834	-0.02
545.028	-0
545.222	0.01
545.417	0.03
545.611	0.01
545.805	0.01
546	-0.02
546.194	0.01
546.388	-0.01
546.582	0.03
546.776	0.01
546.97	0.01
547.165	0.05
547.359	0.01
547.553	-0.02
547.747	0.01
547.941	0
548.135	-0.01
548.329	0.05
548.523	0.03
548.717	-0.01
548.911	-0.02
549.105	-0
549.299	0.01
549.493	0.03
549.687	0.02
549.881	0.02
550.075	-0.01
550.269	-0.03
550.463	0.02
550.657	-0
550.85	0.01
551.044	-0.01
551.238	0.01
551.432	-0.02
551.626	-0.01
551.82	0.03
552.013	-0.03
552.207	0.01
552.401	0.01
552.594	0.02
552.788	0.01
552.982	0
553.176	-0.01
553.369	0.02
553.563	0.03
553.756	-0.03
553.95	-0.03
554.144	0
554.337	0.02
554.531	-0
554.724	0
554.918	-0.01
555.111	0.02
555.305	0
555.498	0.03
555.692	0.04
555.885	-0.01
556.079	0
556.272	-0
556.466	0.03
556.659	0.01
556.852	-0.02
557.046	-0.01
557.239	0.02
557.432	-0.03
557.626	-0.04
557.819	0.01
558.012	0.02
558.206	0.03
558.399	0.01
558.592	0.03
558.785	-0.01
558.979	0.02
559.172	0.01
559.365	0.03
559.558	-0.01
559.751	0
559.944	-0
560.138	-0.01
560.331	-0.01
560.524	-0.01
560.717	0
560.91	-0
561.103	0.03
561.296	0.03
561.489	0.01
561.682	0.01
561.875	0.05
562.068	0.02
562.261	0
562.454	0.04
562.647	0.01
562.84	0.04
563.032	-0
563.225	0
563.418	-0.01
563.611	-0.01
563.804	-0.01
563.997	-0.03
564.19	-0.03
564.382	0.03
564.575	-0
564.768	0.02
564.961	-0.02
565.153	-0.01
565.346	0.02
565.539	-0
565.731	0.01
565.924	0.05
566.117	0.03
566.309	0.01
566.502	-0
566.695	0
566.887	0.03
567.08	-0.03
567.272	0
567.465	-0.02
567.657	0.01
567.85	0.01
568.042	0.02
568.235	0.04
568.427	0.01
568.62	0.02
568.812	0.01
569.005	0.02
569.197	-0.04
569.389	0.02
569.582	0.01
569.774	0.01
569.966	-0.03
570.159	-0.01
570.351	0
570.543	-0.01
570.736	-0.01
570.928	-0.02
571.12	0
571.312	-0.01
571.505	-0.02
571.697	0.04
571.889	-0.03
572.081	0.01
572.273	-0.03
572.465	0.03
572.658	0.01
572.85	0.02
573.042	-0
573.234	-0.01
573.426	0.05
573.618	-0.02
573.81	0.01
574.002	0.05
574.194	0.05
574.386	-0.04
574.578	-0.06
574.77	-0.01
574.962	0.01
575.154	-0.03
575.346	-0.02
575.538	0.02
575.729	-0
575.921	-0.01
576.113	0.01
576.305	0.01
576.497	-0
576.689	0.01
576.88	-0.01
577.072	0.01
577.264	-0
577.456	-0.01
577.647	-0.07
577.839	-0
578.031	0.04
578.223	-0.02
578.414	-0.05
578.606	0.01
578.798	0.01
578.989	-0.02
579.181	-0.01
579.372	0
579.564	-0.02
579.755	0
579.947	-0
580.139	0.03
580.33	-0.04
580.522	-0.04
580.713	-0.05
580.905	-0.01
581.096	-0
581.287	-0.01
581.479	-0.01
581.67	0
581.862	0.02
582.053	-0.05
582.244	-0.04
582.436	0.01
582.627	0.01
582.818	-0.02
583.01	-0.04
583.201	0.04
583.392	0.02
583.583	0
583.775	-0.01
583.966	-0.02
584.157	-0.01
584.348	-0.02
584.54	-0.03
584.731	0.02
584.922	0.01
585.113	-0.03
585.304	0
585.495	0.05
585.686	0.01
585.877	0.03
586.068	0
586.259	0.03
586.45	0.01
586.641	-0.01
586.832	-0.05
587.023	-0.01
587.214	-0
587.405	0.01
587.596	-0.04
587.787	0.02
587.978	0.02
588.169	-0.02
588.36	-0.04
588.551	0.01
588.742	-0.02
588.932	-0
589.123	-0.02
589.314	0.03
589.505	0.03
589.696	0.01
589.886	-0.04
590.077	-0.04
590.268	-0.01
590.458	-0.04
590.649	-0.04
590.84	0.02
591.03	-0.02
591.221	-0.03
591.412	-0.01
591.602	0.02
591.793	0.03
591.984	-0.03
592.174	-0.03
592.365	0.1
592.555	-0.01
592.746	0.02
592.936	0.03
593.127	0.02
593.317	0.04
593.508	-0.03
593.698	-0.02
593.889	-0.01
594.079	0.04
594.269	-0.03
594.46	-0.01
594.65	0.01
594.84	0.02
595.031	-0.05
595.221	-0.02
595.411	-0.07
595.602	0.03
595.792	0
595.982	-0.01
596.172	0.07
596.363	0
596.553	0.01
596.743	0.01
596.933	-0.02
597.123	0.01
597.314	-0.04
597.504	-0.02
597.694	0.01
597.884	0.01
598.074	-0
598.264	-0.02
598.454	0.02
598.644	0.01
598.834	-0.02
599.024	-0.04
599.214	-0.02
599.404	0.01
599.594	0
599.784	-0.04
599.974	0.04
600.164	0.03
600.354	-0.05
600.544	-0.04
600.734	0.01
600.924	0.05
601.114	-0.01
601.303	-0
601.493	-0.01
601.683	0
601.873	-0.01
602.063	-0.07
602.252	0.01
602.442	-0.07
602.632	-0.03
602.821	-0.04
603.011	0.03
603.201	-0.01
603.39	-0.04
603.58	-0.03
603.77	0.03
603.959	0.03
604.149	0.01
604.339	-0.02
604.528	0.04
604.718	0.03
604.907	-0
605.097	-0.01
605.286	-0.04
605.476	0.01
605.665	0.01
605.855	-0.01
606.044	0.02
606.234	0.02
606.423	-0
606.612	-0.04
606.802	0.02
606.991	0.04
607.181	0.02
607.37	-0.02
607.559	0
607.749	-0.04
607.938	0.01
608.127	-0.05
608.316	0
608.506	0.01
608.695	-0.01
608.884	-0.02
609.073	0.02
609.263	0.03
609.452	0.03
609.641	0.01
609.83	-0.01
610.019	-0
610.208	-0.03
610.397	0
610.586	0.03
610.775	-0.03
610.965	0.02
611.154	-0.02
611.343	0.01
611.532	0
611.721	-0.03
611.91	-0.05
612.099	0
612.287	-0
612.476	-0.03
612.665	-0.01
612.854	-0.02
613.043	0.04
613.232	-0.02
613.421	-0.04
613.61	-0.01
613.798	-0.03
613.987	0.05
614.176	-0.02
614.365	0.03
614.554	0.02
614.742	-0
614.931	-0.03
615.12	0.03
615.309	0.01
615.497	0.01
615.686	-0.04
615.875	-0.04
616.063	0.03
616.252	-0.01
616.44	-0.04
616.629	-0
616.818	0.04
617.006	-0.03
617.195	-0
617.383	0.01
617.572	0.01
617.76	-0.02
617.949	-0.04
618.137	0.01
618.326	0.03
618.514	-0.02
618.703	-0.02
618.891	0.04
619.079	-0.05
619.268	0.02
619.456	-0.02
619.644	0.02
619.833	0
620.021	-0.01
620.209	-0.05
620.398	0.01
620.586	-0.03
620.774	-0.01
620.962	-0.03
621.151	0.07
621.339	0.02
621.527	-0.07
621.715	-0.05
621.903	-0.05
622.092	-0.05
622.28	0.02
622.468	-0.01
622.656	0.01
622.844	0.03
623.032	-0.01
623.22	-0.03
623.408	0.05
623.596	0.03
623.784	0.05
623.972	-0.04
624.16	-0.03
624.348	0.07
624.536	-0.03
624.724	-0.04
624.912	0.04
625.1	0.04
625.288	-0.03
625.476	-0.02
625.664	0.01
625.851	-0.05
626.039	-0.01
626.227	0.01
626.415	-0.02
626.603	-0.07
626.79	-0
626.978	-0.01
627.166	0.02
627.354	0.01
627.541	-0.03
627.729	-0.07
627.917	-0
628.104	0.04
628.292	0.01
628.48	-0.01
628.667	0
628.855	-0.04
629.042	0.02
629.23	-0.02
629.418	-0.01
629.605	-0.04
629.793	-0.04
629.98	-0.04
630.168	-0.01
630.355	0.02
630.543	-0.02
630.73	-0.04
630.917	0
631.105	0.06
631.292	-0.01
631.48	-0.01
631.667	0.1
631.854	-0.01
632.042	-0.02
632.229	-0.05
632.416	0.02
632.604	-0.05
632.791	-0.08
632.978	0.03
633.165	0.02
633.353	0.06
633.54	0.05
633.727	-0.08
633.914	-0.02
634.101	-0.09
634.289	0.06
634.476	-0.05
634.663	-0.02
634.85	0.03
635.037	-0.04
635.224	-0.04
635.411	0.03
635.598	0.04
635.785	-0.05
635.972	-0.03
636.159	0
636.346	-0.02
636.533	0
636.72	-0.02
636.907	0.01
637.094	0.05
637.281	-0
637.468	0.04
637.655	-0.01
637.842	-0.01
638.029	-0.03
638.215	0.04
638.402	-0
638.589	-0.03
638.776	-0.02
638.963	-0.04
639.149	0.04
639.336	0.07
639.523	-0.01
639.709	-0.01
639.896	-0.02
640.083	0.07
640.27	0.02
640.456	-0.03
640.643	0.04
640.829	-0.03
641.016	-0.02
641.203	-0.02
641.389	0.05
641.576	0.02
641.762	0
641.949	-0.07
642.135	0.07
642.322	-0
642.508	-0.07
642.695	0.02
642.881	-0.04
643.068	-0.03
643.254	-0.01
643.441	0.05
643.627	-0.03
643.813	-0.02
644	0.05
644.186	-0.04
644.372	0.01
644.559	0.03
644.745	-0.02
644.931	-0.02
645.118	-0.02
645.304	-0
645.49	-0.03
645.676	-0.01
645.862	-0.02
646.049	0.05
646.235	-0.01
646.421	0.1
646.607	0.05
646.793	-0.01
646.979	-0.01
647.165	0
647.352	-0.03
647.538	0.02
647.724	0.01
647.91	0.01
648.096	0.04
648.282	0.04
648.468	-0.01
648.654	-0.01
648.84	0.02
649.026	0.03
649.212	-0.02
649.397	-0.04
649.583	-0.07
649.769	0.01
649.955	-0
650.141	0.04
650.327	0.04
650.513	-0.02
650.698	0.01
650.884	-0.06
651.07	0.01
651.256	0.03
651.442	-0.02
651.627	-0.02
651.813	-0.01
651.999	0.01
652.184	0.01
652.37	0
652.556	-0.03
652.741	0.07
652.927	-0.05
653.113	0.01
653.298	-0.01
653.484	-0.03
653.669	-0.05
653.855	0.03
654.04	0.03
654.226	-0.01
654.412	-0.05
654.597	-0.05
654.782	0.04
654.968	-0
655.153	-0
655.339	-0.03
655.524	-0.04
655.71	0.02
655.895	-0.03
656.08	-0.02
656.266	0.02
656.451	0.02
656.636	-0.06
656.822	0.01
657.007	-0.01
657.192	-0.02
657.378	-0.09
657.563	-0.02
657.748	0.03
657.933	0.01
658.118	-0.02
658.304	-0.02
658.489	0.02
658.674	0.02
658.859	-0.07
659.044	-0.02
659.229	-0.01
659.414	-0.02
659.599	0.01
659.785	-0.04
659.97	-0.04
660.155	0
660.34	0
660.525	-0.02
660.71	-0.02
660.895	0.03
661.08	-0.02
661.264	-0.03
661.449	0.07
661.634	0.05
661.819	0.02
662.004	0.03
662.189	-0.06
662.374	-0.04
662.559	-0.03
662.743	-0.04
662.928	0
663.113	-0
663.298	-0.06
663.483	-0.02
663.667	0.01
663.852	-0.04
664.037	0.06
664.221	-0.02
664.406	0.03
664.591	-0.03
664.775	-0.03
664.96	0
665.145	-0
665.329	0
665.514	-0.01
665.698	-0.03
665.883	-0.07
666.068	0.08
666.252	-0
666.437	-0.04
666.621	-0.02
666.806	0.05
666.99	0
667.174	-0.03
667.359	0.07
667.543	-0.02
667.728	-0.03
667.912	-0.07
668.096	0.01
668.281	-0.05
668.465	-0.03
668.649	-0.03
668.834	0.01
669.018	-0.02
669.202	-0.04
669.387	-0.05
669.571	0.05
669.755	-0.03
669.939	-0.02
670.124	0
670.308	0.08
670.492	0.06
670.676	-0.01
670.86	0.02
671.044	-0.04
671.228	-0.01
671.413	-0.05
671.597	-0.06
671.781	-0.05
671.965	0.01
672.149	-0.05
672.333	0.01
672.517	-0.04
672.701	0.04
672.885	-0.02
673.069	-0.08
673.253	0.05
673.437	0.01
673.621	-0.06
673.804	0.02
673.988	-0.01
674.172	-0.01
674.356	-0.1
674.54	-0.04
674.724	0.08
674.908	-0
675.091	0
675.275	-0.01
675.459	0.05
675.643	0.06
675.826	-0.02
676.01	-0.01
676.194	0.02
676.377	0.01
676.561	0.03
676.745	0.01
676.928	0.01
677.112	0.04
677.296	-0.06
677.479	-0.01
677.663	-0.04
677.846	0.02
678.03	-0.02
678.213	-0.01
678.397	0.03
678.58	-0.04
678.764	-0.02
678.947	-0.06
679.131	-0
679.314	0.04
679.498	-0
679.681	0.01
679.865	0.03
680.048	-0
680.231	-0.02
680.415	0
680.598	0.02
680.781	-0.04
680.965	0
681.148	0.04
681.331	-0.01
681.514	0.04
681.698	-0.03
681.881	-0.01
682.064	-0.02
682.247	-0
682.43	-0.08
682.614	0.03
682.797	0.05
682.98	0.05
683.163	-0.03
683.346	0.03
683.529	-0.05
683.712	-0.06
683.895	-0.05
684.078	-0.06
684.261	0.02
684.444	-0.01
684.627	0.06
684.81	0.02
684.993	-0.03
685.176	0.04
685.359	-0.06
685.542	0.03
685.725	0.05
685.908	0.01
686.091	-0.01
686.274	0.06
686.457	0.03
686.639	-0
686.822	-0
687.005	-0.01
687.188	0.06
687.371	0.08
687.553	-0.01
687.736	0.03
687.919	0.08
688.102	0.12
688.284	-0.01
688.467	0.01
688.65	-0.03
688.832	-0.05
689.015	-0
689.197	-0.06
689.38	0.07
689.563	0.08
689.745	-0.01
689.928	-0.02
690.11	-0
690.293	0.01
690.475	-0.07
690.658	0.02
690.84	-0.02
691.023	0.02
691.205	-0.04
691.388	-0.02
691.57	0.1
691.752	0.03
691.935	-0.07
692.117	-0.07
692.3	0.01
692.482	0.05
692.664	-0.01
692.847	0.05
693.029	0.04
693.211	0.04
693.393	-0.04
693.576	0.01
693.758	0.02
693.94	-0.05
694.122	-0.05
694.304	-0.02
694.487	-0.06
694.669	0.12
694.851	-0.08
695.033	0.05
695.215	-0.06
695.397	-0.05
695.579	0.02
695.761	0.02
695.943	-0.07
696.125	0.07
696.308	0.03
696.49	-0.09
696.671	0.1
696.853	-0.02
697.035	0.08
697.217	-0.01
697.399	0.08
697.581	-0.05
697.763	-0.02
697.945	-0.08
698.127	0
698.309	0.01
698.491	0.01
698.672	0.02
698.854	0.01
699.036	0.04
699.218	-0.01
699.399	0.07
699.581	0.06
699.763	-0
699.945	-0.03
700.126	-0.05
700.308	0.05
700.49	-0.02
700.671	-0.13
700.853	-0.02
701.035	-0.06
701.216	0.03
701.398	-0.04
701.579	-0.08
701.761	0.05
701.943	-0.02
702.124	-0.03
702.306	-0.03
702.487	0.12
702.669	-0.03
702.85	0.01
703.031	-0.06
703.213	0.13
703.394	0.07
703.576	-0.03
703.757	0.03
703.938	0.03
704.12	0.14
704.301	0.04
704.483	-0.06
704.664	0.02
704.845	0.11
705.026	-0.01
705.208	-0.04
705.389	-0.04
705.57	0.02
705.751	-0.08
705.933	0.03
706.114	0.01
706.295	0.02
706.476	-0.05
706.657	0.13
706.838	-0.01
707.02	0.01
707.201	-0.04
707.382	-0.04
707.563	-0.01
707.744	-0.06
707.925	-0.04
708.106	-0.01
708.287	0.02
708.468	0.06
708.649	0.02
708.83	0.04
709.011	-0.05
709.192	0.03
709.373	-0.04
709.554	-0
709.734	0.02
709.915	0.11
710.096	-0.07
710.277	-0.14
710.458	0.01
710.639	0.06
710.819	-0.1
711	-0.03
711.181	0.05
711.362	0.06
711.542	0.08
711.723	-0.04
711.904	0.14
712.085	0.02
712.265	0.03
712.446	-0.13
712.627	-0.03
712.807	-0.05
712.988	-0.06
713.168	-0.09
713.349	-0
713.53	-0.14
713.71	-0.05
713.891	-0.09
714.071	0.03
714.252	-0.04
714.432	-0.06
714.613	-0.12
714.793	-0.02
714.974	0.06
715.154	0.1
715.334	0.09
715.515	0.08
715.695	-0.07
715.876	-0.01
716.056	-0.01
716.236	-0.04
716.417	-0
716.597	-0.09
716.777	0.12
716.957	0.01
717.138	-0.05
717.318	-0.03
717.498	-0.09
717.678	-0.02
717.859	0.09
718.039	-0.1
718.219	0.03
718.399	0.05
718.579	-0.03
718.759	-0.03
718.939	0.01
719.12	0.03
719.3	0
719.48	-0.16
719.66	-0.12
719.84	0.04
720.02	-0.04
720.2	-0.08
720.38	-0
720.56	0.09
720.74	0
720.92	0.03
721.1	0.11
721.279	0.07
721.459	-0.01
721.639	-0.14
721.819	0.06
721.999	-0.09
722.179	0.11
722.359	-0.04
722.538	-0.01
722.718	0.02
722.898	-0.04
723.078	-0.05
723.257	-0.07
723.437	0.07
723.617	-0.04
723.797	-0.09
723.976	-0.03
724.156	-0.02
724.336	0.08
724.515	0.12
724.695	-0.15
724.874	-0
725.054	0.1
725.234	-0.05
725.413	-0.01
725.593	-0.05
725.772	0.02
725.952	0.01
726.131	-0.02
726.311	-0.01
726.49	-0
726.67	0
726.849	-0.05
727.028	0.04
727.208	0
727.387	0.04
727.567	-0.11
727.746	-0.02
727.925	-0.09
728.105	-0.11
728.284	-0.05
728.463	0.04
728.643	0.07
728.822	-0.05
729.001	-0.06
729.18	0.07
729.359	0.1
729.539	-0.06
729.718	-0.03
729.897	0.08
730.076	-0.12
730.255	-0.09
730.434	0.01
730.614	0.02
730.793	0.12
730.972	-0.01
731.151	-0.01
731.33	0.16
731.509	0.06
731.688	-0
731.867	-0.02
732.046	-0.11
732.225	0.18
732.404	-0.12
732.583	-0.12
732.762	0
732.941	-0.01
733.12	-0.04
733.298	-0.01
733.477	0.16
733.656	-0.01
733.835	-0.12
734.014	0.11
734.193	-0.01
734.371	-0.02
734.55	0.04
734.729	-0.04
734.908	0.04
735.086	0.01
735.265	0.09
735.444	-0.14
735.623	0.02
735.801	-0.11
735.98	-0.07
736.159	-0.14
736.337	0.05
736.516	0.05
736.694	0.06
736.873	-0.12
737.052	0.07
737.23	0.16
737.409	-0.08
737.587	0.19
737.766	-0.16
737.944	-0.02
738.123	-0.02
738.301	0.08
738.479	-0.09
738.658	-0.05
738.836	-0.15
739.015	-0.1
739.193	0.06
739.371	-0.16
739.55	0.02
739.728	-0.11
739.906	0.1
740.085	0.15
740.263	0
740.441	-0.14
740.62	0.16
740.798	0.2
740.976	-0.11
741.154	-0.12
741.332	0.16
741.511	-0.05
741.689	0
741.867	0.08
742.045	0.04
742.223	-0.03
742.401	-0.17
742.579	-0.09
742.757	-0.01
742.935	-0.12
743.114	-0.11
743.292	-0.04
743.47	-0.04
743.648	0.01
743.826	-0.17
744.004	-0.01
744.181	0.02
744.359	-0.15
744.537	0.06
744.715	-0.02
744.893	-0.08
745.071	0.04
745.249	0.01
745.427	-0.02
745.605	0.03
745.782	0.04
745.96	0.02
746.138	0.02
746.316	0.09
746.493	0.03
746.671	-0.02
746.849	-0.07
747.027	0.16
747.204	-0.04
747.382	0.06
747.56	-0.1
747.737	-0.01
747.915	0.03
748.093	0.03
748.27	-0.06
748.448	-0.06
748.625	-0.13
748.803	-0.05
748.98	-0.01
749.158	0.08
749.335	-0.01
749.513	-0.04
749.69	-0.07
749.868	-0.01
750.045	0.04
750.223	-0.09
750.4	-0.18
750.578	0.15
750.755	0.01
750.932	-0.14
751.11	0.16
751.287	-0.08
751.464	0.14
751.642	-0.13
751.819	0.07
751.996	0.03
752.173	-0.14
752.351	0.03
752.528	0.03
752.705	-0.13
752.882	0.01
753.06	0.1
753.237	0.02
753.414	0.22
753.591	0.14
753.768	-0.01
753.945	-0.19
754.122	-0.08
754.299	0.04
754.476	-0.09
754.654	-0.02
754.831	0.05
755.008	0.09
755.185	-0.13
755.362	-0.13
755.539	0.11
755.716	-0.08
755.892	0.01
756.069	-0.04
756.246	-0.05
756.423	-0.03
756.6	0.2
756.777	-0.06
756.954	0.01
757.131	-0.03
757.307	-0.11
757.484	-0.14
757.661	0.01
757.838	0
758.015	-0.19
758.191	-0.03
758.368	0.09
758.545	0.15
758.721	0.08
758.898	-0.2
759.075	0.04
759.251	0.06
759.428	0.08
759.605	-0.11
759.781	-0.04
759.958	0.05
760.134	0.08
760.311	-0.04
760.488	0.19
760.664	0.18
760.841	0.02
761.017	-0.12
761.194	0.09
761.37	0.11
761.547	0
761.723	0.15
761.899	0.25
762.076	-0.09
762.252	-0.06
762.429	0.02
762.605	0.15
762.781	0.01
762.958	0.04
763.134	-0.08
763.31	-0.03
763.486	0.04
763.663	-0.21
763.839	0.15
764.015	-0.21
764.191	-0.06
764.368	0.05
764.544	-0.03
764.72	0.04
764.896	0.05
765.072	0.06
765.248	-0.06
765.425	-0.07
765.601	0.1
765.777	-0.01
765.953	-0.23
766.129	-0.05
766.305	-0.09
766.481	-0
766.657	-0.03
766.833	0.2
767.009	-0.11
767.185	0.03
767.361	-0.15
767.537	-0.03
767.713	0.16
767.889	-0.03
768.065	-0.04
768.24	0.16
768.416	0.02
768.592	-0.11
768.768	-0.15
768.944	0.07
769.12	-0.04
769.295	-0.12
769.471	-0.16
769.647	-0.01
769.823	0.21
769.998	-0.1
770.174	-0.2
770.35	0.28
770.525	0.3
770.701	0.07
770.877	-0.02
771.052	-0.09
771.228	0.01
771.403	0.15
771.579	0.03
771.755	0.4
771.93	-0.05
772.106	-0.17
772.281	-0.24
772.457	0.09
772.632	0.14
772.808	-0.3
772.983	-0.04
773.159	-0.17
773.334	0.16
773.509	0.04
773.685	0.03
773.86	0.3
774.036	0.26
774.211	0.06
774.386	0
774.562	-0.04
774.737	0.01
774.912	-0.14
775.087	0.1
775.263	0.13
775.438	0.1
775.613	-0.16
775.788	-0.3
775.964	0.19
776.139	0.44
776.314	-0.2
776.489	0.08
776.664	0.16
776.839	-0.01
777.014	0.12
777.19	0.05
777.365	0.29
777.54	0.24
777.715	-0.16
777.89	0.08
778.065	0.03
778.24	0.11
778.415	0.2
778.59	-0.2
778.765	0.13
778.94	0.05
779.115	-0.16
779.289	-0.09
779.464	0.05
779.639	-0.02
779.814	-0.05
779.989	-0.07
780.164	0.24
780.339	0.1
780.513	-0.1
780.688	-0.25
780.863	0.02
781.038	0.17
781.212	-0.15
781.387	-0.15
781.562	0.47
781.737	-0.08
781.911	0.22
782.086	-0.15
782.261	0.01
782.435	0.3
782.61	-0.08
782.784	0.1
782.959	0.15
783.134	-0.11
783.308	-0.22
783.483	-0.05
783.657	0.29
783.832	0.16
784.006	-0.22
784.181	-0.24
784.355	0.33
784.53	-0.14
784.704	-0.11
784.878	0.29
785.053	-0.07
785.227	0.21
785.402	0.31
785.576	-0.08
785.75	0.02
785.925	-0.25
786.099	-0.02
786.273	0.08
786.448	0.21
786.622	0.08
786.796	-0.11
786.97	-0.01
787.145	0.6
787.319	-0.09
787.493	-0.22
787.667	-0.36
787.841	0.07
788.015	0.22
788.19	-0.23
788.364	-0
788.538	0.21
788.712	0.29
788.886	-0.03
789.06	0.09
789.234	0.24
789.408	-0.29
789.582	-0.06
789.756	-0.18
789.93	-0.13
790.104	0.01
790.278	-0.28
790.452	-0.36
790.626	0.24
790.8	-0.14
790.973	0.16
791.147	0.18
791.321	0.37
791.495	0.12
791.669	0.25
791.843	-0.08
792.016	0
792.19	0.51
792.364	-0.24
792.538	0.47
792.711	0.18
792.885	-0.2
793.059	-0.2
793.233	-0.63
793.406	0.32
793.58	0.1
793.754	0.09
793.927	-0.22
794.101	0.26
794.274	0.03
794.448	0.45
794.622	-0.14
794.795	0.25
794.969	-0.07
795.142	0.3
795.316	-0.06
795.489	-0.03
795.663	0.6
795.836	0.27
796.009	-0.35
796.183	0.41
796.356	-0.03
796.53	-0.02
796.703	-0.02
796.876	0.52
797.05	-0.19
797.223	-0.1
797.396	-0.12
797.57	-0.02
797.743	0.5
797.916	0.1
798.09	0.12
798.263	0.38
798.436	0.08
798.609	-0.03
798.782	-0.04
798.956	0.12
799.129	-0.1
799.302	-0.08
799.475	-0.3
799.648	-0.25
799.821	0.03
799.994	-0.34
800.167	-0.64
800.34	-0.09
800.514	-0.06
800.687	-0.06
800.86	-0.23
801.033	0.4
801.206	0.24
801.379	-0.29
801.551	-0.04
801.724	0.43
801.897	0.45
802.07	-0.43
802.243	-0.48
802.416	-0.19
802.589	0.03
802.762	0.2
802.935	0.09
803.107	0.25
803.28	0.25
803.453	0.24
803.626	-0.08
803.798	0.13
803.971	-0.08
804.144	0.31
804.317	-0.07
804.489	0.01
804.662	0.16
804.835	0.13
805.007	-0.44
805.18	0.63
805.353	0.32
805.525	-0.27
805.698	-0.15
805.87	0.32
806.043	0.14
806.215	-0.28
806.388	-0.19
806.56	0.11
806.733	0.31
806.905	0.05
807.078	-0.21
807.25	-0.1
807.423	0.3
807.595	-0.04
807.768	0.16
807.94	0.42
808.112	0.58
808.285	-0.04
808.457	-0.1
808.629	-0.11
808.802	-0.03
808.974	0.31
809.146	-0.02
809.318	-0.29
809.491	-0.09
809.663	0.56
809.835	-0.23
810.007	0.09
810.18	0.15
810.352	-0.33
810.524	-0.09
810.696	0.3
810.868	0.58
811.04	0.06
811.212	-0.21
811.384	0.08
811.556	-0.1
811.728	-0.02
811.901	0.8
812.073	0.22
812.245	0.67
812.417	-0.19
812.589	-0.56
812.76	0.12
812.932	0.09
813.104	0.3
813.276	-0.2
813.448	0.38
813.62	0.16
813.792	0.02
813.964	0.41
814.136	0.35
814.307	-0.31
814.479	-0.15
814.651	-0.13
814.823	0.6
814.995	-0.19
815.166	0.32
815.338	0
815.51	-0.65
815.681	0.82
815.853	-0.22
816.025	-0.05
816.196	0.57
816.368	0.33
816.54	-0.29
816.711	-0.25
816.883	0.17
817.054	0.88
817.226	-0.45
817.398	-0.04
817.569	-0.05
817.741	0.38
817.912	-0.1
818.084	-0.26
818.255	0.7
818.426	-0.17
818.598	-0.24
818.769	-0.63
818.941	0.35
819.112	0.49
819.283	-0.13
819.455	-0.72
819.626	0.34
819.798	0.27
819.969	-0.08
820.14	0.04
820.311	-0.28
820.483	0.16
820.654	0.33
820.825	0.02
820.996	-0.2
821.168	-0.31
821.339	0.49
821.51	-0.71
821.681	-0.06
821.852	0.27
822.023	-0.5
822.195	-0.22
822.366	0.63
822.537	-0.19
822.708	-0.12
822.879	-0.1
823.05	0.78
823.221	-0.1
823.392	0.51
823.563	0.29
823.734	0.12
823.905	0.06
824.076	-0.25
824.247	-0.64
824.418	-0.3
824.589	0.57
824.759	0.35
824.93	-0.07
825.101	-0.48
825.272	0.75
825.443	0.4
825.614	0.74
825.784	-1.38
825.955	1.23
826.126	0.68
826.297	-0.54
826.467	0.13
826.638	0.84
826.809	-0.69
826.98	-0.07
827.15	0.29
827.321	-0.24
827.492	0.96
827.662	-0.01
827.833	1.33
828.003	0.33
828.174	-0.57
828.345	-0.49
828.515	0.78
828.686	-0.06
828.856	-0.23
829.027	0.04
829.197	0.39
829.368	0.28
829.538	-0
829.709	-0.15
829.879	0.05
830.049	0.36
830.22	-0.16
830.39	-0.05
830.56	0.72
830.731	0.03
830.901	-1.03
831.072	-0.17
831.242	0.86
831.412	0.46
831.582	0.06
831.753	-0.51
831.923	0.41
832.093	0.36
832.263	0.3
832.434	-0.49
832.604	-0.33
832.774	0.45
832.944	-0.25
833.114	-0.07
833.284	0.28
833.454	-0.62
833.624	-0.22
833.795	0.02
833.965	0.63
834.135	0.71
834.305	-1.77
834.475	-0.38
834.645	0.15
834.815	0.13
834.985	0.32
835.155	-0.75
835.325	0.66
835.494	0.17
835.664	-0.56
835.834	-0.36
836.004	-0.2
836.174	-0.27
836.344	-0.38
836.514	-0.79
836.684	-0.76
836.853	0.55
837.023	0.26
837.193	-0.38
837.363	0.14
837.532	0.67
837.702	-0.22
837.872	-0.9
838.041	1.21
838.211	0.89
838.381	-0.65
838.55	0.11
838.72	1.79
838.89	1.21
839.059	-0.58
839.229	-0.64
839.398	2.36
839.568	0.45
839.738	-0.49
839.907	1.21
840.077	0.05
840.246	-0.49
840.416	-1.28
840.585	-0.68
840.755	1.53
840.924	0.58
841.093	-0.11
841.263	0.29
841.432	0.15
841.602	-0.18
841.771	-0.29
841.94	0.36
842.11	1.59
842.279	1.36
842.448	-0.88
842.617	-1.19
842.787	1.22
842.956	-0.39
843.125	-0.06
843.294	0.19
843.464	1.2
843.633	-0.17
843.802	-0.34
843.971	0.17
844.14	0.89
844.309	1.44
844.479	-0.3
844.648	-0.48
844.817	-0.08
844.986	0.77
845.155	-0.33
845.324	-0.53
845.493	-0.46
845.662	-1.09
845.831	0.7
846	0.59
846.169	-0.31
846.338	1.11
846.507	0.54
846.676	0.84
846.844	-0.73
847.013	1.84
847.182	-0.19
847.351	-0.82
847.52	-0.21
847.689	-0.08
847.858	0.11
848.026	-0.36
848.195	-0.31
848.364	-0.28
848.533	-0.47
848.701	-0.46
848.87	-0.4
849.039	1.05
849.207	-0.05
849.376	0.5
849.545	1.24
849.713	-0.27
849.882	0.54
850.051	0.45
850.219	-0.46
850.388	0.33
850.556	-0.31
850.725	-0.37
850.893	-0.82
851.062	-0.54
851.23	0.49
851.399	-0.88
851.567	0.19
851.736	0.83
851.904	-1.39
852.073	-0.14
852.241	-0.19
852.41	-0
852.578	-0.41
852.746	0.03
852.915	0.49
853.083	0.72
853.251	-0.96
853.42	-0.65
853.588	0.54
853.756	1.05
853.924	0.19
854.093	0.25
854.261	-0.5
854.429	-0.63
854.597	-0.36
854.765	-0.78
854.934	1.11
855.102	0.96
855.27	-0.33
855.438	1.26
855.606	1.58
855.774	1.1
855.942	-0.73
856.11	-0.69
856.278	-0.45
856.446	1.46
856.614	-0.22
856.782	-0.72
856.95	1.93
857.118	1.39
857.286	-0.24
857.454	-0.87
857.622	1.47
857.79	1.24
857.958	-1.5
858.126	-1.52
858.294	-3.02
858.462	0.2
858.629	-0.94
858.797	-0.53
858.965	0.79
859.133	0.33
859.301	-0.64
859.468	0.56
859.636	-0.11
859.804	2.45
859.971	0.78
860.139	-0.49
860.307	1.29
860.474	-0.32
860.642	-0.81
860.81	-0.45
860.977	-0
861.145	1.46
861.313	-1.25
861.48	-0.35
861.648	1.93
861.815	-0.17
861.983	-1.77
862.15	-1.6
862.318	0.7
862.485	0.44
862.653	-1.27
862.82	-0.61
862.988	1.48
863.155	0.83
863.322	-0.57
863.49	-2.09
863.657	-1.6
863.824	1.54
863.992	1.49
864.159	0.55
864.326	2.64
864.494	0.29
864.661	3.16
864.828	-1.24
864.996	2.08
865.163	2.38
865.33	-0.59
865.497	-3.09
865.664	-1.44
865.832	-2.15
865.999	-0.54
866.166	-0.68
866.333	-0.82
866.5	-0.81
866.667	0.85
866.834	-0
867.001	2.04
867.168	-1.3
867.335	-0.57
867.502	-2.77
867.669	0.6
867.836	2.96
868.003	-0.48
868.17	3.24
868.337	2.75
868.504	4.22
868.671	-1.93
868.838	-0.54
869.005	1.09
869.172	1.34
869.339	-0.44
869.505	-0.98
869.672	-1.4
869.839	2.88
870.006	0.31
870.173	-1.39
870.339	1.95
870.506	1.67
870.673	-0.92
870.84	2.6
871.006	-0.69
871.173	0.27
871.34	0.04
871.506	-0.69
871.673	0.87
871.839	-1.64
872.006	0.5
872.173	-0.37
872.339	2.5
872.506	2.91
872.672	-0.99
872.839	-2.17
873.005	-0.1
873.172	3.13
873.338	0.85
873.505	0.06
873.671	-0.36
873.838	1.67
874.004	-2.35
874.171	0.18
874.337	1.83
874.503	2.3
874.67	1.23
874.836	0.1
875.002	0.84
875.169	1.72
875.335	0.17
875.501	0.52
875.668	2.13
875.834	0.72
876	0.94
876.166	1.25
876.332	0.71
876.499	2.18
876.665	-0.17
876.831	-1.14
876.997	3.84
877.163	0.82
877.329	-1.54
877.495	0.89
877.662	0.71
877.828	0.05
877.994	-0.72
878.16	-3.31
878.326	-1.08
878.492	1.48
878.658	-1.78
878.824	1.52
878.99	1.32
879.156	0.52
879.322	0.72
879.487	-0.04
879.653	-0.86
879.819	0.07
879.985	-2.01
880.151	0.01
880.317	2.2
880.483	0.99
880.648	1.83
880.814	-1.18
880.98	1.44
881.146	-3.35
881.312	-1.86
881.477	0.11
881.643	1.33
881.809	2.57
881.974	1.91
882.14	-1.92
882.306	0.6
882.471	4.27
882.637	-2.67
882.803	0.8
882.968	3.4
883.134	3.77
883.299	-0.73
883.465	1.04
883.63	1.17
883.796	0.7
883.961	1.29
884.127	-0.27
884.292	-4.31
884.458	-3
884.623	-2.99
