Data from Apollo_Calib_20240827__AbsoluteIrradiance__406__05-55-01-437.txt Node

Date: Wed Aug 28 05:55:01 BST 2024
User: biology
Spectrometer: FLMT08252
Trigger mode: 0
Integration Time (sec): 5.000000E-1
Scans to average: 5
Electric dark correction enabled: true
Nonlinearity correction enabled: false
Boxcar width: 0
XAxis mode: Wavelengths
Number of Pixels in Spectrum: 3648
>>>>>Begin Spectral Data<<<<<
179.588	-0
179.809	-0
180.03	-0
180.251	-0
180.473	-0
180.694	0
180.915	0
181.136	-0
181.357	0
181.578	-0
181.799	-0
182.02	-0
182.241	-0
182.462	-0
182.683	0
182.904	-0
183.125	-0
183.346	0
183.567	0
183.788	0
184.009	0
184.23	0
184.451	0
184.672	-0
184.892	0
185.113	0
185.334	0
185.555	-0
185.776	0
185.996	0
186.217	0
186.438	0
186.659	-0
186.879	0
187.1	0
187.321	-0
187.541	-0
187.762	0
187.983	-0
188.203	0
188.424	0
188.644	0
188.865	0
189.086	0
189.306	-0
189.527	0
189.747	0
189.968	-0
190.188	0
190.409	0
190.629	0
190.849	0
191.07	0
191.29	0
191.511	0
191.731	-0
191.951	-0
192.172	-0
192.392	0
192.612	0
192.833	0
193.053	0
193.273	0
193.493	-0
193.714	-0
193.934	0
194.154	0
194.374	0
194.594	0
194.815	0
195.035	0
195.255	0
195.475	-0
195.695	0
195.915	0
196.135	0
196.355	0
196.575	0
196.795	0
197.015	-0
197.235	-0
197.455	0
197.675	0
197.895	0
198.115	-0
198.335	0
198.555	0
198.775	0
198.995	0
199.214	0
199.434	0
199.654	-0
199.874	0
200.094	1.19
200.313	0.19
200.533	-0.55
200.753	-0.4
200.973	1.17
201.192	0.97
201.412	-0.22
201.632	0
201.851	1.34
202.071	-0.02
202.291	0.46
202.51	-0.89
202.73	0.56
202.95	-0.22
203.169	-0.52
203.389	0.25
203.608	0.49
203.828	-0.19
204.047	-0.3
204.267	0.56
204.486	0.7
204.706	0.34
204.925	0.31
205.145	0.18
205.364	0.4
205.583	1.04
205.803	-0.04
206.022	0.01
206.242	0.1
206.461	0.43
206.68	-0.09
206.9	0.19
207.119	0.84
207.338	0.91
207.557	-0.26
207.777	-0.1
207.996	0.04
208.215	0.71
208.434	-0
208.654	-0.3
208.873	0.19
209.092	0.55
209.311	0.06
209.53	-0.04
209.749	0.09
209.968	0.1
210.187	0.08
210.407	-0.32
210.626	-0.03
210.845	0.26
211.064	0.37
211.283	-0.13
211.502	0.29
211.721	0.1
211.94	0.07
212.159	0.07
212.377	-0.01
212.596	0.47
212.815	-0.04
213.034	0.23
213.253	0.32
213.472	0.44
213.691	0.04
213.91	-0.14
214.128	-0.04
214.347	0.51
214.566	-0.17
214.785	-0.43
215.003	0.38
215.222	0.19
215.441	0.19
215.66	-0.24
215.878	0.18
216.097	0.31
216.316	-0.19
216.534	-0.04
216.753	0.18
216.972	0.07
217.19	0.12
217.409	-0.14
217.627	0.03
217.846	0.04
218.064	0.1
218.283	0
218.501	0.68
218.72	0.28
218.938	-0.1
219.157	0.07
219.375	0.47
219.594	0.16
219.812	-0.09
220.031	-0.05
220.249	0.17
220.467	0.29
220.686	0.1
220.904	-0.12
221.122	-0.09
221.341	0.4
221.559	0.17
221.777	-0.07
221.995	0.01
222.214	0.23
222.432	0.05
222.65	0.15
222.868	0.21
223.086	0.2
223.305	0.26
223.523	0.06
223.741	0.25
223.959	0
224.177	-0.1
224.395	-0.06
224.613	0.14
224.831	0.16
225.049	-0.11
225.267	0.1
225.485	0.24
225.703	-0.05
225.921	0.09
226.139	-0.09
226.357	0.24
226.575	0.25
226.793	0.08
227.011	0.57
227.229	0.12
227.447	0.22
227.665	0.07
227.883	0
228.1	0.13
228.318	0.13
228.536	-0.15
228.754	-0.1
228.972	0.15
229.189	0.23
229.407	0.05
229.625	0.1
229.843	0.21
230.06	0.13
230.278	-0.08
230.496	0.16
230.713	0.13
230.931	0.18
231.149	0.02
231.366	-0.15
231.584	0.03
231.801	0.41
232.019	-0
232.236	-0.02
232.454	-0.09
232.671	0.13
232.889	0.05
233.106	-0.04
233.324	0.18
233.541	0.06
233.759	0.02
233.976	-0.11
234.194	0.08
234.411	0.04
234.628	-0.08
234.846	0.03
235.063	0.04
235.28	0.12
235.498	0.1
235.715	-0.07
235.932	0.13
236.149	0.04
236.367	-0.08
236.584	0.08
236.801	-0.07
237.018	0.14
237.236	0.03
237.453	-0.19
237.67	0.19
237.887	0.09
238.104	0.04
238.321	-0.06
238.538	-0
238.755	0.29
238.973	-0.02
239.19	0
239.407	0.06
239.624	0.11
239.841	-0.03
240.058	-0.01
240.275	0.08
240.492	0.01
240.709	0.08
240.925	-0.01
241.142	0.02
241.359	-0.1
241.576	-0.02
241.793	0.09
242.01	0.05
242.227	0.12
242.444	0.15
242.66	0.11
242.877	0.05
243.094	0.02
243.311	0.04
243.527	0.07
243.744	0.2
243.961	0.19
244.178	-0
244.394	0.05
244.611	0.13
244.828	0.17
245.044	0.01
245.261	0.04
245.477	0.15
245.694	0.1
245.911	-0
246.127	0.13
246.344	0.19
246.56	0.1
246.777	-0.01
246.993	0.12
247.21	0.01
247.426	0.12
247.643	-0.03
247.859	-0.06
248.076	0.07
248.292	0.21
248.508	0.05
248.725	0.05
248.941	0.07
249.157	0.18
249.374	-0.01
249.59	0.01
249.806	0.06
250.023	0.14
250.239	-0.02
250.455	-0.01
250.671	0.05
250.888	0.07
251.104	0.15
251.32	0
251.536	0.08
251.752	0.03
251.969	0.06
252.185	0.04
252.401	0.2
252.617	0.11
252.833	0.03
253.049	-0.01
253.265	0.04
253.481	0.06
253.697	-0.04
253.913	-0.07
254.129	0.1
254.345	0.04
254.561	0.05
254.777	-0.03
254.993	0.1
255.209	0.07
255.425	0.08
255.641	-0.02
255.857	0.16
256.073	0.01
256.288	-0.02
256.504	-0.01
256.72	0.04
256.936	0.2
257.152	0.06
257.367	0.03
257.583	0.07
257.799	0.18
258.015	-0.05
258.23	0.02
258.446	0.21
258.662	-0.01
258.877	0
259.093	-0
259.309	-0.01
259.524	0.03
259.74	0.01
259.955	-0.1
260.171	0.04
260.387	0.07
260.602	0.06
260.818	0.09
261.033	0.04
261.249	0.03
261.464	0.01
261.68	-0.05
261.895	0.04
262.11	0.1
262.326	0.03
262.541	-0.07
262.757	0.13
262.972	0.1
263.187	0.11
263.403	-0.01
263.618	0.1
263.833	0.05
264.049	-0.02
264.264	0.08
264.479	0.1
264.694	0.12
264.91	-0.07
265.125	0.05
265.34	0.06
265.555	0.23
265.77	0.12
265.986	0.03
266.201	0.01
266.416	0.12
266.631	-0.02
266.846	0.03
267.061	0.15
267.276	0.05
267.491	-0.12
267.706	0.04
267.921	0.11
268.136	0.06
268.351	0.09
268.566	0
268.781	0.06
268.996	0.12
269.211	0.05
269.426	-0.07
269.641	-0.01
269.856	0.12
270.071	0.02
270.285	-0.05
270.5	0.13
270.715	0.1
270.93	0.05
271.145	0.06
271.359	0.09
271.574	0.05
271.789	0.05
272.004	-0.02
272.218	0.08
272.433	0.09
272.648	-0.03
272.862	0.09
273.077	-0.02
273.292	0.05
273.506	0
273.721	0.04
273.936	0.05
274.15	0.13
274.365	0.04
274.579	0.11
274.794	0.14
275.008	0.12
275.223	-0.03
275.437	0.06
275.652	0.13
275.866	0.06
276.081	-0.03
276.295	0.07
276.509	0.03
276.724	0.05
276.938	0.04
277.153	0.11
277.367	0.11
277.581	-0.05
277.796	0.05
278.01	-0.05
278.224	0.08
278.438	0.21
278.653	-0.03
278.867	-0.02
279.081	-0.12
279.295	0.05
279.51	0.06
279.724	-0.04
279.938	0.07
280.152	0.11
280.366	0.04
280.58	0.01
280.794	0.19
281.008	0.04
281.222	0.08
281.437	0.13
281.651	0.03
281.865	0.08
282.079	0.04
282.293	-0.04
282.507	0
282.721	0.03
282.935	0.02
283.148	-0.03
283.362	0.04
283.576	-0
283.79	0.09
284.004	-0.02
284.218	0.05
284.432	0
284.646	0.01
284.859	0.01
285.073	0.06
285.287	0.03
285.501	0.03
285.714	0.03
285.928	0
286.142	0.06
286.356	-0.04
286.569	-0
286.783	0.12
286.997	0.09
287.21	0.07
287.424	0.08
287.637	-0
287.851	0.04
288.065	0.07
288.278	-0
288.492	0.07
288.705	0.03
288.919	0.1
289.132	0
289.346	0.08
289.559	-0.05
289.773	-0
289.986	0.03
290.2	0.04
290.413	0.11
290.626	-0.08
290.84	0.01
291.053	0.02
291.267	0.06
291.48	0.03
291.693	0.04
291.906	0.02
292.12	0.01
292.333	0.01
292.546	0.03
292.76	0.16
292.973	0.05
293.186	0.1
293.399	0.01
293.612	0.08
293.826	0.04
294.039	0.04
294.252	0.05
294.465	0.07
294.678	0.09
294.891	0.04
295.104	-0
295.317	0.04
295.53	0.04
295.743	0.03
295.956	0.02
296.169	0.12
296.382	0.07
296.595	0.05
296.808	-0.02
297.021	0.07
297.234	0.06
297.447	0.05
297.66	0.05
297.873	0.04
298.086	0.08
298.299	0.03
298.511	-0.02
298.724	0.01
298.937	-0
299.15	0.01
299.363	0.07
299.575	0.1
299.788	0.05
300.001	0.04
300.213	0
300.426	0.08
300.639	0.01
300.852	0.01
301.064	0.07
301.277	0.12
301.489	0.1
301.702	0.06
301.915	0.06
302.127	0.03
302.34	0.09
302.552	0.05
302.765	0
302.977	0.1
303.19	0.02
303.402	-0.03
303.615	-0.01
303.827	0.01
304.04	0.05
304.252	0.06
304.464	0.02
304.677	0.15
304.889	0.07
305.102	-0.01
305.314	0
305.526	0.07
305.739	0.07
305.951	0.01
306.163	0.01
306.375	0.11
306.588	0
306.8	0
307.012	-0.04
307.224	0.05
307.436	0.12
307.649	-0
307.861	0.07
308.073	0.03
308.285	0.02
308.497	-0.03
308.709	0.02
308.921	0.02
309.133	0.07
309.346	0.03
309.558	0
309.77	0.09
309.982	0.12
310.194	0.06
310.406	-0.01
310.617	0.09
310.829	-0
311.041	0.08
311.253	0.02
311.465	0.02
311.677	0.07
311.889	0.02
312.101	0.02
312.313	0.06
312.524	0.08
312.736	-0.04
312.948	0.04
313.16	0.11
313.372	0.08
313.583	0.05
313.795	0
314.007	0.05
314.218	0.04
314.43	0.03
314.642	-0.01
314.853	0.02
315.065	0.12
315.277	0.05
315.488	0.09
315.7	0.08
315.912	0.1
316.123	0.03
316.335	0.05
316.546	0.15
316.758	0.01
316.969	0.03
317.181	0.05
317.392	0.05
317.604	0.11
317.815	0.04
318.026	-0.03
318.238	0.01
318.449	0.11
318.661	-0.03
318.872	0
319.083	-0.03
319.295	0.06
319.506	0.02
319.717	0.05
319.929	0.08
320.14	0.02
320.351	0.03
320.562	-0
320.774	0.01
320.985	0.04
321.196	0.03
321.407	-0.04
321.618	0.08
321.829	0.04
322.041	0.09
322.252	0.05
322.463	0.05
322.674	0.07
322.885	-0.01
323.096	0.04
323.307	0.05
323.518	0.03
323.729	-0
323.94	0.03
324.151	0.02
324.362	0.05
324.573	0.09
324.784	0
324.995	0.08
325.206	0.06
325.417	0.02
325.628	0
325.838	0
326.049	0.03
326.26	0.09
326.471	-0.01
326.682	0.05
326.892	0.02
327.103	-0.04
327.314	-0.03
327.525	0.03
327.735	0.09
327.946	0.01
328.157	-0
328.368	0.06
328.578	-0.01
328.789	0.05
328.999	0.03
329.21	0.03
329.421	0.05
329.631	0.01
329.842	0.03
330.052	0.06
330.263	0.03
330.473	0.05
330.684	0.07
330.894	0.01
331.105	0.08
331.315	0.07
331.526	-0.02
331.736	0.13
331.947	0.08
332.157	0.07
332.367	-0
332.578	0.07
332.788	0.09
332.999	0.11
333.209	0.06
333.419	-0
333.629	0.03
333.84	0.04
334.05	-0.01
334.26	0.09
334.47	0.07
334.681	0.09
334.891	0.04
335.101	0.05
335.311	0.15
335.521	0.03
335.732	0.01
335.942	0.09
336.152	0.07
336.362	0.07
336.572	0.07
336.782	0.11
336.992	-0.01
337.202	-0.01
337.412	0.03
337.622	0.09
337.832	0.02
338.042	0.03
338.252	-0.02
338.462	0.06
338.672	0.02
338.882	0.03
339.092	0.01
339.302	0.09
339.511	0.1
339.721	0.04
339.931	0.01
340.141	0.09
340.351	0.06
340.561	0.09
340.77	0.03
340.98	0.03
341.19	0.02
341.4	-0.01
341.609	-0.03
341.819	0.01
342.029	0.01
342.238	0.05
342.448	-0.01
342.658	0.08
342.867	0.02
343.077	0.04
343.286	0.06
343.496	0.07
343.706	0.1
343.915	-0.02
344.125	-0
344.334	0.02
344.544	-0
344.753	0.02
344.963	-0.02
345.172	-0.01
345.381	0.03
345.591	-0.01
345.8	0.04
346.01	0.09
346.219	0.06
346.428	-0.1
346.638	0.04
346.847	0.05
347.056	0.12
347.266	-0
347.475	0.08
347.684	0.06
347.893	0.09
348.103	0.04
348.312	0.06
348.521	0.03
348.73	0.05
348.94	0.04
349.149	0.02
349.358	0.02
349.567	0.01
349.776	-0.03
349.985	-0
350.194	0.05
350.403	0.06
350.612	-0.06
350.821	0.05
351.03	0.01
351.239	-0.02
351.448	0.06
351.657	0.02
351.866	0.13
352.075	0.02
352.284	0.08
352.493	-0.02
352.702	0.08
352.911	0.03
353.12	0.04
353.329	0.04
353.538	0.03
353.746	0.01
353.955	0.04
354.164	0.04
354.373	0.07
354.582	0.05
354.79	0.04
354.999	0.07
355.208	0.03
355.416	0.09
355.625	0.02
355.834	-0.01
356.042	0.05
356.251	0.02
356.46	-0.03
356.668	0.09
356.877	0.1
357.085	0.07
357.294	-0.04
357.503	0.04
357.711	0.02
357.92	0.15
358.128	0.02
358.337	0.01
358.545	0.04
358.754	0.02
358.962	0.04
359.17	0.02
359.379	0.05
359.587	0.08
359.796	0.04
360.004	0.05
360.212	0.06
360.421	0.09
360.629	0.02
360.837	0.03
361.046	0.11
361.254	0.13
361.462	0.05
361.67	0
361.879	0.02
362.087	0.13
362.295	0.04
362.503	0.06
362.711	-0.01
362.92	0.02
363.128	0.02
363.336	-0.04
363.544	-0.03
363.752	0.02
363.96	0.01
364.168	0.04
364.376	0.03
364.584	0.07
364.792	0.1
365	0.09
365.208	0.05
365.416	0.06
365.624	0.07
365.832	-0.01
366.04	0.1
366.248	0.06
366.456	0.06
366.664	0.05
366.872	0.02
367.079	0.01
367.287	0.01
367.495	-0.01
367.703	0.03
367.911	0.04
368.118	0.02
368.326	0.06
368.534	-0.02
368.742	0.1
368.949	0.01
369.157	0.02
369.365	0.07
369.572	0.04
369.78	0
369.988	0.07
370.195	0.09
370.403	0.03
370.61	0.02
370.818	0.01
371.026	0.07
371.233	-0
371.441	0.06
371.648	0.03
371.856	0.03
372.063	0.04
372.271	0.02
372.478	0.02
372.685	0.02
372.893	0.05
373.1	0.01
373.308	0.02
373.515	0.1
373.722	0.12
373.93	0.02
374.137	0.07
374.344	0.11
374.552	0.07
374.759	0.03
374.966	0.04
375.173	-0.01
375.381	0.1
375.588	0.03
375.795	-0.04
376.002	-0.01
376.209	-0
376.417	0.06
376.624	0.06
376.831	0.05
377.038	0.05
377.245	-0.02
377.452	0.01
377.659	0.01
377.866	-0
378.073	0.06
378.28	0.03
378.487	0.09
378.694	0.07
378.901	0.04
379.108	0
379.315	0.09
379.522	0.14
379.729	0.05
379.936	0.04
380.143	0.06
380.35	0.07
380.557	0.01
380.763	0.03
380.97	0.03
381.177	0.06
381.384	0.07
381.591	0.02
381.797	0.05
382.004	0.09
382.211	0.05
382.418	0.07
382.624	0.08
382.831	0.05
383.038	0.01
383.244	0.02
383.451	0.05
383.658	0.05
383.864	-0
384.071	0
384.277	0.09
384.484	-0.02
384.69	0.09
384.897	0.01
385.103	0.03
385.31	0.02
385.516	0
385.723	-0.03
385.929	0.01
386.136	0
386.342	0.06
386.549	0.01
386.755	0.09
386.961	0.04
387.168	-0.01
387.374	0.02
387.58	0.03
387.787	0.03
387.993	0.06
388.199	0.04
388.406	-0.01
388.612	-0.02
388.818	0.05
389.024	-0.01
389.231	0.03
389.437	0.1
389.643	0.11
389.849	0.01
390.055	0.03
390.261	0.04
390.467	0.03
390.674	-0
390.88	0.05
391.086	0.04
391.292	-0.01
391.498	0.04
391.704	0.05
391.91	0.04
392.116	0.04
392.322	-0.07
392.528	0.05
392.734	0.01
392.94	0.03
393.146	0
393.352	0.04
393.557	0.03
393.763	0.04
393.969	0.04
394.175	0.02
394.381	0.06
394.587	-0.01
394.792	-0.02
394.998	0.07
395.204	0.11
395.41	0.02
395.615	0.07
395.821	0.05
396.027	0.05
396.233	0.01
396.438	0.03
396.644	0.14
396.85	0.06
397.055	-0.02
397.261	0.04
397.466	0.11
397.672	0.07
397.878	0.06
398.083	0.05
398.289	0.02
398.494	0.09
398.7	0.04
398.905	-0.01
399.111	0.15
399.316	0.01
399.522	0.07
399.727	0.01
399.932	0.02
400.138	-0.01
400.343	0.06
400.549	0.05
400.754	0.04
400.959	0.07
401.165	0.03
401.37	0.11
401.575	0.12
401.78	0.07
401.986	-0.01
402.191	0.05
402.396	0.01
402.601	0.05
402.807	0.04
403.012	0.04
403.217	0.09
403.422	0.06
403.627	0.03
403.832	-0.01
404.037	0.07
404.243	0.08
404.448	0.01
404.653	0.01
404.858	0.05
405.063	0.11
405.268	-0.01
405.473	0.07
405.678	-0.01
405.883	0.2
406.088	0.09
406.293	0
406.498	0.05
406.703	0.1
406.907	0.02
407.112	0.02
407.317	0.05
407.522	0.06
407.727	-0.06
407.932	0.03
408.136	0.1
408.341	0.06
408.546	0.05
408.751	0.06
408.956	0.04
409.16	0.04
409.365	0.01
409.57	0.02
409.774	0.05
409.979	0.11
410.184	0.04
410.388	0.03
410.593	0.08
410.798	0.06
411.002	0.02
411.207	0.04
411.411	0.06
411.616	0.02
411.82	0.03
412.025	0.06
412.229	-0.01
412.434	0.11
412.638	0.03
412.843	0.06
413.047	0.06
413.252	-0.01
413.456	0.01
413.66	0.05
413.865	0.04
414.069	0.13
414.273	0.03
414.478	0.04
414.682	0.01
414.886	0.03
415.091	-0.01
415.295	-0.01
415.499	0.05
415.703	0.01
415.908	0.06
416.112	-0.04
416.316	0.05
416.52	0.06
416.724	-0.01
416.929	-0
417.133	0.16
417.337	0.05
417.541	0.04
417.745	0.01
417.949	0.06
418.153	0.01
418.357	-0.02
418.561	0.19
418.765	0.04
418.969	0.16
419.173	0.12
419.377	0.03
419.581	0.15
419.785	0.06
419.989	0.01
420.193	0.03
420.397	0.07
420.601	0.1
420.804	0.14
421.008	0.1
421.212	0.11
421.416	0.1
421.62	0.06
421.823	0.06
422.027	0.09
422.231	0.05
422.435	0
422.638	0.05
422.842	0.08
423.046	0.04
423.249	0.08
423.453	0.05
423.657	0.04
423.86	0.1
424.064	0.05
424.268	0.12
424.471	0.1
424.675	0.17
424.878	0.14
425.082	0.09
425.285	0.08
425.489	0.05
425.692	0.04
425.896	-0.01
426.099	0.06
426.303	0.02
426.506	-0.03
426.71	0.08
426.913	0.08
427.116	0.11
427.32	0.09
427.523	0.05
427.726	0.15
427.93	0.01
428.133	0.07
428.336	-0.01
428.54	0.01
428.743	0.06
428.946	0.1
429.149	0.06
429.353	0.04
429.556	0.07
429.759	0.04
429.962	0.01
430.165	0.04
430.368	0.08
430.571	0.06
430.775	0.05
430.978	0.03
431.181	0.08
431.384	0.03
431.587	0.06
431.79	0.05
431.993	-0
432.196	0.07
432.399	0.05
432.602	0.1
432.805	0.05
433.008	0.02
433.211	-0.01
433.414	0.07
433.616	0.05
433.819	0.1
434.022	-0.02
434.225	0.17
434.428	0.06
434.631	0.18
434.833	0.03
435.036	0.06
435.239	0.12
435.442	0.08
435.645	0.01
435.847	0.06
436.05	0.15
436.253	0.09
436.455	0.03
436.658	0.1
436.861	0.15
437.063	0.05
437.266	0.03
437.468	0.09
437.671	0.21
437.874	0.05
438.076	0.02
438.279	0.03
438.481	0.05
438.684	0.03
438.886	0.07
439.089	-0.02
439.291	0.07
439.494	0.1
439.696	0.06
439.899	0.05
440.101	0.05
440.303	-0.02
440.506	0.13
440.708	0.05
440.91	0.13
441.113	0.01
441.315	0.1
441.517	0.03
441.72	0.09
441.922	0.01
442.124	0.06
442.326	0.09
442.529	0.11
442.731	0.08
442.933	0.21
443.135	0.09
443.337	0.07
443.539	0.06
443.742	0.03
443.944	0.09
444.146	-0.03
444.348	0.02
444.55	0.03
444.752	0.12
444.954	0.05
445.156	0.07
445.358	0.05
445.56	0.15
445.762	0.06
445.964	0.06
446.166	0.06
446.368	0.02
446.57	0.11
446.772	0.06
446.974	0.04
447.175	0.13
447.377	0.05
447.579	0.02
447.781	0
447.983	0.16
448.184	0.06
448.386	0.11
448.588	-0.02
448.79	0.1
448.991	0.05
449.193	0.04
449.395	0.05
449.597	0.07
449.798	0.1
450	0.08
450.202	0.05
450.403	0.08
450.605	0.12
450.806	0.04
451.008	-0.05
451.21	0.06
451.411	0.08
451.613	0.02
451.814	0.1
452.016	0.09
452.217	0.07
452.419	0.13
452.62	0.03
452.821	0.09
453.023	0.15
453.224	0.13
453.426	0.06
453.627	0.08
453.828	0.12
454.03	0.08
454.231	0.09
454.432	0.09
454.634	0.17
454.835	0.08
455.036	0
455.238	0.11
455.439	0.15
455.64	0.07
455.841	0.05
456.042	0.19
456.244	0.12
456.445	-0.01
456.646	0.01
456.847	0.03
457.048	0.1
457.249	0.15
457.45	0.33
457.651	-0.02
457.852	0.18
458.054	0.11
458.255	0.05
458.456	0.11
458.657	0.08
458.858	0.09
459.058	0.11
459.259	0.08
459.46	0.08
459.661	0.04
459.862	0.17
460.063	0.06
460.264	0.14
460.465	0.03
460.666	0.19
460.866	0.06
461.067	0.09
461.268	0.04
461.469	0.07
461.67	0.04
461.87	0.07
462.071	0.05
462.272	-0
462.473	0.1
462.673	0.11
462.874	0.02
463.075	0.07
463.275	0.04
463.476	0.08
463.676	0.09
463.877	0.1
464.078	0.09
464.278	0.16
464.479	0.07
464.679	0.08
464.88	0.1
465.08	0.15
465.281	0.05
465.481	0.09
465.682	0.11
465.882	0.19
466.083	0.16
466.283	0.11
466.483	0.1
466.684	0.01
466.884	0.07
467.085	0.06
467.285	0.15
467.485	0.05
467.686	0.13
467.886	0.05
468.086	0.11
468.286	0.15
468.487	0.11
468.687	0.07
468.887	0.08
469.087	0.12
469.287	0.12
469.488	0.06
469.688	0.11
469.888	0.11
470.088	0.15
470.288	0.15
470.488	0.17
470.688	0.07
470.888	0.11
471.088	0.09
471.288	0.15
471.488	0.15
471.688	0.13
471.888	0.13
472.088	0.19
472.288	0.14
472.488	0.09
472.688	0.08
472.888	0.12
473.088	0.1
473.288	0.13
473.488	0.15
473.688	0.17
473.887	0.12
474.087	0.13
474.287	0.14
474.487	0.1
474.687	0.12
474.886	0.12
475.086	0.11
475.286	0.15
475.486	0.12
475.685	0.15
475.885	0.12
476.085	0.16
476.284	0.16
476.484	0.11
476.684	0.17
476.883	0.16
477.083	0.14
477.282	0.13
477.482	0.22
477.681	0.17
477.881	0.12
478.08	0.13
478.28	0.12
478.479	0.17
478.679	0.22
478.878	0.15
479.078	0.13
479.277	0.17
479.477	0.17
479.676	0.21
479.875	0.16
480.075	0.1
480.274	0.17
480.473	0.19
480.673	0.17
480.872	0.23
481.071	0.21
481.271	0.2
481.47	0.15
481.669	0.18
481.868	0.2
482.067	0.17
482.267	0.17
482.466	0.17
482.665	0.17
482.864	0.16
483.063	0.17
483.262	0.25
483.461	0.28
483.661	0.26
483.86	0.23
484.059	0.23
484.258	0.25
484.457	0.24
484.656	0.26
484.855	0.32
485.054	0.2
485.253	0.23
485.452	0.22
485.651	0.27
485.849	0.29
486.048	0.27
486.247	0.25
486.446	0.32
486.645	0.27
486.844	0.29
487.043	0.3
487.241	0.34
487.44	0.3
487.639	0.34
487.838	0.37
488.037	0.36
488.235	0.41
488.434	0.34
488.633	0.32
488.831	0.41
489.03	0.45
489.229	0.4
489.427	0.39
489.626	0.47
489.825	0.47
490.023	0.42
490.222	0.42
490.42	0.44
490.619	0.49
490.817	0.46
491.016	0.45
491.214	0.52
491.413	0.5
491.611	0.47
491.81	0.53
492.008	0.53
492.207	0.56
492.405	0.57
492.604	0.51
492.802	0.58
493	0.62
493.199	0.58
493.397	0.62
493.595	0.61
493.794	0.6
493.992	0.73
494.19	0.66
494.388	0.7
494.587	0.71
494.785	0.72
494.983	0.69
495.181	0.73
495.379	0.77
495.578	0.77
495.776	0.82
495.974	0.8
496.172	0.82
496.37	0.85
496.568	0.86
496.766	0.85
496.964	0.92
497.162	0.93
497.36	0.94
497.558	1
497.756	1.01
497.954	1.01
498.152	1.02
498.35	1.1
498.548	1.07
498.746	1.1
498.944	1.12
499.142	1.12
499.34	1.16
499.538	1.25
499.736	1.17
499.933	1.26
500.131	1.28
500.329	1.34
500.527	1.35
500.725	1.4
500.922	1.43
501.12	1.44
501.318	1.52
501.516	1.5
501.713	1.54
501.911	1.58
502.109	1.54
502.306	1.66
502.504	1.61
502.701	1.69
502.899	1.74
503.097	1.91
503.294	1.83
503.492	1.92
503.689	1.97
503.887	2
504.084	2.01
504.282	2.02
504.479	1.99
504.677	2.17
504.874	2.15
505.072	2.14
505.269	2.29
505.466	2.35
505.664	2.41
505.861	2.36
506.059	2.41
506.256	2.52
506.453	2.54
506.651	2.72
506.848	2.74
507.045	2.71
507.242	2.77
507.44	2.83
507.637	2.92
507.834	2.93
508.031	3.04
508.229	3.02
508.426	3.03
508.623	3.22
508.82	3.26
509.017	3.26
509.214	3.33
509.411	3.42
509.608	3.43
509.805	3.55
510.003	3.6
510.2	3.66
510.397	3.84
510.594	3.74
510.791	3.85
510.988	3.95
511.184	3.96
511.381	3.89
511.578	4.11
511.775	4.24
511.972	4.2
512.169	4.31
512.366	4.34
512.563	4.49
512.76	4.59
512.956	4.61
513.153	4.62
513.35	4.66
513.547	4.72
513.744	4.83
513.94	4.85
514.137	5
514.334	5.03
514.53	5.13
514.727	5.26
514.924	5.28
515.12	5.29
515.317	5.34
515.514	5.33
515.71	5.38
515.907	5.6
516.103	5.68
516.3	5.62
516.497	5.81
516.693	5.8
516.89	5.79
517.086	5.91
517.283	5.97
517.479	5.87
517.676	6.11
517.872	6.15
518.068	6.14
518.265	6.23
518.461	6.17
518.658	6.28
518.854	6.38
519.05	6.45
519.247	6.54
519.443	6.45
519.639	6.63
519.836	6.44
520.032	6.49
520.228	6.67
520.424	6.67
520.621	6.66
520.817	6.73
521.013	6.72
521.209	6.88
521.405	6.91
521.601	6.85
521.798	6.79
521.994	6.82
522.19	6.73
522.386	6.76
522.582	6.89
522.778	7.01
522.974	6.84
523.17	6.87
523.366	6.83
523.562	6.89
523.758	6.87
523.954	6.71
524.15	6.85
524.346	6.91
524.542	6.93
524.738	6.86
524.934	6.93
525.129	6.83
525.325	6.74
525.521	6.73
525.717	6.93
525.913	6.73
526.109	6.7
526.304	6.77
526.5	6.7
526.696	6.68
526.892	6.65
527.087	6.78
527.283	6.64
527.479	6.58
527.674	6.36
527.87	6.49
528.066	6.47
528.261	6.37
528.457	6.25
528.653	6.38
528.848	6.28
529.044	6.28
529.239	6.12
529.435	6.11
529.63	6.03
529.826	5.97
530.021	5.91
530.217	5.91
530.412	5.81
530.608	5.83
530.803	5.79
530.999	5.57
531.194	5.65
531.389	5.6
531.585	5.56
531.78	5.59
531.975	5.49
532.171	5.48
532.366	5.39
532.561	5.27
532.757	5.26
532.952	5.34
533.147	5.07
533.342	5.14
533.538	5.01
533.733	5.09
533.928	4.77
534.123	4.92
534.318	4.86
534.513	4.75
534.709	4.81
534.904	4.71
535.099	4.72
535.294	4.62
535.489	4.57
535.684	4.52
535.879	4.42
536.074	4.49
536.269	4.4
536.464	4.36
536.659	4.23
536.854	4.16
537.049	4.23
537.244	4.13
537.439	4.06
537.634	4.09
537.828	4.03
538.023	3.96
538.218	3.88
538.413	3.81
538.608	3.8
538.803	3.81
538.997	3.7
539.192	3.68
539.387	3.66
539.582	3.59
539.776	3.53
539.971	3.55
540.166	3.53
540.36	3.45
540.555	3.48
540.75	3.37
540.944	3.35
541.139	3.3
541.334	3.27
541.528	3.24
541.723	3.26
541.917	3.15
542.112	3.05
542.306	3
542.501	3.02
542.695	3.02
542.89	2.94
543.084	2.97
543.279	2.98
543.473	2.94
543.668	2.89
543.862	2.79
544.056	2.79
544.251	2.83
544.445	2.75
544.64	2.76
544.834	2.56
545.028	2.5
545.222	2.62
545.417	2.69
545.611	2.62
545.805	2.58
546	2.47
546.194	2.47
546.388	2.47
546.582	2.41
546.776	2.42
546.97	2.4
547.165	2.36
547.359	2.33
547.553	2.27
547.747	2.28
547.941	2.3
548.135	2.21
548.329	2.21
548.523	2.19
548.717	2.08
548.911	2.11
549.105	2.07
549.299	2.08
549.493	2.08
549.687	2
549.881	2.01
550.075	1.99
550.269	1.84
550.463	1.92
550.657	1.88
550.85	1.87
551.044	1.8
551.238	1.84
551.432	1.77
551.626	1.8
551.82	1.74
552.013	1.68
552.207	1.69
552.401	1.75
552.594	1.63
552.788	1.58
552.982	1.59
553.176	1.57
553.369	1.61
553.563	1.57
553.756	1.5
553.95	1.52
554.144	1.5
554.337	1.51
554.531	1.42
554.724	1.44
554.918	1.41
555.111	1.42
555.305	1.37
555.498	1.39
555.692	1.36
555.885	1.33
556.079	1.31
556.272	1.27
556.466	1.27
556.659	1.25
556.852	1.18
557.046	1.2
557.239	1.18
557.432	1.14
557.626	1.16
557.819	1.16
558.012	1.14
558.206	1.14
558.399	1.08
558.592	1.1
558.785	1.04
558.979	1.08
559.172	1.05
559.365	1.04
559.558	1.03
559.751	0.96
559.944	1
560.138	0.95
560.331	0.93
560.524	0.95
560.717	0.93
560.91	0.94
561.103	0.89
561.296	0.88
561.489	0.88
561.682	0.91
561.875	0.91
562.068	0.87
562.261	0.84
562.454	0.86
562.647	0.8
562.84	0.8
563.032	0.81
563.225	0.79
563.418	0.77
563.611	0.76
563.804	0.76
563.997	0.72
564.19	0.69
564.382	0.77
564.575	0.68
564.768	0.7
564.961	0.67
565.153	0.68
565.346	0.68
565.539	0.69
565.731	0.66
565.924	0.66
566.117	0.69
566.309	0.62
566.502	0.58
566.695	0.59
566.887	0.61
567.08	0.6
567.272	0.59
567.465	0.55
567.657	0.56
567.85	0.59
568.042	0.58
568.235	0.61
568.427	0.55
568.62	0.56
568.812	0.54
569.005	0.52
569.197	0.46
569.389	0.53
569.582	0.54
569.774	0.53
569.966	0.45
570.159	0.48
570.351	0.47
570.543	0.45
570.736	0.48
570.928	0.44
571.12	0.44
571.312	0.44
571.505	0.4
571.697	0.46
571.889	0.41
572.081	0.41
572.273	0.4
572.465	0.43
572.658	0.41
572.85	0.42
573.042	0.39
573.234	0.37
573.426	0.45
573.618	0.36
573.81	0.39
574.002	0.39
574.194	0.39
574.386	0.34
574.578	0.28
574.77	0.36
574.962	0.32
575.154	0.32
575.346	0.34
575.538	0.33
575.729	0.32
575.921	0.32
576.113	0.32
576.305	0.35
576.497	0.31
576.689	0.3
576.88	0.3
577.072	0.31
577.264	0.29
577.456	0.29
577.647	0.21
577.839	0.3
578.031	0.33
578.223	0.25
578.414	0.26
578.606	0.29
578.798	0.26
578.989	0.25
579.181	0.26
579.372	0.27
579.564	0.27
579.755	0.24
579.947	0.27
580.139	0.26
580.33	0.2
580.522	0.23
580.713	0.17
580.905	0.26
581.096	0.24
581.287	0.23
581.479	0.23
581.67	0.24
581.862	0.2
582.053	0.21
582.244	0.16
582.436	0.2
582.627	0.23
582.818	0.21
583.01	0.17
583.201	0.2
583.392	0.23
583.583	0.21
583.775	0.16
583.966	0.18
584.157	0.19
584.348	0.2
584.54	0.15
584.731	0.17
584.922	0.17
585.113	0.16
585.304	0.19
585.495	0.2
585.686	0.18
585.877	0.2
586.068	0.19
586.259	0.18
586.45	0.18
586.641	0.15
586.832	0.11
587.023	0.16
587.214	0.13
587.405	0.17
587.596	0.15
587.787	0.19
587.978	0.14
588.169	0.13
588.36	0.12
588.551	0.17
588.742	0.12
588.932	0.16
589.123	0.15
589.314	0.18
589.505	0.19
589.696	0.15
589.886	0.09
590.077	0.09
590.268	0.14
590.458	0.1
590.649	0.12
590.84	0.17
591.03	0.11
591.221	0.1
591.412	0.06
591.602	0.13
591.793	0.15
591.984	0.09
592.174	0.1
592.365	0.16
592.555	0.08
592.746	0.13
592.936	0.15
593.127	0.14
593.317	0.15
593.508	0.1
593.698	0.13
593.889	0.1
594.079	0.11
594.269	0.1
594.46	0.11
594.65	0.14
594.84	0.13
595.031	0.11
595.221	0.11
595.411	0.08
595.602	0.11
595.792	0.09
595.982	0.06
596.172	0.14
596.363	0.1
596.553	0.09
596.743	0.09
596.933	0.09
597.123	0.12
597.314	0.06
597.504	0.09
597.694	0.11
597.884	0.11
598.074	0.06
598.264	0.06
598.454	0.09
598.644	0.08
598.834	0.09
599.024	0.02
599.214	0.04
599.404	0.12
599.594	0.08
599.784	0.05
599.974	0.14
600.164	0.08
600.354	0.04
600.544	0.05
600.734	0.09
600.924	0.11
601.114	0.04
601.303	0.08
601.493	0.07
601.683	0.06
601.873	0.12
602.063	-0.01
602.252	0.08
602.442	0.01
602.632	0.05
602.821	0.03
603.011	0.12
603.201	0.05
603.39	0.05
603.58	0.05
603.77	0.08
603.959	0.09
604.149	0.06
604.339	0.05
604.528	0.09
604.718	0.09
604.907	0.03
605.097	0.06
605.286	0.05
605.476	0.1
605.665	0.06
605.855	0.06
606.044	0.1
606.234	0.11
606.423	0.06
606.612	0.02
606.802	0.05
606.991	0.08
607.181	0.05
607.37	0.03
607.559	0.08
607.749	0.02
607.938	0.04
608.127	0.07
608.316	0.05
608.506	0.08
608.695	0.05
608.884	0
609.073	0.07
609.263	0.09
609.452	0.05
609.641	0.06
609.83	0.06
610.019	0.06
610.208	0.04
610.397	0.05
610.586	0.09
610.775	0.02
610.965	0.03
611.154	0.03
611.343	0.05
611.532	0.04
611.721	0.05
611.91	0.03
612.099	0.07
612.287	0.03
612.476	0.01
612.665	0.07
612.854	0.03
613.043	0.08
613.232	0.05
613.421	-0.01
613.61	0.06
613.798	0.04
613.987	0.07
614.176	0.05
614.365	0.08
614.554	0.07
614.742	0.09
614.931	0.02
615.12	0.09
615.309	0.04
615.497	0.06
615.686	0.01
615.875	0.02
616.063	0.06
616.252	0.03
616.44	0.05
616.629	0.07
616.818	0.07
617.006	0.04
617.195	0.03
617.383	0.05
617.572	0.04
617.76	0.02
617.949	0
618.137	0.06
618.326	0.07
618.514	0.04
618.703	0.02
618.891	0.1
619.079	-0.03
619.268	0.08
619.456	0.05
619.644	0.09
619.833	0.04
620.021	0.02
620.209	-0.01
620.398	0.03
620.586	0.05
620.774	0.08
620.962	0.03
621.151	0.1
621.339	0.07
621.527	0
621.715	0.01
621.903	0.02
622.092	0.03
622.28	0.05
622.468	0.06
622.656	0.03
622.844	0.07
623.032	0.02
623.22	-0
623.408	0.08
623.596	0.06
623.784	0.06
623.972	0.02
624.16	0.04
624.348	0.09
624.536	0.02
624.724	0.05
624.912	0.08
625.1	0.08
625.288	-0.01
625.476	0
625.664	0.06
625.851	0.01
626.039	0.02
626.227	0.05
626.415	0.04
626.603	-0.05
626.79	0.04
626.978	0.01
627.166	0.07
627.354	0.05
627.541	0.01
627.729	-0.03
627.917	0.07
628.104	0.08
628.292	0.03
628.48	0.06
628.667	0.05
628.855	0.05
629.042	0.04
629.23	0.02
629.418	-0
629.605	0.03
629.793	0.03
629.98	0.03
630.168	0.07
630.355	0.02
630.543	0.05
630.73	-0.01
630.917	0.07
631.105	0.09
631.292	0.02
631.48	0.03
631.667	0.13
631.854	0.07
632.042	0.04
632.229	-0
632.416	0.04
632.604	0.05
632.791	0
632.978	0.06
633.165	0.05
633.353	0.1
633.54	0.07
633.727	-0.05
633.914	0.01
634.101	-0.02
634.289	0.08
634.476	0.02
634.663	-0.02
634.85	0.04
635.037	-0
635.224	-0.04
635.411	0.05
635.598	0.05
635.785	0.03
635.972	0.02
636.159	0.08
636.346	0
636.533	0.06
636.72	0.02
636.907	0.04
637.094	0.04
637.281	0.03
637.468	0.08
637.655	0.02
637.842	-0
638.029	0
638.215	0.05
638.402	0.02
638.589	0.03
638.776	-0.02
638.963	-0
639.149	0.06
639.336	0.13
639.523	0.02
639.709	0.04
639.896	0
640.083	0.09
640.27	0.05
640.456	0.06
640.643	0.04
640.829	0.02
641.016	0.01
641.203	0
641.389	0.07
641.576	0.04
641.762	0.03
641.949	0.02
642.135	0.08
642.322	0.05
642.508	-0.06
642.695	0.02
642.881	0.02
643.068	0.02
643.254	0.04
643.441	0.08
643.627	0.03
643.813	-0.01
644	0.05
644.186	0.01
644.372	-0.01
644.559	0.07
644.745	0.02
644.931	0
645.118	0.06
645.304	0.01
645.49	0.02
645.676	0.02
645.862	0.05
646.049	0.05
646.235	0.06
646.421	0.1
646.607	0.08
646.793	-0.02
646.979	-0
647.165	0.03
647.352	0.02
647.538	0.08
647.724	0.02
647.91	0.02
648.096	0.07
648.282	0.08
648.468	0.01
648.654	0.03
648.84	0.03
649.026	0.05
649.212	0.03
649.397	0.03
649.583	-0.03
649.769	0.03
649.955	0.06
650.141	0.05
650.327	0.04
650.513	-0.04
650.698	0.05
650.884	-0.04
651.07	0.03
651.256	0.06
651.442	0.01
651.627	0.01
651.813	0.06
651.999	0.02
652.184	0.02
652.37	0.03
652.556	-0.01
652.741	0.09
652.927	-0.02
653.113	0.03
653.298	0.03
653.484	0.05
653.669	-0.02
653.855	0.06
654.04	0.06
654.226	0.05
654.412	0.02
654.597	0.02
654.782	0.06
654.968	0.07
655.153	0.03
655.339	-0
655.524	-0.01
655.71	0.07
655.895	0.02
656.08	0.01
656.266	0.05
656.451	0.05
656.636	-0.02
656.822	0.04
657.007	-0.01
657.192	-0.02
657.378	-0.01
657.563	0.05
657.748	0.03
657.933	0.04
658.118	0.02
658.304	0.01
658.489	0.04
658.674	0.03
658.859	-0.02
659.044	0.04
659.229	0.06
659.414	0.02
659.599	0.02
659.785	0.01
659.97	-0.01
660.155	0.06
660.34	0.04
660.525	0.05
660.71	0.01
660.895	0.09
661.08	0.03
661.264	-0.02
661.449	0.11
661.634	0.09
661.819	0.03
662.004	0.03
662.189	-0.05
662.374	0.03
662.559	-0
662.743	-0.03
662.928	0.04
663.113	0
663.298	-0.02
663.483	-0.01
663.667	0.06
663.852	-0.02
664.037	0.06
664.221	-0.01
664.406	0.05
664.591	0.07
664.775	0.04
664.96	0.01
665.145	0.02
665.329	0.04
665.514	0.01
665.698	-0.02
665.883	-0.02
666.068	0.11
666.252	0.05
666.437	-0
666.621	0.02
666.806	0.06
666.99	0.01
667.174	0.02
667.359	0.1
667.543	0.04
667.728	0.01
667.912	-0.03
668.096	0.06
668.281	0
668.465	0.02
668.649	0.05
668.834	-0
669.018	0.03
669.202	0.03
669.387	-0
669.571	0.04
669.755	-0.02
669.939	0.03
670.124	0.05
670.308	0.11
670.492	0.09
670.676	0.05
670.86	-0
671.044	-0.04
671.228	0.06
671.413	0
671.597	-0.02
671.781	-0.01
671.965	0.03
672.149	0.06
672.333	0.03
672.517	0.05
672.701	0.08
672.885	0.04
673.069	-0.02
673.253	0.1
673.437	0.02
673.621	-0.01
673.804	0.03
673.988	0.04
674.172	0.08
674.356	-0.04
674.54	0.01
674.724	0.13
674.908	0.04
675.091	0.1
675.275	0.05
675.459	0.04
675.643	0.11
675.826	0.05
676.01	0.07
676.194	0.01
676.377	0.08
676.561	0.08
676.745	0.06
676.928	0.09
677.112	0.07
677.296	-0
677.479	0.03
677.663	-0.03
677.846	0.06
678.03	0.03
678.213	0.04
678.397	0.1
678.58	0.06
678.764	0.03
678.947	-0.05
679.131	-0.01
679.314	0.1
679.498	0.06
679.681	0.06
679.865	0.12
680.048	0.04
680.231	0.01
680.415	0.05
680.598	0.01
680.781	0.04
680.965	0.02
681.148	0.04
681.331	0.01
681.514	0.06
681.698	-0.04
681.881	0.03
682.064	0.02
682.247	0.06
682.43	-0.04
682.614	0.07
682.797	0.1
682.98	0.07
683.163	-0.02
683.346	0.1
683.529	0.01
683.712	0.03
683.895	0.11
684.078	-0.03
684.261	-0.01
684.444	0.06
684.627	0.04
684.81	0.02
684.993	-0.03
685.176	0.09
685.359	0
685.542	0.02
685.725	0.14
685.908	0.07
686.091	-0.01
686.274	0.07
686.457	0.09
686.639	0.03
686.822	0.07
687.005	0.05
687.188	0.11
687.371	0.16
687.553	0.04
687.736	0.09
687.919	0.06
688.102	0.06
688.284	0.04
688.467	-0
688.65	0.02
688.832	0.03
689.015	0.05
689.197	-0.01
689.38	0.11
689.563	0.08
689.745	0.03
689.928	-0.01
690.11	0.11
690.293	-0
690.475	-0.02
690.658	0.06
690.84	0.04
691.023	0.05
691.205	0.05
691.388	0.03
691.57	0.07
691.752	0.02
691.935	-0.09
692.117	0.04
692.3	0.04
692.482	0.01
692.664	0.02
692.847	0.02
693.029	0.11
693.211	0.07
693.393	-0.03
693.576	-0.03
693.758	0.05
693.94	0.06
694.122	0.03
694.304	0.06
694.487	0.02
694.669	0.13
694.851	0.03
695.033	0.05
695.215	-0.02
695.397	-0.04
695.579	0.03
695.761	-0.01
695.943	-0.01
696.125	0.08
696.308	0.08
696.49	-0.03
696.671	0.16
696.853	0
697.035	0.16
697.217	0.06
697.399	0.12
697.581	0.02
697.763	0.06
697.945	-0.02
698.127	0.03
698.309	0.07
698.491	0.03
698.672	0.09
698.854	0.12
699.036	0.1
699.218	0
699.399	0.06
699.581	0.07
699.763	0.03
699.945	0
700.126	0.02
700.308	0.07
700.49	0.04
700.671	-0.04
700.853	0.02
701.035	0.02
701.216	0.13
701.398	0
701.579	0.01
701.761	0.1
701.943	0.03
702.124	-0.03
702.306	0.01
702.487	0.11
702.669	-0.03
702.85	0.03
703.031	-0.03
703.213	0.12
703.394	0.1
703.576	0
703.757	0.1
703.938	0.06
704.12	0.19
704.301	0.05
704.483	0.02
704.664	0.05
704.845	0.13
705.026	0.05
705.208	0.01
705.389	0.07
705.57	0.02
705.751	0.03
705.933	0
706.114	0.06
706.295	0.04
706.476	0
706.657	0.13
706.838	0.05
707.02	0.12
707.201	-0.02
707.382	-0.03
707.563	0.01
707.744	0.06
707.925	-0.04
708.106	-0
708.287	0.05
708.468	0.14
708.649	0.05
708.83	0.1
709.011	0.03
709.192	0.05
709.373	0.02
709.554	0.03
709.734	0.1
709.915	0
710.096	0.03
710.277	-0.05
710.458	0.03
710.639	0.1
710.819	-0.02
711	0.06
711.181	0.09
711.362	0.08
711.542	0.11
711.723	0.08
711.904	0.15
712.085	0.05
712.265	0.06
712.446	-0.03
712.627	0.05
712.807	0.04
712.988	0.03
713.168	0.01
713.349	0.1
713.53	-0.08
713.71	-0.02
713.891	-0.03
714.071	0.03
714.252	0.05
714.432	0
714.613	-0.12
714.793	0.11
714.974	0.16
715.154	0.09
715.334	0.1
715.515	0.17
715.695	-0.06
715.876	-0
716.056	0.02
716.236	0.06
716.417	-0.02
716.597	0.01
716.777	0.2
716.957	0.07
717.138	0.04
717.318	0.02
717.498	-0.06
717.678	-0.01
717.859	0.07
718.039	-0.02
718.219	0.04
718.399	0.05
718.579	0.03
718.759	0.01
718.939	0.13
719.12	0.04
719.3	0.02
719.48	-0.06
719.66	-0.04
719.84	0.13
720.02	0.06
720.2	0.01
720.38	-0.03
720.56	0.09
720.74	0.08
720.92	0.08
721.1	0.16
721.279	0.14
721.459	0.02
721.639	-0.09
721.819	0.1
721.999	0
722.179	0.05
722.359	-0.05
722.538	0.07
722.718	-0.03
722.898	0.08
723.078	0.03
723.257	0.07
723.437	0.11
723.617	0.08
723.797	0.04
723.976	-0.02
724.156	0.06
724.336	0.16
724.515	0.2
724.695	-0.07
724.874	-0.01
725.054	0.09
725.234	-0.03
725.413	0.12
725.593	-0.04
725.772	0.05
725.952	0.04
726.131	0.08
726.311	-0
726.49	0.1
726.67	-0.05
726.849	-0.03
727.028	0.05
727.208	-0.01
727.387	0.07
727.567	-0.05
727.746	0.04
727.925	-0.08
728.105	-0.05
728.284	-0.02
728.463	-0.06
728.643	0.07
728.822	-0.05
729.001	-0.11
729.18	0.08
729.359	0.07
729.539	0.02
729.718	0.06
729.897	0.02
730.076	-0.05
730.255	-0.03
730.434	0.09
730.614	0.1
730.793	0.11
730.972	0.03
731.151	0.04
731.33	0.14
731.509	0.21
731.688	0.06
731.867	-0
732.046	-0.09
732.225	0.17
732.404	-0.02
732.583	-0.06
732.762	0.05
732.941	0.07
733.12	0.11
733.298	0.04
733.477	0.14
733.656	0.03
733.835	0
734.014	0.07
734.193	-0.02
734.371	0.11
734.55	0.04
734.729	-0.03
734.908	0.1
735.086	0.01
735.265	0.12
735.444	-0.06
735.623	-0.03
735.801	0.04
735.98	0.01
736.159	-0.02
736.337	0.13
736.516	-0.03
736.694	0.07
736.873	0.06
737.052	0.29
737.23	0.17
737.409	-0.05
737.587	0.25
737.766	-0.07
737.944	-0.09
738.123	0.04
738.301	0.19
738.479	-0.07
738.658	0.03
738.836	-0.24
739.015	0.11
739.193	0.18
739.371	-0.09
739.55	0.01
739.728	-0.08
739.906	0.25
740.085	0.18
740.263	0.1
740.441	-0.13
740.62	0.15
740.798	0.08
740.976	-0.04
741.154	-0.04
741.332	0.14
741.511	0.02
741.689	0.03
741.867	0.1
742.045	0.1
742.223	0.05
742.401	0.03
742.579	-0.02
742.757	0.12
742.935	-0.06
743.114	-0
743.292	-0.03
743.47	0.06
743.648	0.03
743.826	0.15
744.004	0.14
744.181	0.17
744.359	-0.05
744.537	0.04
744.715	-0.11
744.893	0.09
745.071	0.02
745.249	0.01
745.427	0.01
745.605	0.09
745.782	0.04
745.96	0.05
746.138	0.09
746.316	0.05
746.493	-0.08
746.671	0.04
746.849	0.11
747.027	0.27
747.204	-0.07
747.382	0.05
747.56	-0.03
747.737	-0.02
747.915	-0.05
748.093	0
748.27	-0.03
748.448	0.06
748.625	0.02
748.803	-0.08
748.98	-0.05
749.158	0.04
749.335	0.09
749.513	0.01
749.69	-0.09
749.868	-0.02
750.045	0.05
750.223	0.03
750.4	-0.13
750.578	0.19
750.755	-0.03
750.932	-0.05
751.11	0.17
751.287	-0.06
751.464	0.15
751.642	0.05
751.819	0.17
751.996	0.1
752.173	-0.01
752.351	-0.03
752.528	0.04
752.705	0.01
752.882	-0.06
753.06	0.14
753.237	0.12
753.414	0.14
753.591	0.18
753.768	0.01
753.945	-0.06
754.122	0
754.299	0.11
754.476	-0.07
754.654	0.05
754.831	0.08
755.008	-0
755.185	-0.07
755.362	-0.01
755.539	0.06
755.716	-0.21
755.892	-0.05
756.069	0.01
756.246	-0.07
756.423	0.07
756.6	0.21
756.777	0.04
756.954	0.15
757.131	0.06
757.307	0.02
757.484	-0.04
757.661	0.09
757.838	0.06
758.015	-0.13
758.191	0.07
758.368	0.12
758.545	0.21
758.721	0.16
758.898	-0.02
759.075	0.09
759.251	0.14
759.428	0.19
759.605	-0.07
759.781	0.11
759.958	0.06
760.134	0.06
760.311	-0.02
760.488	0.2
760.664	0.17
760.841	0.08
761.017	0.09
761.194	0
761.37	0.04
761.547	0.13
761.723	-0.02
761.899	0.12
762.076	0.08
762.252	-0.03
762.429	0.11
762.605	0.15
762.781	0.02
762.958	0.09
763.134	0.06
763.31	-0.12
763.486	0.18
763.663	-0.11
763.839	0.1
764.015	-0.06
764.191	-0.13
764.368	0.05
764.544	-0.01
764.72	0.05
764.896	0.17
765.072	0.16
765.248	-0.06
765.425	-0.1
765.601	0.06
765.777	-0.01
765.953	-0.15
766.129	-0.05
766.305	-0.07
766.481	0.06
766.657	0.12
766.833	0.27
767.009	0.01
767.185	-0.05
767.361	-0.08
767.537	-0.12
767.713	0.22
767.889	-0.07
768.065	-0.06
768.24	-0.11
768.416	0.2
768.592	0.02
768.768	0.05
768.944	0.11
769.12	-0.04
769.295	0.02
769.471	-0.03
769.647	0.09
769.823	0.13
769.998	-0.06
770.174	-0
770.35	0.35
770.525	0.36
770.701	-0
770.877	0.03
771.052	0.06
771.228	0.18
771.403	0.05
771.579	0.17
771.755	0.39
771.93	0.07
772.106	-0.13
772.281	-0.12
772.457	-0.07
772.632	0.03
772.808	-0.12
772.983	-0.07
773.159	-0.14
773.334	0.18
773.509	0.12
773.685	-0.01
773.86	0.47
774.036	0.23
774.211	0.04
774.386	-0.06
774.562	0.03
774.737	0.23
774.912	-0
775.087	0.24
775.263	0.03
775.438	0.04
775.613	-0.07
775.788	0.09
775.964	0.19
776.139	0.44
776.314	-0.06
776.489	-0.02
776.664	-0.13
776.839	-0.11
777.014	0.14
777.19	0.09
777.365	0.16
777.54	0.23
777.715	-0
777.89	-0.03
778.065	-0.04
778.24	0.14
778.415	0.06
778.59	-0.1
778.765	0.03
778.94	0.07
779.115	-0.1
779.289	-0.08
779.464	0.07
779.639	0.1
779.814	-0.22
779.989	-0.05
780.164	0.19
780.339	0.14
780.513	-0.13
780.688	0.13
780.863	-0.01
781.038	0.13
781.212	-0.24
781.387	0.15
781.562	0.13
781.737	0.08
781.911	0.2
782.086	-0.06
782.261	-0
782.435	0.32
782.61	0.11
782.784	0.08
782.959	0.15
783.134	-0.16
783.308	-0.13
783.483	0.03
783.657	0.51
783.832	0.24
784.006	-0.38
784.181	-0.03
784.355	0.22
784.53	-0.22
784.704	-0.04
784.878	0.51
785.053	0.25
785.227	0.07
785.402	0.57
785.576	-0.11
785.75	-0.15
785.925	0.08
786.099	-0.02
786.273	-0.01
786.448	0.24
786.622	0.09
786.796	0.13
786.97	-0
787.145	0.46
787.319	-0.19
787.493	-0.06
787.667	-0.31
787.841	0.19
788.015	0.23
788.19	-0.03
788.364	0.21
788.538	0.14
788.712	0.36
788.886	-0.11
789.06	0.35
789.234	0.54
789.408	-0.22
789.582	0.04
789.756	0.03
789.93	-0.16
790.104	-0.06
790.278	-0.12
790.452	-0.08
790.626	0.15
790.8	0.02
790.973	0.09
791.147	0.5
791.321	0.33
791.495	0.18
791.669	0.13
791.843	0.24
792.016	0.07
792.19	0.36
792.364	0.02
792.538	0.54
792.711	0.5
792.885	0.03
793.059	-0.29
793.233	-0.52
793.406	0.15
793.58	0.04
793.754	-0.06
793.927	-0.03
794.101	0.45
794.274	-0.05
794.448	0.35
794.622	-0.08
794.795	0.24
794.969	0.03
795.142	0.23
795.316	-0.03
795.489	-0.11
795.663	0.63
795.836	-0.12
796.009	-0.11
796.183	0.4
796.356	0.13
796.53	0.2
796.703	-0.07
796.876	0.7
797.05	-0.04
797.223	-0.02
797.396	0.2
797.57	0.12
797.743	0.29
797.916	0.19
798.09	-0.15
798.263	0.52
798.436	0.02
798.609	0.01
798.782	-0.04
798.956	0.23
799.129	-0.13
799.302	0.06
799.475	-0.21
799.648	-0
799.821	0.23
799.994	0.1
800.167	-0.31
800.34	-0.05
800.514	0.08
800.687	-0.01
800.86	-0.14
801.033	-0.04
801.206	0.19
801.379	-0.26
801.551	0.36
801.724	0.14
801.897	0.56
802.07	-0.11
802.243	-0.4
802.416	-0.23
802.589	-0.26
802.762	-0.05
802.935	0.16
803.107	0.5
803.28	0.48
803.453	0.46
803.626	0.08
803.798	0.15
803.971	-0.2
804.144	0.22
804.317	0.26
804.489	0.31
804.662	-0.13
804.835	0.17
805.007	-0.06
805.18	0.66
805.353	-0.08
805.525	-0.2
805.698	-0.05
805.87	0.04
806.043	0.55
806.215	-0.39
806.388	-0.23
806.56	-0.12
806.733	0.34
806.905	0.09
807.078	0.04
807.25	-0.19
807.423	0.1
807.595	0.24
807.768	0.38
807.94	0.32
808.112	0.21
808.285	0.1
808.457	0.04
808.629	-0.04
808.802	0.04
808.974	0.38
809.146	-0.09
809.318	-0.36
809.491	0.14
809.663	0.33
809.835	-0.23
810.007	0.18
810.18	-0.17
810.352	-0.01
810.524	-0.01
810.696	0.4
810.868	0.52
811.04	0.1
811.212	-0.03
811.384	0.55
811.556	0.22
811.728	0.53
811.901	0.72
812.073	-0.13
812.245	0.26
812.417	0.29
812.589	-0.31
812.76	0.13
812.932	0.26
813.104	0.48
813.276	-0.07
813.448	0.12
813.62	-0.3
813.792	0.08
813.964	-0.06
814.136	0.04
814.307	0.14
814.479	-0.08
814.651	-0.11
814.823	0.78
814.995	-0.11
815.166	0.33
815.338	-0.56
815.51	-0.46
815.681	1.03
815.853	-0.07
816.025	0.24
816.196	0.76
816.368	0.22
816.54	-0.28
816.711	-0.18
816.883	0.71
817.054	0.77
817.226	-0.73
817.398	0.49
817.569	-0.38
817.741	-0.21
817.912	-0.02
818.084	-0.44
818.255	0.25
818.426	-0.38
818.598	0.07
818.769	-0.08
818.941	0.08
819.112	0.81
819.283	0.38
819.455	-0.46
819.626	0.02
819.798	0.25
819.969	-0.15
820.14	-0.1
820.311	-0.31
820.483	0.4
820.654	0.05
820.825	-0.2
820.996	-0.1
821.168	-0.11
821.339	0.02
821.51	-0.17
821.681	-0.03
821.852	0.03
822.023	-0.63
822.195	-0.85
822.366	-0
822.537	0.2
822.708	0.06
822.879	-0.34
823.05	0.54
823.221	0.3
823.392	0.41
823.563	0.44
823.734	0.31
823.905	0.42
824.076	-0.24
824.247	0.07
824.418	-0.6
824.589	0.65
824.759	-0.06
824.93	-0.26
825.101	-0.49
825.272	0.26
825.443	0.72
825.614	0.61
825.784	-1
825.955	0.93
826.126	0.44
826.297	0.36
826.467	1.01
826.638	0.42
826.809	-0.38
826.98	-0.06
827.15	0.9
827.321	0.08
827.492	0.68
827.662	-0.21
827.833	0.1
828.003	0.01
828.174	0.18
828.345	-0.64
828.515	0.63
828.686	-0.05
828.856	-0.64
829.027	0.28
829.197	0.63
829.368	0.04
829.538	-0.47
829.709	-0.28
829.879	0.32
830.049	0.09
830.22	-0.23
830.39	-0.1
830.56	0.45
830.731	-0.03
830.901	-0.51
831.072	0.34
831.242	0.47
831.412	0.2
831.582	0.07
831.753	-0.67
831.923	0.63
832.093	0.67
832.263	-0.17
832.434	-0.24
832.604	-0.26
832.774	0.22
832.944	0.38
833.114	-0.22
833.284	0.36
833.454	-0.35
833.624	-0.76
833.795	-0.33
833.965	1.37
834.135	0.58
834.305	-0.4
834.475	-0.81
834.645	0.35
834.815	-0.33
834.985	-0.2
835.155	-0.41
835.325	0.45
835.494	-0.25
835.664	0.11
835.834	-0.81
836.004	0.08
836.174	0.46
836.344	0.32
836.514	-0.27
836.684	0.19
836.853	0.4
837.023	-0.1
837.193	-0.46
837.363	1.03
837.532	0.53
837.702	0.04
837.872	-1.2
838.041	0.48
838.211	1.54
838.381	-0.61
838.55	-0.07
838.72	1.62
838.89	1.63
839.059	-0.18
839.229	-0.62
839.398	1.89
839.568	0.61
839.738	-0.19
839.907	0.69
840.077	-0.36
840.246	-0.21
840.416	-0.29
840.585	-0.69
840.755	1.29
840.924	1.52
841.093	-0.67
841.263	-0.56
841.432	0.44
841.602	-0.25
841.771	-0.66
841.94	-0.25
842.11	2.24
842.279	1.51
842.448	-0.85
842.617	-0.67
842.787	1.68
842.956	-0.56
843.125	0.33
843.294	-0.09
843.464	1.09
843.633	-0.02
843.802	-0.56
843.971	-0
844.14	0.79
844.309	0.74
844.479	-0.13
844.648	-1.02
844.817	-0.26
844.986	0.16
845.155	-0.58
845.324	-0.26
845.493	-0.44
845.662	-0.57
845.831	0.42
846	0.34
846.169	-0.03
846.338	1.13
846.507	0.71
846.676	0.75
846.844	-0.08
847.013	0.8
847.182	0.08
847.351	-0.16
847.52	0.29
847.689	0.46
847.858	0.18
848.026	0.25
848.195	-0.11
848.364	-0
848.533	-1.29
848.701	0.09
848.87	0.22
849.039	0.66
849.207	1.19
849.376	0.17
849.545	1.72
849.713	-0.93
849.882	-0.23
850.051	-0.07
850.219	-0.31
850.388	1.25
850.556	-1.45
850.725	-0.59
850.893	1.58
851.062	-0.17
851.23	0.58
851.399	-0.89
851.567	0.4
851.736	-0.59
851.904	-0.36
852.073	0.22
852.241	0.52
852.41	1.21
852.578	0.1
852.746	-0.49
852.915	1.24
853.083	0.46
853.251	-1.05
853.42	-0.27
853.588	0.32
853.756	1.55
853.924	0.66
854.093	-0.88
854.261	0.34
854.429	-1
854.597	0.74
854.765	-1.64
854.934	1.92
855.102	2.16
855.27	-0.13
855.438	-0.03
855.606	1.57
855.774	1.54
855.942	-0.94
856.11	-0.17
856.278	0.24
856.446	0.78
856.614	0.33
856.782	-0.18
856.95	1.78
857.118	0.17
857.286	0.1
857.454	-1.66
857.622	0.64
857.79	0.36
857.958	-1.55
858.126	-0.49
858.294	-2.24
858.462	0.78
858.629	-0.32
858.797	-0.57
858.965	-0.42
859.133	-0.55
859.301	-0.34
859.468	1.34
859.636	0.66
859.804	1.44
859.971	0.43
860.139	-0.33
860.307	2.6
860.474	-0.1
860.642	-0.97
860.81	-0.63
860.977	0.77
861.145	0.06
861.313	0.61
861.48	-0.83
861.648	0.79
861.815	-0.47
861.983	-2.45
862.15	-0.51
862.318	1.08
862.485	1.35
862.653	-0.75
862.82	-1.69
862.988	1.66
863.155	-0.32
863.322	-0.47
863.49	-0.58
863.657	-0
863.824	2.1
863.992	0.65
864.159	-0.51
864.326	2.14
864.494	0.29
864.661	1.62
864.828	-1.43
864.996	1.05
865.163	1.82
865.33	-1.97
865.497	-2.27
865.664	-1.49
865.832	-1.88
865.999	0.29
866.166	-0.89
866.333	-1.37
866.5	-0.14
866.667	0.87
866.834	-0.51
867.001	1.07
867.168	-1.44
867.335	-0.43
867.502	-2.33
867.669	0.84
867.836	3.35
868.003	-0.79
868.17	0.1
868.337	2.68
868.504	3.56
868.671	-0.71
868.838	-1.73
869.005	1.16
869.172	1.45
869.339	0.81
869.505	1.16
869.672	0.95
869.839	0.17
870.006	0.08
870.173	-0.63
870.339	0.17
870.506	3.87
870.673	-1.49
870.84	1.73
871.006	1.68
871.173	0.03
871.34	-1.36
871.506	-1.51
871.673	1.02
871.839	-2.01
872.006	-0.03
872.173	-0.28
872.339	-0.35
872.506	1.47
872.672	-1.38
872.839	0.45
873.005	0.5
873.172	4.47
873.338	2.23
873.505	0.74
873.671	0.17
873.838	1.44
874.004	-1.48
874.171	-1.08
874.337	2.1
874.503	1.75
874.67	0.03
874.836	-0.71
875.002	1.49
875.169	1.37
875.335	-0.45
875.501	-1.28
875.668	1.53
875.834	-0.62
876	-0.55
876.166	0.57
876.332	-0.2
876.499	2.69
876.665	-0.4
876.831	1.09
876.997	2.45
877.163	2.18
877.329	-1.56
877.495	0.58
877.662	1.28
877.828	2.23
877.994	1.08
878.16	-2.55
878.326	-0.59
878.492	1.05
878.658	-0.21
878.824	-0.34
878.99	0.59
879.156	-0.11
879.322	3.86
879.487	-0.9
879.653	0.69
879.819	0.59
879.985	-1.51
880.151	1.77
880.317	1.89
880.483	-1.42
880.648	2.05
880.814	-2.39
880.98	-0.23
881.146	-2.65
881.312	-2.1
881.477	-1.35
881.643	-0.79
881.809	2.2
881.974	1.97
882.14	-2.16
882.306	0.53
882.471	4.76
882.637	0.19
882.803	1.53
882.968	4.26
883.134	3.53
883.299	-0.08
883.465	-0
883.63	2.05
883.796	2.89
883.961	2.75
884.127	1.45
884.292	-3.38
884.458	0.18
884.623	0.18
