Data from Apollo_Calib_20240827__AbsoluteIrradiance__619__09-28-01-751.txt Node

Date: Wed Aug 28 09:28:01 BST 2024
User: biology
Spectrometer: FLMT08252
Trigger mode: 0
Integration Time (sec): 5.000000E-1
Scans to average: 5
Electric dark correction enabled: true
Nonlinearity correction enabled: false
Boxcar width: 0
XAxis mode: Wavelengths
Number of Pixels in Spectrum: 3648
>>>>>Begin Spectral Data<<<<<
179.588	-0
179.809	-0
180.03	-0
180.251	-0
180.473	-0
180.694	0
180.915	0
181.136	-0
181.357	0
181.578	-0
181.799	-0
182.02	-0
182.241	0
182.462	-0
182.683	0
182.904	-0
183.125	0
183.346	0
183.567	-0
183.788	-0
184.009	-0
184.23	0
184.451	0
184.672	-0
184.892	-0
185.113	0
185.334	-0
185.555	-0
185.776	-0
185.996	-0
186.217	-0
186.438	-0
186.659	-0
186.879	0
187.1	-0
187.321	-0
187.541	-0
187.762	-0
187.983	-0
188.203	-0
188.424	-0
188.644	-0
188.865	-0
189.086	-0
189.306	-0
189.527	-0
189.747	0
189.968	-0
190.188	0
190.409	0
190.629	-0
190.849	-0
191.07	-0
191.29	0
191.511	-0
191.731	-0
191.951	-0
192.172	-0
192.392	-0
192.612	-0
192.833	-0
193.053	-0
193.273	0
193.493	-0
193.714	-0
193.934	0
194.154	0
194.374	-0
194.594	-0
194.815	-0
195.035	0
195.255	-0
195.475	-0
195.695	0
195.915	0
196.135	0
196.355	0
196.575	0
196.795	0
197.015	-0
197.235	-0
197.455	-0
197.675	0
197.895	-0
198.115	-0
198.335	0
198.555	-0
198.775	-0
198.995	-0
199.214	0
199.434	-0
199.654	-0
199.874	-0
200.094	0.62
200.313	-0.28
200.533	-0.49
200.753	-1
200.973	0.22
201.192	-0.03
201.412	-0.93
201.632	-0.44
201.851	0.31
202.071	-0.87
202.291	-0.95
202.51	-1.13
202.73	-0.44
202.95	-0.24
203.169	-0.89
203.389	-0.31
203.608	-0.11
203.828	-0.96
204.047	0.03
204.267	0.22
204.486	-0.14
204.706	0.03
204.925	-0.49
205.145	-0.46
205.364	-0
205.583	0.61
205.803	-0.11
206.022	-0.54
206.242	-0.1
206.461	0.08
206.68	-0.15
206.9	-0.2
207.119	0.12
207.338	0.28
207.557	-0.2
207.777	-0.21
207.996	0.26
208.215	-0
208.434	-0.32
208.654	-0.69
208.873	-0.15
209.092	0.11
209.311	-0.44
209.53	-0.17
209.749	-0.35
209.968	-0.41
210.187	-0.05
210.407	-0.55
210.626	-0.29
210.845	0.23
211.064	-0.39
211.283	-0.39
211.502	0.34
211.721	-0.24
211.94	-0.2
212.159	0
212.377	-0.02
212.596	0.14
212.815	-0.03
213.034	0.14
213.253	-0.09
213.472	0.18
213.691	-0.35
213.91	-0.42
214.128	-0.37
214.347	0.29
214.566	-0.42
214.785	-0.28
215.003	0
215.222	-0.04
215.441	-0.14
215.66	-0.35
215.878	-0
216.097	0.07
216.316	-0.31
216.534	-0.13
216.753	-0.03
216.972	0.05
217.19	-0.22
217.409	-0.21
217.627	-0.4
217.846	-0.19
218.064	-0.08
218.283	-0.37
218.501	0.23
218.72	0.07
218.938	-0.24
219.157	-0.24
219.375	0.09
219.594	0.07
219.812	-0.22
220.031	-0.25
220.249	0.17
220.467	0.17
220.686	-0.28
220.904	-0.25
221.122	-0.2
221.341	0.25
221.559	0.01
221.777	-0.16
221.995	-0.21
222.214	0.06
222.432	-0.28
222.65	0.06
222.868	-0.08
223.086	-0.01
223.305	0.15
223.523	-0.01
223.741	0.19
223.959	-0.16
224.177	-0.25
224.395	-0.24
224.613	-0.13
224.831	0.13
225.049	-0.16
225.267	-0.14
225.485	-0.01
225.703	-0.17
225.921	-0.09
226.139	-0.08
226.357	0.02
226.575	0.02
226.793	0.01
227.011	0.31
227.229	0.01
227.447	0.17
227.665	-0.22
227.883	-0.26
228.1	-0.06
228.318	-0.06
228.536	-0.25
228.754	-0.29
228.972	-0.01
229.189	-0.03
229.407	-0.09
229.625	-0.09
229.843	0.08
230.06	0.07
230.278	-0.18
230.496	-0.09
230.713	-0.06
230.931	0.07
231.149	-0.19
231.366	-0.23
231.584	-0.06
231.801	0.29
232.019	-0.1
232.236	-0.19
232.454	-0.22
232.671	0.03
232.889	0.04
233.106	-0.17
233.324	-0.02
233.541	-0.19
233.759	-0.05
233.976	-0.12
234.194	-0.04
234.411	-0.09
234.628	-0.12
234.846	-0.09
235.063	-0.08
235.28	-0.12
235.498	-0.09
235.715	-0.1
235.932	0.03
236.149	-0.08
236.367	-0.19
236.584	-0.05
236.801	-0.07
237.018	-0.02
237.236	-0.08
237.453	-0.28
237.67	0.05
237.887	-0.07
238.104	0.01
238.321	-0.22
238.538	-0.15
238.755	0.06
238.973	-0.23
239.19	-0.11
239.407	0.03
239.624	-0.03
239.841	-0.16
240.058	-0.11
240.275	0.05
240.492	-0.03
240.709	0.01
240.925	-0.07
241.142	0.03
241.359	-0.15
241.576	-0.19
241.793	-0.11
242.01	-0.05
242.227	-0.04
242.444	0.07
242.66	-0.01
242.877	0.03
243.094	-0.05
243.311	-0.06
243.527	-0.05
243.744	-0
243.961	-0.02
244.178	-0.14
244.394	-0.07
244.611	-0
244.828	0.07
245.044	-0.08
245.261	-0.03
245.477	0.03
245.694	-0.05
245.911	-0.08
246.127	-0.04
246.344	0.1
246.56	-0.07
246.777	-0.11
246.993	-0.07
247.21	-0.05
247.426	0.02
247.643	-0.11
247.859	-0.16
248.076	-0.12
248.292	0.2
248.508	-0.01
248.725	0.04
248.941	-0.04
249.157	0.07
249.374	-0.05
249.59	-0.02
249.806	0.03
250.023	0.04
250.239	-0.1
250.455	-0.09
250.671	-0.07
250.888	0.08
251.104	0
251.32	-0.08
251.536	-0.07
251.752	-0.09
251.969	-0
252.185	0
252.401	0.12
252.617	-0.06
252.833	-0.04
253.049	-0.04
253.265	-0.06
253.481	-0.01
253.697	-0.1
253.913	-0.13
254.129	-0.02
254.345	0.05
254.561	-0.05
254.777	-0.04
254.993	0
255.209	0.01
255.425	-0.06
255.641	-0.13
255.857	0.1
256.073	-0.05
256.288	-0.19
256.504	-0.03
256.72	-0.02
256.936	0.04
257.152	-0.1
257.367	-0.12
257.583	-0.06
257.799	-0.02
258.015	-0.07
258.23	-0.03
258.446	0.06
258.662	0.04
258.877	-0.07
259.093	-0.05
259.309	-0
259.524	-0.01
259.74	-0.02
259.955	-0.14
260.171	-0.04
260.387	0
260.602	0.04
260.818	0
261.033	-0.08
261.249	-0.05
261.464	-0.06
261.68	-0.06
261.895	0.05
262.11	-0.01
262.326	-0.06
262.541	-0.1
262.757	0.02
262.972	-0.01
263.187	-0.01
263.403	-0.01
263.618	0.05
263.833	-0.01
264.049	-0.16
264.264	-0.12
264.479	0.03
264.694	0.1
264.91	-0.08
265.125	-0.07
265.34	0.05
265.555	0.1
265.77	0.01
265.986	-0.05
266.201	-0
266.416	0.03
266.631	-0.06
266.846	-0.03
267.061	-0
267.276	-0.02
267.491	-0.19
267.706	-0.02
267.921	-0.04
268.136	0.04
268.351	-0.05
268.566	-0.12
268.781	0.04
268.996	-0.05
269.211	-0.01
269.426	-0.14
269.641	-0.07
269.856	0.07
270.071	-0.03
270.285	-0.13
270.5	0.04
270.715	0.04
270.93	-0.03
271.145	-0.04
271.359	0.12
271.574	-0.03
271.789	-0.04
272.004	-0.11
272.218	-0.09
272.433	0.01
272.648	-0.09
272.862	0.04
273.077	-0.1
273.292	0.02
273.506	-0.09
273.721	-0.07
273.936	0.02
274.15	0.06
274.365	-0.09
274.579	0.03
274.794	0.04
275.008	0.01
275.223	-0.12
275.437	0
275.652	-0.03
275.866	-0.03
276.081	-0.02
276.295	0.01
276.509	-0.03
276.724	-0.04
276.938	-0.02
277.153	0.03
277.367	-0.01
277.581	-0.06
277.796	-0.06
278.01	-0.08
278.224	-0.01
278.438	0.1
278.653	-0.09
278.867	-0.07
279.081	-0.19
279.295	-0.01
279.51	-0.04
279.724	-0.06
279.938	0.01
280.152	0.07
280.366	-0.05
280.58	0.01
280.794	0.04
281.008	0.01
281.222	0.01
281.437	0.05
281.651	0.01
281.865	0.04
282.079	-0.06
282.293	-0.14
282.507	-0.06
282.721	-0.02
282.935	-0.04
283.148	-0.11
283.362	-0.06
283.576	-0.1
283.79	-0.03
284.004	-0.06
284.218	-0.01
284.432	-0.04
284.646	-0.06
284.859	-0.06
285.073	0
285.287	-0.02
285.501	-0.02
285.714	-0.04
285.928	0.01
286.142	-0.01
286.356	-0.02
286.569	-0.1
286.783	0.1
286.997	0.05
287.21	0
287.424	-0.02
287.637	-0.02
287.851	-0
288.065	0.03
288.278	-0
288.492	-0.02
288.705	-0.03
288.919	0.04
289.132	-0.07
289.346	0.05
289.559	-0.09
289.773	-0.04
289.986	-0.05
290.2	-0.03
290.413	0.02
290.626	-0.11
290.84	-0.04
291.053	-0.07
291.267	0.05
291.48	-0.01
291.693	-0.02
291.906	-0.04
292.12	-0.07
292.333	-0.06
292.546	-0.04
292.76	0.06
292.973	0.02
293.186	0.06
293.399	-0.02
293.612	0.04
293.826	-0.1
294.039	0.01
294.252	0.04
294.465	-0.03
294.678	0.01
294.891	-0.04
295.104	-0.03
295.317	-0.05
295.53	-0.01
295.743	-0.03
295.956	0.01
296.169	0.01
296.382	0.04
296.595	-0.05
296.808	-0.08
297.021	0.06
297.234	0.03
297.447	-0.04
297.66	-0.02
297.873	0.03
298.086	0.04
298.299	-0.04
298.511	-0.08
298.724	-0.04
298.937	-0.05
299.15	-0.03
299.363	-0.04
299.575	0.02
299.788	0.01
300.001	-0.05
300.213	-0.03
300.426	-0.03
300.639	-0.06
300.852	-0.07
301.064	0.03
301.277	0.06
301.489	0.02
301.702	0.02
301.915	-0.03
302.127	-0.02
302.34	-0
302.552	0.03
302.765	-0.04
302.977	0.02
303.19	-0.04
303.402	-0.02
303.615	-0.02
303.827	-0.09
304.04	-0.03
304.252	0.01
304.464	-0.04
304.677	0.08
304.889	0.07
305.102	-0.05
305.314	-0.05
305.526	-0
305.739	-0.01
305.951	-0.05
306.163	-0.04
306.375	0.07
306.588	-0.03
306.8	-0.05
307.012	-0.05
307.224	0.02
307.436	0.07
307.649	-0.1
307.861	0.02
308.073	0.03
308.285	-0.01
308.497	-0.09
308.709	-0.03
308.921	0
309.133	-0.01
309.346	-0.01
309.558	0.02
309.77	0.02
309.982	0.04
310.194	0.04
310.406	-0.03
310.617	0.04
310.829	0.03
311.041	-0.01
311.253	-0.05
311.465	-0.02
311.677	-0.01
311.889	-0.05
312.101	-0.04
312.313	0
312.524	0.02
312.736	-0.06
312.948	-0.01
313.16	0.08
313.372	0.02
313.583	-0.02
313.795	-0.04
314.007	-0.06
314.218	0.04
314.43	-0.03
314.642	-0.03
314.853	-0.04
315.065	0
315.277	-0.01
315.488	0
315.7	0.05
315.912	0.03
316.123	-0.03
316.335	-0.03
316.546	0.11
316.758	-0
316.969	-0.03
317.181	-0.06
317.392	-0.03
317.604	0.01
317.815	-0.04
318.026	-0.03
318.238	0.01
318.449	0.03
318.661	-0.07
318.872	-0.08
319.083	-0.08
319.295	0
319.506	-0.02
319.717	0.01
319.929	-0.02
320.14	0
320.351	-0
320.562	-0.06
320.774	-0.01
320.985	0.01
321.196	-0.04
321.407	-0.07
321.618	0.04
321.829	0.01
322.041	-0.02
322.252	-0.02
322.463	0.02
322.674	0.04
322.885	-0.09
323.096	-0.03
323.307	-0.01
323.518	-0.01
323.729	-0.05
323.94	-0.07
324.151	-0.03
324.362	-0.01
324.573	-0
324.784	-0.05
324.995	0.02
325.206	-0
325.417	-0.05
325.628	-0.06
325.838	0.01
326.049	-0.01
326.26	0
326.471	-0.05
326.682	0.04
326.892	0.01
327.103	-0.08
327.314	-0.07
327.525	0.02
327.735	0
327.946	-0.04
328.157	-0.03
328.368	0.01
328.578	-0.02
328.789	0.06
328.999	-0.05
329.21	-0.03
329.421	0.03
329.631	-0.03
329.842	-0.04
330.052	-0
330.263	0.01
330.473	-0
330.684	0.01
330.894	-0.05
331.105	-0.02
331.315	-0.03
331.526	-0.07
331.736	0.03
331.947	-0.01
332.157	-0.02
332.367	-0.11
332.578	-0
332.788	0.03
332.999	0
333.209	-0.03
333.419	-0.09
333.629	0.02
333.84	-0.02
334.05	0
334.26	0
334.47	-0.04
334.681	0.01
334.891	-0.05
335.101	0.04
335.311	0.08
335.521	-0.04
335.732	-0.06
335.942	0.01
336.152	-0
336.362	-0
336.572	0.03
336.782	0.06
336.992	-0.04
337.202	-0.03
337.412	-0.02
337.622	-0.01
337.832	-0.01
338.042	-0.03
338.252	-0.04
338.462	-0.01
338.672	0.02
338.882	-0.09
339.092	-0.01
339.302	0.08
339.511	0.05
339.721	-0.06
339.931	-0.06
340.141	0.01
340.351	0.07
340.561	0
340.77	-0.04
340.98	-0
341.19	0.02
341.4	-0.04
341.609	-0.06
341.819	-0.01
342.029	-0.08
342.238	-0.01
342.448	-0.02
342.658	0.04
342.867	-0.02
343.077	-0.01
343.286	-0.02
343.496	-0
343.706	0.06
343.915	-0.06
344.125	0.03
344.334	-0.01
344.544	-0.09
344.753	-0.04
344.963	-0.03
345.172	-0.02
345.381	-0.05
345.591	-0.03
345.8	-0.06
346.01	0.09
346.219	0.06
346.428	-0.19
346.638	0.01
346.847	-0.03
347.056	0.04
347.266	-0.03
347.475	-0.04
347.684	-0.02
347.893	0.01
348.103	0.01
348.312	-0.01
348.521	-0.03
348.73	-0.03
348.94	0
349.149	-0
349.358	-0.03
349.567	-0.01
349.776	-0.06
349.985	-0.04
350.194	0
350.403	0.02
350.612	-0.06
350.821	-0.03
351.03	-0.04
351.239	-0.08
351.448	-0.02
351.657	-0.06
351.866	0.04
352.075	-0.02
352.284	0
352.493	-0.04
352.702	0.03
352.911	-0.01
353.12	0.02
353.329	-0.03
353.538	-0.01
353.746	-0
353.955	-0.03
354.164	-0.04
354.373	-0.02
354.582	0.02
354.79	0.01
354.999	0.01
355.208	-0.02
355.416	0.01
355.625	-0.05
355.834	-0.01
356.042	-0.01
356.251	-0.02
356.46	-0.06
356.668	0.03
356.877	0.05
357.085	0.02
357.294	-0.13
357.503	0.02
357.711	0
357.92	0.12
358.128	-0.01
358.337	0
358.545	-0.02
358.754	-0.05
358.962	0.01
359.17	-0.06
359.379	0.01
359.587	0.02
359.796	-0.04
360.004	0
360.212	0.03
360.421	0.04
360.629	-0.04
360.837	-0.01
361.046	0.07
361.254	0.06
361.462	-0.02
361.67	-0.07
361.879	-0.02
362.087	0.03
362.295	-0
362.503	0.01
362.711	-0.05
362.92	-0.03
363.128	-0
363.336	-0.02
363.544	-0.06
363.752	-0.01
363.96	-0.05
364.168	-0.06
364.376	-0.03
364.584	-0.01
364.792	0
365	0.01
365.208	-0.01
365.416	0.01
365.624	0.03
365.832	-0.05
366.04	0.03
366.248	-0
366.456	0.03
366.664	-0.03
366.872	-0.02
367.079	-0.04
367.287	0
367.495	0.03
367.703	-0.05
367.911	-0.05
368.118	-0.03
368.326	-0.04
368.534	-0.04
368.742	-0
368.949	-0.07
369.157	-0.02
369.365	0.03
369.572	-0.04
369.78	-0
369.988	0.04
370.195	-0.02
370.403	0
370.61	-0.01
370.818	-0.03
371.026	-0
371.233	-0.02
371.441	0.02
371.648	-0.07
371.856	-0.02
372.063	-0.02
372.271	-0.01
372.478	-0.05
372.685	-0.08
372.893	-0
373.1	0.01
373.308	-0.03
373.515	0.03
373.722	0.02
373.93	-0.05
374.137	-0
374.344	0.03
374.552	0.01
374.759	-0
374.966	-0.02
375.173	-0.03
375.381	0.01
375.588	-0.02
375.795	-0.09
376.002	-0.05
376.209	-0.06
376.417	-0.04
376.624	-0.02
376.831	0.02
377.038	-0.04
377.245	-0.11
377.452	-0.01
377.659	0
377.866	-0.04
378.073	-0.04
378.28	-0.02
378.487	-0.02
378.694	-0.02
378.901	-0
379.108	-0.04
379.315	-0.01
379.522	0.05
379.729	0
379.936	-0.02
380.143	0
380.35	-0.02
380.557	-0.02
380.763	-0.04
380.97	-0.01
381.177	0.04
381.384	-0.02
381.591	-0.06
381.797	0.01
382.004	-0.01
382.211	0.02
382.418	-0.07
382.624	0.04
382.831	0.03
383.038	-0.04
383.244	-0.01
383.451	-0.02
383.658	0.02
383.864	-0.05
384.071	-0.02
384.277	0.07
384.484	-0.03
384.69	0.03
384.897	-0.03
385.103	-0.03
385.31	-0.07
385.516	-0.04
385.723	-0.04
385.929	-0.01
386.136	-0.07
386.342	-0.02
386.549	-0.04
386.755	0.02
386.961	0
387.168	-0.05
387.374	0.03
387.58	0.04
387.787	-0.03
387.993	-0.02
388.199	-0.04
388.406	-0.04
388.612	-0.02
388.818	-0.05
389.024	-0.02
389.231	-0.03
389.437	0.09
389.643	0.02
389.849	-0.01
390.055	-0
390.261	-0.05
390.467	0.01
390.674	-0.03
390.88	-0.01
391.086	0.02
391.292	-0.06
391.498	0
391.704	-0
391.91	-0.03
392.116	-0.06
392.322	-0.1
392.528	-0.01
392.734	-0.04
392.94	-0
393.146	-0.04
393.352	-0
393.557	-0.04
393.763	-0.02
393.969	-0.01
394.175	-0.05
394.381	-0.02
394.587	-0.04
394.792	-0.06
394.998	0.01
395.204	0.06
395.41	-0.03
395.615	-0.01
395.821	-0.01
396.027	-0
396.233	-0.04
396.438	0.03
396.644	-0.02
396.85	0.03
397.055	-0.03
397.261	-0.04
397.466	-0.06
397.672	-0.01
397.878	0.04
398.083	0.01
398.289	-0.02
398.494	0.07
398.7	-0.03
398.905	-0.09
399.111	0.02
399.316	-0.07
399.522	0.01
399.727	-0.02
399.932	-0.04
400.138	-0.05
400.343	0.02
400.549	0.01
400.754	-0
400.959	0.01
401.165	-0
401.37	-0.01
401.575	0.06
401.78	-0.02
401.986	-0.05
402.191	-0.03
402.396	-0.06
402.601	-0.02
402.807	0
403.012	-0.09
403.217	0.03
403.422	0.01
403.627	-0.03
403.832	-0.01
404.037	-0.01
404.243	-0.02
404.448	-0.04
404.653	-0.01
404.858	0
405.063	0.01
405.268	0
405.473	-0.07
405.678	-0.03
405.883	0.1
406.088	0.02
406.293	-0.04
406.498	-0.05
406.703	0
406.907	-0.04
407.112	-0.05
407.317	0.03
407.522	0.04
407.727	-0.08
407.932	-0.05
408.136	0.09
408.341	-0
408.546	-0.01
408.751	-0.02
408.956	-0.1
409.16	-0.01
409.365	0.01
409.57	-0.07
409.774	-0.05
409.979	-0.01
410.184	-0.02
410.388	-0.06
410.593	0.05
410.798	-0.02
411.002	-0.04
411.207	-0.02
411.411	-0.03
411.616	-0.05
411.82	-0.02
412.025	0.02
412.229	-0.03
412.434	0.01
412.638	0.03
412.843	-0.03
413.047	-0
413.252	-0.05
413.456	-0.05
413.66	0.02
413.865	-0.09
414.069	0.06
414.273	-0.05
414.478	-0.06
414.682	-0.05
414.886	-0.05
415.091	-0.09
415.295	-0.09
415.499	-0.03
415.703	-0
415.908	0
416.112	-0.09
416.316	0.02
416.52	-0.05
416.724	-0.09
416.929	-0.08
417.133	0.08
417.337	-0.05
417.541	-0.06
417.745	-0.03
417.949	-0.02
418.153	-0.02
418.357	-0.04
418.561	0.08
418.765	-0.02
418.969	0.03
419.173	0.02
419.377	-0.04
419.581	0.06
419.785	-0.03
419.989	-0.1
420.193	-0.09
420.397	-0.01
420.601	0.04
420.804	0.01
421.008	0.04
421.212	-0
421.416	0.04
421.62	-0.02
421.823	-0.04
422.027	0.04
422.231	0.01
422.435	-0.05
422.638	-0.01
422.842	0.01
423.046	-0.03
423.249	0.02
423.453	-0.04
423.657	-0.03
423.86	-0.02
424.064	-0.02
424.268	0.02
424.471	-0.04
424.675	0.09
424.878	0.03
425.082	-0.02
425.285	0.03
425.489	-0.03
425.692	0.01
425.896	-0.04
426.099	0.03
426.303	-0.04
426.506	-0.06
426.71	0.03
426.913	0.02
427.116	0.03
427.32	-0.03
427.523	-0.02
427.726	0.03
427.93	-0.02
428.133	-0.01
428.336	-0.08
428.54	-0.09
428.743	-0.05
428.946	0.01
429.149	-0.04
429.353	-0.02
429.556	-0.01
429.759	-0.02
429.962	-0.06
430.165	-0.08
430.368	-0.06
430.571	-0.03
430.775	-0.02
430.978	-0.04
431.181	0
431.384	-0.04
431.587	-0.03
431.79	-0.03
431.993	-0.09
432.196	-0.04
432.399	-0.03
432.602	0.01
432.805	-0.06
433.008	-0.02
433.211	-0.12
433.414	0.04
433.616	0.01
433.819	0.01
434.022	-0.12
434.225	0.06
434.428	0.04
434.631	0.07
434.833	-0.04
435.036	-0.04
435.239	0.05
435.442	-0.01
435.645	-0.01
435.847	-0.03
436.05	-0.02
436.253	0
436.455	-0.09
436.658	-0.05
436.861	0.01
437.063	-0.03
437.266	-0.02
437.468	0.02
437.671	0.12
437.874	-0.03
438.076	-0.1
438.279	-0.09
438.481	-0.02
438.684	-0.06
438.886	-0.01
439.089	-0.12
439.291	-0.05
439.494	-0.02
439.696	-0.09
439.899	-0.09
440.101	-0.02
440.303	-0.06
440.506	0
440.708	-0.05
440.91	0.02
441.113	-0.06
441.315	0.01
441.517	-0.09
441.72	0.08
441.922	-0.06
442.124	-0.05
442.326	-0.01
442.529	0.06
442.731	-0.1
442.933	0.03
443.135	-0.03
443.337	-0.07
443.539	-0.05
443.742	-0.02
443.944	0.01
444.146	-0.08
444.348	-0.02
444.55	-0.07
444.752	0.01
444.954	-0.07
445.156	-0.03
445.358	-0.08
445.56	0.04
445.762	-0.04
445.964	-0.02
446.166	-0.06
446.368	-0.04
446.57	0.05
446.772	-0.08
446.974	-0.04
447.175	0.03
447.377	-0.05
447.579	-0.07
447.781	-0.11
447.983	0.04
448.184	-0.07
448.386	0
448.588	-0.09
448.79	-0.02
448.991	-0.06
449.193	-0.03
449.395	-0.04
449.597	-0.02
449.798	-0.08
450	0.03
450.202	-0.03
450.403	0
450.605	0.06
450.806	-0
451.008	-0.08
451.21	-0
451.411	-0.02
451.613	-0.03
451.814	-0.06
452.016	-0.02
452.217	0.01
452.419	0.03
452.62	-0.03
452.821	0.02
453.023	0.05
453.224	0.02
453.426	-0.01
453.627	0.01
453.828	-0.01
454.03	-0.03
454.231	-0.06
454.432	-0.08
454.634	0.04
454.835	-0.03
455.036	-0.07
455.238	-0.02
455.439	0.07
455.64	-0.06
455.841	-0.06
456.042	0.06
456.244	0.05
456.445	-0.05
456.646	-0.08
456.847	-0.06
457.048	-0.02
457.249	0.05
457.45	0.19
457.651	-0.07
457.852	0.03
458.054	-0.05
458.255	-0.06
458.456	0.01
458.657	-0.04
458.858	-0.08
459.058	-0.01
459.259	0.03
459.46	-0.02
459.661	-0.05
459.862	0.07
460.063	-0.03
460.264	0.02
460.465	-0.09
460.666	0.06
460.866	-0.04
461.067	0.01
461.268	-0.05
461.469	-0
461.67	0
461.87	-0.04
462.071	-0.11
462.272	-0.02
462.473	-0.01
462.673	0.01
462.874	-0.09
463.075	0.04
463.275	-0.06
463.476	-0.02
463.676	-0.02
463.877	-0.03
464.078	-0.02
464.278	0.01
464.479	-0.06
464.679	-0.06
464.88	-0.04
465.08	0.03
465.281	-0.04
465.481	-0.02
465.682	-0.01
465.882	-0.01
466.083	0.02
466.283	-0.04
466.483	0.01
466.684	-0.07
466.884	-0.03
467.085	0
467.285	0.01
467.485	-0.07
467.686	-0.06
467.886	-0.04
468.086	-0.02
468.286	-0.02
468.487	-0.01
468.687	-0.05
468.887	-0.09
469.087	0.02
469.287	-0.02
469.488	-0.07
469.688	0.01
469.888	0.02
470.088	0.01
470.288	0.01
470.488	0.04
470.688	-0.06
470.888	-0.06
471.088	-0.07
471.288	0.05
471.488	-0
471.688	0.02
471.888	-0.05
472.088	0.01
472.288	0.03
472.488	-0.04
472.688	-0.07
472.888	-0
473.088	-0.01
473.288	-0.01
473.488	-0.01
473.688	0.04
473.887	-0
474.087	-0.02
474.287	0.01
474.487	-0.05
474.687	0.04
474.886	-0.03
475.086	-0.01
475.286	-0.03
475.486	-0.01
475.685	-0.02
475.885	-0.04
476.085	-0.02
476.284	-0.03
476.484	-0.04
476.684	-0.01
476.883	0.02
477.083	-0.02
477.282	-0.02
477.482	0.03
477.681	0.02
477.881	-0
478.08	-0.06
478.28	-0.03
478.479	0.03
478.679	0.05
478.878	-0.03
479.078	-0.01
479.277	-0.03
479.477	-0
479.676	0.01
479.875	-0.02
480.075	-0.04
480.274	0.01
480.473	0
480.673	-0.06
480.872	0.03
481.071	-0.01
481.271	0.03
481.47	-0.02
481.669	-0.02
481.868	-0.03
482.067	-0.04
482.267	-0.03
482.466	-0.05
482.665	-0.05
482.864	-0.06
483.063	-0.04
483.262	0.01
483.461	0.03
483.661	-0
483.86	-0
484.059	0.02
484.258	-0.03
484.457	-0
484.656	-0.02
484.855	0.02
485.054	-0.06
485.253	-0.02
485.452	-0.06
485.651	-0.01
485.849	0
486.048	-0.05
486.247	-0.04
486.446	0
486.645	0
486.844	-0.02
487.043	-0.02
487.241	0.02
487.44	-0.03
487.639	0.01
487.838	0.02
488.037	-0.01
488.235	0.06
488.434	-0.02
488.633	-0.04
488.831	-0.02
489.03	0.03
489.229	-0.02
489.427	-0.01
489.626	0.02
489.825	0.03
490.023	-0.02
490.222	-0.02
490.42	0
490.619	0.02
490.817	0
491.016	-0.01
491.214	-0.01
491.413	-0.02
491.611	-0.03
491.81	-0.02
492.008	-0.01
492.207	0
492.405	-0.01
492.604	-0.04
492.802	-0.02
493	-0.02
493.199	-0
493.397	-0.02
493.595	-0.01
493.794	-0.02
493.992	0.03
494.19	-0.02
494.388	0
494.587	-0.04
494.785	-0.02
494.983	-0.05
495.181	-0.01
495.379	-0.01
495.578	-0.03
495.776	-0.01
495.974	0.01
496.172	0.01
496.37	0
496.568	-0.05
496.766	-0.04
496.964	0.01
497.162	-0.02
497.36	-0.02
497.558	0.02
497.756	-0
497.954	-0.01
498.152	-0.01
498.35	-0.01
498.548	-0.01
498.746	0
498.944	-0.04
499.142	-0.04
499.34	-0.03
499.538	0
499.736	-0.03
499.933	0.01
500.131	0.01
500.329	-0.03
500.527	0.02
500.725	0
500.922	0.01
501.12	0
501.318	0
501.516	-0.03
501.713	0.01
501.911	-0.02
502.109	-0.02
502.306	0.01
502.504	-0
502.701	-0.02
502.899	-0.02
503.097	0.03
503.294	-0
503.492	-0.02
503.689	-0.01
503.887	0.01
504.084	0.04
504.282	-0
504.479	-0.04
504.677	-0.02
504.874	-0.05
505.072	0.01
505.269	-0.02
505.466	0.02
505.664	0.01
505.861	-0.04
506.059	-0.04
506.256	-0
506.453	-0.03
506.651	0.05
506.848	0.01
507.045	-0.01
507.242	-0
507.44	-0.01
507.637	-0.02
507.834	-0.02
508.031	0.03
508.229	-0.03
508.426	0
508.623	0.02
508.82	-0.01
509.017	-0.03
509.214	-0.03
509.411	0.01
509.608	-0.04
509.805	-0
510.003	-0.01
510.2	-0.03
510.397	0.02
510.594	-0.05
510.791	-0.03
510.988	-0.01
511.184	0.02
511.381	-0.02
511.578	-0.02
511.775	0.02
511.972	-0.03
512.169	-0.02
512.366	-0.02
512.563	0.01
512.76	-0.01
512.956	-0.01
513.153	-0.02
513.35	0.02
513.547	-0.03
513.744	-0.03
513.94	-0.04
514.137	0.01
514.334	-0
514.53	-0.02
514.727	-0.01
514.924	0.05
515.12	-0.02
515.317	-0.04
515.514	-0.02
515.71	-0.03
515.907	-0
516.103	-0.02
516.3	0.02
516.497	0.01
516.693	0.04
516.89	-0.03
517.086	-0.03
517.283	0.05
517.479	-0
517.676	-0.02
517.872	-0.01
518.068	-0.03
518.265	-0.02
518.461	-0.01
518.658	-0.01
518.854	0.02
519.05	-0.03
519.247	-0.03
519.443	-0
519.639	0
519.836	-0.01
520.032	-0.02
520.228	-0.02
520.424	0.03
520.621	0.01
520.817	-0.01
521.013	-0.01
521.209	0.01
521.405	0.05
521.601	-0.01
521.798	0.01
521.994	0.01
522.19	-0.04
522.386	-0.04
522.582	-0.02
522.778	-0.01
522.974	-0.03
523.17	-0.01
523.366	-0.03
523.562	0.02
523.758	0
523.954	-0.04
524.15	-0.01
524.346	0.01
524.542	-0.04
524.738	-0.04
524.934	-0.01
525.129	0.01
525.325	0.01
525.521	-0
525.717	0
525.913	-0.02
526.109	-0.02
526.304	-0.01
526.5	-0.01
526.696	0.01
526.892	-0.01
527.087	-0
527.283	-0
527.479	0.02
527.674	-0.04
527.87	-0.01
528.066	-0.02
528.261	0.03
528.457	-0.01
528.653	-0.01
528.848	-0.03
529.044	-0.01
529.239	-0.01
529.435	0.04
529.63	-0.01
529.826	0.03
530.021	0.01
530.217	-0.01
530.412	-0.02
530.608	-0.03
530.803	0
530.999	-0.02
531.194	-0.05
531.389	0
531.585	-0.06
531.78	-0.02
531.975	-0.03
532.171	0.01
532.366	-0.02
532.561	-0.01
532.757	-0.03
532.952	-0.01
533.147	-0
533.342	0.01
533.538	-0.01
533.733	-0
533.928	0
534.123	-0.03
534.318	-0.04
534.513	-0.02
534.709	-0.02
534.904	-0.01
535.099	-0.01
535.294	-0.02
535.489	0
535.684	-0.02
535.879	-0.05
536.074	0.01
536.269	-0.04
536.464	-0
536.659	-0.01
536.854	-0.02
537.049	0
537.244	-0.02
537.439	-0.01
537.634	0
537.828	-0
538.023	-0
538.218	-0.04
538.413	-0.02
538.608	-0.04
538.803	0.01
538.997	-0.05
539.192	0.02
539.387	0
539.582	-0.01
539.776	-0
539.971	-0.02
540.166	-0.01
540.36	-0.05
540.555	0
540.75	-0.03
540.944	0
541.139	-0.03
541.334	-0.02
541.528	-0.01
541.723	0.01
541.917	-0.04
542.112	-0.04
542.306	-0
542.501	-0.02
542.695	-0.02
542.89	-0.03
543.084	-0.02
543.279	-0.01
543.473	-0.01
543.668	0.01
543.862	-0.03
544.056	0.01
544.251	-0.01
544.445	-0
544.64	-0
544.834	-0.04
545.028	-0.01
545.222	0.01
545.417	0.02
545.611	-0.01
545.805	-0.03
546	-0.02
546.194	-0.03
546.388	-0.04
546.582	-0.01
546.776	-0.02
546.97	0.02
547.165	-0.01
547.359	0
547.553	-0.03
547.747	-0.01
547.941	-0.02
548.135	-0.01
548.329	0.03
548.523	-0.03
548.717	-0
548.911	-0.02
549.105	-0
549.299	-0.02
549.493	0
549.687	0
549.881	0.01
550.075	-0.01
550.269	-0.04
550.463	0.02
550.657	-0.03
550.85	0.01
551.044	-0.02
551.238	-0.01
551.432	-0.03
551.626	-0.04
551.82	0
552.013	-0.02
552.207	-0.01
552.401	0
552.594	-0.03
552.788	-0.03
552.982	0
553.176	-0.02
553.369	-0.01
553.563	0.01
553.756	-0.06
553.95	-0.05
554.144	-0.02
554.337	0.03
554.531	-0.02
554.724	-0.01
554.918	-0.02
555.111	0.01
555.305	0.01
555.498	0.03
555.692	0.02
555.885	-0.01
556.079	-0
556.272	-0
556.466	0.01
556.659	0
556.852	-0.01
557.046	-0.02
557.239	0.03
557.432	-0.04
557.626	-0.02
557.819	0
558.012	-0
558.206	0.02
558.399	-0.01
558.592	-0.01
558.785	-0.01
558.979	0.01
559.172	-0.02
559.365	-0.01
559.558	-0
559.751	-0.02
559.944	0.04
560.138	-0.03
560.331	-0.02
560.524	-0
560.717	0.01
560.91	-0.02
561.103	0.01
561.296	-0.01
561.489	0.02
561.682	-0
561.875	0.03
562.068	0
562.261	0.01
562.454	0.04
562.647	0.01
562.84	-0.01
563.032	-0.01
563.225	-0
563.418	-0.02
563.611	-0.01
563.804	-0.01
563.997	-0.03
564.19	-0.05
564.382	-0.06
564.575	-0.03
564.768	-0.02
564.961	-0
565.153	-0.03
565.346	0.01
565.539	0
565.731	-0.01
565.924	0.01
566.117	-0
566.309	-0.01
566.502	0
566.695	-0.02
566.887	-0.01
567.08	-0.04
567.272	-0.02
567.465	-0.03
567.657	0
567.85	0.01
568.042	-0.02
568.235	0.02
568.427	0.01
568.62	-0.02
568.812	0
569.005	0
569.197	-0.05
569.389	-0
569.582	0.01
569.774	0.01
569.966	-0.04
570.159	-0.08
570.351	-0
570.543	-0.03
570.736	-0.01
570.928	-0.05
571.12	-0.01
571.312	-0.02
571.505	-0.02
571.697	0.02
571.889	-0.03
572.081	-0.02
572.273	-0.02
572.465	0.02
572.658	-0.01
572.85	0
573.042	0.01
573.234	-0.01
573.426	0.03
573.618	-0.03
573.81	-0
574.002	0.03
574.194	0.04
574.386	-0.04
574.578	-0.06
574.77	-0.03
574.962	-0.03
575.154	-0.06
575.346	-0.02
575.538	-0.01
575.729	-0.04
575.921	-0.02
576.113	-0.01
576.305	0.03
576.497	-0.03
576.689	-0.03
576.88	-0.06
577.072	0.03
577.264	-0.02
577.456	0.01
577.647	-0.05
577.839	-0.02
578.031	0.02
578.223	-0.03
578.414	-0.03
578.606	0.01
578.798	-0.01
578.989	-0.03
579.181	-0.02
579.372	-0.02
579.564	-0.03
579.755	-0.02
579.947	-0.02
580.139	-0
580.33	-0.07
580.522	-0.03
580.713	-0.08
580.905	-0.02
581.096	0.01
581.287	-0.01
581.479	-0.01
581.67	0.01
581.862	-0.02
582.053	-0.04
582.244	-0.05
582.436	-0.05
582.627	-0.02
582.818	-0.07
583.01	-0.03
583.201	0.01
583.392	0
583.583	-0.01
583.775	-0.02
583.966	-0.02
584.157	-0.01
584.348	-0.01
584.54	-0.04
584.731	0
584.922	-0.01
585.113	-0.03
585.304	0
585.495	0.04
585.686	-0.03
585.877	-0.01
586.068	-0.02
586.259	-0
586.45	-0.02
586.641	-0.03
586.832	-0.05
587.023	-0.02
587.214	-0.02
587.405	-0.01
587.596	-0.04
587.787	0.02
587.978	-0
588.169	-0.04
588.36	-0.02
588.551	-0
588.742	-0.03
588.932	-0
589.123	-0.01
589.314	0.01
589.505	0.01
589.696	-0
589.886	-0.04
590.077	-0.05
590.268	-0
590.458	-0.05
590.649	-0.05
590.84	0.01
591.03	-0.04
591.221	-0.05
591.412	-0.04
591.602	-0.01
591.793	0.03
591.984	-0.03
592.174	-0.02
592.365	0.03
592.555	-0.06
592.746	0.01
592.936	0.01
593.127	0.01
593.317	0.02
593.508	-0.04
593.698	-0.02
593.889	0.02
594.079	-0
594.269	-0.03
594.46	-0.02
594.65	-0.04
594.84	-0.01
595.031	-0.06
595.221	-0.04
595.411	-0.05
595.602	0.03
595.792	-0
595.982	-0.03
596.172	0.04
596.363	-0
596.553	-0.01
596.743	-0.03
596.933	0
597.123	0.01
597.314	-0.05
597.504	-0.04
597.694	0.01
597.884	-0.01
598.074	-0.02
598.264	-0.03
598.454	-0.01
598.644	-0.03
598.834	-0.01
599.024	-0.05
599.214	-0.02
599.404	0.05
599.594	-0.04
599.784	-0.04
599.974	0.03
600.164	-0.01
600.354	-0.04
600.544	-0.04
600.734	-0
600.924	0.01
601.114	-0.04
601.303	-0.01
601.493	-0.03
601.683	0
601.873	-0.02
602.063	-0.06
602.252	0.01
602.442	-0.06
602.632	-0.04
602.821	-0.06
603.011	0.01
603.201	-0.02
603.39	-0.04
603.58	-0.02
603.77	-0.02
603.959	0.01
604.149	-0.01
604.339	-0.03
604.528	0.05
604.718	0.01
604.907	-0.02
605.097	-0.02
605.286	-0.04
605.476	0.01
605.665	-0
605.855	-0.02
606.044	0
606.234	0.01
606.423	-0.04
606.612	-0.05
606.802	-0.02
606.991	0.02
607.181	0
607.37	-0.03
607.559	-0.02
607.749	-0.07
607.938	-0.03
608.127	-0.02
608.316	-0.02
608.506	0.03
608.695	-0.01
608.884	-0.02
609.073	-0.03
609.263	0.01
609.452	-0.01
609.641	0.02
609.83	-0.06
610.019	-0.03
610.208	-0.04
610.397	-0.02
610.586	0.01
610.775	-0.04
610.965	-0.02
611.154	-0.06
611.343	-0
611.532	-0.02
611.721	-0.05
611.91	-0.04
612.099	0
612.287	-0.02
612.476	-0.01
612.665	-0.01
612.854	-0.05
613.043	0.03
613.232	-0.01
613.421	-0.05
613.61	-0.01
613.798	-0.04
613.987	-0
614.176	-0.02
614.365	-0
614.554	-0.03
614.742	0.01
614.931	-0.04
615.12	-0
615.309	-0.04
615.497	0
615.686	-0.07
615.875	-0.02
616.063	-0.01
616.252	-0.04
616.44	-0.03
616.629	-0.01
616.818	0.01
617.006	-0.01
617.195	-0.04
617.383	0.02
617.572	-0.03
617.76	-0.05
617.949	-0.01
618.137	0.02
618.326	0
618.514	-0.04
618.703	-0.06
618.891	0.04
619.079	-0.06
619.268	-0.02
619.456	-0.06
619.644	0.03
619.833	0
620.021	-0.03
620.209	-0.05
620.398	-0.01
620.586	-0.03
620.774	-0.01
620.962	-0.03
621.151	0.04
621.339	-0
621.527	-0.08
621.715	-0.06
621.903	-0.06
622.092	-0.05
622.28	-0.01
622.468	0
622.656	-0.01
622.844	-0.02
623.032	-0.02
623.22	-0.06
623.408	0.03
623.596	0.01
623.784	0.01
623.972	-0.04
624.16	-0.05
624.348	0.02
624.536	-0.02
624.724	-0.01
624.912	0.03
625.1	0.01
625.288	-0.04
625.476	-0.03
625.664	0
625.851	-0.02
626.039	-0.02
626.227	-0.02
626.415	-0.02
626.603	-0.09
626.79	-0.04
626.978	-0.01
627.166	0.01
627.354	-0
627.541	-0.07
627.729	-0.06
627.917	0.01
628.104	0.05
628.292	-0.05
628.48	-0.02
628.667	-0.01
628.855	-0.02
629.042	0
629.23	-0.03
629.418	-0.02
629.605	-0.03
629.793	-0.03
629.98	-0.04
630.168	-0.01
630.355	-0
630.543	-0.02
630.73	-0.04
630.917	0.03
631.105	0.03
631.292	-0.04
631.48	-0.05
631.667	0.03
631.854	-0.03
632.042	-0.03
632.229	-0.06
632.416	-0.01
632.604	-0.01
632.791	-0.05
632.978	-0.02
633.165	0
633.353	0.02
633.54	0.05
633.727	-0.06
633.914	-0.05
634.101	-0.09
634.289	-0
634.476	-0.02
634.663	-0.04
634.85	0.01
635.037	-0.07
635.224	-0.05
635.411	-0.02
635.598	-0.01
635.785	-0.05
635.972	-0.03
636.159	0
636.346	-0.06
636.533	-0.03
636.72	-0.03
636.907	-0.04
637.094	-0.01
637.281	-0.03
637.468	0.02
637.655	-0.03
637.842	-0.04
638.029	-0.02
638.215	0.02
638.402	0.01
638.589	-0.04
638.776	-0.04
638.963	-0.06
639.149	0.04
639.336	0.05
639.523	-0.05
639.709	-0.03
639.896	-0.03
640.083	0.04
640.27	-0.01
640.456	-0.03
640.643	-0.03
640.829	-0.07
641.016	0.02
641.203	-0.04
641.389	0
641.576	0
641.762	-0.03
641.949	-0.03
642.135	-0.01
642.322	-0.02
642.508	-0.09
642.695	-0.01
642.881	-0.04
643.068	-0.03
643.254	-0.02
643.441	0.02
643.627	-0.01
643.813	-0.03
644	0
644.186	-0.04
644.372	0.01
644.559	0.02
644.745	-0.06
644.931	-0.04
645.118	-0.01
645.304	-0.01
645.49	-0.04
645.676	-0.06
645.862	-0.02
646.049	0.03
646.235	0.01
646.421	0.02
646.607	0.03
646.793	-0.05
646.979	-0.06
647.165	-0.03
647.352	-0.02
647.538	0.04
647.724	-0.03
647.91	0
648.096	0
648.282	-0.01
648.468	-0.02
648.654	0
648.84	-0.02
649.026	-0.01
649.212	-0.05
649.397	-0.05
649.583	-0.05
649.769	0.03
649.955	-0.03
650.141	0.01
650.327	0.04
650.513	-0.04
650.698	0
650.884	-0.1
651.07	-0.01
651.256	-0
651.442	-0.01
651.627	-0.06
651.813	-0.01
651.999	-0.01
652.184	-0.02
652.37	-0.03
652.556	-0.04
652.741	0.04
652.927	-0.09
653.113	-0.03
653.298	-0
653.484	-0.02
653.669	-0.07
653.855	-0.01
654.04	-0
654.226	-0.01
654.412	-0.07
654.597	-0.04
654.782	-0
654.968	0.03
655.153	0
655.339	-0.04
655.524	-0.05
655.71	0.03
655.895	-0.03
656.08	-0.02
656.266	-0.02
656.451	-0.01
656.636	-0.05
656.822	-0
657.007	-0.05
657.192	-0.04
657.378	-0.06
657.563	-0.03
657.748	0.01
657.933	-0.01
658.118	-0.04
658.304	-0.02
658.489	0.02
658.674	0.01
658.859	-0.06
659.044	-0.02
659.229	-0.01
659.414	-0.07
659.599	-0.02
659.785	-0.06
659.97	-0.01
660.155	-0.01
660.34	-0.01
660.525	-0.04
660.71	-0
660.895	-0.02
661.08	-0.06
661.264	-0.02
661.449	-0.01
661.634	-0.01
661.819	0.02
662.004	0.04
662.189	-0.09
662.374	-0.04
662.559	-0.04
662.743	-0.07
662.928	-0.01
663.113	-0.03
663.298	-0.06
663.483	-0.02
663.667	0.01
663.852	-0.04
664.037	0
664.221	-0.02
664.406	-0
664.591	0.03
664.775	-0.05
664.96	-0.09
665.145	-0
665.329	-0.02
665.514	-0.02
665.698	-0.03
665.883	-0.09
666.068	0.05
666.252	-0.03
666.437	-0.08
666.621	-0.02
666.806	0.03
666.99	-0.05
667.174	-0.05
667.359	0.02
667.543	-0.05
667.728	-0.02
667.912	-0.11
668.096	0.03
668.281	-0.05
668.465	-0.06
668.649	-0.02
668.834	0
669.018	-0.01
669.202	-0.05
669.387	-0.03
669.571	0.02
669.755	-0.06
669.939	-0.04
670.124	0.02
670.308	0.02
670.492	0.02
670.676	-0.04
670.86	-0.03
671.044	-0.05
671.228	0.04
671.413	-0.09
671.597	-0.07
671.781	-0.07
671.965	0.01
672.149	-0.01
672.333	-0.04
672.517	-0.06
672.701	-0.03
672.885	-0.06
673.069	-0.09
673.253	0.05
673.437	-0
673.621	-0.08
673.804	-0.03
673.988	-0.06
674.172	-0.06
674.356	-0.07
674.54	-0
674.724	0.02
674.908	-0.02
675.091	0.03
675.275	-0.04
675.459	-0.02
675.643	0.07
675.826	-0.02
676.01	-0.05
676.194	-0.02
676.377	0.03
676.561	0.01
676.745	-0.01
676.928	-0.02
677.112	0.08
677.296	-0.08
677.479	-0.03
677.663	-0.06
677.846	-0.02
678.03	0.03
678.213	-0.04
678.397	0.03
678.58	-0.06
678.764	-0.05
678.947	-0.05
679.131	-0.1
679.314	0.09
679.498	-0.01
679.681	-0.02
679.865	0.02
680.048	0.01
680.231	-0.02
680.415	-0.02
680.598	-0.02
680.781	-0.06
680.965	-0.05
681.148	-0.03
681.331	-0.07
681.514	-0.02
681.698	-0.04
681.881	0.02
682.064	-0
682.247	0.03
682.43	-0.1
682.614	0.02
682.797	0.04
682.98	-0.01
683.163	-0.06
683.346	0.02
683.529	-0.04
683.712	-0.05
683.895	0
684.078	-0.06
684.261	-0.02
684.444	-0.02
684.627	-0.01
684.81	-0.01
684.993	-0.07
685.176	-0.01
685.359	-0.06
685.542	-0.04
685.725	0.05
685.908	-0.02
686.091	-0.05
686.274	0.03
686.457	0.02
686.639	-0.05
686.822	0.05
687.005	-0.04
687.188	-0
687.371	0.08
687.553	0.02
687.736	0
687.919	0.05
688.102	0.04
688.284	-0.04
688.467	-0.07
688.65	-0.09
688.832	-0.02
689.015	-0.04
689.197	-0.11
689.38	0.05
689.563	0.05
689.745	-0.05
689.928	-0.08
690.11	-0.05
690.293	0.02
690.475	-0.06
690.658	0.02
690.84	-0.03
691.023	-0.04
691.205	-0.03
691.388	-0.04
691.57	0.02
691.752	0
691.935	-0.13
692.117	-0.06
692.3	0.02
692.482	-0.02
692.664	0.02
692.847	0
693.029	-0.04
693.211	0.01
693.393	-0.05
693.576	-0.03
693.758	-0.02
693.94	-0.08
694.122	-0.04
694.304	-0.03
694.487	-0.06
694.669	0.1
694.851	-0.06
695.033	-0.03
695.215	-0.11
695.397	-0.09
695.579	-0.02
695.761	-0.07
695.943	-0.12
696.125	0.04
696.308	0.02
696.49	-0.14
696.671	0.08
696.853	-0.02
697.035	0.11
697.217	-0.03
697.399	0
697.581	-0.01
697.763	-0.03
697.945	-0.07
698.127	-0.04
698.309	0.02
698.491	-0.03
698.672	0.04
698.854	-0.02
699.036	0.09
699.218	-0.04
699.399	-0
699.581	0
699.763	0.01
699.945	-0.09
700.126	-0.05
700.308	-0.02
700.49	-0.05
700.671	-0.08
700.853	-0.01
701.035	-0.07
701.216	-0.04
701.398	-0.07
701.579	-0.05
701.761	0.05
701.943	-0.07
702.124	-0.06
702.306	-0.04
702.487	0.08
702.669	-0.01
702.85	-0.04
703.031	-0.09
703.213	0.05
703.394	0.06
703.576	-0.05
703.757	0.05
703.938	-0
704.12	0.17
704.301	-0.07
704.483	-0.05
704.664	-0.06
704.845	0.04
705.026	0.05
705.208	-0.05
705.389	0.01
705.57	-0.02
705.751	-0.1
705.933	-0.04
706.114	0
706.295	-0.04
706.476	-0.09
706.657	0.03
706.838	-0.03
707.02	0.05
707.201	-0.07
707.382	-0.02
707.563	-0
707.744	-0.04
707.925	-0.05
708.106	-0.12
708.287	-0.03
708.468	0.07
708.649	-0.02
708.83	0.03
709.011	-0.01
709.192	0.03
709.373	-0.15
709.554	-0
709.734	0.08
709.915	0.05
710.096	-0.04
710.277	-0.13
710.458	0.01
710.639	-0.02
710.819	-0.12
711	-0.09
711.181	0.04
711.362	0.05
711.542	-0.04
711.723	-0.04
711.904	0.07
712.085	-0.07
712.265	0.04
712.446	-0.08
712.627	-0.02
712.807	0
712.988	0.01
713.168	-0.14
713.349	-0.01
713.53	-0.1
713.71	-0.12
713.891	-0.06
714.071	-0.04
714.252	-0.06
714.432	-0.1
714.613	-0.15
714.793	-0.05
714.974	0.05
715.154	0.06
715.334	-0.03
715.515	0.03
715.695	-0.11
715.876	-0.05
716.056	-0.02
716.236	-0.06
716.417	-0.06
716.597	-0.03
716.777	0.04
716.957	-0.06
717.138	0
717.318	-0.03
717.498	-0.11
717.678	-0.01
717.859	-0.01
718.039	-0.09
718.219	0.02
718.399	0.02
718.579	-0.1
718.759	-0.08
718.939	-0.03
719.12	0
719.3	0.1
719.48	-0.12
719.66	-0.16
719.84	0.05
720.02	0
720.2	-0.15
720.38	-0.03
720.56	0.07
720.74	-0.04
720.92	-0.04
721.1	0.06
721.279	0.07
721.459	-0.13
721.639	-0.1
721.819	-0.06
721.999	-0.07
722.179	0.04
722.359	-0.15
722.538	-0
722.718	-0.07
722.898	-0.01
723.078	-0.03
723.257	-0.04
723.437	-0.06
723.617	-0.02
723.797	-0.04
723.976	-0
724.156	0.08
724.336	0.08
724.515	0.13
724.695	-0.08
724.874	0.04
725.054	0.07
725.234	-0.07
725.413	0.01
725.593	-0.1
725.772	-0.03
725.952	-0.15
726.131	-0.04
726.311	-0.1
726.49	-0.05
726.67	-0.12
726.849	-0.06
727.028	-0.01
727.208	-0.03
727.387	0
727.567	-0.05
727.746	-0.1
727.925	-0.06
728.105	-0.11
728.284	-0.01
728.463	-0.04
728.643	0.02
728.822	-0.15
729.001	-0.07
729.18	-0.01
729.359	0
729.539	-0.1
729.718	-0.03
729.897	0.03
730.076	-0.08
730.255	-0.14
730.434	0.01
730.614	0.06
730.793	0.04
730.972	-0.03
731.151	-0.02
731.33	0.11
731.509	-0.03
731.688	-0
731.867	-0.06
732.046	-0.17
732.225	0.14
732.404	-0.15
732.583	0.01
732.762	-0.01
732.941	0.06
733.12	0.02
733.298	-0.06
733.477	0.07
733.656	-0.01
733.835	-0.03
734.014	0.03
734.193	-0.01
734.371	0.1
734.55	0.02
734.729	-0.12
734.908	0
735.086	-0.05
735.265	0.07
735.444	-0.17
735.623	-0.13
735.801	-0.06
735.98	0.05
736.159	-0.1
736.337	0.12
736.516	0.03
736.694	-0.03
736.873	-0.02
737.052	0.04
737.23	0.04
737.409	-0.01
737.587	0.16
737.766	-0.09
737.944	-0.08
738.123	0.01
738.301	-0.01
738.479	-0.18
738.658	0.01
738.836	-0.22
739.015	-0
739.193	0.04
739.371	-0.2
739.55	0.01
739.728	-0.19
739.906	0.1
740.085	0.09
740.263	-0.04
740.441	-0.11
740.62	0.21
740.798	0.09
740.976	-0.15
741.154	-0.11
741.332	0.18
741.511	0.01
741.689	-0.03
741.867	-0.06
742.045	0.08
742.223	-0.11
742.401	-0.13
742.579	-0.05
742.757	-0.02
742.935	-0.24
743.114	-0.03
743.292	-0.12
743.47	-0.03
743.648	-0.08
743.826	-0.19
744.004	0.01
744.181	-0.06
744.359	-0.08
744.537	0.01
744.715	-0.07
744.893	0.06
745.071	-0.03
745.249	-0.09
745.427	-0.05
745.605	-0.05
745.782	-0.04
745.96	0.09
746.138	0.05
746.316	0.02
746.493	-0.04
746.671	-0.09
746.849	-0.05
747.027	0.13
747.204	-0.1
747.382	-0.03
747.56	-0.17
747.737	-0.07
747.915	-0.11
748.093	0.07
748.27	-0.02
748.448	-0.17
748.625	-0.1
748.803	-0.17
748.98	-0.1
749.158	-0.04
749.335	-0
749.513	-0.09
749.69	-0.04
749.868	-0.13
750.045	0.04
750.223	-0.06
750.4	-0.32
750.578	0.18
750.755	-0.04
750.932	-0.14
751.11	0.13
751.287	-0.18
751.464	-0
751.642	-0.11
751.819	-0.07
751.996	-0.01
752.173	-0.05
752.351	-0.1
752.528	0
752.705	-0.01
752.882	-0.1
753.06	0.02
753.237	-0.02
753.414	0.06
753.591	0.09
753.768	0.01
753.945	-0.13
754.122	-0.09
754.299	0.08
754.476	-0.24
754.654	-0.11
754.831	0.01
755.008	0.01
755.185	-0.11
755.362	-0.07
755.539	-0.04
755.716	-0.17
755.892	-0.03
756.069	-0.05
756.246	-0.03
756.423	-0
756.6	0.08
756.777	-0.04
756.954	-0.03
757.131	-0.06
757.307	-0.15
757.484	-0.07
757.661	0.01
757.838	-0.08
758.015	-0.09
758.191	0.05
758.368	-0.03
758.545	0.13
758.721	0.04
758.898	-0.13
759.075	0.1
759.251	-0.12
759.428	0.12
759.605	-0.07
759.781	-0.03
759.958	0.04
760.134	-0.03
760.311	-0.07
760.488	0.01
760.664	0.09
760.841	-0.06
761.017	-0.13
761.194	-0.01
761.37	-0.06
761.547	0.04
761.723	-0.13
761.899	0.1
762.076	-0.22
762.252	-0.09
762.429	-0
762.605	0.03
762.781	-0.09
762.958	0.07
763.134	-0.01
763.31	-0.11
763.486	0.06
763.663	-0.2
763.839	-0.1
764.015	-0.26
764.191	-0.13
764.368	-0.05
764.544	-0.1
764.72	-0.06
764.896	0.1
765.072	-0.03
765.248	-0.09
765.425	0.02
765.601	-0.08
765.777	0.08
765.953	-0.19
766.129	-0.1
766.305	-0.05
766.481	-0.04
766.657	-0.08
766.833	0.08
767.009	-0.1
767.185	-0.05
767.361	-0.07
767.537	-0.2
767.713	0.16
767.889	-0.08
768.065	-0.04
768.24	-0.25
768.416	-0
768.592	-0.15
768.768	0
768.944	-0.08
769.12	-0.2
769.295	-0.16
769.471	-0.06
769.647	-0.06
769.823	0.17
769.998	-0.17
770.174	-0.15
770.35	0.33
770.525	0.28
770.701	-0.04
770.877	-0.13
771.052	-0.18
771.228	0.15
771.403	0.02
771.579	-0
771.755	0.35
771.93	-0.2
772.106	-0.16
772.281	-0.24
772.457	-0.02
772.632	-0.03
772.808	-0.26
772.983	-0.04
773.159	-0.29
773.334	0.12
773.509	0.05
773.685	-0.05
773.86	0.24
774.036	0.19
774.211	0.1
774.386	-0.04
774.562	-0.01
774.737	0.09
774.912	-0.09
775.087	0.17
775.263	-0.03
775.438	-0.09
775.613	-0.19
775.788	-0.1
775.964	0.15
776.139	0.3
776.314	-0.26
776.489	0.03
776.664	-0.25
776.839	-0.2
777.014	0.12
777.19	0.17
777.365	0.06
777.54	0.16
777.715	-0.06
777.89	-0.11
778.065	-0.16
778.24	0.04
778.415	0.12
778.59	-0.1
778.765	-0.19
778.94	0.08
779.115	-0.01
779.289	-0.09
779.464	0.01
779.639	0.01
779.814	-0.23
779.989	-0.27
780.164	0.15
780.339	0.07
780.513	-0.05
780.688	-0.21
780.863	-0.19
781.038	-0.11
781.212	-0.17
781.387	-0.06
781.562	0.33
781.737	-0.25
781.911	0.14
782.086	-0.09
782.261	-0.06
782.435	0.13
782.61	-0.08
782.784	-0.08
782.959	0.26
783.134	-0.02
783.308	-0.19
783.483	-0.11
783.657	0.25
783.832	0.04
784.006	-0.37
784.181	-0.15
784.355	0.07
784.53	-0.3
784.704	-0.2
784.878	0.03
785.053	-0.12
785.227	0.08
785.402	0.3
785.576	-0.4
785.75	-0.04
785.925	-0.06
786.099	-0.17
786.273	0.03
786.448	0.23
786.622	-0.09
786.796	-0.06
786.97	0.03
787.145	0.31
787.319	-0.24
787.493	-0.07
787.667	-0.38
787.841	-0.04
788.015	-0.06
788.19	-0.09
788.364	0.03
788.538	0.07
788.712	0.11
788.886	0.04
789.06	-0.01
789.234	0.12
789.408	-0.14
789.582	-0.27
789.756	-0.12
789.93	-0.37
790.104	-0.05
790.278	-0.23
790.452	-0.35
790.626	0.14
790.8	-0.3
790.973	0.09
791.147	0.17
791.321	0.2
791.495	-0.01
791.669	-0.21
791.843	-0.11
792.016	0.09
792.19	0.3
792.364	-0.33
792.538	0.36
792.711	0.32
792.885	-0.33
793.059	-0.28
793.233	-0.6
793.406	-0.01
793.58	-0.01
793.754	-0.02
793.927	-0.1
794.101	0.18
794.274	0.01
794.448	-0.03
794.622	-0.23
794.795	0.31
794.969	-0.12
795.142	0.16
795.316	-0
795.489	-0.21
795.663	0.44
795.836	-0.18
796.009	-0.1
796.183	0.25
796.356	0.05
796.53	-0.32
796.703	0.23
796.876	0.23
797.05	-0.28
797.223	-0.06
797.396	0.06
797.57	0.08
797.743	0.12
797.916	-0.03
798.09	0.06
798.263	-0.01
798.436	0.21
798.609	-0.33
798.782	-0.26
798.956	-0.13
799.129	-0.06
799.302	-0.06
799.475	-0.24
799.648	-0.37
799.821	-0.26
799.994	0.05
800.167	-0.49
800.34	-0.01
800.514	-0.24
800.687	-0.19
800.86	-0.22
801.033	-0.26
801.206	0.13
801.379	-0.11
801.551	0.24
801.724	-0.09
801.897	0.52
802.07	-0.17
802.243	-0.46
802.416	-0.03
802.589	-0.31
802.762	-0.1
802.935	-0.23
803.107	0.22
803.28	0.36
803.453	0.13
803.626	-0.59
803.798	-0.06
803.971	-0.38
804.144	0.12
804.317	-0.06
804.489	0.37
804.662	0.03
804.835	0.11
805.007	-0.37
805.18	0.46
805.353	0.08
805.525	0.04
805.698	-0.24
805.87	0.12
806.043	0.24
806.215	-0.34
806.388	-0.39
806.56	-0.16
806.733	-0.04
806.905	-0
807.078	-0.28
807.25	-0.11
807.423	0.05
807.595	-0.03
807.768	-0.02
807.94	0.46
808.112	0.06
808.285	0.22
808.457	-0.1
808.629	-0.18
808.802	0.1
808.974	-0.33
809.146	-0.35
809.318	-0.54
809.491	-0.01
809.663	0.48
809.835	-0.39
810.007	-0.09
810.18	-0.01
810.352	-0.24
810.524	-0.18
810.696	-0.15
810.868	0.19
811.04	-0.24
811.212	-0.26
811.384	0
811.556	0.28
811.728	-0.14
811.901	0.29
812.073	-0.23
812.245	-0.03
812.417	0.02
812.589	-0.65
812.76	-0.16
812.932	0.12
813.104	0.25
813.276	-0.03
813.448	0.21
813.62	0.01
813.792	-0.22
813.964	-0.37
814.136	0.52
814.307	-0.13
814.479	0.16
814.651	-0.07
814.823	0.74
814.995	-0.37
815.166	0.08
815.338	-0.5
815.51	-0.45
815.681	0.81
815.853	-0.2
816.025	-0.02
816.196	0.36
816.368	0.12
816.54	0.12
816.711	-0.54
816.883	-0.1
817.054	0.65
817.226	-0.91
817.398	0.01
817.569	-0.7
817.741	-0.04
817.912	-0.25
818.084	-0.4
818.255	0.35
818.426	-0.65
818.598	-0.04
818.769	-0.32
818.941	0.44
819.112	0.45
819.283	-0.08
819.455	-0.46
819.626	-0.26
819.798	0.02
819.969	-0.13
820.14	-0.14
820.311	-0.11
820.483	0.26
820.654	0.05
820.825	-0.54
820.996	-0.67
821.168	-0.53
821.339	-0.37
821.51	-0.99
821.681	-0.42
821.852	-0.12
822.023	-0.08
822.195	-1.14
822.366	-0.02
822.537	0.18
822.708	-0.38
822.879	-0.18
823.05	0.41
823.221	-0.41
823.392	-0.12
823.563	-0.07
823.734	0.17
823.905	0.11
824.076	-0.33
824.247	-0.73
824.418	-1.1
824.589	0.1
824.759	-0.2
824.93	0.05
825.101	-0.93
825.272	1.02
825.443	-0.11
825.614	-0.2
825.784	-1.38
825.955	0.49
826.126	0.59
826.297	0.38
826.467	0.47
826.638	0.17
826.809	-0.62
826.98	-0.38
827.15	0.18
827.321	-0.01
827.492	0.76
827.662	0.22
827.833	0.54
828.003	0.2
828.174	-0.39
828.345	-0.41
828.515	0.61
828.686	-0.1
828.856	-0.45
829.027	0.16
829.197	-0.37
829.368	-0.21
829.538	-0.51
829.709	-0.61
829.879	-0.13
830.049	0.2
830.22	-0.36
830.39	0
830.56	-0.14
830.731	-0.43
830.901	-0.53
831.072	-0.65
831.242	0.26
831.412	0.11
831.582	-0.57
831.753	-0.93
831.923	0.39
832.093	0.36
832.263	-0.32
832.434	-0.66
832.604	-0.13
832.774	0.05
832.944	-0.11
833.114	-0.65
833.284	-0.07
833.454	-1.03
833.624	-0.63
833.795	-0.37
833.965	0.54
834.135	0.19
834.305	-0.88
834.475	-1.05
834.645	-0.53
834.815	-0.44
834.985	-0.69
835.155	-0.5
835.325	-0.6
835.494	0.11
835.664	-0.32
835.834	-0.94
836.004	-0.4
836.174	-0.2
836.344	-0.35
836.514	-0.98
836.684	-0.07
836.853	-0.05
837.023	0.31
837.193	-0.37
837.363	0.68
837.532	0.73
837.702	-0.23
837.872	-0.42
838.041	0.15
838.211	0.5
838.381	-1.12
838.55	-0.25
838.72	1
838.89	0.87
839.059	-0.41
839.229	-0.85
839.398	1.66
839.568	-0.2
839.738	-0.59
839.907	0.12
840.077	0.37
840.246	-0.52
840.416	-0.6
840.585	-0.85
840.755	0.98
840.924	0.23
841.093	-0.23
841.263	0.09
841.432	-0.72
841.602	-0.68
841.771	-0.35
841.94	-0.09
842.11	1.7
842.279	1.07
842.448	-1.14
842.617	-0.76
842.787	0.82
842.956	-0.24
843.125	-0.28
843.294	0.16
843.464	0.58
843.633	0.3
843.802	-1.13
843.971	0.54
844.14	0.25
844.309	0.26
844.479	-0.81
844.648	-0.9
844.817	-1.04
844.986	0.28
845.155	-1.01
845.324	0.01
845.493	0.11
845.662	-0.79
845.831	0.96
846	0.84
846.169	-0.22
846.338	0.92
846.507	-0.59
846.676	-0.18
846.844	-0.09
847.013	0.8
847.182	0.17
847.351	-0.53
847.52	0.02
847.689	-0.12
847.858	-0.21
848.026	-0.09
848.195	-0.36
848.364	-1.57
848.533	-1.37
848.701	-0.83
848.87	0.33
849.039	0.65
849.207	1.01
849.376	1.3
849.545	0.18
849.713	-1.1
849.882	-0.54
850.051	-0.16
850.219	-0.31
850.388	0.58
850.556	-0.53
850.725	-0.9
850.893	-0.4
851.062	-0.63
851.23	0.62
851.399	-1.96
851.567	-1.2
851.736	-0.57
851.904	-1.49
852.073	0.4
852.241	-0.44
852.41	0.64
852.578	-0.54
852.746	-2
852.915	0.35
853.083	0.43
853.251	-1.6
853.42	-0.66
853.588	-0.54
853.756	1.02
853.924	-1.07
854.093	0.07
854.261	-0.22
854.429	-0.24
854.597	0.73
854.765	-1.35
854.934	0.04
855.102	0.32
855.27	-0.05
855.438	0.31
855.606	0.47
855.774	0.43
855.942	-1.64
856.11	-2.61
856.278	-0.17
856.446	1.08
856.614	0.8
856.782	-0.83
856.95	0.59
857.118	0.1
857.286	-0.66
857.454	-1.66
857.622	-0.94
857.79	1.07
857.958	-0.86
858.126	-0.95
858.294	-3.21
858.462	-0.02
858.629	-0.1
858.797	-0.39
858.965	-0.5
859.133	0.09
859.301	-0.75
859.468	-0.08
859.636	0.02
859.804	1.94
859.971	-0.21
860.139	-1.37
860.307	-0.15
860.474	-0.22
860.642	-1.76
860.81	-0.72
860.977	-0.54
861.145	0.27
861.313	-1.72
861.48	-0.77
861.648	0.71
861.815	-1.52
861.983	-0.21
862.15	-2.13
862.318	1.32
862.485	0.36
862.653	-0.96
862.82	-1.19
862.988	1.38
863.155	1.07
863.322	-1.59
863.49	-1.36
863.657	-0.75
863.824	1.73
863.992	0.26
864.159	0.06
864.326	1.7
864.494	-0.86
864.661	2.36
864.828	-1.74
864.996	0.67
865.163	1.12
865.33	-0.47
865.497	-2.12
865.664	-1.83
865.832	-1.34
865.999	-0.22
866.166	-0.06
866.333	-0.63
866.5	-0.14
866.667	-0.07
866.834	-1.4
867.001	1.13
867.168	-1.37
867.335	-1.27
867.502	-1.9
867.669	0.6
867.836	1.63
868.003	-0.67
868.17	1.23
868.337	0.62
868.504	1.17
868.671	-2.13
868.838	-2.1
869.005	0.83
869.172	0.4
869.339	-1.27
869.505	-1.41
869.672	-1.57
869.839	2.09
870.006	-0.98
870.173	-3.25
870.339	-0.19
870.506	1.72
870.673	-0.62
870.84	0.25
871.006	-1.12
871.173	0.25
871.34	-0.98
871.506	-1.43
871.673	0.86
871.839	-2.46
872.006	0.16
872.173	-0.84
872.339	0.04
872.506	1.24
872.672	-0.34
872.839	-1.3
873.005	-1.04
873.172	2.78
873.338	-0.02
873.505	-0.91
873.671	0.58
873.838	0.32
874.004	-2.3
874.171	-0.77
874.337	-1.05
874.503	1.27
874.67	-0.68
874.836	-0.85
875.002	2.22
875.169	-0.09
875.335	0.43
875.501	-0.86
875.668	-0.16
875.834	-2.45
876	-0.74
876.166	1.84
876.332	0.69
876.499	2.32
876.665	-0.24
876.831	-0.35
876.997	1.7
877.163	-0.48
877.329	-1.07
877.495	-0.45
877.662	1.04
877.828	0.84
877.994	-0.56
878.16	-3.24
878.326	-0.67
878.492	-1.04
878.658	-0.43
878.824	-1.12
878.99	1.82
879.156	-2.5
879.322	1.6
879.487	-1.41
879.653	0.14
879.819	0.44
879.985	-0.02
880.151	1.23
880.317	0.93
880.483	0.52
880.648	1.56
880.814	-4.35
880.98	-1
881.146	-2.84
881.312	-1.53
881.477	-1.85
881.643	-0.38
881.809	0.52
881.974	0.78
882.14	-3.99
882.306	-0.35
882.471	1.31
882.637	-0.01
882.803	0.76
882.968	2.42
883.134	4.09
883.299	-1.28
883.465	-1.5
883.63	0.18
883.796	2.64
883.961	2.1
884.127	0.57
884.292	-5.57
884.458	-3.72
884.623	-3.71
