Data from Apollo_Calib_20240827__AbsoluteIrradiance__87__00-36-02-471.txt Node

Date: Wed Aug 28 00:36:02 BST 2024
User: biology
Spectrometer: FLMT08252
Trigger mode: 0
Integration Time (sec): 5.000000E-1
Scans to average: 5
Electric dark correction enabled: true
Nonlinearity correction enabled: false
Boxcar width: 0
XAxis mode: Wavelengths
Number of Pixels in Spectrum: 3648
>>>>>Begin Spectral Data<<<<<
179.588	-0
179.809	-0
180.03	-0
180.251	-0
180.473	-0
180.694	0
180.915	0
181.136	-0
181.357	0
181.578	0
181.799	-0
182.02	-0
182.241	0
182.462	-0
182.683	0
182.904	-0
183.125	0
183.346	0
183.567	0
183.788	-0
184.009	-0
184.23	-0
184.451	0
184.672	-0
184.892	-0
185.113	0
185.334	0
185.555	-0
185.776	-0
185.996	0
186.217	-0
186.438	-0
186.659	-0
186.879	0
187.1	-0
187.321	-0
187.541	-0
187.762	-0
187.983	-0
188.203	-0
188.424	-0
188.644	-0
188.865	-0
189.086	-0
189.306	-0
189.527	-0
189.747	-0
189.968	-0
190.188	-0
190.409	-0
190.629	0
190.849	-0
191.07	-0
191.29	0
191.511	-0
191.731	-0
191.951	-0
192.172	-0
192.392	-0
192.612	-0
192.833	-0
193.053	0
193.273	0
193.493	-0
193.714	-0
193.934	0
194.154	0
194.374	-0
194.594	-0
194.815	-0
195.035	-0
195.255	-0
195.475	-0
195.695	0
195.915	0
196.135	0
196.355	0
196.575	0
196.795	-0
197.015	-0
197.235	-0
197.455	-0
197.675	-0
197.895	-0
198.115	-0
198.335	0
198.555	-0
198.775	0
198.995	0
199.214	0
199.434	-0
199.654	-0
199.874	-0
200.094	0.58
200.313	-0.19
200.533	-0.58
200.753	-1.22
200.973	0.47
201.192	0.86
201.412	-1.05
201.632	-0.27
201.851	0.68
202.071	-0.51
202.291	-0.78
202.51	-0.7
202.73	0.32
202.95	-0.63
203.169	-0.81
203.389	0.03
203.608	-0.22
203.828	-0.72
204.047	-0.34
204.267	-0.14
204.486	0.29
204.706	0.16
204.925	-0.29
205.145	-0.59
205.364	0.25
205.583	0.67
205.803	-0.22
206.022	-0.31
206.242	-0.08
206.461	-0.02
206.68	-0.45
206.9	-0.05
207.119	0.28
207.338	0.48
207.557	-0.2
207.777	-0.28
207.996	-0.24
208.215	0.53
208.434	-0.48
208.654	-0.28
208.873	0.36
209.092	0.32
209.311	-0.15
209.53	-0.06
209.749	-0.37
209.968	-0.16
210.187	-0.32
210.407	-0.57
210.626	-0.31
210.845	0.17
211.064	0.13
211.283	-0.49
211.502	0.04
211.721	-0.31
211.94	-0.23
212.159	0.18
212.377	0.09
212.596	0.22
212.815	-0.17
213.034	0.05
213.253	-0.12
213.472	0.1
213.691	-0.17
213.91	-0.28
214.128	-0.1
214.347	0.31
214.566	-0.46
214.785	-0.38
215.003	-0.17
215.222	0.19
215.441	-0.18
215.66	-0.47
215.878	0.01
216.097	0.11
216.316	-0.35
216.534	-0.11
216.753	0.2
216.972	-0.08
217.19	0.07
217.409	-0.24
217.627	-0
217.846	-0.1
218.064	-0.1
218.283	-0.24
218.501	0.25
218.72	0.16
218.938	-0.32
219.157	-0.23
219.375	0.04
219.594	0.09
219.812	-0.29
220.031	-0.19
220.249	0.11
220.467	0.31
220.686	-0.17
220.904	-0.3
221.122	-0.1
221.341	0.14
221.559	-0.11
221.777	-0.33
221.995	-0.05
222.214	0.09
222.432	-0.03
222.65	0.12
222.868	0.03
223.086	-0
223.305	0.04
223.523	-0.21
223.741	0.16
223.959	-0.13
224.177	-0.26
224.395	-0.08
224.613	-0.04
224.831	0.13
225.049	-0.2
225.267	-0.19
225.485	-0.05
225.703	-0.17
225.921	0
226.139	-0.15
226.357	-0.02
226.575	0.02
226.793	-0.19
227.011	0.41
227.229	0.07
227.447	0.04
227.665	-0.05
227.883	-0.31
228.1	0.08
228.318	0.04
228.536	-0.29
228.754	-0.08
228.972	-0.02
229.189	0.02
229.407	-0.15
229.625	-0.17
229.843	0.12
230.06	0.02
230.278	-0.11
230.496	-0.09
230.713	-0.05
230.931	0.19
231.149	-0.07
231.366	-0.26
231.584	-0.04
231.801	0.26
232.019	0
232.236	-0.29
232.454	-0.17
232.671	0.01
232.889	-0.04
233.106	-0.28
233.324	-0.04
233.541	-0.07
233.759	-0.14
233.976	-0.1
234.194	0
234.411	-0.02
234.628	-0.26
234.846	-0.09
235.063	-0.11
235.28	-0.11
235.498	-0.04
235.715	-0.21
235.932	0.02
236.149	-0.02
236.367	-0.13
236.584	-0.06
236.801	-0.11
237.018	0.12
237.236	-0.06
237.453	-0.15
237.67	0.16
237.887	-0.06
238.104	-0.12
238.321	-0.12
238.538	-0.03
238.755	0.12
238.973	-0.2
239.19	-0
239.407	0.07
239.624	0.05
239.841	-0.21
240.058	-0.17
240.275	0.01
240.492	-0.07
240.709	-0.01
240.925	-0.07
241.142	0.04
241.359	-0.1
241.576	-0.08
241.793	-0.12
242.01	-0.08
242.227	-0.01
242.444	-0.02
242.66	0.09
242.877	0.03
243.094	-0.12
243.311	-0.05
243.527	-0.09
243.744	0.04
243.961	0.11
244.178	-0.12
244.394	-0.1
244.611	0.11
244.828	0.08
245.044	-0.06
245.261	0.02
245.477	-0.05
245.694	0.03
245.911	-0.17
246.127	0.01
246.344	0.05
246.56	-0
246.777	-0.08
246.993	0.02
247.21	-0.05
247.426	0.06
247.643	-0.08
247.859	-0.12
248.076	-0.03
248.292	0.09
248.508	-0.08
248.725	-0.06
248.941	-0.01
249.157	0.1
249.374	-0.1
249.59	-0.06
249.806	-0
250.023	-0
250.239	-0.08
250.455	-0.09
250.671	-0.02
250.888	0.11
251.104	0.06
251.32	0.04
251.536	-0.01
251.752	-0.06
251.969	-0.05
252.185	0.01
252.401	0.17
252.617	0.03
252.833	-0.02
253.049	0.02
253.265	0
253.481	0.02
253.697	-0.04
253.913	-0.18
254.129	-0.01
254.345	-0.01
254.561	-0.11
254.777	0
254.993	0.05
255.209	0.01
255.425	-0.1
255.641	-0.14
255.857	0.11
256.073	-0.04
256.288	-0.1
256.504	-0.05
256.72	0.01
256.936	0.08
257.152	-0.02
257.367	-0.06
257.583	0.01
257.799	0.12
258.015	-0.11
258.23	-0.08
258.446	0.07
258.662	0.03
258.877	-0.12
259.093	-0.07
259.309	0.03
259.524	0
259.74	-0.07
259.955	-0.1
260.171	-0.01
260.387	-0.02
260.602	-0.02
260.818	0.02
261.033	-0.08
261.249	-0.11
261.464	-0.09
261.68	-0.17
261.895	0.04
262.11	0.05
262.326	-0.01
262.541	-0.1
262.757	0.07
262.972	-0.03
263.187	0.02
263.403	0.03
263.618	0.08
263.833	-0.07
264.049	-0.07
264.264	-0.02
264.479	0.07
264.694	0.03
264.91	-0.08
265.125	-0.02
265.34	0.02
265.555	0.17
265.77	0.02
265.986	-0.06
266.201	-0.01
266.416	0.08
266.631	-0.11
266.846	0.02
267.061	0.01
267.276	-0.01
267.491	-0.17
267.706	-0.02
267.921	0
268.136	-0.1
268.351	-0.04
268.566	-0.11
268.781	0.05
268.996	0
269.211	0.02
269.426	-0.08
269.641	-0.04
269.856	0.01
270.071	-0.11
270.285	-0.08
270.5	0.01
270.715	0.04
270.93	0.07
271.145	-0
271.359	0.04
271.574	-0.17
271.789	-0.03
272.004	-0.08
272.218	-0.06
272.433	0.02
272.648	-0.05
272.862	0.04
273.077	-0.01
273.292	0.02
273.506	-0.05
273.721	-0.04
273.936	0.03
274.15	0.05
274.365	-0.02
274.579	0.02
274.794	0.05
275.008	-0
275.223	-0.19
275.437	0.02
275.652	0.13
275.866	0.01
276.081	-0.01
276.295	0.02
276.509	0.04
276.724	-0.07
276.938	-0.01
277.153	0.06
277.367	0.04
277.581	-0.05
277.796	-0.06
278.01	-0.09
278.224	0.05
278.438	0.07
278.653	-0.11
278.867	-0.05
279.081	0.06
279.295	-0.05
279.51	0.01
279.724	-0.08
279.938	-0.03
280.152	-0.01
280.366	-0.04
280.58	-0.07
280.794	0.06
281.008	0.04
281.222	0.01
281.437	0.09
281.651	0.05
281.865	0.04
282.079	-0.06
282.293	-0.1
282.507	-0.03
282.721	-0.03
282.935	-0.04
283.148	-0.07
283.362	-0.07
283.576	-0.06
283.79	0.01
284.004	-0.03
284.218	0.1
284.432	-0.05
284.646	0.01
284.859	-0.04
285.073	-0.06
285.287	-0.01
285.501	-0
285.714	-0.01
285.928	-0.01
286.142	0.02
286.356	-0.06
286.569	-0.02
286.783	0.07
286.997	0.02
287.21	-0.01
287.424	0.01
287.637	-0.06
287.851	-0.01
288.065	0.01
288.278	-0.05
288.492	0.01
288.705	-0.02
288.919	0.01
289.132	-0.1
289.346	0.01
289.559	-0.1
289.773	-0.05
289.986	-0.02
290.2	-0.03
290.413	-0.01
290.626	-0.1
290.84	-0.03
291.053	-0.03
291.267	0.04
291.48	0
291.693	0.02
291.906	-0.08
292.12	0.02
292.333	-0.04
292.546	-0.02
292.76	0.06
292.973	0.02
293.186	0.03
293.399	-0.03
293.612	0.05
293.826	-0
294.039	0.01
294.252	-0.01
294.465	0.04
294.678	0.02
294.891	0
295.104	-0.06
295.317	-0.01
295.53	-0
295.743	-0.06
295.956	-0.03
296.169	0.08
296.382	0
296.595	0.01
296.808	-0.06
297.021	0.03
297.234	-0
297.447	-0.01
297.66	0
297.873	0.04
298.086	0.03
298.299	-0.02
298.511	-0.08
298.724	0.02
298.937	-0.02
299.15	-0
299.363	-0.01
299.575	0.05
299.788	0.01
300.001	-0.02
300.213	-0.03
300.426	-0.02
300.639	-0.04
300.852	-0.03
301.064	0.02
301.277	0.1
301.489	0.03
301.702	0
301.915	0.01
302.127	-0
302.34	-0
302.552	-0.02
302.765	-0.04
302.977	0.04
303.19	-0
303.402	-0.01
303.615	-0.01
303.827	-0
304.04	-0
304.252	0.03
304.464	-0.03
304.677	0.09
304.889	-0.05
305.102	-0.04
305.314	-0.05
305.526	0.07
305.739	0.04
305.951	-0.02
306.163	-0.03
306.375	0.07
306.588	-0.04
306.8	-0.08
307.012	-0.09
307.224	0.03
307.436	0.05
307.649	-0.08
307.861	0.04
308.073	0.03
308.285	-0.02
308.497	-0.04
308.709	-0.02
308.921	0.02
309.133	-0.01
309.346	-0
309.558	0.01
309.77	0.05
309.982	0.02
310.194	0.03
310.406	-0.02
310.617	0.09
310.829	-0.02
311.041	0.01
311.253	-0.03
311.465	0.03
311.677	-0.04
311.889	-0.02
312.101	-0.01
312.313	0
312.524	0.05
312.736	-0.08
312.948	0.01
313.16	0.06
313.372	0.03
313.583	-0.01
313.795	-0.01
314.007	-0.01
314.218	-0
314.43	0.02
314.642	-0.02
314.853	-0.05
315.065	0.02
315.277	-0.02
315.488	-0.02
315.7	0.01
315.912	0
316.123	0.01
316.335	-0.04
316.546	0.1
316.758	-0.02
316.969	-0.02
317.181	-0
317.392	-0.02
317.604	0.03
317.815	-0.05
318.026	-0.04
318.238	-0.04
318.449	0.02
318.661	-0.08
318.872	-0.07
319.083	-0.09
319.295	0.03
319.506	-0.03
319.717	0.01
319.929	0.02
320.14	0.02
320.351	0
320.562	-0.01
320.774	-0.03
320.985	-0.03
321.196	-0.04
321.407	-0.05
321.618	0.01
321.829	0.03
322.041	0.03
322.252	-0.01
322.463	0.06
322.674	-0.01
322.885	-0.04
323.096	-0.04
323.307	0.02
323.518	0.01
323.729	-0
323.94	-0.02
324.151	-0.04
324.362	-0
324.573	-0
324.784	-0.03
324.995	0.05
325.206	-0.01
325.417	-0.02
325.628	-0.03
325.838	0.01
326.049	-0.02
326.26	0.04
326.471	-0.03
326.682	0.01
326.892	0.04
327.103	-0.07
327.314	-0.01
327.525	0.01
327.735	-0.08
327.946	-0.03
328.157	-0.05
328.368	0.03
328.578	-0.07
328.789	0.04
328.999	0.04
329.21	-0.02
329.421	-0.01
329.631	-0.01
329.842	-0.04
330.052	0.03
330.263	0.05
330.473	0.03
330.684	-0.02
330.894	-0
331.105	-0.01
331.315	-0.04
331.526	-0.05
331.736	0.07
331.947	-0.01
332.157	0.02
332.367	-0.05
332.578	0.02
332.788	0.07
332.999	0.02
333.209	-0.01
333.419	-0.06
333.629	0.03
333.84	0.01
334.05	-0.03
334.26	0.08
334.47	0.04
334.681	0.04
334.891	-0.02
335.101	-0.01
335.311	0.08
335.521	-0.03
335.732	-0.08
335.942	0.05
336.152	0.05
336.362	0.01
336.572	0.01
336.782	0.05
336.992	-0.02
337.202	-0
337.412	-0.02
337.622	-0.05
337.832	-0.02
338.042	0.02
338.252	-0.02
338.462	-0.03
338.672	-0.03
338.882	0.03
339.092	0.03
339.302	0.07
339.511	-0
339.721	-0.02
339.931	-0.02
340.141	0.06
340.351	0.02
340.561	-0.01
340.77	-0
340.98	-0.03
341.19	0.02
341.4	-0.05
341.609	-0.06
341.819	-0.01
342.029	-0.1
342.238	0.04
342.448	-0.03
342.658	0.04
342.867	0.02
343.077	-0.01
343.286	0.01
343.496	0.01
343.706	0.03
343.915	-0.04
344.125	-0.03
344.334	0.05
344.544	-0.04
344.753	0.01
344.963	-0.03
345.172	-0.03
345.381	-0.03
345.591	0
345.8	0.04
346.01	0.02
346.219	0.04
346.428	-0.16
346.638	-0.03
346.847	-0.01
347.056	0.03
347.266	-0
347.475	0.02
347.684	0.02
347.893	0
348.103	0.02
348.312	-0.02
348.521	-0.01
348.73	-0.03
348.94	-0.01
349.149	-0.05
349.358	-0.02
349.567	-0.06
349.776	-0.08
349.985	0.01
350.194	0.02
350.403	0.05
350.612	-0.07
350.821	-0.02
351.03	0.01
351.239	-0.06
351.448	-0.01
351.657	-0.05
351.866	0.06
352.075	-0.02
352.284	0.05
352.493	-0.08
352.702	0.03
352.911	0.03
353.12	-0.01
353.329	-0.01
353.538	0.01
353.746	0.03
353.955	-0.02
354.164	0.01
354.373	-0.01
354.582	0.02
354.79	0.01
354.999	0.01
355.208	-0.01
355.416	0.03
355.625	-0.05
355.834	-0.03
356.042	0.01
356.251	-0.02
356.46	-0.04
356.668	0.01
356.877	0.05
357.085	0.04
357.294	-0.09
357.503	-0.02
357.711	-0.03
357.92	0.1
358.128	0
358.337	0.01
358.545	0.03
358.754	-0.01
358.962	0
359.17	-0.04
359.379	0
359.587	-0.02
359.796	0.01
360.004	0.05
360.212	0
360.421	0.04
360.629	-0.01
360.837	-0.01
361.046	0.06
361.254	0.07
361.462	0
361.67	-0
361.879	-0.01
362.087	0.03
362.295	0.01
362.503	-0.04
362.711	-0.03
362.92	-0.02
363.128	-0.03
363.336	-0.03
363.544	-0.04
363.752	-0.04
363.96	-0
364.168	-0.01
364.376	-0.02
364.584	0.01
364.792	0.05
365	0.02
365.208	-0.01
365.416	0.02
365.624	0.05
365.832	-0.02
366.04	0.05
366.248	0
366.456	0.04
366.664	0.01
366.872	0.05
367.079	0.01
367.287	0.03
367.495	0.04
367.703	0.04
367.911	0.02
368.118	0.03
368.326	0.01
368.534	0.01
368.742	0.1
368.949	0.01
369.157	0.06
369.365	0.09
369.572	0.07
369.78	-0
369.988	0.13
370.195	0.12
370.403	0.11
370.61	0.1
370.818	0.11
371.026	0.19
371.233	0.13
371.441	0.14
371.648	0.12
371.856	0.17
372.063	0.19
372.271	0.16
372.478	0.16
372.685	0.22
372.893	0.26
373.1	0.27
373.308	0.25
373.515	0.37
373.722	0.33
373.93	0.31
374.137	0.37
374.344	0.42
374.552	0.39
374.759	0.43
374.966	0.43
375.173	0.44
375.381	0.56
375.588	0.5
375.795	0.49
376.002	0.55
376.209	0.55
376.417	0.65
376.624	0.67
376.831	0.71
377.038	0.7
377.245	0.7
377.452	0.79
377.659	0.85
377.866	0.9
378.073	0.95
378.28	0.96
378.487	1.04
378.694	1.12
378.901	1.17
379.108	1.18
379.315	1.33
379.522	1.4
379.729	1.36
379.936	1.34
380.143	1.49
380.35	1.58
380.557	1.62
380.763	1.69
380.97	1.62
381.177	1.67
381.384	1.84
381.591	1.84
381.797	1.86
382.004	1.95
382.211	2
382.418	1.97
382.624	2.06
382.831	1.98
383.038	2.01
383.244	1.98
383.451	1.92
383.658	1.89
383.864	1.92
384.071	1.8
384.277	1.9
384.484	1.74
384.69	1.74
384.897	1.6
385.103	1.59
385.31	1.54
385.516	1.47
385.723	1.38
385.929	1.33
386.136	1.25
386.342	1.23
386.549	1.16
386.755	1.11
386.961	1.14
387.168	1.06
387.374	1.01
387.58	1
387.787	0.95
387.993	0.9
388.199	0.84
388.406	0.79
388.612	0.76
388.818	0.7
389.024	0.73
389.231	0.69
389.437	0.7
389.643	0.65
389.849	0.64
390.055	0.58
390.261	0.57
390.467	0.54
390.674	0.55
390.88	0.53
391.086	0.55
391.292	0.48
391.498	0.5
391.704	0.5
391.91	0.45
392.116	0.45
392.322	0.34
392.528	0.49
392.734	0.35
392.94	0.39
393.146	0.37
393.352	0.34
393.557	0.33
393.763	0.32
393.969	0.36
394.175	0.33
394.381	0.3
394.587	0.28
394.792	0.26
394.998	0.36
395.204	0.32
395.41	0.2
395.615	0.34
395.821	0.27
396.027	0.25
396.233	0.22
396.438	0.2
396.644	0.26
396.85	0.28
397.055	0.17
397.261	0.21
397.466	0.27
397.672	0.16
397.878	0.2
398.083	0.17
398.289	0.15
398.494	0.2
398.7	0.12
398.905	0.12
399.111	0.18
399.316	0.07
399.522	0.17
399.727	0.11
399.932	0.13
400.138	0.06
400.343	0.15
400.549	0.1
400.754	0.12
400.959	0.15
401.165	0.1
401.37	0.15
401.575	0.16
401.78	0.08
401.986	0.12
402.191	0.11
402.396	0.09
402.601	0.12
402.807	0.11
403.012	0.11
403.217	0.17
403.422	0.11
403.627	0.1
403.832	0.05
404.037	0.1
404.243	0.11
404.448	0.07
404.653	0.05
404.858	0.07
405.063	0.09
405.268	0.03
405.473	-0.02
405.678	0.02
405.883	0.17
406.088	0.09
406.293	-0.01
406.498	-0
406.703	0.08
406.907	0.03
407.112	-0.04
407.317	0.06
407.522	0.07
407.727	-0.04
407.932	0.06
408.136	0.13
408.341	0.03
408.546	0.08
408.751	0.01
408.956	-0
409.16	0.03
409.365	0.07
409.57	0.04
409.774	0.04
409.979	0.08
410.184	0.05
410.388	0.02
410.593	0.07
410.798	0.02
411.002	0.02
411.207	0.03
411.411	0.04
411.616	-0.01
411.82	0.03
412.025	0.02
412.229	-0
412.434	0.07
412.638	0.04
412.843	-0.03
413.047	0.04
413.252	-0.01
413.456	-0.02
413.66	0.04
413.865	0.02
414.069	0.07
414.273	-0.02
414.478	0.01
414.682	-0.02
414.886	-0
415.091	-0.03
415.295	-0.01
415.499	-0.02
415.703	-0
415.908	0.07
416.112	-0.09
416.316	0.04
416.52	0.01
416.724	-0.03
416.929	-0.01
417.133	0.1
417.337	0
417.541	-0.02
417.745	-0
417.949	0.03
418.153	0.01
418.357	-0.06
418.561	0.07
418.765	0.02
418.969	0.08
419.173	0.06
419.377	-0.02
419.581	0.13
419.785	-0.01
419.989	-0.1
420.193	-0.01
420.397	-0.07
420.601	0.04
420.804	0.06
421.008	0.03
421.212	0.1
421.416	0.03
421.62	-0.01
421.823	0.02
422.027	0.04
422.231	0.05
422.435	0
422.638	0.03
422.842	-0.01
423.046	-0.04
423.249	0.04
423.453	0.07
423.657	0.01
423.86	0.02
424.064	-0.01
424.268	0.1
424.471	0.03
424.675	0.05
424.878	0.05
425.082	0
425.285	0.1
425.489	0.01
425.692	0.03
425.896	0.01
426.099	0.06
426.303	-0.07
426.506	-0.05
426.71	0.03
426.913	0.03
427.116	0.09
427.32	0.01
427.523	0.01
427.726	0.14
427.93	-0.02
428.133	0.04
428.336	-0.01
428.54	-0.03
428.743	0.05
428.946	0.08
429.149	-0
429.353	0.01
429.556	0.02
429.759	0.02
429.962	-0.03
430.165	-0
430.368	0.04
430.571	0.01
430.775	0.02
430.978	-0
431.181	0.05
431.384	0.02
431.587	0.01
431.79	0.03
431.993	0.02
432.196	0.01
432.399	0
432.602	0.05
432.805	-0
433.008	-0.02
433.211	-0.04
433.414	0.07
433.616	-0.01
433.819	0.02
434.022	-0.04
434.225	0.13
434.428	0.05
434.631	0.13
434.833	0.04
435.036	0.02
435.239	0.07
435.442	0.03
435.645	0.02
435.847	0.04
436.05	0.05
436.253	0.05
436.455	0.01
436.658	0
436.861	0.16
437.063	0
437.266	0.01
437.468	0.06
437.671	0.13
437.874	0.07
438.076	0
438.279	-0.04
438.481	0.02
438.684	-0.02
438.886	0.11
439.089	-0.04
439.291	0.02
439.494	0.1
439.696	-0.02
439.899	0.05
440.101	0.04
440.303	-0.04
440.506	0.07
440.708	0.01
440.91	0.1
441.113	-0.01
441.315	0.04
441.517	-0.01
441.72	0.08
441.922	-0.01
442.124	-0.01
442.326	0.07
442.529	0.12
442.731	0.03
442.933	0.14
443.135	0.02
443.337	-0.02
443.539	0.02
443.742	-0
443.944	0.05
444.146	0.04
444.348	-0
444.55	0.06
444.752	0.03
444.954	0.02
445.156	0.08
445.358	0.04
445.56	0.16
445.762	0.04
445.964	0.03
446.166	0.03
446.368	0.05
446.57	0.13
446.772	0.02
446.974	0.01
447.175	0.08
447.377	0.01
447.579	0.06
447.781	-0.03
447.983	0.13
448.184	0.08
448.386	0.06
448.588	0.01
448.79	0.07
448.991	-0.01
449.193	0.02
449.395	0.05
449.597	0.09
449.798	0.05
450	0.09
450.202	0.06
450.403	0.05
450.605	0.09
450.806	0.05
451.008	-0
451.21	0.03
451.411	0.04
451.613	0.03
451.814	0.04
452.016	0.1
452.217	0.09
452.419	0.09
452.62	0.03
452.821	0.09
453.023	0.1
453.224	0.12
453.426	0.01
453.627	0.05
453.828	0.08
454.03	0.03
454.231	0.12
454.432	-0
454.634	0.08
454.835	0.02
455.036	-0.04
455.238	0.01
455.439	0.11
455.64	-0
455.841	-0.01
456.042	0.13
456.244	0.03
456.445	0.03
456.646	-0.06
456.847	0.03
457.048	0.06
457.249	0.08
457.45	0.19
457.651	-0.03
457.852	0.11
458.054	0.02
458.255	-0.01
458.456	0.05
458.657	-0
458.858	0.01
459.058	0.07
459.259	0.09
459.46	-0.01
459.661	-0.03
459.862	0.08
460.063	0.03
460.264	0.07
460.465	-0.01
460.666	0.16
460.866	0.02
461.067	0.04
461.268	-0.01
461.469	0.01
461.67	0
461.87	0.01
462.071	-0.02
462.272	0.02
462.473	0.02
462.673	0.04
462.874	-0.04
463.075	0.03
463.275	-0.03
463.476	0.06
463.676	0.04
463.877	0.02
464.078	-0.01
464.278	0.07
464.479	0.03
464.679	0.02
464.88	-0.01
465.08	0.04
465.281	-0.02
465.481	0.01
465.682	-0.01
465.882	0.05
466.083	0.04
466.283	0.03
466.483	0.02
466.684	-0.04
466.884	-0.02
467.085	0.01
467.285	0.04
467.485	-0.01
467.686	-0.02
467.886	-0
468.086	0.04
468.286	0.04
468.487	0.05
468.687	-0.01
468.887	-0.02
469.087	0.03
469.287	0.01
469.488	0
469.688	0.05
469.888	0.04
470.088	0.03
470.288	0.06
470.488	0.03
470.688	-0.07
470.888	-0.01
471.088	-0.03
471.288	0.06
471.488	0.04
471.688	0.01
471.888	-0
472.088	0.04
472.288	0.01
472.488	-0.02
472.688	-0.02
472.888	-0.01
473.088	0.01
473.288	0.03
473.488	0.02
473.688	0.03
473.887	0.02
474.087	-0.02
474.287	-0
474.487	-0.01
474.687	0.02
474.886	-0.02
475.086	0.03
475.286	0.01
475.486	0.04
475.685	0.02
475.885	0.01
476.085	-0.01
476.284	0.03
476.484	0
476.684	0.03
476.883	0.05
477.083	0.01
477.282	0.01
477.482	0.04
477.681	0.07
477.881	0.01
478.08	-0.02
478.28	-0.02
478.479	0.04
478.679	0.06
478.878	-0.01
479.078	0.02
479.277	-0.03
479.477	-0.01
479.676	0.03
479.875	0.01
480.075	-0.04
480.274	0.01
480.473	0.05
480.673	-0.03
480.872	0.04
481.071	0.04
481.271	0.03
481.47	0.01
481.669	-0.02
481.868	-0.01
482.067	-0.02
482.267	-0.04
482.466	-0.01
482.665	-0.04
482.864	-0.05
483.063	-0.02
483.262	0.03
483.461	0.06
483.661	-0
483.86	-0.02
484.059	0.02
484.258	-0
484.457	0.01
484.656	0.04
484.855	0.04
485.054	-0.02
485.253	-0.02
485.452	-0.02
485.651	-0.01
485.849	-0.01
486.048	-0.03
486.247	-0.02
486.446	-0
486.645	-0.05
486.844	-0.02
487.043	0
487.241	0.02
487.44	-0.05
487.639	-0.01
487.838	0.03
488.037	0.01
488.235	0.04
488.434	0.02
488.633	-0.03
488.831	0
489.03	0.02
489.229	0
489.427	-0.01
489.626	0.05
489.825	0.05
490.023	0
490.222	-0.01
490.42	-0
490.619	-0
490.817	0.01
491.016	-0.04
491.214	0.02
491.413	0
491.611	0
491.81	-0
492.008	0.02
492.207	0.02
492.405	0.02
492.604	-0.03
492.802	-0.01
493	-0.01
493.199	-0.02
493.397	0.01
493.595	0
493.794	-0.02
493.992	0.06
494.19	-0.01
494.388	0.01
494.587	-0.01
494.785	0.02
494.983	-0.02
495.181	0
495.379	0.01
495.578	-0
495.776	0.01
495.974	0.02
496.172	-0.03
496.37	-0
496.568	-0.05
496.766	-0.01
496.964	0.02
497.162	0.01
497.36	-0.01
497.558	0.02
497.756	0.01
497.954	0.02
498.152	-0.01
498.35	-0.01
498.548	-0.03
498.746	-0.01
498.944	-0.03
499.142	-0.02
499.34	-0.02
499.538	-0.01
499.736	-0.04
499.933	0.04
500.131	0.05
500.329	0.01
500.527	0.03
500.725	0.02
500.922	0.02
501.12	0.01
501.318	0.01
501.516	-0.01
501.713	0.01
501.911	0.01
502.109	-0.04
502.306	-0
502.504	-0.02
502.701	-0.03
502.899	-0.01
503.097	0.06
503.294	0
503.492	-0.01
503.689	-0.01
503.887	0.01
504.084	0.04
504.282	-0.01
504.479	-0.03
504.677	0.01
504.874	-0.04
505.072	0.01
505.269	-0.03
505.466	0
505.664	0.02
505.861	-0.04
506.059	-0.01
506.256	0.01
506.453	-0.03
506.651	0.04
506.848	0.01
507.045	0.01
507.242	0.01
507.44	-0
507.637	-0
507.834	-0.02
508.031	0.04
508.229	-0.05
508.426	-0.01
508.623	0
508.82	-0.02
509.017	-0.01
509.214	-0
509.411	-0.02
509.608	-0.04
509.805	-0
510.003	-0.04
510.2	-0.03
510.397	0.01
510.594	-0.01
510.791	-0.02
510.988	0
511.184	0.01
511.381	0.01
511.578	-0.02
511.775	0.01
511.972	-0.01
512.169	-0.01
512.366	0.01
512.563	0.01
512.76	-0.03
512.956	0.02
513.153	-0
513.35	0.01
513.547	-0.02
513.744	-0.02
513.94	-0.03
514.137	0
514.334	0.01
514.53	-0.02
514.727	-0.01
514.924	0.03
515.12	-0
515.317	-0.03
515.514	-0.02
515.71	-0.02
515.907	-0.02
516.103	-0.02
516.3	0.01
516.497	0.02
516.693	0.04
516.89	-0.01
517.086	-0.02
517.283	0.01
517.479	0.01
517.676	0.01
517.872	0.01
518.068	-0.01
518.265	-0.01
518.461	-0.01
518.658	-0.05
518.854	-0
519.05	-0.02
519.247	-0.03
519.443	0.01
519.639	-0.01
519.836	0
520.032	0
520.228	-0
520.424	0.03
520.621	0
520.817	0
521.013	0.02
521.209	-0
521.405	0.04
521.601	0
521.798	-0.01
521.994	0.05
522.19	-0.02
522.386	-0.03
522.582	-0
522.778	0
522.974	-0.01
523.17	-0
523.366	0.03
523.562	0.03
523.758	0
523.954	-0.03
524.15	-0.04
524.346	0.01
524.542	-0.02
524.738	-0.02
524.934	-0.01
525.129	-0.01
525.325	0.01
525.521	-0.01
525.717	0.01
525.913	-0
526.109	0.01
526.304	0
526.5	0.01
526.696	0.02
526.892	-0.02
527.087	-0.01
527.283	-0.05
527.479	0.01
527.674	-0.01
527.87	-0.02
528.066	-0.01
528.261	0.02
528.457	0.01
528.653	-0
528.848	-0
529.044	-0.01
529.239	-0.01
529.435	0.02
529.63	-0.01
529.826	0.05
530.021	-0.01
530.217	-0.01
530.412	-0
530.608	-0.02
530.803	-0.01
530.999	-0.01
531.194	-0.04
531.389	-0
531.585	-0.05
531.78	0.01
531.975	-0
532.171	0.02
532.366	-0.01
532.561	-0.01
532.757	-0.02
532.952	-0.01
533.147	0.02
533.342	-0.02
533.538	-0.01
533.733	0.02
533.928	-0.01
534.123	-0.04
534.318	-0.04
534.513	-0.01
534.709	0.01
534.904	-0.02
535.099	-0.01
535.294	-0.03
535.489	-0
535.684	0
535.879	-0.03
536.074	0.01
536.269	-0.02
536.464	0.01
536.659	0.02
536.854	0
537.049	-0.02
537.244	-0.02
537.439	-0
537.634	0.01
537.828	-0.01
538.023	-0.02
538.218	-0.06
538.413	-0.01
538.608	-0.05
538.803	0.02
538.997	-0.03
539.192	0.02
539.387	0.02
539.582	0.01
539.776	-0
539.971	-0.01
540.166	-0.01
540.36	-0.03
540.555	-0.01
540.75	-0
540.944	-0
541.139	-0.01
541.334	-0.02
541.528	0.01
541.723	-0.01
541.917	-0.02
542.112	-0.05
542.306	0
542.501	-0.02
542.695	0
542.89	-0.02
543.084	0
543.279	-0
543.473	0
543.668	-0.01
543.862	-0.01
544.056	0.01
544.251	-0.01
544.445	0
544.64	-0.01
544.834	-0.02
545.028	0.01
545.222	0
545.417	0.02
545.611	0
545.805	0.01
546	-0.01
546.194	-0.01
546.388	-0.03
546.582	-0.01
546.776	-0.02
546.97	-0.02
547.165	-0.01
547.359	0
547.553	-0.03
547.747	0.02
547.941	-0.02
548.135	-0.01
548.329	0.03
548.523	0
548.717	-0.02
548.911	-0.01
549.105	-0.02
549.299	0
549.493	0.02
549.687	-0
549.881	0.01
550.075	-0.02
550.269	-0.03
550.463	0.03
550.657	-0.02
550.85	-0.01
551.044	-0.02
551.238	0
551.432	-0.02
551.626	-0.01
551.82	-0.01
552.013	-0.02
552.207	-0.01
552.401	0.01
552.594	-0.01
552.788	-0.03
552.982	0.01
553.176	-0.02
553.369	0.01
553.563	0
553.756	-0.04
553.95	-0.04
554.144	-0.02
554.337	0.04
554.531	-0.01
554.724	-0.01
554.918	-0
555.111	0.02
555.305	0.01
555.498	0.05
555.692	0.02
555.885	-0.02
556.079	-0
556.272	-0.03
556.466	0
556.659	-0
556.852	-0.01
557.046	-0.01
557.239	-0
557.432	-0.02
557.626	-0
557.819	-0
558.012	0.03
558.206	0.01
558.399	-0.01
558.592	0
558.785	-0.02
558.979	0.03
559.172	0
559.365	0
559.558	0
559.751	0.01
559.944	0.01
560.138	-0.03
560.331	-0.01
560.524	0.01
560.717	-0.01
560.91	-0.01
561.103	0.02
561.296	-0.01
561.489	0.02
561.682	0.01
561.875	0.03
562.068	0.03
562.261	0
562.454	0.02
562.647	0.02
562.84	0.02
563.032	-0.02
563.225	-0.02
563.418	-0
563.611	-0
563.804	-0.01
563.997	-0.01
564.19	-0.03
564.382	-0
564.575	-0.01
564.768	-0.02
564.961	-0
565.153	-0.03
565.346	0.03
565.539	0.03
565.731	0.01
565.924	0.01
566.117	0.02
566.309	-0.02
566.502	-0.04
566.695	0.01
566.887	0
567.08	-0.01
567.272	-0.02
567.465	-0.02
567.657	-0.01
567.85	0
568.042	0
568.235	0.02
568.427	-0.01
568.62	0
568.812	0.01
569.005	-0.02
569.197	-0.04
569.389	-0.01
569.582	0.02
569.774	0
569.966	-0.02
570.159	-0.04
570.351	0
570.543	-0.03
570.736	-0.01
570.928	-0.04
571.12	0.01
571.312	-0.02
571.505	-0.04
571.697	0.02
571.889	-0.04
572.081	-0
572.273	-0.01
572.465	0.02
572.658	0
572.85	0
573.042	-0
573.234	-0.01
573.426	0.05
573.618	-0.03
573.81	0.01
574.002	0.03
574.194	0.05
574.386	-0.03
574.578	-0.06
574.77	-0.02
574.962	-0.03
575.154	-0.02
575.346	-0.02
575.538	-0.01
575.729	-0.02
575.921	-0.01
576.113	-0.03
576.305	0.02
576.497	-0.01
576.689	-0
576.88	-0.02
577.072	0.03
577.264	-0.02
577.456	-0.03
577.647	-0.07
577.839	0
578.031	0.03
578.223	-0.03
578.414	-0.05
578.606	-0
578.798	0.01
578.989	-0.03
579.181	0
579.372	-0.01
579.564	-0.02
579.755	-0
579.947	0.04
580.139	0.01
580.33	-0.07
580.522	-0.04
580.713	-0.08
580.905	-0.01
581.096	0.01
581.287	-0.03
581.479	-0.02
581.67	0.02
581.862	-0.03
582.053	-0.03
582.244	-0.06
582.436	-0.01
582.627	0
582.818	-0.04
583.01	-0.04
583.201	0
583.392	0.05
583.583	0
583.775	-0.01
583.966	-0.03
584.157	-0
584.348	-0.02
584.54	-0.03
584.731	-0
584.922	0.01
585.113	-0.01
585.304	0.02
585.495	0.02
585.686	-0
585.877	-0.01
586.068	0.01
586.259	-0.01
586.45	-0
586.641	-0.02
586.832	-0.05
587.023	-0.01
587.214	-0.02
587.405	-0
587.596	-0.04
587.787	0.03
587.978	-0.02
588.169	-0.04
588.36	-0.02
588.551	0.02
588.742	-0.02
588.932	0.01
589.123	-0
589.314	0.01
589.505	0.01
589.696	0.01
589.886	-0.04
590.077	-0.05
590.268	0.02
590.458	-0.03
590.649	-0.07
590.84	0.02
591.03	-0.03
591.221	-0.04
591.412	-0.05
591.602	0
591.793	0.02
591.984	-0.02
592.174	-0.01
592.365	0.06
592.555	-0.04
592.746	-0.01
592.936	0.01
593.127	0
593.317	0.03
593.508	-0.02
593.698	-0.01
593.889	0.02
594.079	0.01
594.269	-0.02
594.46	-0.01
594.65	-0.02
594.84	-0.02
595.031	-0.05
595.221	-0.04
595.411	-0.06
595.602	0.02
595.792	-0.03
595.982	-0.02
596.172	0.03
596.363	0.02
596.553	-0.02
596.743	0.01
596.933	-0.02
597.123	-0
597.314	-0.05
597.504	-0.02
597.694	0.01
597.884	-0.02
598.074	-0.04
598.264	-0.04
598.454	-0.02
598.644	-0.02
598.834	-0.01
599.024	-0.06
599.214	-0.02
599.404	0.02
599.594	-0.03
599.784	0
599.974	0.04
600.164	0.01
600.354	-0.01
600.544	-0.06
600.734	-0.01
600.924	0.01
601.114	-0.03
601.303	-0
601.493	0.03
601.683	-0.03
601.873	-0
602.063	-0.08
602.252	0.03
602.442	-0.06
602.632	-0.02
602.821	-0.07
603.011	0.01
603.201	-0
603.39	-0.03
603.58	-0.03
603.77	0.01
603.959	0.02
604.149	-0
604.339	-0.02
604.528	0.01
604.718	0.02
604.907	-0.01
605.097	-0.01
605.286	-0.01
605.476	0.03
605.665	-0.02
605.855	-0.02
606.044	0.04
606.234	-0
606.423	0
606.612	-0.03
606.802	0.03
606.991	-0.01
607.181	0.01
607.37	-0.03
607.559	-0.01
607.749	-0.04
607.938	0
608.127	-0
608.316	-0.04
608.506	-0
608.695	0.01
608.884	-0.02
609.073	-0.01
609.263	0.02
609.452	0.02
609.641	0.01
609.83	-0.03
610.019	-0.02
610.208	-0.04
610.397	-0
610.586	-0
610.775	-0.03
610.965	-0.01
611.154	0
611.343	0
611.532	-0.02
611.721	-0.04
611.91	-0.05
612.099	0.01
612.287	-0.02
612.476	-0.05
612.665	-0
612.854	-0.03
613.043	0.02
613.232	-0.03
613.421	-0.03
613.61	0
613.798	-0.03
613.987	0.03
614.176	-0.02
614.365	0.03
614.554	0.01
614.742	0
614.931	-0.03
615.12	-0.01
615.309	-0.01
615.497	0.01
615.686	-0.05
615.875	0
616.063	-0
616.252	-0.01
616.44	-0.04
616.629	0
616.818	0.03
617.006	-0.04
617.195	-0.02
617.383	-0.02
617.572	-0
617.76	-0.01
617.949	-0.04
618.137	0.04
618.326	0.02
618.514	-0.04
618.703	-0.05
618.891	0.06
619.079	-0.08
619.268	0.02
619.456	-0.02
619.644	0.06
619.833	-0.04
620.021	-0.03
620.209	-0.06
620.398	-0.02
620.586	-0.01
620.774	0.01
620.962	-0.04
621.151	0.05
621.339	-0.02
621.527	-0.04
621.715	-0.01
621.903	-0.04
622.092	-0.07
622.28	-0.01
622.468	-0.01
622.656	0
622.844	-0.01
623.032	-0.04
623.22	-0.09
623.408	-0.01
623.596	0.03
623.784	-0
623.972	-0.02
624.16	-0.03
624.348	0.04
624.536	-0.02
624.724	-0.02
624.912	0.04
625.1	0.03
625.288	-0.02
625.476	-0.06
625.664	0
625.851	-0.04
626.039	0
626.227	-0.02
626.415	-0.03
626.603	-0.08
626.79	-0.02
626.978	-0.03
627.166	-0.02
627.354	-0.01
627.541	-0.03
627.729	-0.06
627.917	0.01
628.104	0.03
628.292	-0.01
628.48	0
628.667	0.01
628.855	-0
629.042	-0
629.23	0.01
629.418	-0
629.605	-0.03
629.793	-0.03
629.98	-0.04
630.168	-0.03
630.355	-0.01
630.543	-0.01
630.73	-0.04
630.917	0.04
631.105	0.06
631.292	-0.02
631.48	0.01
631.667	0.06
631.854	0
632.042	-0.02
632.229	-0.04
632.416	0.03
632.604	0.01
632.791	-0.04
632.978	0.05
633.165	0.02
633.353	0.05
633.54	0.04
633.727	-0.07
633.914	-0.03
634.101	-0.07
634.289	0.04
634.476	-0.02
634.663	-0.04
634.85	0.02
635.037	-0
635.224	-0.06
635.411	0.02
635.598	0.02
635.785	0.02
635.972	0
636.159	0.03
636.346	-0.03
636.533	-0.01
636.72	0.02
636.907	-0.01
637.094	0.03
637.281	0.02
637.468	0.01
637.655	0.03
637.842	-0.01
638.029	-0
638.215	0.04
638.402	0.03
638.589	-0.03
638.776	-0.02
638.963	-0.03
639.149	0.03
639.336	0.05
639.523	-0.01
639.709	0.01
639.896	0.02
640.083	0.09
640.27	0.05
640.456	-0
640.643	-0
640.829	-0.03
641.016	0
641.203	-0.01
641.389	0.01
641.576	0.02
641.762	-0
641.949	-0.03
642.135	0.03
642.322	0.05
642.508	-0.01
642.695	0.04
642.881	0
643.068	0.02
643.254	-0.01
643.441	0.04
643.627	0.02
643.813	-0
644	0.07
644.186	-0.01
644.372	0.05
644.559	0.08
644.745	0.02
644.931	0.02
645.118	0.03
645.304	0.05
645.49	0
645.676	-0.01
645.862	0.02
646.049	0.08
646.235	0.05
646.421	0.07
646.607	0.1
646.793	0.03
646.979	0.01
647.165	0.04
647.352	0.04
647.538	0.12
647.724	0.02
647.91	0.03
648.096	0.05
648.282	0.05
648.468	0.04
648.654	0.05
648.84	0.03
649.026	0.05
649.212	0.05
649.397	0.03
649.583	-0.02
649.769	0.04
649.955	0.07
650.141	0.06
650.327	0.09
650.513	0.01
650.698	0.08
650.884	-0
651.07	0.05
651.256	0.06
651.442	0.05
651.627	0.05
651.813	0.07
651.999	0.05
652.184	0.05
652.37	0.04
652.556	0.05
652.741	0.1
652.927	-0.02
653.113	0.08
653.298	0.05
653.484	0.04
653.669	0.03
653.855	0.07
654.04	0.08
654.226	0.05
654.412	0.06
654.597	0.06
654.782	0.09
654.968	0.11
655.153	0.11
655.339	0.05
655.524	0.02
655.71	0.08
655.895	0.06
656.08	0.06
656.266	0.13
656.451	0.1
656.636	0.07
656.822	0.11
657.007	0.05
657.192	0.05
657.378	0.04
657.563	0.08
657.748	0.1
657.933	0.1
658.118	0.08
658.304	0.08
658.489	0.12
658.674	0.09
658.859	0.02
659.044	0.12
659.229	0.08
659.414	0.08
659.599	0.06
659.785	0.03
659.97	0.06
660.155	0.14
660.34	0.13
660.525	0.07
660.71	0.09
660.895	0.11
661.08	0.05
661.264	0.07
661.449	0.11
661.634	0.13
661.819	0.09
662.004	0.09
662.189	0.02
662.374	0.02
662.559	0.03
662.743	0.02
662.928	0.05
663.113	0.05
663.298	0.05
663.483	0.04
663.667	0.07
663.852	0.02
664.037	0.13
664.221	0.03
664.406	0.09
664.591	0.07
664.775	0.07
664.96	0.02
665.145	0.03
665.329	0.03
665.514	-0.02
665.698	0.02
665.883	-0
666.068	0.1
666.252	0.04
666.437	0
666.621	0.01
666.806	0.04
666.99	0.03
667.174	-0.04
667.359	0.11
667.543	-0.03
667.728	0.03
667.912	-0.06
668.096	0.05
668.281	0.03
668.465	-0.02
668.649	0.04
668.834	-0.03
669.018	-0.02
669.202	-0.02
669.387	-0.01
669.571	0.08
669.755	-0.02
669.939	-0.01
670.124	0.03
670.308	0.1
670.492	0.01
670.676	0.01
670.86	-0.01
671.044	-0.05
671.228	0.02
671.413	-0.04
671.597	-0.02
671.781	-0.07
671.965	-0
672.149	0.01
672.333	0.02
672.517	-0.04
672.701	-0
672.885	0.01
673.069	-0.06
673.253	0.07
673.437	-0.04
673.621	-0.03
673.804	0.01
673.988	0.02
674.172	-0.02
674.356	-0.04
674.54	-0.04
674.724	0.09
674.908	0.02
675.091	-0
675.275	-0.01
675.459	0.01
675.643	-0.03
675.826	0.01
676.01	-0
676.194	0.01
676.377	0.03
676.561	-0.02
676.745	-0.02
676.928	0.02
677.112	-0
677.296	-0.05
677.479	-0.01
677.663	-0.04
677.846	0.01
678.03	0.01
678.213	0.01
678.397	0.01
678.58	-0.05
678.764	-0.03
678.947	0.01
679.131	-0.07
679.314	0.01
679.498	-0.03
679.681	0.01
679.865	0
680.048	-0.03
680.231	-0.01
680.415	-0.03
680.598	0
680.781	-0.03
680.965	-0.04
681.148	0.04
681.331	-0.03
681.514	-0.02
681.698	-0.06
681.881	-0.03
682.064	-0.01
682.247	0.02
682.43	-0.09
682.614	-0.01
682.797	0.04
682.98	0.01
683.163	-0.05
683.346	-0
683.529	-0.03
683.712	-0.04
683.895	0.01
684.078	-0.05
684.261	-0.03
684.444	0
684.627	-0.04
684.81	-0.06
684.993	-0.02
685.176	0.03
685.359	-0.07
685.542	-0.01
685.725	0.06
685.908	-0.02
686.091	-0.05
686.274	-0
686.457	-0
686.639	-0.03
686.822	0
687.005	0.01
687.188	0.04
687.371	0.02
687.553	0
687.736	0.02
687.919	0.05
688.102	0.13
688.284	0.01
688.467	-0
688.65	-0.03
688.832	-0.06
689.015	-0.05
689.197	-0.08
689.38	0.06
689.563	0.07
689.745	-0.01
689.928	-0.03
690.11	-0.02
690.293	0.01
690.475	-0.07
690.658	-0.01
690.84	-0.04
691.023	-0.05
691.205	-0.07
691.388	0.03
691.57	-0.02
691.752	0.01
691.935	-0.07
692.117	-0.04
692.3	-0.01
692.482	-0.05
692.664	-0.04
692.847	0.04
693.029	0.04
693.211	0.05
693.393	-0.06
693.576	0
693.758	0.02
693.94	-0.07
694.122	-0.08
694.304	-0.02
694.487	0.05
694.669	0.1
694.851	-0.07
695.033	-0.04
695.215	-0.05
695.397	-0.08
695.579	-0.01
695.761	-0.04
695.943	-0.07
696.125	0.09
696.308	0.01
696.49	-0.1
696.671	0.11
696.853	-0.03
697.035	0.12
697.217	-0.01
697.399	0.04
697.581	-0.07
697.763	-0.07
697.945	-0
698.127	-0.04
698.309	0.01
698.491	0
698.672	0.04
698.854	-0.01
699.036	0.03
699.218	-0
699.399	0.01
699.581	0.03
699.763	0.01
699.945	-0.06
700.126	-0.03
700.308	-0.01
700.49	-0.01
700.671	-0.13
700.853	-0.04
701.035	-0.04
701.216	-0
701.398	-0.11
701.579	-0.02
701.761	0.06
701.943	-0.05
702.124	-0.03
702.306	-0.01
702.487	0.08
702.669	-0.02
702.85	-0.02
703.031	-0.09
703.213	0.06
703.394	0.04
703.576	0
703.757	-0.01
703.938	0.02
704.12	0.14
704.301	-0.01
704.483	-0.04
704.664	-0.05
704.845	0.08
705.026	0.07
705.208	0.03
705.389	-0.01
705.57	-0
705.751	-0.01
705.933	-0.02
706.114	0.07
706.295	-0.01
706.476	-0.08
706.657	0.05
706.838	-0.01
707.02	0.03
707.201	-0.03
707.382	-0.04
707.563	-0.02
707.744	-0.07
707.925	-0.05
708.106	-0.08
708.287	0.05
708.468	0.07
708.649	-0.03
708.83	0.01
709.011	-0.07
709.192	0.03
709.373	-0.1
709.554	-0.02
709.734	0.02
709.915	0.04
710.096	-0.1
710.277	-0.11
710.458	0.02
710.639	0.09
710.819	-0.09
711	-0
711.181	0.06
711.362	-0.01
711.542	0.01
711.723	0.01
711.904	0.05
712.085	-0.04
712.265	0.04
712.446	-0.03
712.627	0.01
712.807	-0.05
712.988	-0.01
713.168	-0.08
713.349	-0.03
713.53	-0.1
713.71	-0.09
713.891	-0.08
714.071	-0.05
714.252	0
714.432	-0.02
714.613	-0.08
714.793	-0
714.974	0.1
715.154	0
715.334	0.01
715.515	0.01
715.695	-0.05
715.876	0.02
716.056	-0.01
716.236	-0.07
716.417	-0.03
716.597	-0.09
716.777	0.17
716.957	-0.04
717.138	0.03
717.318	-0.06
717.498	0
717.678	0.02
717.859	-0.01
718.039	-0.06
718.219	0.02
718.399	0.03
718.579	-0.07
718.759	-0.07
718.939	0
719.12	-0
719.3	-0
719.48	-0.06
719.66	-0.1
719.84	0.09
720.02	0.03
720.2	-0.05
720.38	0.02
720.56	0.12
720.74	0.04
720.92	0.06
721.1	0.08
721.279	0.14
721.459	-0
721.639	-0.06
721.819	0.05
721.999	0.03
722.179	0.07
722.359	-0.15
722.538	-0.01
722.718	0.07
722.898	0.02
723.078	-0.06
723.257	-0.02
723.437	0
723.617	0.06
723.797	0.03
723.976	0.07
724.156	-0.01
724.336	0.1
724.515	0.18
724.695	-0.13
724.874	0.01
725.054	0.02
725.234	-0.03
725.413	0.1
725.593	-0.03
725.772	0.1
725.952	0.02
726.131	0.09
726.311	0.04
726.49	0.06
726.67	-0.08
726.849	0.03
727.028	0.07
727.208	-0.01
727.387	0.02
727.567	-0.02
727.746	0
727.925	-0.04
728.105	-0.08
728.284	-0.01
728.463	0.03
728.643	0
728.822	-0.09
729.001	0.05
729.18	0.04
729.359	0.12
729.539	0.03
729.718	-0
729.897	0.12
730.076	0.03
730.255	-0.06
730.434	0.09
730.614	0.11
730.793	0.15
730.972	-0.01
731.151	0.07
731.33	0.1
731.509	0.08
731.688	0.02
731.867	0.07
732.046	-0.01
732.225	0.22
732.404	0.01
732.583	-0.04
732.762	0.08
732.941	0.07
733.12	0.01
733.298	-0.05
733.477	0.14
733.656	0.03
733.835	-0.03
734.014	0.2
734.193	0.03
734.371	0.17
734.55	0.18
734.729	-0.07
734.908	0.11
735.086	0.06
735.265	0.15
735.444	-0.06
735.623	0.02
735.801	-0.03
735.98	0.05
736.159	0.03
736.337	0.15
736.516	0.09
736.694	0.11
736.873	0.14
737.052	0.29
737.23	0.13
737.409	0.04
737.587	0.14
737.766	-0.14
737.944	0.01
738.123	0.12
738.301	0.09
738.479	0.1
738.658	0.06
738.836	-0.06
739.015	0.15
739.193	0.24
739.371	-0.1
739.55	0.06
739.728	-0.04
739.906	0.17
740.085	0.2
740.263	0.08
740.441	-0.06
740.62	0.25
740.798	0.12
740.976	-0.04
741.154	0.01
741.332	0.12
741.511	0.02
741.689	0.04
741.867	0.05
742.045	0.04
742.223	0.08
742.401	-0.02
742.579	-0.01
742.757	0.07
742.935	-0.06
743.114	-0.07
743.292	-0.01
743.47	-0.01
743.648	0.02
743.826	0.02
744.004	0.03
744.181	-0.08
744.359	0.01
744.537	0.01
744.715	0.05
744.893	-0.02
745.071	-0.04
745.249	-0.03
745.427	0.02
745.605	0.06
745.782	-0.05
745.96	-0.02
746.138	0.04
746.316	0.18
746.493	-0.05
746.671	0.07
746.849	0.04
747.027	0.16
747.204	-0.09
747.382	-0.02
747.56	-0.16
747.737	0.03
747.915	-0.05
748.093	-0.09
748.27	-0.05
748.448	-0.07
748.625	-0.11
748.803	-0.02
748.98	-0.07
749.158	0.07
749.335	0.09
749.513	-0.01
749.69	-0
749.868	-0.02
750.045	-0.01
750.223	-0.09
750.4	-0.18
750.578	0.22
750.755	-0.02
750.932	-0.14
751.11	0.1
751.287	-0.17
751.464	0.09
751.642	-0.02
751.819	0.11
751.996	0.01
752.173	0
752.351	-0.06
752.528	-0.05
752.705	0.04
752.882	-0.1
753.06	0.01
753.237	0.07
753.414	0.16
753.591	0.03
753.768	0.02
753.945	-0.06
754.122	0.05
754.299	0.14
754.476	-0.13
754.654	0.03
754.831	0.01
755.008	0.08
755.185	-0.09
755.362	-0.15
755.539	0.09
755.716	-0.07
755.892	-0.06
756.069	-0.08
756.246	0.01
756.423	-0.08
756.6	-0
756.777	-0
756.954	0.22
757.131	-0.06
757.307	-0.12
757.484	-0.07
757.661	-0.08
757.838	-0
758.015	-0.22
758.191	0.16
758.368	-0.01
758.545	0.09
758.721	-0.01
758.898	-0.13
759.075	-0.03
759.251	0.01
759.428	0.05
759.605	-0.16
759.781	-0.06
759.958	-0.01
760.134	0.02
760.311	-0.17
760.488	0.08
760.664	0.19
760.841	-0.06
761.017	-0.05
761.194	-0.01
761.37	0.04
761.547	-0.08
761.723	-0.04
761.899	0.06
762.076	-0.15
762.252	-0.15
762.429	-0.15
762.605	0.07
762.781	-0.01
762.958	-0.03
763.134	-0.07
763.31	-0.16
763.486	0.13
763.663	-0.19
763.839	-0.02
764.015	-0.22
764.191	-0.08
764.368	0.07
764.544	-0.07
764.72	0
764.896	0.03
765.072	-0.04
765.248	-0.12
765.425	-0.02
765.601	-0.1
765.777	0.03
765.953	-0.22
766.129	-0.04
766.305	-0.24
766.481	0.06
766.657	-0.04
766.833	0.15
767.009	-0.24
767.185	-0.08
767.361	-0.13
767.537	-0.1
767.713	0.06
767.889	-0.03
768.065	-0.06
768.24	0.04
768.416	-0.04
768.592	-0.07
768.768	-0.08
768.944	-0.08
769.12	-0.18
769.295	-0.2
769.471	-0.06
769.647	-0.14
769.823	0.09
769.998	-0.13
770.174	-0.12
770.35	0.2
770.525	0.21
770.701	-0.02
770.877	-0.01
771.052	-0.06
771.228	0.18
771.403	-0.02
771.579	0.04
771.755	0.26
771.93	-0.09
772.106	-0.15
772.281	-0.18
772.457	0.02
772.632	0.01
772.808	-0.31
772.983	0.03
773.159	-0.11
773.334	-0.01
773.509	-0.06
773.685	-0.09
773.86	0.27
774.036	0.05
774.211	-0.01
774.386	-0.02
774.562	-0.01
774.737	-0.07
774.912	-0.14
775.087	0.08
775.263	0
775.438	-0.11
775.613	-0.2
775.788	-0.06
775.964	-0
776.139	0.21
776.314	-0.23
776.489	-0.07
776.664	-0.08
776.839	-0.27
777.014	0.06
777.19	-0.12
777.365	0.14
777.54	0.08
777.715	-0.1
777.89	-0.09
778.065	-0.34
778.24	0.04
778.415	0.08
778.59	-0.17
778.765	-0.22
778.94	-0.01
779.115	-0.07
779.289	-0.13
779.464	0
779.639	-0.07
779.814	-0.11
779.989	-0.22
780.164	0.11
780.339	0.09
780.513	-0.09
780.688	-0.2
780.863	0.01
781.038	0.16
781.212	-0.2
781.387	0.08
781.562	0.03
781.737	-0.03
781.911	0.08
782.086	-0.18
782.261	-0.08
782.435	0.24
782.61	0.02
782.784	0.04
782.959	0.14
783.134	-0.06
783.308	-0.11
783.483	-0.24
783.657	0.31
783.832	-0.03
784.006	-0.3
784.181	0.03
784.355	0.14
784.53	0.06
784.704	-0.18
784.878	0.25
785.053	0.04
785.227	0.02
785.402	0.35
785.576	-0.15
785.75	-0.16
785.925	-0.1
786.099	-0.05
786.273	0.11
786.448	0.05
786.622	0.03
786.796	-0.31
786.97	-0.17
787.145	0.31
787.319	-0.42
787.493	-0.2
787.667	-0.38
787.841	-0.07
788.015	-0.01
788.19	-0.22
788.364	-0.07
788.538	-0.06
788.712	0.09
788.886	-0.25
789.06	0.21
789.234	0.28
789.408	-0.41
789.582	-0.19
789.756	-0.2
789.93	-0.25
790.104	0.04
790.278	-0.05
790.452	-0.3
790.626	-0.04
790.8	-0.11
790.973	0.05
791.147	0.17
791.321	0.15
791.495	-0.19
791.669	0.05
791.843	0.01
792.016	-0.01
792.19	0.32
792.364	-0.22
792.538	0.4
792.711	0.27
792.885	-0.13
793.059	-0.23
793.233	-0.32
793.406	0.17
793.58	0.17
793.754	-0.34
793.927	0.05
794.101	0.11
794.274	0.09
794.448	0.14
794.622	-0.18
794.795	0.25
794.969	-0.25
795.142	0.2
795.316	0.07
795.489	-0.18
795.663	0.34
795.836	0.1
796.009	-0.12
796.183	0.07
796.356	0.11
796.53	-0.1
796.703	-0.1
796.876	0.42
797.05	-0.16
797.223	-0.09
797.396	-0.06
797.57	0.03
797.743	0.04
797.916	-0.08
798.09	-0.26
798.263	0.06
798.436	-0.09
798.609	-0.21
798.782	-0.3
798.956	-0.06
799.129	-0.1
799.302	-0.38
799.475	-0.17
799.648	-0.46
799.821	-0.2
799.994	-0.11
800.167	-0.3
800.34	0
800.514	0.01
800.687	-0.32
800.86	-0.21
801.033	0.41
801.206	-0.31
801.379	-0.24
801.551	0.33
801.724	0.03
801.897	0.27
802.07	-0.24
802.243	-0.44
802.416	-0.35
802.589	-0.3
802.762	0.13
802.935	-0.09
803.107	0.2
803.28	0.22
803.453	-0.18
803.626	-0.34
803.798	-0.14
803.971	-0.28
804.144	0.37
804.317	0.09
804.489	0.13
804.662	-0.05
804.835	0.03
805.007	-0.25
805.18	0.33
805.353	0.04
805.525	-0.15
805.698	-0.11
805.87	0.18
806.043	0.2
806.215	-0.39
806.388	0
806.56	-0.18
806.733	0.07
806.905	0.2
807.078	0.06
807.25	-0.39
807.423	0
807.595	0.12
807.768	-0.23
807.94	0.04
808.112	-0.06
808.285	0.03
808.457	-0.28
808.629	0.19
808.802	-0.21
808.974	0.05
809.146	-0.37
809.318	-0.43
809.491	-0.29
809.663	0.12
809.835	-0.5
810.007	0.18
810.18	-0.03
810.352	-0.32
810.524	-0.37
810.696	-0.23
810.868	0.31
811.04	-0.4
811.212	0.04
811.384	0.46
811.556	-0.15
811.728	0.05
811.901	0.35
812.073	-0.12
812.245	0.12
812.417	-0.09
812.589	-0.6
812.76	0.3
812.932	-0.28
813.104	0.48
813.276	-0.05
813.448	0.37
813.62	-0.34
813.792	0.17
813.964	0.26
814.136	0.01
814.307	-0.56
814.479	-0.28
814.651	-0.39
814.823	0.82
814.995	-0.32
815.166	-0.07
815.338	-0.78
815.51	-0.38
815.681	0.45
815.853	-0.01
816.025	-0.26
816.196	0.27
816.368	0.09
816.54	-0.03
816.711	-0.07
816.883	0.27
817.054	0.72
817.226	-1.18
817.398	0.12
817.569	-0.45
817.741	-0.36
817.912	0.17
818.084	-0.02
818.255	0.07
818.426	-0.27
818.598	-0.09
818.769	-0.59
818.941	-0.21
819.112	0.61
819.283	0.18
819.455	-0.4
819.626	-0.21
819.798	0.36
819.969	-0.25
820.14	-0.13
820.311	-0.18
820.483	-0.42
820.654	-0.08
820.825	0.02
820.996	-0.37
821.168	-0.76
821.339	-0.07
821.51	-0.66
821.681	0.29
821.852	0.18
822.023	-0.17
822.195	-0.46
822.366	0.24
822.537	-0.36
822.708	-0.06
822.879	-0.33
823.05	0.94
823.221	-0.49
823.392	0.5
823.563	-0.35
823.734	-0.09
823.905	-0.14
824.076	-0.77
824.247	-0.27
824.418	-0.5
824.589	0.99
824.759	-0.12
824.93	-0.36
825.101	-0.18
825.272	0.58
825.443	0.26
825.614	0.88
825.784	-1.43
825.955	1.03
826.126	0.68
826.297	-0.25
826.467	0.14
826.638	0.76
826.809	-0.49
826.98	-0.29
827.15	0.37
827.321	-0.17
827.492	-0.13
827.662	-0.01
827.833	0.99
828.003	0.17
828.174	-0.61
828.345	-0.71
828.515	0.17
828.686	-0.74
828.856	-0.31
829.027	0.41
829.197	-0.5
829.368	0.56
829.538	0.04
829.709	-0.35
829.879	-0.09
830.049	-0.2
830.22	-0.05
830.39	-0.16
830.56	0.49
830.731	0.2
830.901	-0.19
831.072	-0.35
831.242	0.18
831.412	0.05
831.582	0.26
831.753	-0.82
831.923	0.31
832.093	-0.09
832.263	-0.47
832.434	-0.76
832.604	-0.16
832.774	0.12
832.944	-0.28
833.114	-0.24
833.284	0.22
833.454	-0.34
833.624	-0.16
833.795	-0.65
833.965	-0.01
834.135	0.48
834.305	-1.11
834.475	-0.33
834.645	-0.34
834.815	-0.41
834.985	-0.39
835.155	0.14
835.325	0.17
835.494	0.11
835.664	-0.02
835.834	-1.22
836.004	-0.58
836.174	0.06
836.344	-0.6
836.514	-1.47
836.684	-0.52
836.853	0.23
837.023	-0.29
837.193	-0.42
837.363	0.47
837.532	0.26
837.702	0.11
837.872	-0.58
838.041	0.61
838.211	1.16
838.381	-0.84
838.55	-0.53
838.72	1
838.89	0.51
839.059	-0.28
839.229	-0.83
839.398	1.6
839.568	-0.15
839.738	-0.35
839.907	0.54
840.077	-0.35
840.246	-0.71
840.416	-1.33
840.585	-1.26
840.755	0.65
840.924	0.68
841.093	-0.32
841.263	-0.06
841.432	0.12
841.602	-1.13
841.771	-0.44
841.94	-0.82
842.11	1.95
842.279	1.14
842.448	-0.73
842.617	-0.21
842.787	1
842.956	-1.02
843.125	-0.48
843.294	-0.1
843.464	0.57
843.633	0.19
843.802	-0.83
843.971	-0.43
844.14	0.66
844.309	0.35
844.479	-0.32
844.648	-0.93
844.817	-0.54
844.986	-0.33
845.155	-0.31
845.324	-0.41
845.493	-0.72
845.662	-0.48
845.831	0.07
846	0.7
846.169	-0.68
846.338	1.54
846.507	0.58
846.676	-0.81
846.844	-0.36
847.013	0.06
847.182	-0.53
847.351	-0.33
847.52	-0.43
847.689	-0.11
847.858	-0.72
848.026	-1.17
848.195	-0.3
848.364	-0.35
848.533	-0.93
848.701	-0.77
848.87	-0.07
849.039	0.7
849.207	-0.06
849.376	0.34
849.545	0.76
849.713	-0.95
849.882	-1.09
850.051	-0.97
850.219	0.45
850.388	0.13
850.556	-0.95
850.725	-0.41
850.893	-0.25
851.062	0.28
851.23	0.6
851.399	-1.35
851.567	-0.08
851.736	-0.65
851.904	-1.25
852.073	-0.01
852.241	0.16
852.41	0.65
852.578	-0.25
852.746	-1.1
852.915	-0.38
853.083	0.39
853.251	-1.06
853.42	-0.75
853.588	0.55
853.756	0.1
853.924	0.23
854.093	0.1
854.261	-1.02
854.429	-0.93
854.597	0.11
854.765	-1.02
854.934	-0.19
855.102	1.28
855.27	-0.8
855.438	0.07
855.606	0.17
855.774	1.54
855.942	-2.21
856.11	-1.88
856.278	-0.78
856.446	0.01
856.614	-0.69
856.782	-1.42
856.95	1.16
857.118	-0.82
857.286	0.09
857.454	-1.11
857.622	0.94
857.79	0.44
857.958	-0.89
858.126	-2.03
858.294	-3.38
858.462	-0.92
858.629	0.08
858.797	-1.03
858.965	0.42
859.133	-0.09
859.301	-1.75
859.468	0.73
859.636	0.24
859.804	0.83
859.971	0.88
860.139	-1.44
860.307	0.79
860.474	-0.29
860.642	-1.72
860.81	-0.21
860.977	-0.29
861.145	1.45
861.313	0.1
861.48	0.65
861.648	0.53
861.815	-0.47
861.983	-1.53
862.15	0.29
862.318	-1.11
862.485	1.33
862.653	-1.12
862.82	-1.76
862.988	1.15
863.155	-0.71
863.322	-2.18
863.49	-0.92
863.657	-1.8
863.824	0.31
863.992	-0.46
864.159	0.01
864.326	0.87
864.494	-1.34
864.661	1.56
864.828	-2.17
864.996	1.42
865.163	1.04
865.33	-0.93
865.497	-3.47
865.664	-0.82
865.832	-2.65
865.999	-1.29
866.166	-1.22
866.333	-1.21
866.5	-1.86
866.667	0.37
866.834	-1.4
867.001	-0
867.168	-2.06
867.335	0.44
867.502	-1.46
867.669	-1.25
867.836	1.74
868.003	-0.49
868.17	0.69
868.337	1.21
868.504	1.95
868.671	-1.22
868.838	-1.35
869.005	-1.36
869.172	-0.33
869.339	-0.69
869.505	-1.88
869.672	-2.74
869.839	1.85
870.006	0.51
870.173	-1.6
870.339	0.81
870.506	1.46
870.673	-2.14
870.84	0.41
871.006	-0.01
871.173	-1.2
871.34	-0.21
871.506	-1.02
871.673	0.12
871.839	-1.38
872.006	0.49
872.173	-1.29
872.339	-0.4
872.506	1.52
872.672	-0.99
872.839	-2.67
873.005	0.51
873.172	3.83
873.338	0.34
873.505	-0.99
873.671	0.08
873.838	-0.36
874.004	-2.1
874.171	-1.01
874.337	0.8
874.503	0.77
874.67	-0.73
874.836	-0.89
875.002	2.83
875.169	-0.56
875.335	0.87
875.501	-0.71
875.668	0.14
875.834	-1.87
876	-0.66
876.166	1.94
876.332	-2.23
876.499	2.39
876.665	-1.09
876.831	0.1
876.997	2.7
877.163	-1.75
877.329	-1.73
877.495	1.26
877.662	-0.87
877.828	0.09
877.994	1.49
878.16	-1.72
878.326	-1.78
878.492	0.83
878.658	-1.71
878.824	0.2
878.99	0.63
879.156	-1.66
879.322	3
879.487	-0.49
879.653	0.7
879.819	0.03
879.985	-0.6
880.151	0.27
880.317	1.08
880.483	-1.29
880.648	0.7
880.814	-3.03
880.98	0.27
881.146	-2
881.312	-2.2
881.477	-1.51
881.643	-0.7
881.809	1.07
881.974	1.31
882.14	-1.9
882.306	-0.53
882.471	3.61
882.637	-1.81
882.803	-0.72
882.968	1.7
883.134	2.67
883.299	0.55
883.465	-1.61
883.63	1.21
883.796	0.59
883.961	1.1
884.127	0.25
884.292	-3.27
884.458	-2.2
884.623	-2.2
