Data from Apollo_Calib_20240827__AbsoluteIrradiance__698__10-47-00-772.txt Node

Date: Wed Aug 28 10:47:00 BST 2024
User: biology
Spectrometer: FLMT08252
Trigger mode: 0
Integration Time (sec): 5.000000E-1
Scans to average: 5
Electric dark correction enabled: true
Nonlinearity correction enabled: false
Boxcar width: 0
XAxis mode: Wavelengths
Number of Pixels in Spectrum: 3648
>>>>>Begin Spectral Data<<<<<
179.588	-0
179.809	-0
180.03	-0
180.251	-0
180.473	-0
180.694	0
180.915	0
181.136	-0
181.357	0
181.578	0
181.799	-0
182.02	-0
182.241	0
182.462	-0
182.683	0
182.904	-0
183.125	-0
183.346	0
183.567	0
183.788	0
184.009	-0
184.23	0
184.451	0
184.672	-0
184.892	-0
185.113	0
185.334	0
185.555	-0
185.776	-0
185.996	0
186.217	0
186.438	-0
186.659	-0
186.879	0
187.1	0
187.321	-0
187.541	-0
187.762	0
187.983	-0
188.203	-0
188.424	-0
188.644	-0
188.865	-0
189.086	-0
189.306	-0
189.527	-0
189.747	-0
189.968	-0
190.188	0
190.409	0
190.629	0
190.849	-0
191.07	-0
191.29	-0
191.511	-0
191.731	-0
191.951	-0
192.172	-0
192.392	-0
192.612	-0
192.833	-0
193.053	0
193.273	0
193.493	-0
193.714	-0
193.934	0
194.154	0
194.374	-0
194.594	0
194.815	-0
195.035	-0
195.255	-0
195.475	-0
195.695	-0
195.915	0
196.135	-0
196.355	0
196.575	0
196.795	0
197.015	-0
197.235	-0
197.455	-0
197.675	-0
197.895	-0
198.115	-0
198.335	0
198.555	-0
198.775	-0
198.995	0
199.214	0
199.434	0
199.654	-0
199.874	-0
200.094	0.95
200.313	-0.31
200.533	-0.96
200.753	-0.74
200.973	0.48
201.192	0
201.412	-0.87
201.632	-0.35
201.851	0.7
202.071	-1.18
202.291	-0.69
202.51	-0.72
202.73	-0.06
202.95	-0.48
203.169	-0.48
203.389	0.19
203.608	0
203.828	-0.81
204.047	-0.49
204.267	-0.11
204.486	-0.03
204.706	-0.31
204.925	-0.06
205.145	-0.69
205.364	0.1
205.583	0.36
205.803	-0.52
206.022	-0.4
206.242	-0.23
206.461	-0.53
206.68	-0.48
206.9	0.09
207.119	0.06
207.338	0.24
207.557	-0.5
207.777	-0.22
207.996	-0.36
208.215	0.29
208.434	-0.59
208.654	-0.77
208.873	-0.08
209.092	0.42
209.311	-0.5
209.53	-0.17
209.749	-0.45
209.968	-0.12
210.187	-0.18
210.407	-0.74
210.626	-0.18
210.845	0.11
211.064	-0.18
211.283	-0.42
211.502	0.05
211.721	0.06
211.94	0.08
212.159	0.2
212.377	0.3
212.596	0.31
212.815	0.06
213.034	0.04
213.253	0.09
213.472	0.09
213.691	-0.21
213.91	-0.25
214.128	-0.21
214.347	0.27
214.566	-0.4
214.785	-0.44
215.003	0.01
215.222	-0.09
215.441	-0.14
215.66	-0.24
215.878	-0.12
216.097	0.17
216.316	-0.23
216.534	-0.13
216.753	-0.14
216.972	-0.15
217.19	-0.21
217.409	-0.29
217.627	-0.2
217.846	-0.17
218.064	-0.19
218.283	-0.36
218.501	0.15
218.72	0.19
218.938	-0.31
219.157	-0.24
219.375	-0.06
219.594	-0.09
219.812	-0.19
220.031	-0.31
220.249	0.2
220.467	0.15
220.686	-0.25
220.904	-0.38
221.122	-0.21
221.341	0.16
221.559	-0.04
221.777	-0.22
221.995	-0.08
222.214	0
222.432	-0.11
222.65	-0.03
222.868	-0.09
223.086	0.01
223.305	0.06
223.523	-0.03
223.741	0.12
223.959	-0.24
224.177	-0.25
224.395	-0.03
224.613	-0.07
224.831	-0.02
225.049	-0.22
225.267	-0.14
225.485	-0.06
225.703	-0.06
225.921	-0.13
226.139	-0.24
226.357	0.11
226.575	0.06
226.793	-0.09
227.011	0.42
227.229	0.08
227.447	0.04
227.665	-0.12
227.883	-0.18
228.1	-0.07
228.318	0.07
228.536	-0.33
228.754	-0.17
228.972	-0.04
229.189	0.05
229.407	-0.17
229.625	-0.08
229.843	0.01
230.06	0.04
230.278	-0.19
230.496	0.04
230.713	-0.08
230.931	0.21
231.149	-0.07
231.366	-0.3
231.584	-0.03
231.801	0.24
232.019	-0.1
232.236	-0.21
232.454	-0.18
232.671	-0.01
232.889	-0.07
233.106	-0.15
233.324	-0.07
233.541	-0.04
233.759	-0.08
233.976	-0.11
234.194	-0.01
234.411	-0.06
234.628	-0.13
234.846	-0.13
235.063	-0.11
235.28	-0.04
235.498	-0
235.715	-0.23
235.932	0.1
236.149	-0.09
236.367	-0.07
236.584	-0
236.801	-0.07
237.018	-0.01
237.236	-0.04
237.453	-0.22
237.67	0.1
237.887	-0.1
238.104	-0.05
238.321	-0.17
238.538	-0.05
238.755	-0.01
238.973	-0.15
239.19	-0.02
239.407	0.03
239.624	-0.06
239.841	-0.25
240.058	-0.12
240.275	0.08
240.492	-0.1
240.709	-0.08
240.925	-0.11
241.142	-0.01
241.359	-0.19
241.576	-0.08
241.793	-0.04
242.01	-0.02
242.227	0.05
242.444	0.01
242.66	-0
242.877	0.03
243.094	-0.16
243.311	-0.07
243.527	-0.07
243.744	-0.05
243.961	-0.02
244.178	-0.14
244.394	-0.08
244.611	0.02
244.828	0.11
245.044	-0.12
245.261	-0.03
245.477	-0.08
245.694	0.01
245.911	-0.19
246.127	-0.04
246.344	0.11
246.56	0.01
246.777	-0.09
246.993	-0
247.21	0
247.426	-0.07
247.643	-0.08
247.859	-0.07
248.076	-0.1
248.292	0.15
248.508	-0.05
248.725	0.03
248.941	0.04
249.157	0.06
249.374	-0.04
249.59	-0.06
249.806	0.02
250.023	0.01
250.239	-0.14
250.455	-0.14
250.671	-0.02
250.888	0
251.104	-0.05
251.32	-0.04
251.536	-0.08
251.752	-0.07
251.969	-0.04
252.185	-0.07
252.401	0.15
252.617	-0.09
252.833	-0.07
253.049	-0.02
253.265	-0.03
253.481	-0.02
253.697	-0.06
253.913	-0.1
254.129	0.02
254.345	-0.01
254.561	-0.07
254.777	-0.07
254.993	0.02
255.209	-0.05
255.425	-0.03
255.641	-0.08
255.857	0.06
256.073	-0.08
256.288	-0.1
256.504	-0.08
256.72	-0.08
256.936	0
257.152	-0.06
257.367	-0.03
257.583	-0.08
257.799	0.02
258.015	-0.11
258.23	-0.05
258.446	0.08
258.662	-0.06
258.877	-0.11
259.093	-0.12
259.309	-0.05
259.524	0.03
259.74	-0.1
259.955	-0.2
260.171	0
260.387	-0.04
260.602	-0
260.818	-0.02
261.033	-0.12
261.249	-0.1
261.464	-0.02
261.68	-0.16
261.895	0.05
262.11	0.05
262.326	-0.06
262.541	-0.11
262.757	0.04
262.972	-0.01
263.187	-0
263.403	-0.06
263.618	-0.02
263.833	-0.04
264.049	-0.07
264.264	-0.03
264.479	0.01
264.694	0.03
264.91	-0.05
265.125	-0.1
265.34	0
265.555	0
265.77	-0.02
265.986	-0.08
266.201	0.02
266.416	0.06
266.631	-0.03
266.846	-0.04
267.061	-0.04
267.276	0.02
267.491	-0.18
267.706	0
267.921	-0
268.136	-0.03
268.351	-0.01
268.566	-0.09
268.781	0.04
268.996	0.02
269.211	0.03
269.426	-0.08
269.641	-0.07
269.856	0.04
270.071	-0.17
270.285	-0.09
270.5	0.05
270.715	0.05
270.93	-0.02
271.145	-0.03
271.359	-0.01
271.574	-0.08
271.789	0.01
272.004	-0.06
272.218	-0.1
272.433	0.03
272.648	-0.01
272.862	0.02
273.077	-0.02
273.292	-0.05
273.506	-0.13
273.721	-0.06
273.936	0.04
274.15	0
274.365	-0.09
274.579	-0.01
274.794	0
275.008	0.02
275.223	-0.15
275.437	-0.01
275.652	0.01
275.866	-0.02
276.081	-0.05
276.295	0
276.509	-0.02
276.724	0.01
276.938	-0.02
277.153	0.03
277.367	0.02
277.581	-0.1
277.796	-0.07
278.01	-0.1
278.224	0.05
278.438	0.15
278.653	-0.08
278.867	-0.03
279.081	0
279.295	-0.02
279.51	0
279.724	-0.07
279.938	0.04
280.152	-0.02
280.366	-0.09
280.58	-0.05
280.794	0.09
281.008	-0.01
281.222	0.05
281.437	0.1
281.651	-0.02
281.865	0.03
282.079	-0.01
282.293	-0.13
282.507	-0.08
282.721	-0.02
282.935	-0.03
283.148	-0.12
283.362	-0.06
283.576	-0.05
283.79	-0.02
284.004	-0.09
284.218	0.03
284.432	-0.03
284.646	0.02
284.859	-0.03
285.073	-0.05
285.287	-0.02
285.501	-0.03
285.714	-0.07
285.928	-0.04
286.142	-0.01
286.356	-0.04
286.569	-0.07
286.783	0.1
286.997	-0.01
287.21	-0.01
287.424	0.01
287.637	-0.06
287.851	-0.05
288.065	-0.03
288.278	-0.01
288.492	-0.04
288.705	-0.04
288.919	0.04
289.132	-0.07
289.346	0.06
289.559	-0.07
289.773	-0.08
289.986	-0.04
290.2	-0.01
290.413	0.07
290.626	-0.06
290.84	-0.03
291.053	-0.03
291.267	0.03
291.48	-0.05
291.693	0.01
291.906	-0.04
292.12	-0.02
292.333	-0.03
292.546	-0.03
292.76	0.04
292.973	-0.01
293.186	0.07
293.399	-0.05
293.612	0.04
293.826	0.03
294.039	-0.02
294.252	-0.05
294.465	-0.01
294.678	0
294.891	-0.01
295.104	-0.06
295.317	-0.02
295.53	-0.02
295.743	-0.06
295.956	-0.01
296.169	0.08
296.382	0.02
296.595	0.02
296.808	-0.06
297.021	0.03
297.234	0.01
297.447	-0
297.66	-0
297.873	0.01
298.086	0
298.299	-0.02
298.511	-0.08
298.724	-0.04
298.937	-0.04
299.15	-0.02
299.363	-0.02
299.575	0.04
299.788	0.01
300.001	-0.05
300.213	-0.06
300.426	-0.04
300.639	-0.02
300.852	-0.04
301.064	0.05
301.277	0.02
301.489	0.02
301.702	-0.02
301.915	-0
302.127	-0.02
302.34	-0.03
302.552	0.01
302.765	-0.03
302.977	0.02
303.19	-0.04
303.402	-0.05
303.615	-0.02
303.827	-0.01
304.04	-0.02
304.252	0
304.464	-0.03
304.677	0.09
304.889	0.07
305.102	-0.02
305.314	-0.06
305.526	0.01
305.739	-0.01
305.951	-0.06
306.163	-0.01
306.375	0.07
306.588	-0.08
306.8	-0.07
307.012	-0.07
307.224	0.02
307.436	-0
307.649	-0.08
307.861	-0.02
308.073	0.04
308.285	-0.04
308.497	-0.07
308.709	-0.03
308.921	-0.02
309.133	0.02
309.346	-0
309.558	-0
309.77	0.01
309.982	0.05
310.194	0.05
310.406	-0.07
310.617	0.04
310.829	-0.02
311.041	-0
311.253	-0.07
311.465	0
311.677	-0
311.889	-0.02
312.101	-0.04
312.313	0.04
312.524	0.05
312.736	-0.06
312.948	-0.03
313.16	0.04
313.372	0.03
313.583	-0
313.795	-0.05
314.007	-0.04
314.218	0.02
314.43	-0.03
314.642	-0.01
314.853	-0.05
315.065	0.02
315.277	-0.03
315.488	0.01
315.7	0.02
315.912	0
316.123	-0.03
316.335	-0.04
316.546	0.08
316.758	0.03
316.969	-0.07
317.181	-0.02
317.392	0.01
317.604	-0.01
317.815	-0.06
318.026	-0.04
318.238	-0.03
318.449	-0.01
318.661	-0.1
318.872	-0.07
319.083	-0.05
319.295	-0
319.506	-0.06
319.717	0.01
319.929	-0.02
320.14	-0.02
320.351	0.01
320.562	-0.03
320.774	-0.03
320.985	-0.03
321.196	-0.03
321.407	-0.07
321.618	0.06
321.829	0
322.041	-0
322.252	0.03
322.463	0.03
322.674	0.02
322.885	-0.05
323.096	-0.03
323.307	0
323.518	-0.06
323.729	-0.07
323.94	-0.07
324.151	-0.02
324.362	0.01
324.573	0.01
324.784	-0.03
324.995	0.05
325.206	0.03
325.417	-0.05
325.628	0
325.838	-0.06
326.049	0.01
326.26	-0.02
326.471	-0.03
326.682	0.07
326.892	-0.06
327.103	-0.08
327.314	-0.04
327.525	-0
327.735	-0.02
327.946	-0
328.157	-0.06
328.368	-0
328.578	-0.05
328.789	0.02
328.999	-0.01
329.21	-0.03
329.421	0.01
329.631	-0.06
329.842	-0.02
330.052	-0.01
330.263	0.03
330.473	0.05
330.684	-0.03
330.894	-0
331.105	-0.02
331.315	-0.02
331.526	-0.05
331.736	0.03
331.947	-0.02
332.157	-0.02
332.367	-0.01
332.578	0.04
332.788	0.07
332.999	0.04
333.209	-0.02
333.419	-0.06
333.629	-0.02
333.84	0
334.05	-0.05
334.26	0.03
334.47	0.03
334.681	0.05
334.891	-0.04
335.101	0.03
335.311	0.04
335.521	0.01
335.732	-0.09
335.942	0.07
336.152	0.03
336.362	0.02
336.572	-0
336.782	0
336.992	-0.02
337.202	-0.07
337.412	-0.05
337.622	0.01
337.832	-0.01
338.042	0.01
338.252	-0.06
338.462	-0.08
338.672	0.01
338.882	-0
339.092	-0.07
339.302	0.07
339.511	0.01
339.721	-0.03
339.931	-0.06
340.141	0.03
340.351	0.02
340.561	0.01
340.77	-0.02
340.98	-0.01
341.19	0.01
341.4	-0.04
341.609	-0.05
341.819	-0.05
342.029	-0.08
342.238	-0.02
342.448	0.02
342.658	0.01
342.867	0.01
343.077	-0.07
343.286	-0
343.496	0.01
343.706	0.06
343.915	-0.05
344.125	-0.02
344.334	0.02
344.544	-0.05
344.753	-0.07
344.963	-0.04
345.172	-0.06
345.381	-0.05
345.591	-0.05
345.8	-0.01
346.01	0.05
346.219	0.02
346.428	-0.13
346.638	-0.01
346.847	0.02
347.056	0.03
347.266	-0.06
347.475	-0.01
347.684	0.03
347.893	-0
348.103	-0.01
348.312	-0.01
348.521	0
348.73	-0.06
348.94	0
349.149	-0.06
349.358	-0.02
349.567	-0.01
349.776	-0.02
349.985	-0.04
350.194	0.01
350.403	0.01
350.612	-0.07
350.821	-0.03
351.03	0.01
351.239	-0.07
351.448	-0.02
351.657	-0.06
351.866	0.06
352.075	-0.02
352.284	0
352.493	-0.07
352.702	0.03
352.911	-0.01
353.12	-0.04
353.329	-0.07
353.538	0.01
353.746	0.01
353.955	-0.04
354.164	0.01
354.373	0.01
354.582	-0
354.79	-0
354.999	0.03
355.208	-0.05
355.416	0.05
355.625	-0.04
355.834	-0.04
356.042	-0.01
356.251	-0.03
356.46	-0.05
356.668	-0.03
356.877	0.03
357.085	0.02
357.294	-0.05
357.503	0
357.711	-0.01
357.92	0.1
358.128	-0.01
358.337	-0.04
358.545	0.04
358.754	-0.02
358.962	0
359.17	-0.02
359.379	-0.01
359.587	0
359.796	-0.04
360.004	0.03
360.212	0
360.421	-0
360.629	-0.02
360.837	-0.01
361.046	0.01
361.254	0.08
361.462	0
361.67	-0.06
361.879	0.02
362.087	0.07
362.295	-0.03
362.503	-0.04
362.711	-0.06
362.92	-0.05
363.128	-0.05
363.336	-0.03
363.544	-0.06
363.752	-0.02
363.96	-0.05
364.168	-0.01
364.376	-0.05
364.584	-0
364.792	0.03
365	0.01
365.208	-0
365.416	-0
365.624	-0.01
365.832	-0.02
366.04	0.04
366.248	0.01
366.456	-0.01
366.664	0.03
366.872	-0.03
367.079	-0.02
367.287	0
367.495	-0.01
367.703	-0.01
367.911	-0.01
368.118	-0.02
368.326	-0.02
368.534	-0.06
368.742	-0
368.949	-0.06
369.157	-0.03
369.365	0.02
369.572	-0.02
369.78	-0.08
369.988	-0.01
370.195	0.01
370.403	0.04
370.61	-0.03
370.818	-0.01
371.026	0.04
371.233	-0.06
371.441	0.03
371.648	-0.06
371.856	-0.04
372.063	-0.06
372.271	-0.03
372.478	-0.05
372.685	-0.04
372.893	0.05
373.1	0.03
373.308	-0.03
373.515	0.05
373.722	0
373.93	-0.04
374.137	0.03
374.344	0.03
374.552	0.05
374.759	0.01
374.966	0.01
375.173	-0.03
375.381	0.02
375.588	-0.04
375.795	-0.07
376.002	-0.05
376.209	-0.04
376.417	-0.05
376.624	-0.01
376.831	0.02
377.038	-0.01
377.245	-0.05
377.452	-0.05
377.659	0.02
377.866	-0.03
378.073	-0.05
378.28	-0.03
378.487	0.02
378.694	-0.01
378.901	-0.01
379.108	0.02
379.315	0.01
379.522	0.09
379.729	0
379.936	-0.04
380.143	-0.02
380.35	-0.05
380.557	-0.05
380.763	-0.06
380.97	-0.03
381.177	0.01
381.384	0.01
381.591	-0.06
381.797	0
382.004	0.03
382.211	0.01
382.418	-0.04
382.624	0.01
382.831	0.03
383.038	-0.02
383.244	0.04
383.451	-0.02
383.658	-0.02
383.864	-0.03
384.071	-0
384.277	0.08
384.484	-0.05
384.69	-0
384.897	-0
385.103	-0.07
385.31	-0.03
385.516	-0.03
385.723	-0.05
385.929	-0.07
386.136	-0.03
386.342	-0.03
386.549	-0.07
386.755	0.07
386.961	-0.01
387.168	-0.05
387.374	-0.03
387.58	-0.01
387.787	-0.01
387.993	-0.01
388.199	-0.03
388.406	-0.04
388.612	-0.03
388.818	-0.07
389.024	-0.05
389.231	-0
389.437	0.04
389.643	0.04
389.849	-0.03
390.055	-0.01
390.261	-0
390.467	0.02
390.674	-0.06
390.88	0.01
391.086	-0.02
391.292	-0.07
391.498	0.02
391.704	-0.04
391.91	-0.02
392.116	-0.05
392.322	-0.07
392.528	-0.03
392.734	-0.05
392.94	-0.01
393.146	-0.01
393.352	-0.02
393.557	-0.03
393.763	-0.01
393.969	0.02
394.175	-0.02
394.381	0.01
394.587	-0.03
394.792	-0.04
394.998	0.05
395.204	0.03
395.41	-0.07
395.615	0.01
395.821	-0.01
396.027	0.02
396.233	-0.08
396.438	0.01
396.644	0
396.85	-0.01
397.055	0.01
397.261	-0.02
397.466	-0.01
397.672	0.03
397.878	0.05
398.083	0.04
398.289	-0.07
398.494	-0.02
398.7	0
398.905	-0.08
399.111	0.05
399.316	-0.06
399.522	-0.01
399.727	-0.04
399.932	-0.05
400.138	-0.03
400.343	0.07
400.549	-0
400.754	-0.02
400.959	0.01
401.165	0.02
401.37	-0.02
401.575	0.04
401.78	-0
401.986	-0.02
402.191	-0.04
402.396	-0.03
402.601	0.03
402.807	-0.01
403.012	0.01
403.217	0.03
403.422	0.01
403.627	-0.04
403.832	-0.09
404.037	0.04
404.243	-0
404.448	-0.07
404.653	-0.04
404.858	-0.03
405.063	0.03
405.268	-0.06
405.473	-0.1
405.678	-0.06
405.883	0.08
406.088	0
406.293	-0.04
406.498	-0.05
406.703	0.05
406.907	-0.03
407.112	-0.12
407.317	-0.03
407.522	0
407.727	-0.1
407.932	-0.01
408.136	0.06
408.341	-0.03
408.546	-0.05
408.751	0
408.956	-0.02
409.16	-0.04
409.365	-0.01
409.57	-0.03
409.774	-0.04
409.979	-0
410.184	-0.01
410.388	-0.03
410.593	0
410.798	-0.03
411.002	-0.03
411.207	-0.07
411.411	-0.02
411.616	-0.06
411.82	-0.05
412.025	-0.01
412.229	-0.03
412.434	0.02
412.638	0.02
412.843	-0.03
413.047	-0.04
413.252	-0.05
413.456	-0.06
413.66	0.02
413.865	-0.06
414.069	0.05
414.273	-0.02
414.478	-0.08
414.682	-0
414.886	-0.06
415.091	-0.08
415.295	-0.12
415.499	-0.03
415.703	-0.03
415.908	0.01
416.112	-0.12
416.316	0.02
416.52	-0.05
416.724	-0.08
416.929	-0.06
417.133	0.04
417.337	-0.05
417.541	-0.01
417.745	-0.04
417.949	0.01
418.153	-0
418.357	-0.04
418.561	0.06
418.765	-0.03
418.969	0.07
419.173	0.01
419.377	-0.07
419.581	0.04
419.785	-0.03
419.989	-0.07
420.193	-0.01
420.397	-0.08
420.601	0.03
420.804	-0.03
421.008	0.02
421.212	-0.01
421.416	0.02
421.62	-0.03
421.823	-0.04
422.027	0.04
422.231	-0
422.435	-0.03
422.638	0.01
422.842	0.03
423.046	-0.01
423.249	0.01
423.453	0.04
423.657	-0.03
423.86	0
424.064	-0.06
424.268	0.08
424.471	-0.01
424.675	0.04
424.878	0.08
425.082	-0.08
425.285	0.01
425.489	-0.01
425.692	-0.03
425.896	-0.07
426.099	0.05
426.303	-0.05
426.506	-0.06
426.71	0.03
426.913	0.02
427.116	0.04
427.32	-0.03
427.523	0
427.726	0.09
427.93	-0.07
428.133	-0.01
428.336	-0.07
428.54	-0.03
428.743	0.02
428.946	-0.02
429.149	-0.05
429.353	-0.03
429.556	-0.02
429.759	0.01
429.962	-0.07
430.165	-0.02
430.368	-0.05
430.571	-0.03
430.775	0
430.978	-0.04
431.181	-0
431.384	-0.02
431.587	-0.03
431.79	-0.04
431.993	0
432.196	-0.02
432.399	-0.04
432.602	0.05
432.805	-0.07
433.008	-0.05
433.211	-0.12
433.414	0.01
433.616	-0.01
433.819	0.01
434.022	-0.11
434.225	0.06
434.428	0.03
434.631	0.1
434.833	0
435.036	0.02
435.239	0.05
435.442	-0.01
435.645	-0.02
435.847	0.01
436.05	0.04
436.253	-0.01
436.455	-0.03
436.658	-0
436.861	0.07
437.063	-0.02
437.266	-0.02
437.468	-0.05
437.671	0.11
437.874	0.03
438.076	-0.02
438.279	-0.1
438.481	-0.05
438.684	-0.07
438.886	0.01
439.089	-0.11
439.291	-0.03
439.494	0.02
439.696	-0.06
439.899	-0.05
440.101	0.02
440.303	-0.08
440.506	0.02
440.708	-0.04
440.91	0
441.113	-0.05
441.315	0.01
441.517	-0.07
441.72	0.02
441.922	-0.03
442.124	-0.06
442.326	0.03
442.529	0.06
442.731	-0.05
442.933	0.11
443.135	-0.04
443.337	-0.04
443.539	-0.01
443.742	-0.04
443.944	-0.01
444.146	-0.04
444.348	-0.07
444.55	-0.04
444.752	0.01
444.954	-0.04
445.156	0
445.358	-0.02
445.56	0.07
445.762	-0.03
445.964	0.01
446.166	-0.07
446.368	-0.06
446.57	0.05
446.772	0.03
446.974	-0.03
447.175	0.01
447.377	-0.08
447.579	-0.05
447.781	-0.07
447.983	0.07
448.184	-0.01
448.386	0
448.588	-0.1
448.79	0.03
448.991	-0.04
449.193	-0.06
449.395	-0.03
449.597	0.04
449.798	0
450	0.02
450.202	-0.04
450.403	-0.04
450.605	0.01
450.806	0.03
451.008	-0.08
451.21	-0.06
451.411	-0.02
451.613	-0.01
451.814	0.01
452.016	0.02
452.217	-0.01
452.419	-0
452.62	0.03
452.821	-0.01
453.023	0.04
453.224	0.06
453.426	-0.01
453.627	0
453.828	0
454.03	-0.01
454.231	0.04
454.432	-0.04
454.634	0.08
454.835	-0.05
455.036	-0.04
455.238	0.01
455.439	0.05
455.64	-0.12
455.841	-0.08
456.042	0.04
456.244	-0.01
456.445	-0.06
456.646	-0.06
456.847	-0.08
457.048	0.09
457.249	0.01
457.45	0.23
457.651	-0.06
457.852	0.04
458.054	0.03
458.255	-0.02
458.456	-0.01
458.657	0.02
458.858	-0.07
459.058	-0.01
459.259	0.02
459.46	-0.01
459.661	-0.04
459.862	0.06
460.063	-0.04
460.264	0.02
460.465	-0.07
460.666	0.04
460.866	-0.04
461.067	-0.06
461.268	-0.03
461.469	-0.02
461.67	-0.03
461.87	-0.06
462.071	-0.04
462.272	-0.05
462.473	-0
462.673	0.03
462.874	-0.05
463.075	-0.01
463.275	-0.07
463.476	-0
463.676	-0.03
463.877	0.02
464.078	-0.05
464.278	0.03
464.479	-0.04
464.679	0.01
464.88	-0.02
465.08	0.07
465.281	-0.06
465.481	-0.03
465.682	-0.01
465.882	0.01
466.083	0.03
466.283	-0.04
466.483	0.03
466.684	-0.05
466.884	-0.06
467.085	-0.05
467.285	0.02
467.485	-0.08
467.686	-0.04
467.886	-0.06
468.086	-0.04
468.286	-0.01
468.487	-0.01
468.687	-0.06
468.887	-0.03
469.087	-0.01
469.287	-0.03
469.488	-0.01
469.688	0.01
469.888	0.02
470.088	-0
470.288	0.02
470.488	0.03
470.688	-0.07
470.888	-0.04
471.088	-0.04
471.288	0.01
471.488	0
471.688	0.01
471.888	-0.06
472.088	0.05
472.288	0.03
472.488	-0.05
472.688	-0.02
472.888	-0.03
473.088	-0.03
473.288	-0.01
473.488	0
473.688	0.04
473.887	-0
474.087	-0.05
474.287	-0.01
474.487	-0.05
474.687	-0
474.886	-0.01
475.086	-0.03
475.286	0.01
475.486	-0.01
475.685	-0.04
475.885	0
476.085	-0.01
476.284	0.03
476.484	-0.02
476.684	0.02
476.883	0.03
477.083	-0.01
477.282	-0.03
477.482	0.03
477.681	0.02
477.881	-0.01
478.08	-0.04
478.28	-0.01
478.479	0.02
478.679	0.07
478.878	-0.06
479.078	-0.05
479.277	-0.01
479.477	-0.03
479.676	0.02
479.875	0.02
480.075	-0.07
480.274	-0.01
480.473	-0.03
480.673	-0.02
480.872	0.02
481.071	0
481.271	-0.04
481.47	-0.02
481.669	-0.03
481.868	0.01
482.067	-0.04
482.267	-0.04
482.466	-0.01
482.665	-0.06
482.864	-0.05
483.063	-0.03
483.262	0.02
483.461	0.03
483.661	0.01
483.86	-0.01
484.059	-0.01
484.258	-0.02
484.457	-0.02
484.656	0.01
484.855	0.01
485.054	-0.03
485.253	-0.01
485.452	-0.02
485.651	0.01
485.849	0.01
486.048	-0.04
486.247	-0.02
486.446	-0.03
486.645	-0.04
486.844	-0.02
487.043	-0.04
487.241	0
487.44	-0.02
487.639	0.01
487.838	0.01
488.037	-0.01
488.235	0.04
488.434	-0
488.633	-0.04
488.831	0.01
489.03	0.02
489.229	-0
489.427	-0.04
489.626	0.01
489.825	0.06
490.023	0.01
490.222	-0.02
490.42	0.01
490.619	0.04
490.817	-0
491.016	-0.02
491.214	0.05
491.413	0
491.611	-0
491.81	0.01
492.008	0
492.207	0.01
492.405	-0
492.604	-0.06
492.802	-0.02
493	-0.01
493.199	-0.05
493.397	-0.01
493.595	-0.01
493.794	-0.02
493.992	0.05
494.19	-0.01
494.388	-0.01
494.587	-0.03
494.785	0
494.983	-0.04
495.181	0
495.379	0.01
495.578	0
495.776	0.01
495.974	0
496.172	-0.01
496.37	-0.02
496.568	-0.03
496.766	-0.03
496.964	0.01
497.162	-0
497.36	-0.04
497.558	0.01
497.756	0.02
497.954	0
498.152	-0.04
498.35	-0
498.548	-0.01
498.746	0.01
498.944	-0.03
499.142	-0.01
499.34	-0.03
499.538	0
499.736	-0.03
499.933	0.03
500.131	0.01
500.329	-0.02
500.527	0
500.725	0.03
500.922	0.03
501.12	-0
501.318	0.01
501.516	-0.02
501.713	0.02
501.911	-0
502.109	-0.02
502.306	0.01
502.504	0
502.701	-0.02
502.899	-0
503.097	0.02
503.294	0.01
503.492	-0.02
503.689	-0
503.887	0.02
504.084	0.04
504.282	0
504.479	-0.03
504.677	0.01
504.874	-0.04
505.072	0.01
505.269	-0.01
505.466	0.02
505.664	0.02
505.861	-0.03
506.059	-0.06
506.256	0.01
506.453	-0.01
506.651	0.02
506.848	0.02
507.045	-0
507.242	-0.01
507.44	-0.02
507.637	0.01
507.834	0.01
508.031	0.03
508.229	-0.03
508.426	-0.01
508.623	0.02
508.82	-0.02
509.017	-0.03
509.214	-0.02
509.411	0
509.608	-0.01
509.805	-0.02
510.003	-0
510.2	-0.02
510.397	0.01
510.594	-0.03
510.791	-0.01
510.988	-0.01
511.184	0.02
511.381	0.02
511.578	-0.01
511.775	0.01
511.972	-0.02
512.169	-0.03
512.366	-0
512.563	0.01
512.76	-0.05
512.956	0.03
513.153	-0.01
513.35	-0
513.547	-0.01
513.744	-0.01
513.94	-0.03
514.137	0.02
514.334	0.01
514.53	-0.02
514.727	0
514.924	0.07
515.12	-0.04
515.317	-0.03
515.514	-0.01
515.71	-0.04
515.907	0
516.103	0.02
516.3	0.01
516.497	-0.01
516.693	0.02
516.89	-0
517.086	-0.02
517.283	0.05
517.479	0.02
517.676	-0.02
517.872	-0.01
518.068	-0.02
518.265	-0.01
518.461	-0.02
518.658	-0.05
518.854	-0
519.05	-0.01
519.247	-0.04
519.443	0.01
519.639	-0
519.836	-0
520.032	-0
520.228	-0.02
520.424	0
520.621	-0.02
520.817	-0.01
521.013	0.03
521.209	0.01
521.405	0.04
521.601	-0
521.798	0.01
521.994	0.03
522.19	-0.02
522.386	-0.03
522.582	-0
522.778	-0.02
522.974	0.02
523.17	0.01
523.366	-0
523.562	0.03
523.758	0.01
523.954	-0.02
524.15	-0.01
524.346	0.02
524.542	-0.02
524.738	-0.04
524.934	-0.01
525.129	-0.01
525.325	0
525.521	-0.01
525.717	0.03
525.913	0.01
526.109	-0.01
526.304	-0.02
526.5	-0
526.696	0.01
526.892	-0.01
527.087	0.01
527.283	-0.02
527.479	0.01
527.674	-0.03
527.87	-0.01
528.066	-0.01
528.261	0.01
528.457	0
528.653	0.01
528.848	-0.03
529.044	-0.01
529.239	-0.01
529.435	0.02
529.63	0.01
529.826	0.06
530.021	0
530.217	0.04
530.412	-0.01
530.608	-0.01
530.803	0
530.999	-0.01
531.194	-0.04
531.389	-0
531.585	-0.04
531.78	-0.02
531.975	-0.01
532.171	0.03
532.366	-0
532.561	-0.01
532.757	-0.02
532.952	-0.02
533.147	0.04
533.342	-0.02
533.538	0
533.733	0.02
533.928	-0.01
534.123	-0.01
534.318	-0.03
534.513	-0.02
534.709	0.02
534.904	-0.01
535.099	0
535.294	-0
535.489	-0.01
535.684	-0.03
535.879	-0.02
536.074	-0.01
536.269	-0.02
536.464	-0.02
536.659	-0.01
536.854	-0.01
537.049	-0.03
537.244	0.01
537.439	-0.02
537.634	0.03
537.828	0.01
538.023	0
538.218	-0.03
538.413	0.01
538.608	-0.02
538.803	0
538.997	-0.04
539.192	0.02
539.387	-0
539.582	-0.01
539.776	0.01
539.971	-0.02
540.166	-0.02
540.36	-0.02
540.555	0
540.75	-0
540.944	0
541.139	-0.03
541.334	-0.01
541.528	0.01
541.723	0.02
541.917	-0
542.112	-0.03
542.306	-0.02
542.501	-0.01
542.695	-0.01
542.89	-0.02
543.084	0.02
543.279	0.01
543.473	-0.01
543.668	-0.01
543.862	0
544.056	0
544.251	-0.02
544.445	0.02
544.64	-0.02
544.834	-0.01
545.028	0.02
545.222	0.01
545.417	0.01
545.611	0.02
545.805	-0.01
546	-0.01
546.194	0.01
546.388	-0.03
546.582	0.02
546.776	-0.02
546.97	-0.01
547.165	0
547.359	0
547.553	-0.02
547.747	0.01
547.941	0
548.135	-0.02
548.329	-0.01
548.523	0.01
548.717	-0.01
548.911	-0.04
549.105	-0.01
549.299	0
549.493	0.03
549.687	0.02
549.881	0.01
550.075	0
550.269	-0.03
550.463	0.02
550.657	-0.02
550.85	0.01
551.044	-0.03
551.238	0.01
551.432	-0.03
551.626	-0.03
551.82	0.02
552.013	-0.05
552.207	0.01
552.401	0.01
552.594	0.01
552.788	-0.01
552.982	-0.01
553.176	-0.03
553.369	0.02
553.563	-0
553.756	-0.04
553.95	-0.03
554.144	-0
554.337	0.02
554.531	-0.01
554.724	-0
554.918	-0.01
555.111	0
555.305	-0.01
555.498	0.03
555.692	0.01
555.885	-0
556.079	0.01
556.272	-0.02
556.466	0.02
556.659	-0.01
556.852	-0.01
557.046	-0.02
557.239	0.02
557.432	-0.02
557.626	-0.03
557.819	-0
558.012	0.01
558.206	0.01
558.399	-0.01
558.592	0
558.785	-0.01
558.979	0.01
559.172	-0
559.365	0.03
559.558	0.01
559.751	-0.02
559.944	-0.01
560.138	-0.01
560.331	-0
560.524	-0
560.717	-0
560.91	-0.02
561.103	0.02
561.296	0
561.489	0.03
561.682	0
561.875	0.02
562.068	-0
562.261	-0.01
562.454	0.03
562.647	0.01
562.84	0.02
563.032	-0.01
563.225	-0.01
563.418	-0.01
563.611	0
563.804	0.02
563.997	-0.04
564.19	-0.05
564.382	-0.06
564.575	-0
564.768	-0.01
564.961	-0.01
565.153	-0.01
565.346	0.02
565.539	0.02
565.731	0.02
565.924	0
566.117	0.01
566.309	-0.01
566.502	-0.01
566.695	-0.01
566.887	-0.01
567.08	-0.03
567.272	-0.01
567.465	-0.03
567.657	-0.01
567.85	0
568.042	0.02
568.235	0.03
568.427	-0.01
568.62	-0
568.812	0.02
569.005	-0.01
569.197	-0.03
569.389	0.01
569.582	0.01
569.774	-0.02
569.966	-0.02
570.159	-0.04
570.351	0.02
570.543	-0.03
570.736	-0
570.928	-0.03
571.12	-0.02
571.312	-0.04
571.505	-0.04
571.697	0.03
571.889	-0.03
572.081	-0.01
572.273	-0.01
572.465	0.03
572.658	-0.01
572.85	0.01
573.042	-0
573.234	-0.03
573.426	0.03
573.618	-0.03
573.81	0.02
574.002	0.02
574.194	0.05
574.386	-0.04
574.578	-0.07
574.77	-0.03
574.962	-0.01
575.154	-0.03
575.346	-0
575.538	0
575.729	-0.04
575.921	-0.03
576.113	-0.02
576.305	0.02
576.497	-0.04
576.689	-0.01
576.88	-0.01
577.072	0.04
577.264	-0.03
577.456	-0
577.647	-0.05
577.839	0.01
578.031	0.04
578.223	-0.03
578.414	-0.04
578.606	0.03
578.798	-0.01
578.989	-0.03
579.181	-0.01
579.372	-0
579.564	-0.03
579.755	-0.02
579.947	0.01
580.139	-0.01
580.33	-0.05
580.522	-0.01
580.713	-0.06
580.905	-0.03
581.096	-0.01
581.287	-0.01
581.479	-0.02
581.67	-0
581.862	-0.01
582.053	-0.02
582.244	-0.04
582.436	-0.02
582.627	0
582.818	-0.02
583.01	-0.02
583.201	0.01
583.392	0.03
583.583	-0
583.775	-0.03
583.966	-0.03
584.157	-0.02
584.348	-0.02
584.54	-0.05
584.731	0
584.922	-0.01
585.113	-0.02
585.304	-0
585.495	0.01
585.686	-0.02
585.877	0.02
586.068	-0.01
586.259	-0.01
586.45	-0
586.641	-0.02
586.832	-0.06
587.023	0
587.214	0.03
587.405	-0.01
587.596	-0.01
587.787	0.03
587.978	-0
588.169	-0.03
588.36	-0.04
588.551	0.02
588.742	-0.01
588.932	0.01
589.123	-0.01
589.314	0.04
589.505	-0
589.696	0.01
589.886	-0.01
590.077	-0.02
590.268	0.01
590.458	-0.05
590.649	-0.05
590.84	0.04
591.03	-0.02
591.221	-0.04
591.412	-0.06
591.602	0.01
591.793	0.02
591.984	-0.02
592.174	-0.02
592.365	0.05
592.555	-0.03
592.746	0.02
592.936	0.01
593.127	0.03
593.317	0.04
593.508	-0.02
593.698	-0.01
593.889	-0.04
594.079	-0.01
594.269	-0.03
594.46	-0.02
594.65	-0.01
594.84	-0.03
595.031	-0.04
595.221	-0.03
595.411	-0.03
595.602	0
595.792	0.01
595.982	-0.05
596.172	0.05
596.363	0.02
596.553	0.01
596.743	-0.03
596.933	-0.03
597.123	0.02
597.314	-0.02
597.504	-0.05
597.694	0.02
597.884	-0.02
598.074	-0
598.264	-0.03
598.454	-0.01
598.644	0.01
598.834	0.01
599.024	-0.06
599.214	-0.01
599.404	0.01
599.594	-0.02
599.784	-0.04
599.974	0.03
600.164	0
600.354	-0.06
600.544	-0.03
600.734	0.01
600.924	0.03
601.114	-0.02
601.303	-0.02
601.493	0.01
601.683	-0.04
601.873	0.01
602.063	-0.05
602.252	0
602.442	-0.07
602.632	-0.01
602.821	-0.03
603.011	0.02
603.201	-0.02
603.39	-0.03
603.58	-0.02
603.77	-0.01
603.959	0.05
604.149	0.02
604.339	-0.03
604.528	0.03
604.718	0
604.907	-0.02
605.097	-0.02
605.286	-0.08
605.476	-0.01
605.665	-0.01
605.855	-0.03
606.044	0.04
606.234	-0
606.423	-0.01
606.612	-0.03
606.802	-0.01
606.991	-0.01
607.181	0.02
607.37	-0.08
607.559	-0.03
607.749	-0.04
607.938	-0
608.127	-0.02
608.316	-0.03
608.506	-0.02
608.695	-0.01
608.884	-0.05
609.073	-0.01
609.263	0.01
609.452	0.02
609.641	-0
609.83	-0.06
610.019	-0.01
610.208	-0.03
610.397	-0.01
610.586	0.02
610.775	-0.04
610.965	-0.03
611.154	-0.03
611.343	0.02
611.532	0
611.721	-0.03
611.91	-0.04
612.099	0
612.287	-0.01
612.476	-0.05
612.665	0.03
612.854	-0.04
613.043	0.04
613.232	-0.02
613.421	-0.05
613.61	-0.01
613.798	-0.07
613.987	0.01
614.176	-0.01
614.365	0.01
614.554	-0.01
614.742	0.01
614.931	-0.02
615.12	-0.03
615.309	-0
615.497	0
615.686	-0.02
615.875	-0.02
616.063	-0.01
616.252	-0.04
616.44	-0.03
616.629	-0.01
616.818	0.01
617.006	-0.02
617.195	-0.03
617.383	-0
617.572	-0.03
617.76	-0.01
617.949	-0.03
618.137	-0
618.326	0.07
618.514	-0.03
618.703	-0.03
618.891	0.03
619.079	-0.05
619.268	0.02
619.456	-0.03
619.644	0.03
619.833	-0.04
620.021	-0.03
620.209	-0.07
620.398	-0.03
620.586	-0.03
620.774	-0.01
620.962	-0.03
621.151	0.05
621.339	-0
621.527	-0.03
621.715	-0.04
621.903	-0.04
622.092	-0.03
622.28	0.01
622.468	-0.02
622.656	-0.01
622.844	0.02
623.032	-0.01
623.22	-0.07
623.408	-0
623.596	0
623.784	-0.01
623.972	-0.05
624.16	-0.03
624.348	0.04
624.536	-0.01
624.724	-0.03
624.912	-0.01
625.1	0.01
625.288	-0.03
625.476	-0.03
625.664	0.02
625.851	-0.03
626.039	-0.02
626.227	-0.03
626.415	-0.01
626.603	-0.09
626.79	-0.02
626.978	-0.01
627.166	0.03
627.354	-0.04
627.541	-0.03
627.729	-0.02
627.917	0.01
628.104	0.01
628.292	-0
628.48	-0.03
628.667	-0.02
628.855	0.02
629.042	0
629.23	-0.04
629.418	-0.03
629.605	-0.02
629.793	-0.07
629.98	-0.04
630.168	-0.02
630.355	-0.04
630.543	-0.01
630.73	-0.05
630.917	0.02
631.105	0.05
631.292	-0.05
631.48	-0.02
631.667	0.06
631.854	-0.02
632.042	-0.05
632.229	-0.05
632.416	-0.03
632.604	0
632.791	-0.05
632.978	0.02
633.165	0
633.353	0.03
633.54	0.02
633.727	-0.07
633.914	-0.04
634.101	-0.11
634.289	0.02
634.476	-0.05
634.663	-0.04
634.85	0
635.037	-0.04
635.224	-0.07
635.411	0.03
635.598	0.05
635.785	0.01
635.972	-0.05
636.159	0.04
636.346	-0.05
636.533	-0.03
636.72	-0.01
636.907	-0.02
637.094	-0.01
637.281	-0.05
637.468	0.01
637.655	-0.04
637.842	-0
638.029	-0.03
638.215	0.02
638.402	0
638.589	-0.07
638.776	-0.01
638.963	-0.05
639.149	-0.01
639.336	0.05
639.523	-0.04
639.709	-0.03
639.896	-0.03
640.083	0.04
640.27	0
640.456	-0.01
640.643	0.03
640.829	-0.06
641.016	-0.03
641.203	-0.05
641.389	-0.01
641.576	-0
641.762	-0.07
641.949	-0.04
642.135	-0.01
642.322	-0.02
642.508	-0.08
642.695	-0.01
642.881	-0.02
643.068	-0.02
643.254	0
643.441	0.03
643.627	-0.03
643.813	-0.06
644	-0
644.186	-0.03
644.372	-0.02
644.559	-0
644.745	-0.03
644.931	-0.06
645.118	-0.05
645.304	-0.02
645.49	-0.05
645.676	-0.04
645.862	0
646.049	0.03
646.235	0.01
646.421	0.07
646.607	0.03
646.793	-0.02
646.979	-0.05
647.165	-0.01
647.352	-0.02
647.538	0.01
647.724	0.03
647.91	-0.01
648.096	0.03
648.282	0.01
648.468	-0.03
648.654	0
648.84	0.01
649.026	-0.03
649.212	-0.03
649.397	-0.05
649.583	-0.05
649.769	0.02
649.955	-0.03
650.141	0.01
650.327	-0
650.513	-0.03
650.698	0.02
650.884	-0.1
651.07	-0.02
651.256	-0.02
651.442	-0
651.627	-0.01
651.813	0.02
651.999	-0.03
652.184	0
652.37	-0.03
652.556	-0.04
652.741	0.02
652.927	-0.07
653.113	-0.03
653.298	0.01
653.484	-0.02
653.669	-0.06
653.855	-0.05
654.04	0.01
654.226	-0.03
654.412	-0.03
654.597	-0.03
654.782	0.01
654.968	0.01
655.153	-0.01
655.339	-0.05
655.524	-0.05
655.71	0.01
655.895	-0.05
656.08	-0.01
656.266	0.02
656.451	-0.04
656.636	-0.05
656.822	-0
657.007	-0.02
657.192	-0.03
657.378	-0.08
657.563	-0.02
657.748	0
657.933	0.02
658.118	-0.03
658.304	-0.06
658.489	0.02
658.674	-0.01
658.859	-0.09
659.044	0.02
659.229	0.02
659.414	-0.03
659.599	0
659.785	-0.09
659.97	-0.03
660.155	0
660.34	0.01
660.525	-0.03
660.71	-0.02
660.895	-0.02
661.08	-0.05
661.264	-0.04
661.449	0.02
661.634	0.02
661.819	0
662.004	-0
662.189	-0.08
662.374	-0.06
662.559	-0.06
662.743	-0.08
662.928	-0.03
663.113	0
663.298	-0.08
663.483	-0.02
663.667	-0.02
663.852	-0.03
664.037	0.04
664.221	-0.04
664.406	0.02
664.591	0
664.775	-0.03
664.96	-0.09
665.145	-0
665.329	-0
665.514	-0.04
665.698	-0.02
665.883	-0.1
666.068	0.05
666.252	-0.02
666.437	-0.04
666.621	-0.03
666.806	-0.01
666.99	-0.04
667.174	-0.07
667.359	0.05
667.543	-0.02
667.728	-0.02
667.912	-0.09
668.096	-0.02
668.281	-0.03
668.465	-0.01
668.649	-0.01
668.834	-0.05
669.018	-0
669.202	-0.03
669.387	-0.09
669.571	0.03
669.755	-0.04
669.939	-0.02
670.124	-0
670.308	0.02
670.492	0.03
670.676	-0.03
670.86	0
671.044	-0.06
671.228	0.04
671.413	-0.03
671.597	-0.02
671.781	-0.05
671.965	0.03
672.149	-0.05
672.333	-0.04
672.517	-0.04
672.701	0
672.885	-0.02
673.069	-0.08
673.253	0.06
673.437	-0.04
673.621	-0.04
673.804	-0.05
673.988	-0.02
674.172	0.01
674.356	-0.09
674.54	-0.06
674.724	0.03
674.908	-0.04
675.091	0.01
675.275	-0.05
675.459	-0.02
675.643	-0.03
675.826	-0.01
676.01	-0.03
676.194	-0.05
676.377	0.05
676.561	0.02
676.745	-0.03
676.928	-0.02
677.112	0.02
677.296	-0.07
677.479	-0.09
677.663	-0.06
677.846	0.02
678.03	0.01
678.213	-0.04
678.397	0.04
678.58	-0.02
678.764	-0.05
678.947	-0.06
679.131	-0.05
679.314	0.01
679.498	-0.02
679.681	-0.02
679.865	-0
680.048	-0.01
680.231	-0.01
680.415	-0.02
680.598	0.01
680.781	-0.02
680.965	-0.04
681.148	-0.01
681.331	-0.07
681.514	0.01
681.698	-0.01
681.881	0
682.064	-0.04
682.247	-0.04
682.43	-0.11
682.614	-0.05
682.797	0.01
682.98	0
683.163	-0.06
683.346	-0.01
683.529	-0.03
683.712	-0.06
683.895	-0
684.078	-0.06
684.261	-0.03
684.444	0.03
684.627	-0.04
684.81	-0.06
684.993	-0.04
685.176	0.03
685.359	-0.09
685.542	-0.04
685.725	-0.01
685.908	-0.01
686.091	-0.03
686.274	0.03
686.457	-0.01
686.639	-0.07
686.822	0.03
687.005	-0
687.188	-0
687.371	-0.01
687.553	-0.01
687.736	-0.01
687.919	0.05
688.102	0.05
688.284	-0.06
688.467	0.01
688.65	-0.06
688.832	-0.05
689.015	-0.02
689.197	-0.03
689.38	0.04
689.563	0
689.745	-0.04
689.928	-0.05
690.11	-0.01
690.293	-0
690.475	-0.07
690.658	-0.02
690.84	-0.08
691.023	-0.04
691.205	-0.04
691.388	-0.04
691.57	0.06
691.752	-0.02
691.935	-0.07
692.117	0.02
692.3	0.02
692.482	-0.03
692.664	-0.01
692.847	0.02
693.029	0.06
693.211	0.03
693.393	-0.06
693.576	-0.02
693.758	-0.01
693.94	-0.09
694.122	-0.04
694.304	-0.05
694.487	-0.04
694.669	0.08
694.851	-0.07
695.033	-0.02
695.215	-0.04
695.397	-0.11
695.579	0.03
695.761	-0.06
695.943	-0.1
696.125	0.01
696.308	0.02
696.49	-0.11
696.671	0.07
696.853	-0.04
697.035	0.08
697.217	-0.04
697.399	0.03
697.581	-0.04
697.763	-0.03
697.945	-0.07
698.127	-0.01
698.309	-0.09
698.491	-0.02
698.672	-0.05
698.854	-0.01
699.036	0.06
699.218	-0.06
699.399	0.03
699.581	0.04
699.763	-0.01
699.945	-0.07
700.126	-0.05
700.308	-0.01
700.49	-0.03
700.671	-0.05
700.853	-0.1
701.035	-0.05
701.216	-0.04
701.398	-0.06
701.579	-0
701.761	-0.03
701.943	-0.05
702.124	-0.03
702.306	-0.04
702.487	0.08
702.669	-0.03
702.85	-0.08
703.031	-0.06
703.213	0.03
703.394	0.01
703.576	-0.02
703.757	0.07
703.938	0.03
704.12	0.19
704.301	-0.03
704.483	-0.09
704.664	-0.02
704.845	0.08
705.026	0.02
705.208	-0.03
705.389	-0.03
705.57	0.01
705.751	0.02
705.933	0.04
706.114	0.07
706.295	0
706.476	-0.12
706.657	0.04
706.838	-0.03
707.02	0.03
707.201	-0.02
707.382	-0.05
707.563	-0
707.744	-0.01
707.925	-0.12
708.106	-0.11
708.287	0.07
708.468	0.07
708.649	-0.01
708.83	-0.01
709.011	-0.06
709.192	0.01
709.373	-0.07
709.554	-0.09
709.734	0.08
709.915	0.02
710.096	-0
710.277	-0.08
710.458	-0
710.639	-0.04
710.819	-0.09
711	0.04
711.181	0.01
711.362	0.05
711.542	-0.04
711.723	-0.03
711.904	0.02
712.085	0.01
712.265	-0
712.446	-0.09
712.627	-0.01
712.807	0
712.988	-0.01
713.168	-0.1
713.349	0.02
713.53	-0.1
713.71	-0.05
713.891	-0.11
714.071	-0
714.252	-0.06
714.432	-0.05
714.613	-0.12
714.793	-0.06
714.974	-0.02
715.154	0.02
715.334	0.02
715.515	-0
715.695	-0.07
715.876	0.02
716.056	-0.02
716.236	-0.07
716.417	-0.06
716.597	-0.01
716.777	0.05
716.957	0.01
717.138	-0.11
717.318	-0.06
717.498	-0.11
717.678	-0.05
717.859	0.03
718.039	-0.05
718.219	-0.07
718.399	0.05
718.579	-0.09
718.759	-0.08
718.939	-0
719.12	0.04
719.3	-0.01
719.48	-0.16
719.66	-0.12
719.84	0.02
720.02	0.02
720.2	-0.11
720.38	-0.02
720.56	0.03
720.74	-0.01
720.92	-0.03
721.1	0.08
721.279	0.03
721.459	-0.05
721.639	-0.1
721.819	0.04
721.999	-0.03
722.179	0.04
722.359	-0.09
722.538	-0.02
722.718	0.01
722.898	-0.08
723.078	-0.09
723.257	-0.08
723.437	0.01
723.617	0.1
723.797	-0.09
723.976	-0.04
724.156	-0.01
724.336	0.06
724.515	0.09
724.695	-0.15
724.874	-0.08
725.054	0.02
725.234	-0.11
725.413	-0.06
725.593	-0.02
725.772	-0.06
725.952	-0.11
726.131	-0.11
726.311	-0.04
726.49	-0.04
726.67	-0.08
726.849	-0.11
727.028	0.05
727.208	-0.08
727.387	-0
727.567	-0.1
727.746	-0.03
727.925	-0.06
728.105	-0.12
728.284	-0.14
728.463	-0.26
728.643	0
728.822	-0.2
729.001	-0.1
729.18	0.05
729.359	-0.01
729.539	0.02
729.718	-0.07
729.897	0
730.076	-0
730.255	-0.05
730.434	-0.14
730.614	-0.07
730.793	0.03
730.972	-0.04
731.151	-0.02
731.33	0.09
731.509	-0.01
731.688	-0.04
731.867	-0.03
732.046	-0.17
732.225	0.21
732.404	-0.13
732.583	-0.18
732.762	-0.04
732.941	0.03
733.12	-0.03
733.298	0.07
733.477	0.04
733.656	-0.07
733.835	-0.1
734.014	0.04
734.193	-0.13
734.371	0.02
734.55	0.02
734.729	-0.14
734.908	0
735.086	0.02
735.265	-0.07
735.444	-0.19
735.623	-0
735.801	-0.09
735.98	0.01
736.159	-0.06
736.337	0.06
736.516	-0.02
736.694	0.04
736.873	-0.11
737.052	0.03
737.23	0.04
737.409	-0.16
737.587	0.15
737.766	-0.22
737.944	-0.06
738.123	0.05
738.301	0.1
738.479	-0.14
738.658	-0.05
738.836	-0.22
739.015	-0.13
739.193	-0.01
739.371	-0.1
739.55	0.05
739.728	-0.18
739.906	0.07
740.085	0.08
740.263	-0
740.441	-0.24
740.62	0.07
740.798	0.04
740.976	-0.2
741.154	-0.14
741.332	0.03
741.511	-0.01
741.689	-0
741.867	-0
742.045	-0.07
742.223	-0.08
742.401	-0.14
742.579	-0.12
742.757	-0.06
742.935	-0.15
743.114	-0.09
743.292	0.05
743.47	0.08
743.648	0.01
743.826	-0.06
744.004	0
744.181	-0.06
744.359	-0.13
744.537	0.05
744.715	-0.04
744.893	-0.13
745.071	0.01
745.249	-0.12
745.427	-0.1
745.605	0.11
745.782	0.03
745.96	0.01
746.138	0.01
746.316	0.01
746.493	-0.07
746.671	-0.05
746.849	-0.01
747.027	0.1
747.204	-0.08
747.382	0.04
747.56	-0.11
747.737	-0.02
747.915	-0.18
748.093	-0.02
748.27	-0.14
748.448	-0.06
748.625	-0.19
748.803	-0.13
748.98	-0.05
749.158	-0.04
749.335	0.07
749.513	-0.1
749.69	0.02
749.868	-0.04
750.045	0.13
750.223	-0.11
750.4	-0.22
750.578	0.13
750.755	-0.03
750.932	-0.15
751.11	0.1
751.287	-0.18
751.464	0.06
751.642	-0.2
751.819	0.04
751.996	0.03
752.173	-0.1
752.351	-0.14
752.528	-0.06
752.705	0.04
752.882	-0.06
753.06	-0.03
753.237	0.05
753.414	0.13
753.591	0.14
753.768	-0.07
753.945	-0.04
754.122	-0.11
754.299	-0.03
754.476	-0.11
754.654	-0.01
754.831	0.08
755.008	0.01
755.185	-0.1
755.362	-0.14
755.539	0.04
755.716	-0.16
755.892	-0.14
756.069	-0.02
756.246	-0.02
756.423	-0.01
756.6	0.11
756.777	-0.12
756.954	0.05
757.131	-0.06
757.307	-0.07
757.484	-0.25
757.661	-0.05
757.838	-0.07
758.015	-0.15
758.191	-0.04
758.368	-0.04
758.545	-0.01
758.721	0.04
758.898	-0.19
759.075	-0.01
759.251	-0.06
759.428	-0.01
759.605	-0.19
759.781	-0.08
759.958	0.06
760.134	0.03
760.311	-0.18
760.488	0.07
760.664	0.07
760.841	-0.14
761.017	-0.15
761.194	0.06
761.37	0.05
761.547	-0.01
761.723	0.02
761.899	0.09
762.076	-0.05
762.252	-0.15
762.429	-0.01
762.605	-0.01
762.781	-0.1
762.958	0.05
763.134	-0.02
763.31	-0.05
763.486	0.12
763.663	-0.19
763.839	0.02
764.015	-0.15
764.191	-0.16
764.368	-0.02
764.544	-0.05
764.72	0.05
764.896	0.05
765.072	0.03
765.248	-0.09
765.425	-0.13
765.601	0.05
765.777	-0.03
765.953	-0.2
766.129	-0.2
766.305	-0.2
766.481	-0.04
766.657	-0.11
766.833	0.16
767.009	-0.17
767.185	-0.21
767.361	0.01
767.537	-0.01
767.713	0.13
767.889	-0.03
768.065	-0.05
768.24	0.13
768.416	0.09
768.592	-0.21
768.768	-0.14
768.944	-0.06
769.12	-0.17
769.295	-0.09
769.471	-0.11
769.647	0.04
769.823	0.02
769.998	-0.12
770.174	-0.14
770.35	0.26
770.525	0.2
770.701	-0.08
770.877	-0.06
771.052	-0.13
771.228	-0.01
771.403	0.04
771.579	0.05
771.755	0.21
771.93	-0.07
772.106	-0.1
772.281	-0.24
772.457	0.02
772.632	0.06
772.808	-0.16
772.983	-0.06
773.159	-0.13
773.334	0.11
773.509	-0.09
773.685	-0.17
773.86	0.3
774.036	0.15
774.211	-0.08
774.386	-0.14
774.562	-0.01
774.737	0.12
774.912	-0.17
775.087	0.01
775.263	0.09
775.438	-0.14
775.613	-0.08
775.788	0
775.964	0.05
776.139	0.14
776.314	-0.12
776.489	-0.04
776.664	-0.11
776.839	-0.2
777.014	0.03
777.19	0.01
777.365	0.08
777.54	0.06
777.715	-0.06
777.89	0.01
778.065	-0.04
778.24	-0.05
778.415	0.06
778.59	-0.23
778.765	-0.2
778.94	-0.01
779.115	-0.06
779.289	-0.06
779.464	-0.02
779.639	-0.11
779.814	-0.3
779.989	-0.08
780.164	0.14
780.339	-0.14
780.513	-0.11
780.688	-0.19
780.863	0.01
781.038	0.07
781.212	-0.29
781.387	0.05
781.562	0.22
781.737	-0.24
781.911	0.18
782.086	-0.07
782.261	-0.16
782.435	0.17
782.61	-0
782.784	-0.16
782.959	0.07
783.134	-0.45
783.308	-0.32
783.483	-0.11
783.657	0.24
783.832	-0.11
784.006	-0.26
784.181	-0.1
784.355	0.1
784.53	-0.35
784.704	-0.27
784.878	0.26
785.053	-0
785.227	-0.18
785.402	0.3
785.576	-0.21
785.75	-0.08
785.925	-0.26
786.099	-0.21
786.273	0.08
786.448	0.02
786.622	0.25
786.796	-0.11
786.97	-0.09
787.145	0.46
787.319	-0.34
787.493	-0.32
787.667	-0.37
787.841	0.08
788.015	0.12
788.19	-0.13
788.364	-0.1
788.538	0.11
788.712	-0.1
788.886	-0.03
789.06	-0.01
789.234	0.05
789.408	-0.28
789.582	-0.24
789.756	-0.04
789.93	-0.38
790.104	-0.02
790.278	0.1
790.452	-0.21
790.626	-0.05
790.8	-0.21
790.973	-0
791.147	0.19
791.321	0.23
791.495	0.12
791.669	-0
791.843	-0.09
792.016	-0.08
792.19	0.06
792.364	-0.37
792.538	0.36
792.711	0.27
792.885	-0.14
793.059	-0.22
793.233	-0.63
793.406	0.28
793.58	0.1
793.754	0
793.927	-0.09
794.101	0.38
794.274	-0.22
794.448	0.26
794.622	-0.13
794.795	0.3
794.969	-0.2
795.142	0.28
795.316	-0.1
795.489	-0.17
795.663	0.26
795.836	-0.31
796.009	-0.27
796.183	0.31
796.356	0.18
796.53	0.08
796.703	-0.27
796.876	0.4
797.05	-0.23
797.223	0.03
797.396	-0
797.57	0.1
797.743	0.18
797.916	0.08
798.09	-0.02
798.263	-0.05
798.436	-0.06
798.609	-0.16
798.782	-0.31
798.956	0.16
799.129	-0.1
799.302	-0.26
799.475	-0.16
799.648	-0.25
799.821	-0.06
799.994	0.01
800.167	-0.41
800.34	0.07
800.514	-0.07
800.687	-0.31
800.86	-0.18
801.033	-0.18
801.206	0.07
801.379	-0.33
801.551	0.2
801.724	0.3
801.897	0.23
802.07	-0.18
802.243	-0.58
802.416	-0.1
802.589	-0.42
802.762	-0.1
802.935	0.03
803.107	-0.04
803.28	0.34
803.453	0.22
803.626	-0.52
803.798	-0.04
803.971	-0.39
804.144	0.19
804.317	-0.25
804.489	0.29
804.662	-0.37
804.835	-0
805.007	-0.26
805.18	0.47
805.353	-0.06
805.525	-0.26
805.698	-0.18
805.87	-0.1
806.043	0.37
806.215	-0.64
806.388	-0.24
806.56	-0.06
806.733	0.17
806.905	0.02
807.078	-0.37
807.25	-0.54
807.423	0.06
807.595	-0.19
807.768	-0.11
807.94	0.24
808.112	0.43
808.285	-0.16
808.457	-0.54
808.629	0.13
808.802	-0.03
808.974	-0.34
809.146	-0.28
809.318	-0.61
809.491	0.21
809.663	0.36
809.835	-0.27
810.007	-0.14
810.18	0.05
810.352	-0.46
810.524	-0.06
810.696	-0.08
810.868	0.29
811.04	-0.33
811.212	-0.05
811.384	0.05
811.556	0.12
811.728	-0.36
811.901	0.1
812.073	-0.24
812.245	0.33
812.417	-0.17
812.589	-0.56
812.76	-0.21
812.932	-0.23
813.104	0.14
813.276	-0.02
813.448	0.23
813.62	0.25
813.792	0.03
813.964	0.23
814.136	0.18
814.307	-0.1
814.479	-0.22
814.651	-0.37
814.823	0.54
814.995	-0.24
815.166	0.03
815.338	-0.5
815.51	-0.19
815.681	0.87
815.853	0.18
816.025	-0.29
816.196	0.8
816.368	0.23
816.54	-0.49
816.711	-0.86
816.883	0.05
817.054	0.46
817.226	-0.57
817.398	0.06
817.569	-0.16
817.741	-0.24
817.912	-0.11
818.084	-0.36
818.255	0.41
818.426	-0.38
818.598	-0.25
818.769	-0.17
818.941	0.41
819.112	0.17
819.283	-0.13
819.455	-0.51
819.626	-0.12
819.798	-0.04
819.969	-0.11
820.14	-0.19
820.311	-0.39
820.483	0.17
820.654	0.02
820.825	-0.02
820.996	-0.42
821.168	-0.5
821.339	0.11
821.51	-0.64
821.681	0.9
821.852	0.12
822.023	-0.54
822.195	-0.02
822.366	0.07
822.537	-0.08
822.708	-0.45
822.879	0.1
823.05	0.34
823.221	0.04
823.392	0.4
823.563	-0.35
823.734	-0.03
823.905	0.25
824.076	-0.57
824.247	-0.54
824.418	-0.46
824.589	0.34
824.759	0.1
824.93	0.23
825.101	-0.68
825.272	0.56
825.443	0.31
825.614	0.22
825.784	-1.15
825.955	0.63
826.126	-0.04
826.297	-0.42
826.467	0.03
826.638	0.57
826.809	-0.8
826.98	-0.04
827.15	0.2
827.321	-0.28
827.492	0.46
827.662	-0.15
827.833	0.67
828.003	-0.14
828.174	-0.88
828.345	-0.32
828.515	0.67
828.686	-0.02
828.856	-0.53
829.027	0.04
829.197	-0.29
829.368	0.19
829.538	-0.37
829.709	-0.46
829.879	-0.45
830.049	0.12
830.22	-0.1
830.39	-0.06
830.56	0.04
830.731	-0.59
830.901	-1.22
831.072	-0.24
831.242	-0.17
831.412	-0.52
831.582	-0.56
831.753	-0.79
831.923	0.58
832.093	0.44
832.263	-0.28
832.434	-0.67
832.604	-0.45
832.774	0.08
832.944	-0.54
833.114	-0.4
833.284	-0.51
833.454	-0.66
833.624	-0.41
833.795	-0.24
833.965	0.61
834.135	0.06
834.305	-0.92
834.475	-1.04
834.645	-0.1
834.815	-0.04
834.985	-0.08
835.155	-0.19
835.325	0.72
835.494	0.23
835.664	-0.62
835.834	-1
836.004	-0.13
836.174	0.08
836.344	0.1
836.514	-0.08
836.684	-0.05
836.853	-0.28
837.023	-0.3
837.193	-0.3
837.363	0.14
837.532	0.5
837.702	-0.14
837.872	-0.9
838.041	0.32
838.211	0.45
838.381	-0.36
838.55	0.02
838.72	1.23
838.89	0.99
839.059	-0.55
839.229	0.09
839.398	1.45
839.568	0.25
839.738	0.05
839.907	0.38
840.077	-0.04
840.246	-0.35
840.416	-1.16
840.585	-1.01
840.755	0.45
840.924	0.96
841.093	-0.54
841.263	-0.05
841.432	-0.13
841.602	-1.14
841.771	-1.03
841.94	-0.55
842.11	0.96
842.279	1.26
842.448	-1.03
842.617	-0.09
842.787	1.16
842.956	-0.94
843.125	0.46
843.294	0.44
843.464	0.95
843.633	-0.11
843.802	-1.26
843.971	-0.53
844.14	0.1
844.309	0.58
844.479	-1.37
844.648	-0.52
844.817	-0.61
844.986	-0.5
845.155	-0.38
845.324	-0.95
845.493	-0.18
845.662	-1.25
845.831	-0.19
846	-0.25
846.169	-0.64
846.338	1.09
846.507	0.3
846.676	0.39
846.844	-0.14
847.013	0.9
847.182	0.28
847.351	0.07
847.52	-0.29
847.689	0.02
847.858	-0.12
848.026	-0.74
848.195	-0.41
848.364	0.34
848.533	-0.56
848.701	0.25
848.87	0.25
849.039	1.39
849.207	1.23
849.376	0.77
849.545	1.32
849.713	-0.27
849.882	0.35
850.051	-0.37
850.219	0.3
850.388	0.74
850.556	-0.89
850.725	-1.08
850.893	-0.09
851.062	-0.88
851.23	0.34
851.399	-1.45
851.567	-0.53
851.736	-0.34
851.904	-1.69
852.073	-0.3
852.241	-0.62
852.41	0.54
852.578	-0.53
852.746	-1.77
852.915	0.25
853.083	0.02
853.251	-0.74
853.42	-0.15
853.588	0.66
853.756	0.97
853.924	-0.99
854.093	0.29
854.261	-0.66
854.429	-1.07
854.597	-0.85
854.765	-1.82
854.934	-0.12
855.102	-0.5
855.27	-0.35
855.438	0.19
855.606	0.87
855.774	0.85
855.942	-1.32
856.11	-1.82
856.278	-0.47
856.446	0.68
856.614	-0.21
856.782	-0.91
856.95	0.5
857.118	1.01
857.286	0.5
857.454	-1.95
857.622	0.45
857.79	0.03
857.958	-0.83
858.126	0.36
858.294	-2.74
858.462	0.01
858.629	-0.76
858.797	-1.13
858.965	1.12
859.133	0.57
859.301	-0.37
859.468	0.22
859.636	-1.15
859.804	1.64
859.971	1.24
860.139	-0.36
860.307	1.08
860.474	1.09
860.642	-1.45
860.81	-0.36
860.977	-0.66
861.145	0.33
861.313	0.21
861.48	-1.56
861.648	0.08
861.815	-0.32
861.983	-2.13
862.15	-0.99
862.318	-0.61
862.485	0.75
862.653	-2.18
862.82	-1.32
862.988	0.86
863.155	0.16
863.322	-1.67
863.49	-1.17
863.657	-0.73
863.824	1.84
863.992	0.66
864.159	0.56
864.326	0.72
864.494	-0.87
864.661	2.28
864.828	-1.81
864.996	1.21
865.163	0.29
865.33	-2.09
865.497	-3.91
865.664	-1.44
865.832	-1.96
865.999	-0.28
866.166	-0.08
866.333	0.68
866.5	-1.38
866.667	-0.36
866.834	-0.44
867.001	1.8
867.168	-3.46
867.335	-0.66
867.502	-1.59
867.669	-0.55
867.836	1.29
868.003	-0.58
868.17	0.29
868.337	2.46
868.504	1.91
868.671	-1.56
868.838	-0.91
869.005	-0.25
869.172	0.29
869.339	-1.16
869.505	-0.21
869.672	0.14
869.839	2.01
870.006	-1.01
870.173	-2.87
870.339	-0.04
870.506	0.34
870.673	-2.56
870.84	1.84
871.006	-0.29
871.173	-1.04
871.34	-0.1
871.506	-1.74
871.673	0.24
871.839	-2.26
872.006	0.27
872.173	-1.63
872.339	0.03
872.506	0.67
872.672	-0.04
872.839	-2.58
873.005	0.93
873.172	1.73
873.338	0.51
873.505	-0.76
873.671	-1.45
873.838	1.18
874.004	-1.52
874.171	-1.8
874.337	-0.26
874.503	1.34
874.67	0.08
874.836	-0.38
875.002	1.69
875.169	1.3
875.335	-0.37
875.501	0.82
875.668	1.51
875.834	0.54
876	-1.34
876.166	0.87
876.332	-1.15
876.499	2.7
876.665	-1.31
876.831	-0.86
876.997	2.83
877.163	0.4
877.329	-2.44
877.495	-0.41
877.662	1.22
877.828	0.25
877.994	0.66
878.16	-1.56
878.326	-0.87
878.492	1.25
878.658	-1.02
878.824	-0.51
878.99	0.22
879.156	-2.54
879.322	1.75
879.487	-0.96
879.653	0.35
879.819	1.15
879.985	-1.57
880.151	-0.56
880.317	0.37
880.483	0.26
880.648	1.94
880.814	-3.91
880.98	1.06
881.146	-3.27
881.312	-1.35
881.477	-0.64
881.643	-0.78
881.809	2.14
881.974	1.8
882.14	-2.16
882.306	-0.46
882.471	1.94
882.637	-0.44
882.803	0.93
882.968	2.46
883.134	2.46
883.299	-0.45
883.465	-0.96
883.63	1.26
883.796	0.96
883.961	1.41
884.127	0.72
884.292	-3.51
884.458	-3.66
884.623	-3.65
