Data from Apollo_Calib_20240827__AbsoluteIrradiance__156__01-45-03-110.txt Node

Date: Wed Aug 28 01:45:03 BST 2024
User: biology
Spectrometer: FLMT08252
Trigger mode: 0
Integration Time (sec): 5.000000E-1
Scans to average: 5
Electric dark correction enabled: true
Nonlinearity correction enabled: false
Boxcar width: 0
XAxis mode: Wavelengths
Number of Pixels in Spectrum: 3648
>>>>>Begin Spectral Data<<<<<
179.588	-0
179.809	-0
180.03	-0
180.251	-0
180.473	-0
180.694	0
180.915	0
181.136	-0
181.357	0
181.578	-0
181.799	-0
182.02	0
182.241	-0
182.462	-0
182.683	0
182.904	-0
183.125	-0
183.346	0
183.567	0
183.788	-0
184.009	-0
184.23	0
184.451	0
184.672	-0
184.892	-0
185.113	0
185.334	0
185.555	-0
185.776	-0
185.996	0
186.217	0
186.438	0
186.659	-0
186.879	0
187.1	0
187.321	-0
187.541	-0
187.762	-0
187.983	0
188.203	-0
188.424	0
188.644	-0
188.865	-0
189.086	-0
189.306	-0
189.527	-0
189.747	0
189.968	-0
190.188	-0
190.409	0
190.629	0
190.849	-0
191.07	-0
191.29	0
191.511	-0
191.731	-0
191.951	-0
192.172	0
192.392	-0
192.612	-0
192.833	0
193.053	0
193.273	0
193.493	-0
193.714	-0
193.934	0
194.154	0
194.374	-0
194.594	-0
194.815	0
195.035	0
195.255	0
195.475	-0
195.695	0
195.915	-0
196.135	-0
196.355	0
196.575	0
196.795	0
197.015	-0
197.235	-0
197.455	-0
197.675	0
197.895	-0
198.115	-0
198.335	0
198.555	-0
198.775	-0
198.995	0
199.214	0
199.434	-0
199.654	-0
199.874	-0
200.094	1.18
200.313	-0.4
200.533	-0.49
200.753	-1.09
200.973	0.58
201.192	0.74
201.412	-0.9
201.632	-0.45
201.851	0.32
202.071	-0.65
202.291	-0.52
202.51	-0.9
202.73	0.18
202.95	0.08
203.169	-0.35
203.389	-0.21
203.608	-0.07
203.828	-0.6
204.047	-0.73
204.267	0.17
204.486	0.09
204.706	-0.03
204.925	-0.38
205.145	-0.33
205.364	0.23
205.583	0.28
205.803	-0.48
206.022	-0.31
206.242	-0.3
206.461	-0.02
206.68	-0.48
206.9	0.04
207.119	0.44
207.338	0.46
207.557	-0.28
207.777	-0.17
207.996	-0.17
208.215	0.27
208.434	-0.24
208.654	-0.63
208.873	0.2
209.092	0.59
209.311	-0.15
209.53	-0.14
209.749	-0
209.968	-0.19
210.187	-0.25
210.407	-0.53
210.626	-0.18
210.845	0.14
211.064	0.03
211.283	-0.44
211.502	0.32
211.721	-0.01
211.94	-0.04
212.159	-0.07
212.377	0.21
212.596	0.21
212.815	-0.24
213.034	0.09
213.253	0.14
213.472	0.1
213.691	-0.28
213.91	-0.36
214.128	-0.3
214.347	0.22
214.566	-0.31
214.785	-0.35
215.003	-0.11
215.222	-0.12
215.441	-0.06
215.66	-0.46
215.878	-0.07
216.097	0.04
216.316	-0.29
216.534	-0.24
216.753	0.03
216.972	0
217.19	-0.07
217.409	-0.25
217.627	-0.25
217.846	-0.23
218.064	0.17
218.283	-0.23
218.501	0.43
218.72	0.15
218.938	-0.27
219.157	-0.19
219.375	0.12
219.594	0.16
219.812	-0.25
220.031	-0.18
220.249	0.29
220.467	0.33
220.686	-0.13
220.904	-0.23
221.122	-0.15
221.341	0.35
221.559	0.01
221.777	-0.19
221.995	-0.02
222.214	0.09
222.432	-0.32
222.65	-0.01
222.868	0.06
223.086	0.05
223.305	0
223.523	-0.07
223.741	0.19
223.959	-0.16
224.177	-0.36
224.395	-0.06
224.613	0
224.831	0.16
225.049	-0.14
225.267	-0.14
225.485	-0.03
225.703	0.01
225.921	-0.16
226.139	-0.19
226.357	0.2
226.575	0.05
226.793	-0.12
227.011	0.44
227.229	0.03
227.447	0.02
227.665	-0.23
227.883	-0.28
228.1	-0.07
228.318	-0.02
228.536	-0.22
228.754	-0.09
228.972	0.06
229.189	0.03
229.407	-0.12
229.625	-0.16
229.843	0.16
230.06	0
230.278	-0.1
230.496	-0.05
230.713	0.19
230.931	0.15
231.149	-0.13
231.366	-0.19
231.584	-0.02
231.801	0.26
232.019	-0.02
232.236	-0.24
232.454	-0.05
232.671	0.1
232.889	-0.03
233.106	-0.21
233.324	-0.05
233.541	-0.05
233.759	-0.03
233.976	-0.14
234.194	-0.18
234.411	-0.03
234.628	-0.13
234.846	-0.02
235.063	0.01
235.28	0.03
235.498	-0.09
235.715	-0.1
235.932	-0.01
236.149	-0.05
236.367	-0.06
236.584	-0.06
236.801	-0.05
237.018	0.08
237.236	-0.05
237.453	-0.18
237.67	0.16
237.887	-0.15
238.104	-0.08
238.321	-0.15
238.538	-0.1
238.755	0.09
238.973	-0.17
239.19	-0.02
239.407	-0.01
239.624	0
239.841	-0.11
240.058	-0.16
240.275	0.01
240.492	-0.06
240.709	-0.01
240.925	0.02
241.142	0.01
241.359	-0.16
241.576	-0.09
241.793	-0.16
242.01	-0.06
242.227	0.03
242.444	-0.02
242.66	0.12
242.877	0.04
243.094	-0.09
243.311	0.01
243.527	0.06
243.744	0.03
243.961	0.09
244.178	-0.19
244.394	-0
244.611	0.09
244.828	0.12
245.044	-0.09
245.261	-0.04
245.477	0
245.694	-0.07
245.911	-0.11
246.127	-0.04
246.344	0.1
246.56	0.05
246.777	-0.11
246.993	-0.01
247.21	0.01
247.426	-0.02
247.643	-0.09
247.859	-0.05
248.076	-0.08
248.292	0.18
248.508	-0.08
248.725	-0.05
248.941	0.03
249.157	0.03
249.374	-0.06
249.59	-0.05
249.806	-0.07
250.023	0.03
250.239	-0.07
250.455	-0.07
250.671	-0.05
250.888	0.1
251.104	-0.04
251.32	-0.07
251.536	0.01
251.752	-0.01
251.969	0.06
252.185	0.03
252.401	0.14
252.617	0.07
252.833	-0.14
253.049	-0.01
253.265	-0.09
253.481	0.02
253.697	-0.05
253.913	-0.14
254.129	0.01
254.345	-0.05
254.561	-0.07
254.777	0
254.993	-0
255.209	-0.01
255.425	-0.12
255.641	-0.11
255.857	-0
256.073	0.03
256.288	-0.11
256.504	-0.05
256.72	-0.06
256.936	0.07
257.152	-0.01
257.367	-0.02
257.583	-0.05
257.799	0.03
258.015	-0.08
258.23	-0.03
258.446	0.07
258.662	-0.02
258.877	-0.11
259.093	-0.1
259.309	0.03
259.524	0.02
259.74	-0.08
259.955	-0.11
260.171	-0.04
260.387	-0.03
260.602	0.07
260.818	-0.01
261.033	-0.14
261.249	-0.11
261.464	-0.09
261.68	-0.12
261.895	0.01
262.11	0.04
262.326	-0.08
262.541	-0.1
262.757	0.06
262.972	-0.04
263.187	-0.02
263.403	-0.04
263.618	0.05
263.833	-0.06
264.049	-0.02
264.264	-0.05
264.479	0.03
264.694	0.08
264.91	-0.08
265.125	0
265.34	0.03
265.555	0.12
265.77	0.03
265.986	-0.09
266.201	0.01
266.416	0.07
266.631	0
266.846	0.01
267.061	-0.01
267.276	-0.03
267.491	-0.14
267.706	0.05
267.921	0.02
268.136	-0
268.351	0
268.566	-0.08
268.781	0.09
268.996	0.06
269.211	-0.04
269.426	-0.09
269.641	-0.05
269.856	0.05
270.071	-0.08
270.285	-0.14
270.5	0.06
270.715	0.03
270.93	-0
271.145	0
271.359	0
271.574	-0.04
271.789	-0
272.004	-0.09
272.218	0.03
272.433	0.08
272.648	-0.08
272.862	0.04
273.077	-0.02
273.292	-0.02
273.506	-0.07
273.721	-0.05
273.936	-0
274.15	0.06
274.365	-0.14
274.579	-0.03
274.794	0.06
275.008	0.04
275.223	-0.11
275.437	-0.06
275.652	0.04
275.866	0.03
276.081	-0.03
276.295	-0
276.509	-0.01
276.724	-0.01
276.938	0.03
277.153	-0.01
277.367	0.05
277.581	-0.04
277.796	-0.04
278.01	-0.11
278.224	0.02
278.438	0.16
278.653	-0.07
278.867	-0.05
279.081	-0.19
279.295	-0.01
279.51	0.04
279.724	-0.12
279.938	0.02
280.152	-0
280.366	-0.04
280.58	-0
280.794	0.11
281.008	0.04
281.222	0.02
281.437	0.09
281.651	-0.02
281.865	0.1
282.079	-0.01
282.293	-0.12
282.507	-0.07
282.721	-0.03
282.935	0.02
283.148	-0.05
283.362	-0.06
283.576	-0.01
283.79	0.01
284.004	-0.07
284.218	0.02
284.432	-0.03
284.646	-0.03
284.859	-0.02
285.073	-0.03
285.287	-0.01
285.501	0
285.714	-0.05
285.928	-0.01
286.142	0.02
286.356	-0.04
286.569	-0.06
286.783	0.07
286.997	0.05
287.21	0.02
287.424	-0.01
287.637	-0.01
287.851	-0.01
288.065	0.01
288.278	-0.05
288.492	0.05
288.705	0.01
288.919	0.04
289.132	-0.07
289.346	0.05
289.559	-0.08
289.773	-0.03
289.986	-0.03
290.2	0.04
290.413	0.05
290.626	-0.09
290.84	-0.01
291.053	-0.02
291.267	0.07
291.48	0.04
291.693	0.02
291.906	-0.06
292.12	-0.02
292.333	-0.09
292.546	-0.03
292.76	0.06
292.973	0.02
293.186	0.05
293.399	-0.04
293.612	0.05
293.826	-0.05
294.039	-0.04
294.252	-0
294.465	0.02
294.678	0.03
294.891	-0
295.104	-0.01
295.317	-0.01
295.53	-0
295.743	-0.04
295.956	0.01
296.169	0.05
296.382	0.08
296.595	-0.03
296.808	-0.06
297.021	0.02
297.234	0.03
297.447	-0.04
297.66	0.02
297.873	0.05
298.086	0.02
298.299	-0.08
298.511	-0.06
298.724	0.03
298.937	-0.06
299.15	-0.05
299.363	-0.02
299.575	0.04
299.788	0.01
300.001	-0.02
300.213	-0.03
300.426	-0
300.639	0
300.852	-0.02
301.064	0.04
301.277	0.03
301.489	0.04
301.702	0.05
301.915	-0.01
302.127	-0
302.34	0.02
302.552	0.01
302.765	-0.07
302.977	0.04
303.19	-0.06
303.402	-0
303.615	0
303.827	-0.02
304.04	-0.03
304.252	0.03
304.464	-0.01
304.677	0.14
304.889	0.06
305.102	-0.02
305.314	-0.06
305.526	0.05
305.739	0.07
305.951	-0.04
306.163	0
306.375	0.06
306.588	-0.03
306.8	-0.06
307.012	-0.06
307.224	0.05
307.436	0.1
307.649	-0.08
307.861	-0.01
308.073	0.03
308.285	-0.01
308.497	-0.07
308.709	-0.03
308.921	0.01
309.133	0.06
309.346	0.01
309.558	-0.01
309.77	0.02
309.982	0.06
310.194	0.02
310.406	-0.05
310.617	0.08
310.829	-0
311.041	0.06
311.253	-0.06
311.465	-0.02
311.677	0.03
311.889	-0.04
312.101	-0.02
312.313	0.01
312.524	0.07
312.736	-0.06
312.948	-0.02
313.16	0.08
313.372	0.04
313.583	0.03
313.795	-0.01
314.007	-0.04
314.218	0.06
314.43	0.01
314.642	-0.04
314.853	-0.06
315.065	0.03
315.277	0.03
315.488	0
315.7	0.01
315.912	0.01
316.123	-0.02
316.335	-0.01
316.546	0.12
316.758	0.02
316.969	-0.02
317.181	-0.02
317.392	0.02
317.604	0.03
317.815	-0.02
318.026	-0.01
318.238	-0.03
318.449	0.01
318.661	-0.05
318.872	-0.07
319.083	-0.06
319.295	0.04
319.506	-0.04
319.717	0.03
319.929	-0
320.14	-0.04
320.351	0
320.562	-0.03
320.774	0.03
320.985	0.04
321.196	-0.06
321.407	-0.08
321.618	0.01
321.829	0.03
322.041	0.04
322.252	-0.01
322.463	0.01
322.674	0.06
322.885	-0.03
323.096	-0.05
323.307	-0.02
323.518	0.02
323.729	-0.07
323.94	-0
324.151	-0
324.362	-0
324.573	0
324.784	-0.04
324.995	0.03
325.206	0.02
325.417	-0.04
325.628	-0.02
325.838	0.01
326.049	-0
326.26	0.05
326.471	-0.03
326.682	0.06
326.892	-0.02
327.103	-0.08
327.314	-0.08
327.525	0.07
327.735	0.01
327.946	-0.01
328.157	-0.03
328.368	0.02
328.578	-0.04
328.789	-0
328.999	0.01
329.21	0.01
329.421	-0.02
329.631	-0.05
329.842	-0.04
330.052	0.05
330.263	0.04
330.473	0.03
330.684	-0.03
330.894	-0
331.105	0
331.315	-0.02
331.526	-0.06
331.736	0.06
331.947	0.01
332.157	-0.01
332.367	-0.03
332.578	0.02
332.788	0.1
332.999	0.02
333.209	0.01
333.419	-0.02
333.629	-0.01
333.84	0.06
334.05	-0.01
334.26	0.01
334.47	-0.01
334.681	0.05
334.891	-0.01
335.101	0.04
335.311	0.09
335.521	-0.01
335.732	-0.02
335.942	0.08
336.152	0.06
336.362	0.02
336.572	-0.03
336.782	0.05
336.992	0.02
337.202	-0.02
337.412	-0.06
337.622	0.02
337.832	0
338.042	0.01
338.252	-0.08
338.462	0.01
338.672	0.01
338.882	0.01
339.092	-0
339.302	0.04
339.511	0
339.721	-0.03
339.931	-0.03
340.141	0.04
340.351	0.03
340.561	0.01
340.77	0.02
340.98	-0.02
341.19	0
341.4	-0.07
341.609	-0.02
341.819	-0
342.029	-0.08
342.238	0
342.448	-0.04
342.658	0.03
342.867	0.02
343.077	0.04
343.286	0
343.496	0.02
343.706	0.04
343.915	-0.06
344.125	-0.02
344.334	0.04
344.544	-0.04
344.753	-0.02
344.963	-0
345.172	-0.04
345.381	-0.04
345.591	-0.05
345.8	0
346.01	0.05
346.219	0.02
346.428	-0.14
346.638	-0.01
346.847	0.01
347.056	0.06
347.266	-0.05
347.475	0.06
347.684	0.06
347.893	0.03
348.103	0.04
348.312	0.01
348.521	0.01
348.73	0.01
348.94	-0.01
349.149	-0.02
349.358	0.01
349.567	-0.01
349.776	-0.03
349.985	-0.03
350.194	-0
350.403	0.04
350.612	-0.04
350.821	-0.02
351.03	-0.02
351.239	-0.09
351.448	-0.01
351.657	-0.03
351.866	0.05
352.075	-0.02
352.284	0.03
352.493	-0.05
352.702	0.04
352.911	0.1
353.12	-0
353.329	-0.03
353.538	0.01
353.746	-0.01
353.955	-0.03
354.164	0
354.373	-0.03
354.582	0.05
354.79	0.05
354.999	0.02
355.208	-0.01
355.416	0.05
355.625	-0.02
355.834	-0.03
356.042	-0.02
356.251	-0.01
356.46	-0.04
356.668	-0
356.877	0.09
357.085	0.02
357.294	-0.09
357.503	0.02
357.711	-0.01
357.92	0.1
358.128	0.06
358.337	-0.02
358.545	0
358.754	-0.02
358.962	0.04
359.17	-0.04
359.379	0.03
359.587	0.02
359.796	-0.01
360.004	0.04
360.212	-0
360.421	0.03
360.629	0
360.837	-0.02
361.046	-0.01
361.254	0.07
361.462	0.01
361.67	-0.06
361.879	-0.04
362.087	0.02
362.295	-0.02
362.503	-0.02
362.711	-0.08
362.92	-0
363.128	-0.02
363.336	-0.06
363.544	-0.07
363.752	-0.05
363.96	-0.02
364.168	-0.01
364.376	-0.03
364.584	0.03
364.792	0.04
365	0.03
365.208	-0
365.416	0.02
365.624	0.05
365.832	-0.01
366.04	0.05
366.248	0.02
366.456	0
366.664	0.01
366.872	0.01
367.079	-0.02
367.287	-0.01
367.495	0.01
367.703	-0.01
367.911	-0.06
368.118	-0.03
368.326	-0.02
368.534	-0.03
368.742	0.05
368.949	-0.04
369.157	-0.03
369.365	0.01
369.572	-0
369.78	-0.03
369.988	0.04
370.195	0.02
370.403	0.03
370.61	-0.03
370.818	0
371.026	0.05
371.233	0.01
371.441	-0.01
371.648	-0.04
371.856	0.02
372.063	0.02
372.271	-0.03
372.478	-0.01
372.685	-0.05
372.893	0.05
373.1	-0.01
373.308	-0.02
373.515	0.06
373.722	0.04
373.93	-0
374.137	0.03
374.344	0.04
374.552	0.02
374.759	0.04
374.966	-0
375.173	-0.04
375.381	0.07
375.588	-0.04
375.795	-0.06
376.002	-0.01
376.209	-0.01
376.417	0
376.624	-0.04
376.831	0.02
377.038	-0.02
377.245	-0.07
377.452	-0.03
377.659	0.05
377.866	-0.03
378.073	-0.03
378.28	-0.02
378.487	0.03
378.694	0.02
378.901	-0.02
379.108	-0.02
379.315	0.01
379.522	0.07
379.729	0.02
379.936	-0.01
380.143	0.01
380.35	0.03
380.557	-0.03
380.763	0.04
380.97	-0.01
381.177	0.04
381.384	-0
381.591	-0.06
381.797	0
382.004	0.04
382.211	0.02
382.418	0.03
382.624	0.02
382.831	0.04
383.038	0.03
383.244	0.03
383.451	0.03
383.658	0.03
383.864	0.01
384.071	-0.03
384.277	0.07
384.484	-0.03
384.69	0.04
384.897	-0.02
385.103	0.01
385.31	-0.05
385.516	-0.06
385.723	-0.04
385.929	0.01
386.136	-0.02
386.342	0.02
386.549	0
386.755	0.01
386.961	0.06
387.168	-0.01
387.374	-0.01
387.58	0
387.787	-0.02
387.993	0.06
388.199	0.02
388.406	0.01
388.612	-0.01
388.818	-0.01
389.024	0
389.231	0.03
389.437	0.1
389.643	0.09
389.849	-0
390.055	0.03
390.261	0.03
390.467	0.04
390.674	-0.01
390.88	0.04
391.086	0.09
391.292	-0.02
391.498	0.06
391.704	0.04
391.91	0.03
392.116	0.02
392.322	-0.01
392.528	0.08
392.734	0.05
392.94	0.07
393.146	0.06
393.352	0.08
393.557	0.05
393.763	0.04
393.969	0.1
394.175	0.09
394.381	0.08
394.587	0.07
394.792	0.09
394.998	0.12
395.204	0.18
395.41	0.08
395.615	0.16
395.821	0.13
396.027	0.16
396.233	0.12
396.438	0.16
396.644	0.21
396.85	0.17
397.055	0.2
397.261	0.18
397.466	0.18
397.672	0.23
397.878	0.27
398.083	0.22
398.289	0.23
398.494	0.28
398.7	0.26
398.905	0.19
399.111	0.38
399.316	0.2
399.522	0.29
399.727	0.36
399.932	0.32
400.138	0.33
400.343	0.38
400.549	0.44
400.754	0.45
400.959	0.45
401.165	0.42
401.37	0.5
401.575	0.62
401.78	0.52
401.986	0.53
402.191	0.56
402.396	0.58
402.601	0.7
402.807	0.71
403.012	0.67
403.217	0.77
403.422	0.72
403.627	0.79
403.832	0.76
404.037	0.9
404.243	0.88
404.448	0.88
404.653	0.89
404.858	0.99
405.063	0.94
405.268	0.95
405.473	0.93
405.678	0.98
405.883	1.15
406.088	1.05
406.293	0.98
406.498	1.11
406.703	1.07
406.907	1.11
407.112	1.04
407.317	1.17
407.522	1.14
407.727	1.12
407.932	1.15
408.136	1.31
408.341	1.17
408.546	1.12
408.751	1.1
408.956	1.14
409.16	1.19
409.365	1.13
409.57	1.04
409.774	1.08
409.979	1.09
410.184	1.09
410.388	0.97
410.593	1.02
410.798	1.02
411.002	1.02
411.207	1.01
411.411	0.92
411.616	0.88
411.82	0.85
412.025	0.89
412.229	0.8
412.434	0.85
412.638	0.79
412.843	0.76
413.047	0.77
413.252	0.69
413.456	0.71
413.66	0.72
413.865	0.66
414.069	0.68
414.273	0.6
414.478	0.59
414.682	0.52
414.886	0.55
415.091	0.52
415.295	0.4
415.499	0.58
415.703	0.48
415.908	0.48
416.112	0.39
416.316	0.5
416.52	0.42
416.724	0.36
416.929	0.36
417.133	0.55
417.337	0.38
417.541	0.38
417.745	0.4
417.949	0.45
418.153	0.4
418.357	0.32
418.561	0.42
418.765	0.39
418.969	0.44
419.173	0.34
419.377	0.31
419.581	0.43
419.785	0.27
419.989	0.21
420.193	0.28
420.397	0.31
420.601	0.35
420.804	0.28
421.008	0.29
421.212	0.23
421.416	0.29
421.62	0.25
421.823	0.25
422.027	0.31
422.231	0.22
422.435	0.22
422.638	0.24
422.842	0.23
423.046	0.18
423.249	0.23
423.453	0.19
423.657	0.22
423.86	0.16
424.064	0.17
424.268	0.24
424.471	0.14
424.675	0.24
424.878	0.23
425.082	0.13
425.285	0.16
425.489	0.2
425.692	0.16
425.896	0.11
426.099	0.17
426.303	0.13
426.506	-0.01
426.71	0.11
426.913	0.19
427.116	0.16
427.32	0.1
427.523	0.07
427.726	0.2
427.93	0.05
428.133	0.11
428.336	0.03
428.54	0.06
428.743	0.14
428.946	0.15
429.149	0.07
429.353	0.11
429.556	0.08
429.759	0.09
429.962	0.03
430.165	0.07
430.368	0.06
430.571	0.02
430.775	0.09
430.978	0.05
431.181	0.1
431.384	0.09
431.587	0.02
431.79	0.05
431.993	0.04
432.196	0.05
432.399	0.04
432.602	0.13
432.805	0.03
433.008	0.03
433.211	-0.01
433.414	0.1
433.616	0.06
433.819	0.03
434.022	-0.05
434.225	0.13
434.428	0.08
434.631	0.14
434.833	0.09
435.036	0.02
435.239	0.11
435.442	0.05
435.645	0.03
435.847	0.07
436.05	0.08
436.253	0.07
436.455	0
436.658	0.05
436.861	0.12
437.063	0.02
437.266	-0
437.468	0.07
437.671	0.15
437.874	0.03
438.076	-0.04
438.279	-0.04
438.481	0.02
438.684	-0.01
438.886	0.06
439.089	-0.02
439.291	0.03
439.494	0.09
439.696	-0.02
439.899	0.01
440.101	0.07
440.303	-0.02
440.506	0.07
440.708	0.01
440.91	0.01
441.113	-0.02
441.315	0.04
441.517	-0.04
441.72	0.11
441.922	0.01
442.124	-0
442.326	0.05
442.529	0.1
442.731	-0.01
442.933	0.09
443.135	0.01
443.337	-0.02
443.539	-0.02
443.742	-0
443.944	0.03
444.146	-0.03
444.348	0.03
444.55	-0.05
444.752	0.05
444.954	-0.03
445.156	-0.02
445.358	-0.02
445.56	0.03
445.762	-0.02
445.964	0
446.166	-0.03
446.368	-0.04
446.57	0.06
446.772	-0.01
446.974	-0.04
447.175	0.06
447.377	-0.04
447.579	-0.02
447.781	-0.07
447.983	0.07
448.184	0.01
448.386	0.06
448.588	-0.06
448.79	0.02
448.991	-0
449.193	-0.02
449.395	-0.02
449.597	0
449.798	0.01
450	0.07
450.202	0
450.403	-0
450.605	0.01
450.806	0.01
451.008	-0.05
451.21	0.01
451.411	-0.01
451.613	-0.02
451.814	-0.01
452.016	0.03
452.217	0.01
452.419	0.01
452.62	0.02
452.821	0.01
453.023	0.07
453.224	0.03
453.426	0
453.627	-0
453.828	0.05
454.03	0
454.231	0.05
454.432	-0.03
454.634	0.04
454.835	-0.06
455.036	-0.04
455.238	0.04
455.439	0.06
455.64	-0.06
455.841	-0.02
456.042	0.1
456.244	0.03
456.445	-0.05
456.646	-0.06
456.847	-0.04
457.048	0.06
457.249	0.05
457.45	0.14
457.651	-0.04
457.852	0.04
458.054	0.02
458.255	-0.01
458.456	0.04
458.657	0.02
458.858	-0.02
459.058	0
459.259	0.04
459.46	-0.01
459.661	-0.05
459.862	0.08
460.063	-0.04
460.264	0.02
460.465	-0.02
460.666	0.13
460.866	-0.02
461.067	-0.04
461.268	-0.05
461.469	-0.02
461.67	-0.04
461.87	-0.03
462.071	-0.01
462.272	-0.01
462.473	-0.02
462.673	0.02
462.874	-0.07
463.075	-0.02
463.275	-0.03
463.476	0.02
463.676	0
463.877	-0
464.078	-0.02
464.278	0.06
464.479	-0.01
464.679	0.06
464.88	0.01
465.08	0.02
465.281	-0.07
465.481	-0.04
465.682	0.02
465.882	0.05
466.083	0.03
466.283	0.02
466.483	0.04
466.684	-0.03
466.884	-0.04
467.085	0
467.285	0.04
467.485	-0.05
467.686	-0
467.886	-0
468.086	0
468.286	0.04
468.487	0.07
468.687	-0.05
468.887	0.01
469.087	0.02
469.287	-0.03
469.488	-0.01
469.688	0.07
469.888	0.05
470.088	0.05
470.288	0.04
470.488	0.07
470.688	-0.02
470.888	-0.05
471.088	-0.02
471.288	0.05
471.488	0.03
471.688	0.02
471.888	-0
472.088	0.07
472.288	0.05
472.488	0.02
472.688	-0.02
472.888	-0
473.088	-0.02
473.288	0.01
473.488	0
473.688	0.08
473.887	0.03
474.087	-0.03
474.287	-0
474.487	-0.05
474.687	0.01
474.886	-0.02
475.086	0.01
475.286	0.03
475.486	0.04
475.685	0.01
475.885	-0.03
476.085	-0.02
476.284	0.03
476.484	-0.01
476.684	0.03
476.883	0.09
477.083	0.02
477.282	0
477.482	0.06
477.681	0.01
477.881	0.03
478.08	-0.03
478.28	-0.03
478.479	0.03
478.679	0.1
478.878	-0.02
479.078	-0.05
479.277	-0.01
479.477	-0.03
479.676	0.04
479.875	0.02
480.075	-0.04
480.274	0.05
480.473	0.03
480.673	-0.01
480.872	0.06
481.071	0
481.271	0.01
481.47	-0.01
481.669	-0
481.868	0
482.067	-0.05
482.267	-0.03
482.466	-0.02
482.665	-0.01
482.864	-0.06
483.063	-0.01
483.262	0.02
483.461	0.07
483.661	0.02
483.86	-0.01
484.059	0
484.258	0.01
484.457	-0.02
484.656	-0
484.855	0.05
485.054	-0.05
485.253	-0.04
485.452	-0.02
485.651	-0.01
485.849	-0.01
486.048	-0.02
486.247	-0.03
486.446	-0
486.645	-0.04
486.844	-0.02
487.043	0.01
487.241	0.04
487.44	-0.05
487.639	-0.01
487.838	0.02
488.037	-0.01
488.235	0.05
488.434	-0.02
488.633	-0.01
488.831	0.03
489.03	0.02
489.229	0.01
489.427	-0
489.626	0.03
489.825	0.05
490.023	-0.02
490.222	-0.01
490.42	0.01
490.619	0.03
490.817	-0
491.016	-0.01
491.214	0.02
491.413	0.01
491.611	0.01
491.81	0.02
492.008	0.03
492.207	0.04
492.405	-0.01
492.604	-0.02
492.802	-0
493	0.01
493.199	-0.04
493.397	0.01
493.595	0
493.794	-0.01
493.992	0.06
494.19	-0
494.388	-0
494.587	-0.01
494.785	0
494.983	-0.04
495.181	-0
495.379	-0
495.578	-0.02
495.776	0.02
495.974	0.01
496.172	-0.01
496.37	-0.01
496.568	-0.02
496.766	-0.04
496.964	0.05
497.162	0.01
497.36	-0.03
497.558	0.01
497.756	0.02
497.954	-0.01
498.152	-0.02
498.35	-0.02
498.548	-0.02
498.746	-0.01
498.944	-0.02
499.142	0
499.34	-0.01
499.538	0.01
499.736	-0.03
499.933	0.04
500.131	0.04
500.329	0
500.527	0.03
500.725	0.02
500.922	0.03
501.12	0
501.318	0.01
501.516	-0.05
501.713	-0
501.911	-0.01
502.109	-0.02
502.306	0.03
502.504	-0.01
502.701	0
502.899	-0.02
503.097	0.03
503.294	0.01
503.492	-0.02
503.689	0.02
503.887	0.02
504.084	0.05
504.282	-0.02
504.479	-0.03
504.677	0.03
504.874	-0.02
505.072	-0.02
505.269	-0
505.466	0.02
505.664	0.02
505.861	-0.04
506.059	-0.01
506.256	0.02
506.453	-0.02
506.651	0.03
506.848	0.02
507.045	-0.01
507.242	0.01
507.44	-0.02
507.637	0
507.834	0
508.031	0.02
508.229	-0.02
508.426	0
508.623	0.06
508.82	-0.01
509.017	-0.02
509.214	-0.01
509.411	-0
509.608	-0.03
509.805	-0
510.003	-0.03
510.2	-0.02
510.397	0.03
510.594	-0.01
510.791	-0.02
510.988	-0.01
511.184	0.04
511.381	-0.02
511.578	-0.02
511.775	0.02
511.972	-0.01
512.169	0.01
512.366	-0.02
512.563	0.02
512.76	-0.02
512.956	0.01
513.153	-0.03
513.35	0
513.547	-0.02
513.744	-0.03
513.94	-0.03
514.137	0.01
514.334	-0.02
514.53	0.01
514.727	0.01
514.924	0.04
515.12	-0.02
515.317	-0.03
515.514	-0
515.71	-0.03
515.907	-0.02
516.103	0.02
516.3	0
516.497	0.02
516.693	0.04
516.89	-0.02
517.086	-0.02
517.283	0.04
517.479	0.01
517.676	-0
517.872	-0.01
518.068	-0.01
518.265	-0.01
518.461	-0
518.658	-0.01
518.854	-0.01
519.05	-0.01
519.247	-0.01
519.443	-0
519.639	0
519.836	-0.01
520.032	-0.02
520.228	-0.01
520.424	0.03
520.621	0.02
520.817	-0
521.013	0.02
521.209	-0
521.405	0.05
521.601	-0
521.798	0
521.994	0.03
522.19	-0.03
522.386	-0.03
522.582	-0
522.778	-0
522.974	-0.03
523.17	0
523.366	0.02
523.562	0.02
523.758	-0.01
523.954	-0.03
524.15	-0.03
524.346	0
524.542	-0.02
524.738	-0.03
524.934	-0.02
525.129	-0.07
525.325	0
525.521	-0
525.717	0.01
525.913	0
526.109	-0
526.304	-0.01
526.5	-0.01
526.696	0.03
526.892	-0.01
527.087	0.01
527.283	-0.04
527.479	0.01
527.674	-0.03
527.87	-0.01
528.066	-0.02
528.261	0.01
528.457	0
528.653	-0.01
528.848	0.01
529.044	0.01
529.239	0
529.435	0.03
529.63	-0
529.826	0.04
530.021	-0
530.217	0.02
530.412	0
530.608	-0.01
530.803	-0.01
530.999	-0.02
531.194	-0.03
531.389	0.01
531.585	-0.03
531.78	-0.01
531.975	-0.03
532.171	0.02
532.366	-0
532.561	-0.01
532.757	-0.04
532.952	-0.02
533.147	0.01
533.342	-0
533.538	-0.02
533.733	0.02
533.928	0
534.123	0.01
534.318	-0.04
534.513	0.02
534.709	0.02
534.904	-0.01
535.099	-0.03
535.294	-0.01
535.489	0
535.684	0.01
535.879	-0.02
536.074	-0.02
536.269	-0.02
536.464	-0.01
536.659	-0
536.854	-0.02
537.049	0
537.244	-0.02
537.439	-0.04
537.634	0.02
537.828	0.01
538.023	-0
538.218	-0.04
538.413	-0.01
538.608	-0.03
538.803	0.01
538.997	-0.02
539.192	0.03
539.387	0
539.582	0.01
539.776	-0.01
539.971	-0.03
540.166	0.02
540.36	-0.04
540.555	-0
540.75	-0.03
540.944	-0.01
541.139	-0.05
541.334	-0.01
541.528	0.04
541.723	0.03
541.917	-0.01
542.112	-0.06
542.306	-0.01
542.501	-0.01
542.695	-0.02
542.89	-0
543.084	0
543.279	-0.03
543.473	-0.01
543.668	-0.01
543.862	-0
544.056	0.01
544.251	-0.01
544.445	-0
544.64	-0.01
544.834	-0.03
545.028	0.01
545.222	0.02
545.417	0.04
545.611	0.01
545.805	-0.01
546	-0.01
546.194	-0.01
546.388	-0.01
546.582	0.02
546.776	0
546.97	0.01
547.165	0.02
547.359	0.03
547.553	-0.03
547.747	-0
547.941	0
548.135	-0.01
548.329	-0
548.523	-0
548.717	-0.01
548.911	-0.02
549.105	-0.01
549.299	-0
549.493	0.02
549.687	0.01
549.881	0.01
550.075	-0.02
550.269	-0.02
550.463	0.02
550.657	-0.01
550.85	0
551.044	-0.03
551.238	-0
551.432	-0.03
551.626	-0.03
551.82	-0
552.013	-0.02
552.207	0.01
552.401	-0.01
552.594	0
552.788	0
552.982	0
553.176	-0.03
553.369	0
553.563	0
553.756	-0.02
553.95	-0.04
554.144	-0.03
554.337	0.01
554.531	0
554.724	-0
554.918	-0.01
555.111	0.03
555.305	-0.01
555.498	0.06
555.692	0.01
555.885	-0.02
556.079	-0.01
556.272	-0.01
556.466	0.02
556.659	-0.01
556.852	-0.01
557.046	-0.01
557.239	0.01
557.432	-0.02
557.626	-0.01
557.819	-0.01
558.012	0.02
558.206	0.02
558.399	-0
558.592	-0
558.785	-0.02
558.979	0.02
559.172	-0
559.365	0.03
559.558	0.01
559.751	-0.03
559.944	0.03
560.138	-0.04
560.331	-0.02
560.524	-0.03
560.717	-0.01
560.91	-0.02
561.103	-0
561.296	0.02
561.489	0
561.682	0.02
561.875	0.03
562.068	0.01
562.261	-0.01
562.454	0.03
562.647	0.01
562.84	0
563.032	-0
563.225	-0
563.418	-0
563.611	-0.01
563.804	0
563.997	-0.01
564.19	-0.05
564.382	-0
564.575	-0.01
564.768	-0.02
564.961	-0
565.153	-0.02
565.346	0.02
565.539	0.02
565.731	0.01
565.924	0.02
566.117	0.01
566.309	0.01
566.502	-0.01
566.695	0.02
566.887	0
567.08	-0.01
567.272	-0.01
567.465	-0.01
567.657	-0.01
567.85	-0
568.042	0
568.235	0.05
568.427	0
568.62	-0.01
568.812	-0
569.005	-0
569.197	-0.03
569.389	0.01
569.582	-0
569.774	-0.01
569.966	-0.02
570.159	-0.05
570.351	0.01
570.543	-0.03
570.736	-0
570.928	-0.02
571.12	-0
571.312	-0.02
571.505	-0.02
571.697	0.02
571.889	-0.03
572.081	-0.01
572.273	-0.03
572.465	0.03
572.658	-0.01
572.85	0.02
573.042	-0.02
573.234	-0.01
573.426	0.03
573.618	-0.03
573.81	0.01
574.002	0.01
574.194	0.02
574.386	-0.03
574.578	-0.05
574.77	-0.03
574.962	-0.01
575.154	-0.05
575.346	0
575.538	-0
575.729	-0.05
575.921	-0.03
576.113	-0.01
576.305	0.01
576.497	-0.01
576.689	-0.03
576.88	-0.03
577.072	0.02
577.264	-0.02
577.456	-0.02
577.647	-0.06
577.839	-0
578.031	0.03
578.223	-0.04
578.414	-0.02
578.606	0.04
578.798	0.02
578.989	-0.02
579.181	-0.01
579.372	-0.01
579.564	-0
579.755	-0.01
579.947	0.01
580.139	0.04
580.33	-0.05
580.522	-0.02
580.713	-0.07
580.905	0.01
581.096	0.02
581.287	-0.01
581.479	-0.03
581.67	0.01
581.862	-0
582.053	-0.03
582.244	-0.06
582.436	-0.03
582.627	-0
582.818	-0.03
583.01	-0.04
583.201	0.02
583.392	0
583.583	0
583.775	-0.01
583.966	-0.02
584.157	-0.03
584.348	-0.01
584.54	-0.05
584.731	-0.01
584.922	0.02
585.113	-0.03
585.304	0.02
585.495	0.01
585.686	-0.02
585.877	0.01
586.068	-0.03
586.259	0
586.45	-0
586.641	-0.04
586.832	-0.06
587.023	-0
587.214	-0.03
587.405	-0.02
587.596	-0
587.787	0.02
587.978	-0.01
588.169	-0.01
588.36	-0.03
588.551	0
588.742	-0.03
588.932	-0
589.123	-0.03
589.314	0.02
589.505	-0
589.696	-0
589.886	-0.05
590.077	-0.06
590.268	0
590.458	-0.02
590.649	-0.04
590.84	0.02
591.03	-0.03
591.221	-0.04
591.412	-0.05
591.602	0.01
591.793	0.04
591.984	-0.03
592.174	-0.01
592.365	0.04
592.555	-0.02
592.746	-0.01
592.936	0.01
593.127	-0.01
593.317	0.04
593.508	-0.03
593.698	-0.03
593.889	0.01
594.079	-0.02
594.269	-0
594.46	0.02
594.65	-0.01
594.84	-0.03
595.031	-0.04
595.221	-0.01
595.411	-0.03
595.602	-0.01
595.792	-0.03
595.982	-0.03
596.172	0.05
596.363	-0.02
596.553	-0.01
596.743	-0.01
596.933	-0.01
597.123	0.05
597.314	-0.05
597.504	-0.01
597.694	0.03
597.884	0.03
598.074	-0.03
598.264	-0.03
598.454	0.01
598.644	-0.01
598.834	-0.03
599.024	-0.08
599.214	-0.02
599.404	-0.01
599.594	-0.02
599.784	-0.03
599.974	0.04
600.164	0
600.354	-0.06
600.544	-0.06
600.734	-0.02
600.924	0.03
601.114	-0.04
601.303	0.01
601.493	0.01
601.683	-0.01
601.873	-0.01
602.063	-0.06
602.252	0.04
602.442	-0.06
602.632	-0.02
602.821	-0.05
603.011	0
603.201	-0.04
603.39	-0.03
603.58	-0.02
603.77	-0
603.959	0.02
604.149	-0.01
604.339	-0.02
604.528	0.02
604.718	0.03
604.907	-0.04
605.097	-0.03
605.286	-0.02
605.476	0.02
605.665	-0.01
605.855	-0.02
606.044	0.01
606.234	0.03
606.423	0
606.612	-0.03
606.802	0.02
606.991	-0.01
607.181	0.01
607.37	-0.04
607.559	0
607.749	-0.08
607.938	-0.03
608.127	-0.04
608.316	-0.03
608.506	0.01
608.695	-0.02
608.884	-0.05
609.073	-0
609.263	0.01
609.452	0.04
609.641	-0
609.83	-0.05
610.019	-0.03
610.208	-0.04
610.397	0
610.586	0.02
610.775	-0.03
610.965	-0.02
611.154	-0.02
611.343	-0.01
611.532	-0.02
611.721	-0.05
611.91	-0.03
612.099	0.01
612.287	0.01
612.476	-0.03
612.665	-0.02
612.854	-0.04
613.043	0.04
613.232	0.02
613.421	-0.06
613.61	-0
613.798	-0.06
613.987	0.03
614.176	-0.02
614.365	0.02
614.554	-0.03
614.742	0
614.931	-0.02
615.12	0.03
615.309	-0.02
615.497	-0.01
615.686	-0.03
615.875	-0.02
616.063	-0.01
616.252	-0.02
616.44	-0.01
616.629	0
616.818	0.01
617.006	-0.04
617.195	-0.04
617.383	-0
617.572	-0.02
617.76	-0.03
617.949	-0.02
618.137	-0.01
618.326	0.03
618.514	-0.04
618.703	-0.04
618.891	0.03
619.079	-0.06
619.268	0.01
619.456	-0.05
619.644	0.02
619.833	-0
620.021	-0.04
620.209	-0.04
620.398	0.01
620.586	0.01
620.774	0.03
620.962	-0.01
621.151	0.04
621.339	-0
621.527	-0.06
621.715	-0.05
621.903	-0.04
622.092	-0.03
622.28	0
622.468	0
622.656	-0
622.844	0.01
623.032	-0.02
623.22	-0.04
623.408	0.02
623.596	-0
623.784	0.01
623.972	-0.05
624.16	-0.01
624.348	0.06
624.536	-0.02
624.724	-0.03
624.912	-0.01
625.1	0.03
625.288	-0.05
625.476	-0.03
625.664	0.03
625.851	-0.06
626.039	-0.03
626.227	0.02
626.415	-0.03
626.603	-0.06
626.79	-0.01
626.978	-0.03
627.166	-0.02
627.354	0
627.541	-0.03
627.729	-0.05
627.917	0.01
628.104	0.01
628.292	-0.02
628.48	-0.02
628.667	-0.01
628.855	0.01
629.042	0.01
629.23	-0.03
629.418	-0.02
629.605	-0.01
629.793	-0.05
629.98	-0.02
630.168	-0.02
630.355	0.01
630.543	0
630.73	-0.03
630.917	0
631.105	0.06
631.292	-0.05
631.48	-0.01
631.667	0.06
631.854	0.01
632.042	-0.05
632.229	-0.04
632.416	-0.01
632.604	-0.02
632.791	-0.06
632.978	0
633.165	0.01
633.353	0.02
633.54	0.07
633.727	-0.08
633.914	-0.03
634.101	-0.08
634.289	0.03
634.476	-0.04
634.663	-0.05
634.85	0.01
635.037	-0.04
635.224	-0.09
635.411	0.01
635.598	-0.01
635.785	-0.03
635.972	-0.01
636.159	-0
636.346	-0.05
636.533	-0.04
636.72	-0.03
636.907	-0.02
637.094	-0
637.281	-0.03
637.468	0.04
637.655	0
637.842	-0.03
638.029	-0.02
638.215	0
638.402	-0
638.589	-0
638.776	-0.03
638.963	-0.04
639.149	0.02
639.336	0.03
639.523	-0.01
639.709	0.01
639.896	-0.02
640.083	0.02
640.27	0
640.456	-0.03
640.643	0.01
640.829	-0.07
641.016	0.03
641.203	-0.05
641.389	0.01
641.576	-0.01
641.762	-0.04
641.949	-0.05
642.135	0.04
642.322	0.01
642.508	-0.06
642.695	-0
642.881	-0.02
643.068	-0.01
643.254	-0
643.441	-0.01
643.627	-0.06
643.813	-0.03
644	0.03
644.186	-0.04
644.372	-0.04
644.559	0.04
644.745	-0.05
644.931	-0.04
645.118	0
645.304	-0.02
645.49	-0.03
645.676	-0.02
645.862	0
646.049	0.01
646.235	0.02
646.421	0.08
646.607	0.03
646.793	-0.05
646.979	-0.05
647.165	-0.03
647.352	0.01
647.538	-0.01
647.724	-0
647.91	-0.05
648.096	0.03
648.282	0.03
648.468	-0.05
648.654	0.02
648.84	-0.02
649.026	-0.01
649.212	-0.01
649.397	-0.05
649.583	-0.03
649.769	-0
649.955	-0.02
650.141	0.03
650.327	0.07
650.513	-0.06
650.698	0.01
650.884	-0.07
651.07	0.01
651.256	0.01
651.442	-0.02
651.627	-0.03
651.813	-0.02
651.999	-0
652.184	0.01
652.37	-0.01
652.556	-0.03
652.741	0.07
652.927	-0.07
653.113	-0.01
653.298	0.02
653.484	-0.04
653.669	-0.08
653.855	-0
654.04	0.02
654.226	-0.01
654.412	-0.02
654.597	-0.03
654.782	0.03
654.968	0.01
655.153	-0.01
655.339	-0.03
655.524	-0.06
655.71	0.02
655.895	-0.03
656.08	-0
656.266	0.05
656.451	-0.03
656.636	-0.05
656.822	-0.02
657.007	-0.04
657.192	-0.01
657.378	-0.07
657.563	-0.02
657.748	0.04
657.933	-0
658.118	-0.03
658.304	-0.03
658.489	0.01
658.674	0.02
658.859	-0.04
659.044	0.01
659.229	0.03
659.414	-0.03
659.599	-0
659.785	-0.05
659.97	0.01
660.155	0
660.34	-0.03
660.525	-0.01
660.71	0.01
660.895	-0.01
661.08	-0.04
661.264	-0.03
661.449	0.05
661.634	0.02
661.819	0.01
662.004	0.03
662.189	-0.07
662.374	-0.03
662.559	-0.05
662.743	-0.03
662.928	0
663.113	-0.07
663.298	-0.09
663.483	-0.07
663.667	0.01
663.852	-0.07
664.037	-0.01
664.221	-0.02
664.406	0.04
664.591	0.03
664.775	-0.05
664.96	-0.04
665.145	-0.03
665.329	0.02
665.514	-0.02
665.698	-0.02
665.883	-0.06
666.068	0.04
666.252	-0.01
666.437	-0.04
666.621	-0.02
666.806	-0.01
666.99	-0.01
667.174	-0.06
667.359	0.04
667.543	-0.01
667.728	-0.03
667.912	-0.07
668.096	0.03
668.281	-0.03
668.465	-0.01
668.649	-0.05
668.834	-0.05
669.018	0.03
669.202	-0.06
669.387	-0.03
669.571	-0.01
669.755	-0.04
669.939	-0.02
670.124	-0.03
670.308	0.05
670.492	0.01
670.676	0.03
670.86	0.01
671.044	-0.07
671.228	0.03
671.413	-0.05
671.597	-0.04
671.781	-0.04
671.965	0.03
672.149	-0.01
672.333	-0.01
672.517	-0.06
672.701	0.02
672.885	-0.02
673.069	-0.06
673.253	0.01
673.437	-0.01
673.621	-0.03
673.804	-0.03
673.988	-0.02
674.172	-0.01
674.356	-0.1
674.54	-0.01
674.724	0.07
674.908	-0.05
675.091	0.04
675.275	-0.04
675.459	0
675.643	0.04
675.826	0.01
676.01	-0.02
676.194	-0
676.377	0.03
676.561	0.01
676.745	-0.01
676.928	-0.01
677.112	0.04
677.296	-0.05
677.479	-0.03
677.663	0.01
677.846	0.02
678.03	-0
678.213	-0.05
678.397	-0.01
678.58	-0.02
678.764	-0.03
678.947	-0.05
679.131	-0.06
679.314	0.01
679.498	0.02
679.681	0.01
679.865	0.01
680.048	-0.01
680.231	-0.03
680.415	-0.04
680.598	-0.04
680.781	0.01
680.965	-0.02
681.148	-0
681.331	0
681.514	-0
681.698	-0.05
681.881	0.01
682.064	-0.03
682.247	0.01
682.43	-0.07
682.614	0.02
682.797	0.06
682.98	-0
683.163	-0.07
683.346	0.04
683.529	-0.08
683.712	-0.09
683.895	0
684.078	-0.08
684.261	-0.03
684.444	-0.01
684.627	-0.01
684.81	-0.04
684.993	-0.04
685.176	-0.01
685.359	-0.06
685.542	-0.03
685.725	0.02
685.908	-0.04
686.091	-0.03
686.274	0.03
686.457	0.01
686.639	-0.01
686.822	0.07
687.005	-0.02
687.188	0.01
687.371	0.07
687.553	-0.03
687.736	-0.01
687.919	0.02
688.102	0.04
688.284	-0.06
688.467	0.03
688.65	-0.01
688.832	-0.08
689.015	0.01
689.197	-0.03
689.38	0.09
689.563	0.04
689.745	-0.02
689.928	-0.06
690.11	-0.07
690.293	0.02
690.475	-0.09
690.658	0.06
690.84	-0.03
691.023	0.04
691.205	-0.04
691.388	-0
691.57	0.03
691.752	0.01
691.935	-0.08
692.117	-0.03
692.3	0.04
692.482	0.01
692.664	-0.03
692.847	0.02
693.029	0.03
693.211	-0
693.393	-0.02
693.576	-0.04
693.758	-0.03
693.94	-0.06
694.122	-0.05
694.304	-0
694.487	0
694.669	0.03
694.851	-0.04
695.033	0
695.215	-0.01
695.397	-0.04
695.579	0.02
695.761	-0.07
695.943	-0.06
696.125	0.04
696.308	-0.01
696.49	-0.1
696.671	0.08
696.853	-0.02
697.035	0.05
697.217	-0.01
697.399	0.02
697.581	-0.03
697.763	-0.02
697.945	-0.02
698.127	-0
698.309	0.1
698.491	-0.02
698.672	0.1
698.854	0.04
699.036	0.01
699.218	-0.06
699.399	0
699.581	0.05
699.763	-0.02
699.945	-0
700.126	-0.07
700.308	-0
700.49	0.05
700.671	-0.09
700.853	-0.06
701.035	-0.02
701.216	-0.01
701.398	-0.07
701.579	-0.04
701.761	0.07
701.943	-0.09
702.124	-0.1
702.306	-0.02
702.487	0.12
702.669	-0.02
702.85	-0.05
703.031	-0.08
703.213	0.07
703.394	0.04
703.576	-0.06
703.757	0.06
703.938	0.03
704.12	0.1
704.301	-0.01
704.483	-0.08
704.664	0.01
704.845	0.05
705.026	0.06
705.208	-0.01
705.389	-0.02
705.57	0
705.751	-0.05
705.933	-0.07
706.114	0.04
706.295	-0.01
706.476	-0.09
706.657	0.02
706.838	-0.02
707.02	0.02
707.201	-0.04
707.382	-0.06
707.563	0.02
707.744	-0.06
707.925	-0.03
708.106	0.01
708.287	0.02
708.468	0.12
708.649	-0.04
708.83	0.06
709.011	-0.03
709.192	0.07
709.373	-0.06
709.554	-0.06
709.734	0.05
709.915	0.05
710.096	-0.03
710.277	-0.13
710.458	0.01
710.639	-0.06
710.819	-0.15
711	-0.03
711.181	-0
711.362	0.03
711.542	-0.01
711.723	0.01
711.904	0.02
712.085	-0
712.265	-0
712.446	-0.11
712.627	-0.03
712.807	-0.03
712.988	-0.07
713.168	-0.09
713.349	0.03
713.53	-0.17
713.71	-0.13
713.891	-0.09
714.071	-0.01
714.252	-0.04
714.432	-0.04
714.613	-0.09
714.793	-0.01
714.974	0.14
715.154	0.07
715.334	0.08
715.515	0.12
715.695	-0.1
715.876	-0.06
716.056	-0.13
716.236	-0.03
716.417	-0.04
716.597	-0.06
716.777	0.1
716.957	-0.02
717.138	-0.03
717.318	-0.01
717.498	-0.06
717.678	-0.04
717.859	-0.02
718.039	-0.1
718.219	0.02
718.399	0.05
718.579	-0.06
718.759	-0.07
718.939	0.07
719.12	-0.02
719.3	0.01
719.48	-0.1
719.66	-0.14
719.84	0.12
720.02	0.01
720.2	-0.08
720.38	0.01
720.56	0.08
720.74	-0.06
720.92	0.01
721.1	0.05
721.279	0.06
721.459	-0.05
721.639	-0.15
721.819	-0.01
721.999	-0.04
722.179	0.07
722.359	-0.07
722.538	0.04
722.718	0.02
722.898	-0.03
723.078	-0.06
723.257	-0.05
723.437	0.02
723.617	-0.01
723.797	-0.08
723.976	-0.02
724.156	0.01
724.336	0.11
724.515	0.05
724.695	-0.21
724.874	-0.05
725.054	0
725.234	-0.08
725.413	0.01
725.593	-0.04
725.772	-0.12
725.952	-0.02
726.131	0.01
726.311	0.01
726.49	-0.02
726.67	-0.15
726.849	-0.05
727.028	0.02
727.208	0.05
727.387	-0.06
727.567	-0.1
727.746	0
727.925	-0.12
728.105	-0.12
728.284	-0.02
728.463	-0.09
728.643	0.03
728.822	-0.12
729.001	-0.04
729.18	0
729.359	-0.03
729.539	-0.01
729.718	-0.03
729.897	0.06
730.076	-0.06
730.255	-0.04
730.434	-0.01
730.614	0.01
730.793	0.06
730.972	0
731.151	-0.01
731.33	0.04
731.509	-0.03
731.688	-0.03
731.867	-0.07
732.046	-0.19
732.225	0.18
732.404	-0.07
732.583	-0.12
732.762	-0.03
732.941	0.08
733.12	0.03
733.298	-0.04
733.477	0.12
733.656	-0.01
733.835	-0.1
734.014	0.06
734.193	-0.02
734.371	0.08
734.55	-0.01
734.729	-0.13
734.908	0.04
735.086	-0.01
735.265	0.07
735.444	-0.2
735.623	-0.07
735.801	-0
735.98	-0.02
736.159	-0.12
736.337	-0
736.516	-0.05
736.694	0.05
736.873	-0.2
737.052	0.07
737.23	0.04
737.409	-0.06
737.587	0.07
737.766	-0.19
737.944	-0.04
738.123	0.01
738.301	0.05
738.479	-0.01
738.658	0.02
738.836	-0.25
739.015	0.01
739.193	0.1
739.371	-0.19
739.55	0.02
739.728	-0.12
739.906	0.02
740.085	0.08
740.263	0.02
740.441	-0.18
740.62	0.04
740.798	0.03
740.976	-0.05
741.154	-0.05
741.332	0.17
741.511	-0.17
741.689	-0.04
741.867	-0.08
742.045	0
742.223	-0.06
742.401	-0.14
742.579	-0.16
742.757	-0.03
742.935	-0.18
743.114	-0.03
743.292	-0.06
743.47	0.15
743.648	0
743.826	-0.2
744.004	0.1
744.181	0.04
744.359	-0.08
744.537	-0.01
744.715	-0.07
744.893	-0.03
745.071	-0
745.249	0.05
745.427	-0.08
745.605	0.06
745.782	-0.02
745.96	0.05
746.138	0
746.316	0.07
746.493	-0.07
746.671	-0.05
746.849	0.03
747.027	0.09
747.204	-0.11
747.382	0.11
747.56	-0.1
747.737	-0.04
747.915	-0.16
748.093	0.02
748.27	-0.04
748.448	0.03
748.625	-0.08
748.803	-0.09
748.98	-0.11
749.158	0.07
749.335	0.13
749.513	-0.06
749.69	-0.03
749.868	0.08
750.045	-0.05
750.223	-0.11
750.4	-0.25
750.578	0.11
750.755	-0.09
750.932	-0.19
751.11	0.07
751.287	-0.22
751.464	0.04
751.642	-0.09
751.819	0.04
751.996	0
752.173	-0.04
752.351	-0.11
752.528	0.09
752.705	-0.13
752.882	-0.1
753.06	-0.06
753.237	0.04
753.414	0.13
753.591	0.12
753.768	0.06
753.945	-0.12
754.122	0.06
754.299	-0.03
754.476	-0.07
754.654	-0.05
754.831	0.02
755.008	0.05
755.185	-0.09
755.362	-0.2
755.539	0.1
755.716	-0.09
755.892	-0
756.069	-0.11
756.246	-0.07
756.423	-0.06
756.6	0.17
756.777	-0.02
756.954	0.12
757.131	-0.07
757.307	-0.14
757.484	-0.17
757.661	0.01
757.838	0
758.015	-0.17
758.191	0.18
758.368	-0.02
758.545	0.16
758.721	-0.02
758.898	-0.08
759.075	0.1
759.251	0.14
759.428	0.07
759.605	-0.17
759.781	-0.08
759.958	0.1
760.134	-0.03
760.311	-0.13
760.488	0.28
760.664	0.17
760.841	0.01
761.017	-0.15
761.194	-0.06
761.37	0.02
761.547	-0.09
761.723	-0.06
761.899	0.08
762.076	-0.13
762.252	-0.18
762.429	0.07
762.605	0.01
762.781	-0.06
762.958	0.09
763.134	-0.16
763.31	-0.1
763.486	0.01
763.663	-0.18
763.839	0.03
764.015	-0.29
764.191	-0.11
764.368	-0.13
764.544	-0.11
764.72	0.06
764.896	0.19
765.072	0.02
765.248	-0.09
765.425	-0.08
765.601	-0.05
765.777	-0.09
765.953	-0.28
766.129	0.01
766.305	-0.04
766.481	0.01
766.657	-0.01
766.833	0.08
767.009	-0.06
767.185	-0.13
767.361	-0.07
767.537	-0.2
767.713	0.05
767.889	-0.08
768.065	-0
768.24	0.03
768.416	-0.02
768.592	-0.02
768.768	-0.04
768.944	-0.04
769.12	-0.14
769.295	-0.07
769.471	-0.05
769.647	-0.05
769.823	0.15
769.998	-0.1
770.174	-0.06
770.35	0.26
770.525	0.24
770.701	0.04
770.877	-0.14
771.052	-0.04
771.228	0.11
771.403	0.04
771.579	0.06
771.755	0.37
771.93	-0.13
772.106	-0.07
772.281	-0.19
772.457	0.09
772.632	-0.01
772.808	-0.19
772.983	0.04
773.159	-0.21
773.334	0.21
773.509	-0.09
773.685	-0.1
773.86	0.23
774.036	0.13
774.211	0.03
774.386	-0.02
774.562	0
774.737	0.05
774.912	-0.12
775.087	0.11
775.263	-0.03
775.438	0.07
775.613	0.01
775.788	-0.08
775.964	0.15
776.139	0.35
776.314	-0.21
776.489	0.1
776.664	0.13
776.839	-0.12
777.014	0.02
777.19	0.04
777.365	0.08
777.54	0.35
777.715	-0.07
777.89	-0.15
778.065	-0.2
778.24	-0.11
778.415	0.13
778.59	-0.15
778.765	-0.03
778.94	0.07
779.115	-0.06
779.289	-0.12
779.464	-0.01
779.639	0.11
779.814	-0.24
779.989	0.04
780.164	0.17
780.339	-0.06
780.513	-0.13
780.688	-0.22
780.863	0.09
781.038	-0.01
781.212	-0.09
781.387	-0.02
781.562	0.14
781.737	-0.01
781.911	0.07
782.086	-0.16
782.261	-0.11
782.435	0.25
782.61	-0.05
782.784	-0.01
782.959	0.26
783.134	-0.16
783.308	-0.17
783.483	-0.09
783.657	0.44
783.832	0.07
784.006	-0.4
784.181	0.1
784.355	0.24
784.53	0
784.704	-0.25
784.878	0.4
785.053	0.11
785.227	0.17
785.402	0.42
785.576	-0.25
785.75	-0.05
785.925	-0.05
786.099	-0.09
786.273	0.09
786.448	0.11
786.622	-0.08
786.796	-0.16
786.97	0.05
787.145	0.36
787.319	-0.15
787.493	-0.1
787.667	-0.3
787.841	-0.07
788.015	0.08
788.19	-0.26
788.364	-0.02
788.538	0.01
788.712	0.12
788.886	-0.03
789.06	-0.02
789.234	0.07
789.408	-0.25
789.582	-0.17
789.756	0.1
789.93	-0.3
790.104	-0.12
790.278	-0.01
790.452	-0.11
790.626	0.08
790.8	-0.2
790.973	0.19
791.147	0.21
791.321	0.28
791.495	0.08
791.669	-0.06
791.843	0.19
792.016	0.08
792.19	0.35
792.364	-0.2
792.538	0.45
792.711	0.04
792.885	-0.11
793.059	-0.17
793.233	-0.59
793.406	0.19
793.58	0.07
793.754	0.1
793.927	0.09
794.101	0.42
794.274	-0.13
794.448	0.07
794.622	-0.41
794.795	0.44
794.969	-0.27
795.142	0.33
795.316	-0.13
795.489	-0.24
795.663	0.16
795.836	0.06
796.009	-0.13
796.183	0.09
796.356	-0.03
796.53	-0.12
796.703	0.02
796.876	0.51
797.05	-0.19
797.223	-0.02
797.396	-0.14
797.57	-0.03
797.743	0.15
797.916	0.05
798.09	-0.1
798.263	0.26
798.436	0.25
798.609	-0.06
798.782	-0.17
798.956	-0.14
799.129	-0.11
799.302	-0.12
799.475	-0.31
799.648	-0.26
799.821	-0.31
799.994	-0.13
800.167	-0.58
800.34	0.14
800.514	0.07
800.687	-0.03
800.86	-0.34
801.033	0.16
801.206	0.1
801.379	-0.39
801.551	0.08
801.724	0.22
801.897	0.25
802.07	0.08
802.243	-0.47
802.416	0.08
802.589	-0.04
802.762	-0.18
802.935	-0.02
803.107	0.03
803.28	0.29
803.453	-0.07
803.626	-0.26
803.798	-0.38
803.971	-0.24
804.144	-0.16
804.317	0.2
804.489	0.07
804.662	-0.18
804.835	0.17
805.007	-0.12
805.18	0.28
805.353	-0.18
805.525	-0.27
805.698	-0.26
805.87	0.24
806.043	0.36
806.215	-0.28
806.388	-0.15
806.56	-0.05
806.733	0.19
806.905	0.06
807.078	-0.36
807.25	-0.12
807.423	0.3
807.595	-0.03
807.768	-0.04
807.94	0.22
808.112	-0.06
808.285	-0.15
808.457	0.14
808.629	0.04
808.802	-0.02
808.974	-0.09
809.146	-0.11
809.318	-0.14
809.491	-0.45
809.663	0.35
809.835	-0.27
810.007	0.21
810.18	-0.12
810.352	-0.15
810.524	-0.05
810.696	0.2
810.868	0.31
811.04	-0.36
811.212	-0.33
811.384	0.11
811.556	0.29
811.728	-0.23
811.901	0.42
812.073	-0.1
812.245	0.2
812.417	-0.28
812.589	-0.47
812.76	-0.05
812.932	0.3
813.104	0.27
813.276	-0.15
813.448	0.29
813.62	0.09
813.792	0.16
813.964	0.18
814.136	-0.09
814.307	-0.25
814.479	-0.42
814.651	-0.38
814.823	0.84
814.995	-0.19
815.166	0.19
815.338	-0.47
815.51	-0.57
815.681	0.45
815.853	0.05
816.025	-0.3
816.196	0.42
816.368	0.19
816.54	-0.81
816.711	-0.29
816.883	0.18
817.054	0.61
817.226	-0.58
817.398	-0.02
817.569	-0.16
817.741	0.04
817.912	-0.15
818.084	-0.34
818.255	0.44
818.426	0.07
818.598	-0.17
818.769	-0.42
818.941	0.3
819.112	0.57
819.283	0.21
819.455	-0.16
819.626	-0.1
819.798	0.17
819.969	0.27
820.14	-0.3
820.311	0.23
820.483	-0.23
820.654	-0.14
820.825	0.24
820.996	-0.21
821.168	-0.47
821.339	-0.16
821.51	-0.39
821.681	-0.36
821.852	-0.5
822.023	-0.5
822.195	-1.33
822.366	0.16
822.537	-0.06
822.708	-0.16
822.879	-0.22
823.05	0.45
823.221	0.06
823.392	0.49
823.563	-0.31
823.734	0.17
823.905	-0.25
824.076	-0.3
824.247	-0.6
824.418	-0.23
824.589	0.33
824.759	-0.03
824.93	0.22
825.101	-0.96
825.272	0.28
825.443	0.27
825.614	1.04
825.784	-0.96
825.955	0.63
826.126	0.7
826.297	0.44
826.467	0.04
826.638	0.57
826.809	-0.51
826.98	0
827.15	0.01
827.321	-0.26
827.492	0.67
827.662	-0.19
827.833	0.83
828.003	0.27
828.174	-0.58
828.345	-0.35
828.515	0.4
828.686	0.25
828.856	-0.33
829.027	-0.07
829.197	0.05
829.368	0.2
829.538	-0
829.709	0.01
829.879	-0.47
830.049	-0.09
830.22	-0.56
830.39	0.26
830.56	0.33
830.731	-0.3
830.901	-0.38
831.072	-0.04
831.242	0.16
831.412	0.29
831.582	-0.1
831.753	-0.6
831.923	0.65
832.093	-0.08
832.263	-0.37
832.434	-0.91
832.604	-0.17
832.774	0.52
832.944	-0.47
833.114	0.37
833.284	0.19
833.454	-0.61
833.624	-0.42
833.795	0.33
833.965	0.3
834.135	-0.22
834.305	-0.9
834.475	-0.9
834.645	-0.26
834.815	-0.45
834.985	-0.81
835.155	-0.29
835.325	0.16
835.494	0.02
835.664	-0.38
835.834	-0.67
836.004	0.4
836.174	0.28
836.344	-0.08
836.514	-0.89
836.684	-0.25
836.853	-0.12
837.023	0.08
837.193	-0.19
837.363	0.76
837.532	0.92
837.702	-0.55
837.872	-0.79
838.041	0.52
838.211	0.69
838.381	-0.82
838.55	-0.24
838.72	1.13
838.89	0.69
839.059	-0.2
839.229	-0.88
839.398	1.43
839.568	0.52
839.738	-0.52
839.907	0.33
840.077	-0.21
840.246	-0.22
840.416	-0.45
840.585	-0.92
840.755	1.08
840.924	0.91
841.093	-0.78
841.263	-0.74
841.432	0.29
841.602	-0.36
841.771	-1.1
841.94	-0.15
842.11	2.48
842.279	2.02
842.448	-1.29
842.617	-0.76
842.787	0.44
842.956	-1.08
843.125	0.44
843.294	0.46
843.464	0.97
843.633	-0.23
843.802	-1.29
843.971	-0.54
844.14	1.01
844.309	0.39
844.479	-0.62
844.648	-0.43
844.817	-0.84
844.986	0.17
845.155	-0.25
845.324	-0.28
845.493	-0.64
845.662	-0.54
845.831	0.42
846	0.29
846.169	-0.08
846.338	0.6
846.507	0.44
846.676	0.59
846.844	-0.81
847.013	0.17
847.182	-0.4
847.351	-0.69
847.52	0.24
847.689	0.16
847.858	-0.63
848.026	-0.79
848.195	-0.79
848.364	-0.29
848.533	-0.18
848.701	-0.39
848.87	-0.08
849.039	0.74
849.207	1.07
849.376	1.16
849.545	1.16
849.713	0.09
849.882	-0.12
850.051	-0.52
850.219	0.02
850.388	0.7
850.556	-0.85
850.725	-1.23
850.893	-0.22
851.062	-0.98
851.23	1.26
851.399	-0.52
851.567	0.92
851.736	-0.62
851.904	0.35
852.073	0.48
852.241	1.36
852.41	-0.52
852.578	-0.2
852.746	-0.11
852.915	0.87
853.083	1.1
853.251	-1.1
853.42	-1.2
853.588	0.72
853.756	1.36
853.924	0.49
854.093	-0.27
854.261	-1.05
854.429	-0.66
854.597	-0.42
854.765	-1.42
854.934	1.07
855.102	1.54
855.27	-0.75
855.438	0.54
855.606	0.36
855.774	0.46
855.942	-1.21
856.11	-2.03
856.278	0.29
856.446	0.81
856.614	-0.32
856.782	-0.79
856.95	0.47
857.118	-0.13
857.286	0.3
857.454	-1.04
857.622	1.34
857.79	1.17
857.958	-0.82
858.126	-0.27
858.294	-2.21
858.462	0.21
858.629	-0.69
858.797	-1.53
858.965	1.22
859.133	-0.2
859.301	-0.45
859.468	-0.28
859.636	0.17
859.804	1.46
859.971	0.04
860.139	-0.87
860.307	0.01
860.474	0.06
860.642	-1.59
860.81	0.19
860.977	-0.55
861.145	0.55
861.313	-0.17
861.48	0.02
861.648	0.83
861.815	0.49
861.983	-1.32
862.15	0.15
862.318	1.14
862.485	2.24
862.653	-1.64
862.82	-1.79
862.988	2.76
863.155	-1.84
863.322	-0.45
863.49	-1.74
863.657	-0.47
863.824	1.25
863.992	0.75
864.159	-0.06
864.326	2.33
864.494	-2.08
864.661	1.74
864.828	-0.8
864.996	1.11
865.163	0.74
865.33	-1.84
865.497	-1.19
865.664	-0.91
865.832	-1.6
865.999	-0.93
866.166	-1.6
866.333	-0.84
866.5	0.37
866.667	-0.25
866.834	-1.16
867.001	0.78
867.168	-2.1
867.335	0.23
867.502	-2.63
867.669	-1.04
867.836	1.58
868.003	-0.73
868.17	0.11
868.337	-0.56
868.504	2.96
868.671	-0.9
868.838	-0.95
869.005	-0.21
869.172	-0.13
869.339	-0.59
869.505	0.12
869.672	-0.5
869.839	2.16
870.006	-0.46
870.173	-1.98
870.339	-0.43
870.506	1.54
870.673	-1.13
870.84	1.95
871.006	0.5
871.173	-0.85
871.34	1.56
871.506	-0.87
871.673	1.18
871.839	-1.04
872.006	0.76
872.173	-0.35
872.339	0.49
872.506	2.34
872.672	-0.76
872.839	-3.54
873.005	1.49
873.172	2.23
873.338	2.13
873.505	0.86
873.671	0.13
873.838	0.42
874.004	-2.01
874.171	-0.93
874.337	-0.23
874.503	1.13
874.67	-0.58
874.836	0.18
875.002	1.12
875.169	0.84
875.335	0.39
875.501	-1.41
875.668	0.49
875.834	-0.27
876	-0.51
876.166	0.17
876.332	-0.17
876.499	1.6
876.665	-0.1
876.831	-0.45
876.997	3.09
877.163	0.05
877.329	0.19
877.495	-1.43
877.662	1.07
877.828	0.93
877.994	-1.06
878.16	-3.39
878.326	-1.78
878.492	-0.03
878.658	-2.12
878.824	-0.55
878.99	0.42
879.156	-2.02
879.322	1.56
879.487	-0.51
879.653	1.39
879.819	-0.21
879.985	-0.55
880.151	-0.12
880.317	-0.27
880.483	-0.08
880.648	1.58
880.814	-2.38
880.98	-0.83
881.146	-2.52
881.312	-0.18
881.477	-2.05
881.643	0.18
881.809	1.74
881.974	1.95
882.14	-3.18
882.306	1.23
882.471	3.27
882.637	-1.79
882.803	0.76
882.968	2.39
883.134	3.75
883.299	-1.47
883.465	0.07
883.63	1.62
883.796	2.38
883.961	0.86
884.127	0.85
884.292	-2.09
884.458	-0.64
884.623	-0.63
