Data from Apollo_Calib_20240827__AbsoluteIrradiance__180__02-09-03-054.txt Node

Date: Wed Aug 28 02:09:03 BST 2024
User: biology
Spectrometer: FLMT08252
Trigger mode: 0
Integration Time (sec): 5.000000E-1
Scans to average: 5
Electric dark correction enabled: true
Nonlinearity correction enabled: false
Boxcar width: 0
XAxis mode: Wavelengths
Number of Pixels in Spectrum: 3648
>>>>>Begin Spectral Data<<<<<
179.588	-0
179.809	-0
180.03	-0
180.251	-0
180.473	-0
180.694	0
180.915	0
181.136	-0
181.357	0
181.578	-0
181.799	-0
182.02	-0
182.241	0
182.462	-0
182.683	0
182.904	-0
183.125	-0
183.346	0
183.567	-0
183.788	-0
184.009	-0
184.23	0
184.451	0
184.672	-0
184.892	-0
185.113	0
185.334	0
185.555	-0
185.776	-0
185.996	0
186.217	0
186.438	0
186.659	-0
186.879	0
187.1	0
187.321	-0
187.541	-0
187.762	0
187.983	0
188.203	-0
188.424	-0
188.644	-0
188.865	0
189.086	-0
189.306	-0
189.527	0
189.747	0
189.968	-0
190.188	0
190.409	0
190.629	0
190.849	-0
191.07	-0
191.29	0
191.511	0
191.731	-0
191.951	-0
192.172	-0
192.392	0
192.612	0
192.833	-0
193.053	0
193.273	0
193.493	-0
193.714	-0
193.934	0
194.154	0
194.374	0
194.594	0
194.815	0
195.035	0
195.255	-0
195.475	-0
195.695	0
195.915	0
196.135	-0
196.355	0
196.575	0
196.795	0
197.015	-0
197.235	-0
197.455	-0
197.675	0
197.895	-0
198.115	-0
198.335	0
198.555	-0
198.775	0
198.995	0
199.214	0
199.434	0
199.654	-0
199.874	-0
200.094	1.18
200.313	-0.15
200.533	-0.47
200.753	-0.74
200.973	1.08
201.192	0.55
201.412	-0.62
201.632	-0.44
201.851	1.03
202.071	-0.52
202.291	-0.39
202.51	-0.26
202.73	0.28
202.95	-0.25
203.169	-0.53
203.389	-0.23
203.608	0.27
203.828	-0.41
204.047	-0.07
204.267	0.62
204.486	0.06
204.706	0.25
204.925	-0.26
205.145	0.06
205.364	0.74
205.583	0.37
205.803	-0.21
206.022	0.13
206.242	0.29
206.461	0.28
206.68	-0.3
206.9	0.06
207.119	0.47
207.338	0.59
207.557	-0.29
207.777	0.03
207.996	-0.16
208.215	0.39
208.434	-0.18
208.654	-0.26
208.873	0.15
209.092	0.83
209.311	-0.05
209.53	-0.18
209.749	-0.1
209.968	-0.08
210.187	-0.07
210.407	-0.2
210.626	-0.05
210.845	0.41
211.064	0.22
211.283	-0.38
211.502	0.19
211.721	-0.12
211.94	0.06
212.159	0.15
212.377	0.37
212.596	0.3
212.815	0.14
213.034	0.06
213.253	0.25
213.472	0.22
213.691	-0.06
213.91	-0.19
214.128	-0.31
214.347	0.48
214.566	-0.18
214.785	-0.38
215.003	0.13
215.222	0.04
215.441	0.23
215.66	-0.16
215.878	-0.07
216.097	0.37
216.316	-0.18
216.534	-0.11
216.753	0.05
216.972	-0.01
217.19	0.07
217.409	-0.09
217.627	-0.13
217.846	0.12
218.064	0.04
218.283	-0.12
218.501	0.5
218.72	0.37
218.938	-0.13
219.157	-0.14
219.375	0.18
219.594	0.09
219.812	-0.34
220.031	-0.26
220.249	0.28
220.467	0.33
220.686	-0.16
220.904	-0.04
221.122	-0.13
221.341	0.33
221.559	0.05
221.777	-0.25
221.995	0.21
222.214	0.1
222.432	-0.08
222.65	0.1
222.868	0.09
223.086	0.16
223.305	0.16
223.523	0.07
223.741	0.25
223.959	-0.05
224.177	-0.3
224.395	0
224.613	0.09
224.831	0.13
225.049	-0.12
225.267	-0.12
225.485	0.09
225.703	-0.12
225.921	-0.03
226.139	-0.16
226.357	0.2
226.575	0.06
226.793	-0.04
227.011	0.55
227.229	0.08
227.447	0.21
227.665	-0.16
227.883	-0.19
228.1	0.02
228.318	0.07
228.536	-0.22
228.754	-0.13
228.972	0.08
229.189	0.16
229.407	-0.05
229.625	-0.06
229.843	0.15
230.06	0.16
230.278	-0.08
230.496	0.03
230.713	0.07
230.931	0.18
231.149	-0
231.366	-0.19
231.584	-0.08
231.801	0.39
232.019	0.02
232.236	-0.12
232.454	-0.17
232.671	0.17
232.889	-0.09
233.106	-0.17
233.324	0.07
233.541	0.03
233.759	-0.03
233.976	-0.07
234.194	-0.07
234.411	-0.02
234.628	-0.15
234.846	-0.12
235.063	-0.02
235.28	-0.01
235.498	0.02
235.715	-0.14
235.932	0.17
236.149	-0.05
236.367	-0.08
236.584	-0.06
236.801	-0.08
237.018	0.09
237.236	-0.03
237.453	-0.15
237.67	0.08
237.887	0.01
238.104	-0.1
238.321	-0.03
238.538	-0.11
238.755	0.16
238.973	-0.16
239.19	0.11
239.407	0.04
239.624	0.07
239.841	-0.11
240.058	-0.09
240.275	0.01
240.492	-0.08
240.709	-0.03
240.925	-0.04
241.142	0.04
241.359	-0.15
241.576	-0
241.793	-0.08
242.01	-0.02
242.227	0.11
242.444	0.09
242.66	0.11
242.877	0.1
243.094	-0.08
243.311	0.03
243.527	-0.01
243.744	0.06
243.961	0.12
244.178	-0.06
244.394	-0.03
244.611	0.07
244.828	0.12
245.044	-0.07
245.261	-0.02
245.477	-0
245.694	0.11
245.911	-0.05
246.127	0.04
246.344	0.17
246.56	0.13
246.777	0.02
246.993	-0.06
247.21	0.03
247.426	0.01
247.643	-0.07
247.859	-0.06
248.076	-0.09
248.292	0.17
248.508	-0.07
248.725	0.06
248.941	0.1
249.157	0.12
249.374	0.02
249.59	-0.05
249.806	0.02
250.023	0.12
250.239	-0.15
250.455	-0.12
250.671	0.06
250.888	-0.02
251.104	-0.02
251.32	-0.04
251.536	0.01
251.752	-0.03
251.969	0.01
252.185	0.07
252.401	0.17
252.617	0.01
252.833	0.01
253.049	0.02
253.265	0.01
253.481	0
253.697	-0.03
253.913	-0.05
254.129	0.07
254.345	0.04
254.561	-0.06
254.777	0
254.993	0.07
255.209	0.02
255.425	-0.02
255.641	-0
255.857	0.09
256.073	0.07
256.288	-0.11
256.504	-0.01
256.72	0.08
256.936	0.08
257.152	-0.03
257.367	-0.07
257.583	0.04
257.799	0.05
258.015	-0.04
258.23	-0.02
258.446	0.16
258.662	0.04
258.877	-0.07
259.093	-0.09
259.309	0.07
259.524	0.08
259.74	-0.05
259.955	-0.15
260.171	0.01
260.387	0.03
260.602	0.05
260.818	0.06
261.033	-0.08
261.249	-0.05
261.464	-0.03
261.68	-0.07
261.895	0.02
262.11	0.14
262.326	-0.05
262.541	-0.11
262.757	0.11
262.972	0
263.187	-0.02
263.403	0.04
263.618	0.05
263.833	0.04
264.049	-0.07
264.264	0.01
264.479	0.05
264.694	0.14
264.91	-0.06
265.125	-0.01
265.34	0.06
265.555	0.14
265.77	0.03
265.986	0.05
266.201	0.09
266.416	0.16
266.631	-0.03
266.846	0.05
267.061	0.05
267.276	0.07
267.491	-0.13
267.706	0.04
267.921	0.01
268.136	0.02
268.351	0.03
268.566	-0.03
268.781	0.1
268.996	0.05
269.211	0.02
269.426	-0.06
269.641	-0.01
269.856	0.07
270.071	-0.04
270.285	-0.06
270.5	0.04
270.715	0.06
270.93	-0.03
271.145	0.04
271.359	0.1
271.574	-0.02
271.789	-0.03
272.004	-0.06
272.218	0.03
272.433	0.03
272.648	-0.02
272.862	0.08
273.077	0.03
273.292	0.05
273.506	-0.04
273.721	0
273.936	0.05
274.15	0.08
274.365	-0.01
274.579	0.03
274.794	0.05
275.008	0.04
275.223	-0.05
275.437	-0.01
275.652	0.09
275.866	0.1
276.081	-0.03
276.295	0.09
276.509	0.03
276.724	-0.06
276.938	0.04
277.153	0.03
277.367	0.05
277.581	-0.03
277.796	-0.02
278.01	-0.05
278.224	0.07
278.438	0.21
278.653	-0.03
278.867	-0.02
279.081	-0.17
279.295	-0
279.51	0.05
279.724	-0.07
279.938	0.04
280.152	0.07
280.366	-0.06
280.58	0.03
280.794	0.11
281.008	0.06
281.222	0.08
281.437	0.09
281.651	0.02
281.865	0.03
282.079	-0
282.293	-0.1
282.507	-0.05
282.721	0.02
282.935	0.06
283.148	-0.08
283.362	-0.03
283.576	-0.1
283.79	0
284.004	-0.05
284.218	0.07
284.432	0.02
284.646	0.02
284.859	-0.02
285.073	-0.01
285.287	0.02
285.501	0.01
285.714	-0
285.928	0.03
286.142	0.03
286.356	-0.02
286.569	-0.02
286.783	0.15
286.997	0.06
287.21	0.02
287.424	0.02
287.637	0
287.851	-0
288.065	0.04
288.278	0.02
288.492	-0.03
288.705	-0
288.919	0.04
289.132	-0.04
289.346	0.05
289.559	-0.08
289.773	-0.06
289.986	0
290.2	0.01
290.413	0.07
290.626	-0.02
290.84	0.02
291.053	0.01
291.267	0.1
291.48	0.03
291.693	0.02
291.906	-0.01
292.12	0
292.333	-0.05
292.546	0.02
292.76	0.11
292.973	0.02
293.186	0.06
293.399	-0
293.612	0.06
293.826	-0
294.039	0
294.252	0.06
294.465	0.07
294.678	0.01
294.891	0.01
295.104	-0.01
295.317	0.02
295.53	0.06
295.743	0
295.956	0.04
296.169	0.1
296.382	0.05
296.595	-0
296.808	0.03
297.021	0.09
297.234	0.05
297.447	-0.02
297.66	0.07
297.873	0.12
298.086	0.07
298.299	0
298.511	-0.04
298.724	0.06
298.937	-0.04
299.15	-0.02
299.363	0.02
299.575	0.09
299.788	0.03
300.001	-0
300.213	-0.01
300.426	0.01
300.639	-0.02
300.852	-0.04
301.064	0.05
301.277	0.1
301.489	0.1
301.702	0.02
301.915	-0
302.127	0.04
302.34	0.04
302.552	0.04
302.765	-0.03
302.977	0.07
303.19	-0.02
303.402	0
303.615	0.03
303.827	-0.01
304.04	-0.02
304.252	0.09
304.464	0.01
304.677	0.15
304.889	0.01
305.102	-0.02
305.314	-0.08
305.526	0.04
305.739	0.03
305.951	-0.02
306.163	0.03
306.375	0.1
306.588	-0.05
306.8	0.01
307.012	-0.05
307.224	0.02
307.436	0.09
307.649	-0.06
307.861	0.03
308.073	0.1
308.285	-0.04
308.497	-0
308.709	0.01
308.921	0.04
309.133	0.04
309.346	0.02
309.558	0.03
309.77	0.04
309.982	0.1
310.194	0.06
310.406	0
310.617	0.07
310.829	0.05
311.041	0.05
311.253	0.02
311.465	0.02
311.677	0
311.889	0.03
312.101	-0.02
312.313	0.12
312.524	0.07
312.736	-0.01
312.948	-0
313.16	0.09
313.372	0.09
313.583	0.02
313.795	-0.01
314.007	-0.01
314.218	0.1
314.43	0.04
314.642	-0
314.853	-0.02
315.065	0.02
315.277	0.02
315.488	0.04
315.7	0.11
315.912	0.05
316.123	-0.01
316.335	0.02
316.546	0.13
316.758	-0
316.969	-0.03
317.181	0.02
317.392	0.04
317.604	0.04
317.815	-0.02
318.026	-0.07
318.238	0.01
318.449	0.04
318.661	-0.05
318.872	-0.07
319.083	-0.03
319.295	0.02
319.506	0.01
319.717	0.03
319.929	0.04
320.14	0.02
320.351	0.01
320.562	-0.04
320.774	0.04
320.985	0.04
321.196	-0.04
321.407	-0.05
321.618	0.06
321.829	0.07
322.041	0.01
322.252	0.03
322.463	0.06
322.674	0.05
322.885	-0.02
323.096	0.01
323.307	0.01
323.518	0.02
323.729	-0.02
323.94	0.01
324.151	0.01
324.362	0.06
324.573	0.05
324.784	0.01
324.995	0.05
325.206	0.07
325.417	0.01
325.628	0.01
325.838	0.04
326.049	0.02
326.26	0.05
326.471	-0.01
326.682	0.03
326.892	0.02
327.103	0
327.314	-0.04
327.525	0.09
327.735	0.04
327.946	-0.02
328.157	-0
328.368	0.01
328.578	0.05
328.789	0.06
328.999	-0.02
329.21	0
329.421	0.03
329.631	-0.04
329.842	-0.03
330.052	0.02
330.263	0.06
330.473	0.05
330.684	0.01
330.894	0.04
331.105	0.02
331.315	-0
331.526	-0.04
331.736	0.1
331.947	0.04
332.157	0.07
332.367	0
332.578	0.05
332.788	0.1
332.999	0.05
333.209	0.03
333.419	-0.02
333.629	0.06
333.84	0.02
334.05	0.03
334.26	0.06
334.47	0.04
334.681	0.07
334.891	-0.01
335.101	0.1
335.311	0.1
335.521	0.01
335.732	-0.05
335.942	0.11
336.152	0.06
336.362	0.03
336.572	0.03
336.782	0.08
336.992	0.03
337.202	0.02
337.412	-0
337.622	0.06
337.832	0
338.042	0.01
338.252	-0.03
338.462	0.05
338.672	0.04
338.882	-0.01
339.092	0.05
339.302	0.09
339.511	0.05
339.721	-0.02
339.931	0
340.141	0.05
340.351	0.09
340.561	0.05
340.77	0.07
340.98	0.01
341.19	0.05
341.4	-0.01
341.609	-0.05
341.819	0.03
342.029	-0.02
342.238	0.02
342.448	0.01
342.658	0.05
342.867	0.02
343.077	0.02
343.286	0.04
343.496	0.03
343.706	0.03
343.915	-0.04
344.125	0.01
344.334	0.02
344.544	-0.02
344.753	0.02
344.963	0
345.172	-0
345.381	-0.01
345.591	-0.04
345.8	0.03
346.01	0.08
346.219	0.09
346.428	-0.08
346.638	0
346.847	0.06
347.056	0.08
347.266	0.04
347.475	0.06
347.684	0.03
347.893	0.03
348.103	0.01
348.312	-0
348.521	0.01
348.73	-0
348.94	0.04
349.149	-0
349.358	0
349.567	-0.02
349.776	-0.05
349.985	0.01
350.194	0.07
350.403	0.07
350.612	-0.02
350.821	0.05
351.03	0.06
351.239	-0.04
351.448	0.01
351.657	-0.02
351.866	0.08
352.075	0.06
352.284	0.04
352.493	-0.03
352.702	0.09
352.911	0.04
353.12	0.02
353.329	0.03
353.538	0.05
353.746	0.03
353.955	0.01
354.164	0.05
354.373	0.03
354.582	0.08
354.79	0.03
354.999	0.04
355.208	0.02
355.416	0.08
355.625	-0
355.834	-0.01
356.042	0.08
356.251	0.05
356.46	-0.02
356.668	0.05
356.877	0.12
357.085	0.08
357.294	-0.05
357.503	0.08
357.711	0.04
357.92	0.15
358.128	0.06
358.337	0.01
358.545	0.06
358.754	0.02
358.962	0.06
359.17	0.02
359.379	0.04
359.587	0.06
359.796	0.02
360.004	0.05
360.212	0.07
360.421	0.11
360.629	0
360.837	-0.01
361.046	0.07
361.254	0.18
361.462	0.07
361.67	0.02
361.879	0.11
362.087	0.07
362.295	0.03
362.503	0.02
362.711	-0.02
362.92	-0.01
363.128	0.01
363.336	0
363.544	-0.01
363.752	0.03
363.96	-0
364.168	-0
364.376	0.07
364.584	0.05
364.792	0.04
365	0.1
365.208	0.04
365.416	0.03
365.624	0.05
365.832	0
366.04	0.12
366.248	0.06
366.456	0.02
366.664	0.06
366.872	0.05
367.079	0.07
367.287	0.06
367.495	0.05
367.703	0.02
367.911	0.02
368.118	0.08
368.326	0.03
368.534	-0
368.742	0.11
368.949	0.01
369.157	0.01
369.365	0.04
369.572	0.02
369.78	-0.02
369.988	0.08
370.195	0.04
370.403	0.12
370.61	0.03
370.818	0.04
371.026	0.11
371.233	-0.02
371.441	0.02
371.648	0.04
371.856	0.06
372.063	0.04
372.271	-0.02
372.478	-0
372.685	0.02
372.893	0.15
373.1	0.04
373.308	0.01
373.515	0.1
373.722	0.07
373.93	0.02
374.137	0.1
374.344	0.15
374.552	0.07
374.759	0.1
374.966	0.01
375.173	0.05
375.381	0.09
375.588	0.08
375.795	-0.02
376.002	0.05
376.209	0
376.417	0.08
376.624	0.04
376.831	0.07
377.038	0.03
377.245	0.02
377.452	0.05
377.659	0.06
377.866	-0.01
378.073	0.05
378.28	0.05
378.487	0.07
378.694	0.09
378.901	0.05
379.108	0.07
379.315	0.12
379.522	0.13
379.729	0.06
379.936	0.07
380.143	0.07
380.35	0.08
380.557	0.09
380.763	0.09
380.97	0.04
381.177	0.1
381.384	0.07
381.591	0.04
381.797	0.08
382.004	0.11
382.211	0.13
382.418	0.09
382.624	0.12
382.831	0.12
383.038	0.05
383.244	0.12
383.451	0.1
383.658	0.15
383.864	0.07
384.071	0.1
384.277	0.17
384.484	0.07
384.69	0.19
384.897	0.07
385.103	0.14
385.31	0.09
385.516	0.11
385.723	0.11
385.929	0.11
386.136	0.13
386.342	0.14
386.549	0.18
386.755	0.26
386.961	0.22
387.168	0.19
387.374	0.23
387.58	0.26
387.787	0.23
387.993	0.22
388.199	0.25
388.406	0.22
388.612	0.26
388.818	0.2
389.024	0.26
389.231	0.32
389.437	0.41
389.643	0.33
389.849	0.35
390.055	0.37
390.261	0.43
390.467	0.45
390.674	0.4
390.88	0.41
391.086	0.46
391.292	0.44
391.498	0.53
391.704	0.56
391.91	0.59
392.116	0.53
392.322	0.5
392.528	0.64
392.734	0.66
392.94	0.73
393.146	0.74
393.352	0.81
393.557	0.8
393.763	0.83
393.969	0.97
394.175	0.99
394.381	1.02
394.587	1.03
394.792	1.09
394.998	1.27
395.204	1.29
395.41	1.31
395.615	1.43
395.821	1.49
396.027	1.64
396.233	1.64
396.438	1.77
396.644	1.95
396.85	1.97
397.055	2.08
397.261	2.13
397.466	2.29
397.672	2.35
397.878	2.54
398.083	2.49
398.289	2.57
398.494	2.74
398.7	2.88
398.905	2.89
399.111	3.18
399.316	3.21
399.522	3.37
399.727	3.45
399.932	3.68
400.138	3.76
400.343	4.02
400.549	4.03
400.754	4.3
400.959	4.46
401.165	4.76
401.37	4.89
401.575	5.36
401.78	5.31
401.986	5.46
402.191	5.75
402.396	6.05
402.601	6.37
402.807	6.45
403.012	6.72
403.217	7.26
403.422	7.2
403.627	7.56
403.832	7.8
404.037	8.07
404.243	8.19
404.448	8.44
404.653	8.67
404.858	8.86
405.063	8.78
405.268	9.14
405.473	9.22
405.678	9.51
405.883	9.81
406.088	9.95
406.293	9.88
406.498	10.2
406.703	10.07
406.907	10.39
407.112	10.68
407.317	10.94
407.522	11.05
407.727	11.1
407.932	11.22
408.136	11.44
408.341	11.15
408.546	11.22
408.751	11.1
408.956	11.02
409.16	11.26
409.365	11.11
409.57	10.82
409.774	10.65
409.979	10.67
410.184	10.43
410.388	10.29
410.593	10.43
410.798	10.18
411.002	10.03
411.207	9.86
411.411	9.69
411.616	9.29
411.82	9.3
412.025	9.02
412.229	8.73
412.434	8.57
412.638	8.39
412.843	8.14
413.047	7.98
413.252	7.51
413.456	7.72
413.66	7.33
413.865	7.09
414.069	6.87
414.273	6.74
414.478	6.49
414.682	6.27
414.886	6.21
415.091	5.91
415.295	5.71
415.499	5.71
415.703	5.32
415.908	5.46
416.112	5.03
416.316	5.16
416.52	4.92
416.724	4.81
416.929	4.71
417.133	4.78
417.337	4.43
417.541	4.5
417.745	4.36
417.949	4.27
418.153	4.17
418.357	4.08
418.561	4.17
418.765	3.83
418.969	3.84
419.173	3.85
419.377	3.67
419.581	3.62
419.785	3.57
419.989	3.4
420.193	3.44
420.397	3.39
420.601	3.29
420.804	3.21
421.008	3.06
421.212	3.1
421.416	2.91
421.62	2.79
421.823	2.73
422.027	2.77
422.231	2.57
422.435	2.46
422.638	2.38
422.842	2.29
423.046	2.22
423.249	2.22
423.453	2.12
423.657	2.15
423.86	2.02
424.064	1.99
424.268	2
424.471	1.8
424.675	1.87
424.878	1.89
425.082	1.76
425.285	1.77
425.489	1.66
425.692	1.59
425.896	1.52
426.099	1.5
426.303	1.45
426.506	1.38
426.71	1.43
426.913	1.42
427.116	1.36
427.32	1.28
427.523	1.26
427.726	1.32
427.93	1.16
428.133	1.15
428.336	1.18
428.54	1.16
428.743	1.16
428.946	1.18
429.149	1.1
429.353	1.11
429.556	1
429.759	1.03
429.962	0.99
430.165	1.02
430.368	0.88
430.571	0.84
430.775	0.91
430.978	0.82
431.181	0.84
431.384	0.81
431.587	0.79
431.79	0.77
431.993	0.71
432.196	0.73
432.399	0.77
432.602	0.85
432.805	0.75
433.008	0.76
433.211	0.69
433.414	0.75
433.616	0.76
433.819	0.7
434.022	0.52
434.225	0.75
434.428	0.7
434.631	0.83
434.833	0.62
435.036	0.65
435.239	0.65
435.442	0.59
435.645	0.63
435.847	0.62
436.05	0.65
436.253	0.61
436.455	0.54
436.658	0.56
436.861	0.59
437.063	0.5
437.266	0.52
437.468	0.55
437.671	0.69
437.874	0.51
438.076	0.43
438.279	0.41
438.481	0.45
438.684	0.41
438.886	0.47
439.089	0.39
439.291	0.47
439.494	0.49
439.696	0.43
439.899	0.41
440.101	0.45
440.303	0.35
440.506	0.45
440.708	0.41
440.91	0.39
441.113	0.34
441.315	0.44
441.517	0.34
441.72	0.44
441.922	0.39
442.124	0.32
442.326	0.41
442.529	0.42
442.731	0.33
442.933	0.42
443.135	0.28
443.337	0.26
443.539	0.26
443.742	0.34
443.944	0.32
444.146	0.27
444.348	0.27
444.55	0.23
444.752	0.3
444.954	0.22
445.156	0.27
445.358	0.23
445.56	0.31
445.762	0.2
445.964	0.24
446.166	0.24
446.368	0.25
446.57	0.32
446.772	0.21
446.974	0.21
447.175	0.25
447.377	0.24
447.579	0.24
447.781	0.15
447.983	0.32
448.184	0.25
448.386	0.22
448.588	0.1
448.79	0.17
448.991	0.21
449.193	0.22
449.395	0.22
449.597	0.27
449.798	0.21
450	0.21
450.202	0.17
450.403	0.16
450.605	0.2
450.806	0.19
451.008	0.07
451.21	0.16
451.411	0.16
451.613	0.07
451.814	0.14
452.016	0.24
452.217	0.19
452.419	0.24
452.62	0.15
452.821	0.21
453.023	0.22
453.224	0.18
453.426	0.17
453.627	0.15
453.828	0.21
454.03	0.16
454.231	0.24
454.432	0.09
454.634	0.26
454.835	0.12
455.036	0.07
455.238	0.2
455.439	0.24
455.64	0.08
455.841	0.19
456.042	0.27
456.244	0.19
456.445	0.1
456.646	0.12
456.847	0.15
457.048	0.19
457.249	0.23
457.45	0.35
457.651	0.1
457.852	0.18
458.054	0.16
458.255	0.11
458.456	0.22
458.657	0.14
458.858	0.1
459.058	0.12
459.259	0.19
459.46	0.16
459.661	0.14
459.862	0.29
460.063	0.14
460.264	0.2
460.465	0.08
460.666	0.29
460.866	0.12
461.067	0.16
461.268	0.13
461.469	0.17
461.67	0.14
461.87	0.14
462.071	0.13
462.272	0.13
462.473	0.17
462.673	0.2
462.874	0.1
463.075	0.19
463.275	0.09
463.476	0.19
463.676	0.18
463.877	0.14
464.078	0.13
464.278	0.21
464.479	0.13
464.679	0.15
464.88	0.1
465.08	0.29
465.281	0.07
465.481	0.15
465.682	0.12
465.882	0.13
466.083	0.15
466.283	0.12
466.483	0.13
466.684	0.06
466.884	0.1
467.085	0.12
467.285	0.18
467.485	0.11
467.686	0.11
467.886	0.12
468.086	0.11
468.286	0.13
468.487	0.17
468.687	0.07
468.887	0.14
469.087	0.14
469.287	0.13
469.488	0.04
469.688	0.17
469.888	0.16
470.088	0.14
470.288	0.19
470.488	0.2
470.688	0.09
470.888	0.1
471.088	0.07
471.288	0.16
471.488	0.16
471.688	0.15
471.888	0.11
472.088	0.19
472.288	0.13
472.488	0.08
472.688	0.1
472.888	0.13
473.088	0.11
473.288	0.14
473.488	0.14
473.688	0.14
473.887	0.16
474.087	0.05
474.287	0.11
474.487	0.08
474.687	0.15
474.886	0.07
475.086	0.07
475.286	0.1
475.486	0.12
475.685	0.1
475.885	0.07
476.085	0.07
476.284	0.13
476.484	0.09
476.684	0.12
476.883	0.19
477.083	0.09
477.282	0.04
477.482	0.13
477.681	0.11
477.881	0.08
478.08	0.07
478.28	0.07
478.479	0.13
478.679	0.17
478.878	0.07
479.078	0.05
479.277	0.07
479.477	0.11
479.676	0.09
479.875	0.07
480.075	0.02
480.274	0.09
480.473	0.1
480.673	0.05
480.872	0.13
481.071	0.07
481.271	0.07
481.47	0.06
481.669	0.05
481.868	0.05
482.067	0.05
482.267	0.04
482.466	0.04
482.665	0.04
482.864	0.06
483.063	0.01
483.262	0.09
483.461	0.08
483.661	0.08
483.86	0.08
484.059	0.07
484.258	0.08
484.457	0.06
484.656	0.05
484.855	0.08
485.054	0.01
485.253	0.01
485.452	0.02
485.651	0.04
485.849	0.06
486.048	0.04
486.247	0.04
486.446	0.05
486.645	0.02
486.844	0.03
487.043	0.03
487.241	0.08
487.44	0.04
487.639	0.05
487.838	0.07
488.037	0.05
488.235	0.1
488.434	0.06
488.633	0.02
488.831	0.06
489.03	0.09
489.229	0.08
489.427	0.06
489.626	0.09
489.825	0.09
490.023	0.04
490.222	0.02
490.42	0.07
490.619	0.08
490.817	0.08
491.016	0.03
491.214	0.1
491.413	0.04
491.611	0.05
491.81	0.06
492.008	0.09
492.207	0.06
492.405	0.07
492.604	-0.02
492.802	0.01
493	0.07
493.199	0.04
493.397	0.07
493.595	0.04
493.794	0.01
493.992	0.1
494.19	0.03
494.388	0.08
494.587	0.04
494.785	0.06
494.983	0
495.181	0.04
495.379	0.04
495.578	0.04
495.776	0.06
495.974	0.04
496.172	0.03
496.37	0.02
496.568	0.03
496.766	0.02
496.964	0.07
497.162	0.01
497.36	0.02
497.558	0.05
497.756	0.06
497.954	0.05
498.152	0
498.35	0.05
498.548	0.04
498.746	0.06
498.944	0.01
499.142	0.01
499.34	0.01
499.538	0.05
499.736	0.02
499.933	0.08
500.131	0.07
500.329	0.05
500.527	0.08
500.725	0.08
500.922	0.07
501.12	0.06
501.318	0.03
501.516	0.04
501.713	0.05
501.911	0.03
502.109	-0.01
502.306	0.04
502.504	0.02
502.701	0.02
502.899	0.02
503.097	0.06
503.294	0.05
503.492	0.01
503.689	0.06
503.887	0.06
504.084	0.08
504.282	0.05
504.479	0
504.677	0.07
504.874	0.01
505.072	0.04
505.269	0.02
505.466	0.07
505.664	0.06
505.861	-0.01
506.059	0.02
506.256	0.05
506.453	0.03
506.651	0.11
506.848	0.06
507.045	0.04
507.242	0.03
507.44	0.01
507.637	0.04
507.834	0.04
508.031	0.07
508.229	0.01
508.426	0.02
508.623	0.05
508.82	0.02
509.017	0.02
509.214	0.02
509.411	0.05
509.608	0.01
509.805	0.03
510.003	0.02
510.2	0.02
510.397	0.06
510.594	0
510.791	0.02
510.988	0.01
511.184	0.04
511.381	0
511.578	-0.01
511.775	0.04
511.972	0.02
512.169	0.03
512.366	0.01
512.563	0.05
512.76	0.01
512.956	0.06
513.153	0.02
513.35	0.04
513.547	0.01
513.744	0.02
513.94	-0.02
514.137	0.04
514.334	0.02
514.53	0.02
514.727	0.04
514.924	0.06
515.12	0.01
515.317	-0.01
515.514	-0.01
515.71	-0.01
515.907	0.03
516.103	0.03
516.3	0.05
516.497	0.05
516.693	0.04
516.89	0.02
517.086	0
517.283	0.04
517.479	0.04
517.676	0.04
517.872	0.03
518.068	0.01
518.265	0.01
518.461	0.01
518.658	-0.01
518.854	0.03
519.05	0.02
519.247	0.01
519.443	0.01
519.639	0.02
519.836	0.02
520.032	0.03
520.228	0.02
520.424	0.06
520.621	0.04
520.817	0.02
521.013	0.03
521.209	0.03
521.405	0.08
521.601	0.02
521.798	0.03
521.994	0.04
522.19	-0.02
522.386	-0.01
522.582	0
522.778	0.01
522.974	0.01
523.17	0.04
523.366	0.06
523.562	0.04
523.758	-0
523.954	-0.01
524.15	0
524.346	0.05
524.542	0
524.738	0
524.934	0.01
525.129	0.03
525.325	0.02
525.521	0.02
525.717	0.05
525.913	0.02
526.109	0.03
526.304	0
526.5	0.04
526.696	0.05
526.892	0.01
527.087	0.03
527.283	-0
527.479	0.05
527.674	-0.01
527.87	0
528.066	0.03
528.261	0.04
528.457	0.01
528.653	0.01
528.848	0
529.044	0.03
529.239	0.03
529.435	0.02
529.63	0.04
529.826	0.04
530.021	0.06
530.217	0.04
530.412	-0
530.608	0.01
530.803	0.01
530.999	0.01
531.194	-0.02
531.389	0.04
531.585	-0.04
531.78	0.02
531.975	0.01
532.171	0.05
532.366	0.01
532.561	0.02
532.757	-0
532.952	0.01
533.147	0.04
533.342	0.03
533.538	-0
533.733	0.05
533.928	0.01
534.123	0
534.318	-0.02
534.513	0.01
534.709	0.02
534.904	0
535.099	0.01
535.294	0
535.489	0.03
535.684	0
535.879	-0.02
536.074	0.03
536.269	-0.02
536.464	0.04
536.659	0
536.854	0.02
537.049	0.02
537.244	0.04
537.439	0.01
537.634	0.05
537.828	0.03
538.023	0
538.218	-0.02
538.413	0
538.608	-0
538.803	0.04
538.997	-0.01
539.192	0.05
539.387	0.03
539.582	0.02
539.776	0.03
539.971	0.01
540.166	0.04
540.36	0
540.555	0.01
540.75	-0
540.944	0.01
541.139	-0.02
541.334	0.03
541.528	0.02
541.723	0.03
541.917	0.01
542.112	-0.03
542.306	0.02
542.501	0.02
542.695	0
542.89	-0.01
543.084	0.01
543.279	0.01
543.473	0.02
543.668	0.02
543.862	0.02
544.056	0.04
544.251	0.01
544.445	0.03
544.64	0.02
544.834	-0.01
545.028	0.02
545.222	0.02
545.417	0.03
545.611	0.04
545.805	0.02
546	0.02
546.194	0.02
546.388	-0.01
546.582	0.02
546.776	0.01
546.97	0.02
547.165	0.05
547.359	0.04
547.553	-0.01
547.747	0.02
547.941	0.01
548.135	0.01
548.329	0.03
548.523	0.01
548.717	0
548.911	-0.01
549.105	-0
549.299	0
549.493	0.03
549.687	0.01
549.881	0.03
550.075	0
550.269	-0.04
550.463	0.03
550.657	-0.01
550.85	0.01
551.044	-0.01
551.238	0.01
551.432	-0.01
551.626	-0.01
551.82	0.03
552.013	0
552.207	0.03
552.401	0.01
552.594	0.01
552.788	-0.01
552.982	-0
553.176	-0.02
553.369	0.03
553.563	0.02
553.756	-0.04
553.95	-0.01
554.144	0.01
554.337	0.05
554.531	0.03
554.724	0.02
554.918	0.01
555.111	0.04
555.305	-0.01
555.498	0.07
555.692	0.05
555.885	0
556.079	0.02
556.272	-0
556.466	0.04
556.659	0
556.852	-0
557.046	0.01
557.239	0.02
557.432	-0.02
557.626	-0.01
557.819	0.02
558.012	0.04
558.206	0.01
558.399	0.02
558.592	0.01
558.785	0.01
558.979	0.02
559.172	0.01
559.365	0.03
559.558	0.03
559.751	-0.02
559.944	0.04
560.138	-0.02
560.331	0.01
560.524	-0.01
560.717	-0.01
560.91	0.01
561.103	-0.01
561.296	0
561.489	0.03
561.682	0.01
561.875	0.04
562.068	0.03
562.261	0.02
562.454	0.03
562.647	0.02
562.84	0.04
563.032	-0.02
563.225	0.02
563.418	0.01
563.611	0
563.804	0.01
563.997	-0.01
564.19	-0
564.382	0.02
564.575	0.01
564.768	0.01
564.961	0.03
565.153	-0.03
565.346	0.05
565.539	0.03
565.731	0.04
565.924	0.03
566.117	0.04
566.309	0.01
566.502	-0.01
566.695	0
566.887	0
567.08	-0.01
567.272	-0
567.465	-0.01
567.657	0.02
567.85	0.04
568.042	-0.01
568.235	0.03
568.427	-0.01
568.62	0
568.812	-0
569.005	0.02
569.197	-0.03
569.389	0.02
569.582	0.03
569.774	-0.01
569.966	-0.02
570.159	-0.02
570.351	0.02
570.543	-0.02
570.736	-0.03
570.928	-0.01
571.12	0.01
571.312	-0
571.505	-0.02
571.697	0.03
571.889	0.01
572.081	-0.01
572.273	-0.01
572.465	0.05
572.658	-0.02
572.85	0
573.042	-0.02
573.234	-0.01
573.426	0.05
573.618	-0.05
573.81	0.05
574.002	0.03
574.194	0.04
574.386	-0.02
574.578	-0.08
574.77	-0.02
574.962	0
575.154	-0.03
575.346	-0.02
575.538	0.01
575.729	0.01
575.921	-0.03
576.113	-0.01
576.305	0.02
576.497	0.01
576.689	-0.01
576.88	-0.05
577.072	0.03
577.264	-0
577.456	0.01
577.647	-0.03
577.839	0
578.031	0.05
578.223	-0.04
578.414	-0.04
578.606	0.04
578.798	0
578.989	-0.02
579.181	-0
579.372	0.01
579.564	-0.02
579.755	0.01
579.947	0.01
580.139	0.03
580.33	-0.05
580.522	0
580.713	-0.06
580.905	0.01
581.096	0.02
581.287	0
581.479	-0.01
581.67	0.04
581.862	0.02
582.053	0
582.244	-0.04
582.436	0.02
582.627	-0.01
582.818	-0.01
583.01	-0.03
583.201	0.03
583.392	0.02
583.583	-0.01
583.775	-0.01
583.966	-0.01
584.157	-0.02
584.348	0.01
584.54	-0.02
584.731	0.02
584.922	-0.02
585.113	-0.01
585.304	0.05
585.495	0.04
585.686	0.01
585.877	0
586.068	0.01
586.259	0.03
586.45	0.03
586.641	-0.01
586.832	-0.05
587.023	0.01
587.214	0
587.405	0
587.596	-0.01
587.787	0.05
587.978	0.01
588.169	-0.03
588.36	-0.02
588.551	0.03
588.742	-0.02
588.932	0.02
589.123	0.01
589.314	0.02
589.505	0.02
589.696	0.02
589.886	-0.03
590.077	-0.04
590.268	0.01
590.458	-0.05
590.649	-0.05
590.84	0.05
591.03	-0.03
591.221	-0.04
591.412	-0.04
591.602	0.02
591.793	0.03
591.984	-0.06
592.174	-0.01
592.365	0.05
592.555	-0.02
592.746	0
592.936	0
593.127	0.02
593.317	0.04
593.508	-0.01
593.698	-0.03
593.889	0.01
594.079	0.01
594.269	-0.03
594.46	-0.02
594.65	0.02
594.84	0.02
595.031	-0.01
595.221	-0.01
595.411	-0.06
595.602	0.03
595.792	-0.01
595.982	-0.01
596.172	0.06
596.363	-0
596.553	0.01
596.743	0.02
596.933	-0
597.123	0.03
597.314	-0.02
597.504	-0.02
597.694	0.06
597.884	0.02
598.074	-0
598.264	-0
598.454	-0
598.644	0
598.834	-0.01
599.024	-0.06
599.214	-0.01
599.404	0.04
599.594	0.02
599.784	-0.04
599.974	0.02
600.164	0.03
600.354	-0.03
600.544	-0.05
600.734	0.01
600.924	0.02
601.114	-0.04
601.303	-0.02
601.493	0.01
601.683	0.02
601.873	0.03
602.063	-0.05
602.252	0.03
602.442	-0.06
602.632	-0.02
602.821	-0.02
603.011	0.02
603.201	-0.02
603.39	-0.03
603.58	-0.04
603.77	0.02
603.959	0.03
604.149	0.01
604.339	-0.02
604.528	0.04
604.718	0.03
604.907	-0.01
605.097	-0.01
605.286	-0.04
605.476	0.01
605.665	0.01
605.855	0.01
606.044	0.06
606.234	0.01
606.423	-0.03
606.612	-0.03
606.802	0.01
606.991	0.05
607.181	0.03
607.37	-0.02
607.559	0.01
607.749	-0.04
607.938	-0.01
608.127	-0.02
608.316	-0.04
608.506	0.02
608.695	0.01
608.884	0
609.073	0.02
609.263	0.01
609.452	0.04
609.641	0.01
609.83	-0.05
610.019	-0.02
610.208	-0.03
610.397	-0
610.586	0.03
610.775	-0.03
610.965	-0.03
611.154	-0.01
611.343	0.02
611.532	0.02
611.721	-0.02
611.91	-0.05
612.099	0.01
612.287	0
612.476	-0.03
612.665	-0.01
612.854	-0.03
613.043	0.05
613.232	-0.04
613.421	-0.05
613.61	0.01
613.798	-0.04
613.987	0.02
614.176	-0.02
614.365	-0
614.554	-0
614.742	0.02
614.931	-0.01
615.12	0.03
615.309	-0.01
615.497	0.02
615.686	-0.04
615.875	-0.03
616.063	-0.01
616.252	-0.02
616.44	-0.02
616.629	0.01
616.818	0.01
617.006	0.01
617.195	-0.02
617.383	0.01
617.572	0.03
617.76	-0.03
617.949	-0.03
618.137	0.01
618.326	0.07
618.514	-0.02
618.703	-0.02
618.891	0.04
619.079	-0.06
619.268	0.04
619.456	-0.04
619.644	0.02
619.833	-0
620.021	-0.01
620.209	-0.04
620.398	0.02
620.586	0.03
620.774	0.02
620.962	-0.04
621.151	0.05
621.339	0.01
621.527	-0.03
621.715	-0.06
621.903	-0.04
622.092	-0.04
622.28	0.03
622.468	-0.01
622.656	-0
622.844	0.05
623.032	-0.01
623.22	-0.04
623.408	0.03
623.596	-0
623.784	0.02
623.972	-0.04
624.16	-0.01
624.348	0.08
624.536	-0.01
624.724	-0
624.912	0.05
625.1	0.02
625.288	-0.04
625.476	-0.06
625.664	0.04
625.851	-0.05
626.039	0.01
626.227	0.04
626.415	-0.01
626.603	-0.05
626.79	0.01
626.978	0.02
627.166	0.03
627.354	0.02
627.541	-0.03
627.729	-0.08
627.917	0.02
628.104	0.04
628.292	0.02
628.48	-0.04
628.667	0.01
628.855	-0.01
629.042	0.02
629.23	-0.03
629.418	0.02
629.605	-0.02
629.793	-0.06
629.98	-0.03
630.168	-0
630.355	-0.02
630.543	0.04
630.73	-0.01
630.917	0.04
631.105	0.03
631.292	-0.03
631.48	-0.01
631.667	0.02
631.854	-0
632.042	-0.01
632.229	-0.05
632.416	-0.02
632.604	-0
632.791	-0.03
632.978	-0.01
633.165	0.02
633.353	0.03
633.54	-0.01
633.727	-0.08
633.914	-0.03
634.101	-0.08
634.289	0.05
634.476	-0.02
634.663	-0.03
634.85	0
635.037	-0.05
635.224	-0.07
635.411	0.01
635.598	0.01
635.785	-0
635.972	-0.02
636.159	0.03
636.346	-0.04
636.533	-0.01
636.72	0.01
636.907	-0.02
637.094	0.01
637.281	-0
637.468	-0.01
637.655	-0.03
637.842	0.03
638.029	-0.07
638.215	0.03
638.402	0.02
638.589	-0.02
638.776	-0.02
638.963	-0.03
639.149	0.03
639.336	0.08
639.523	-0.01
639.709	0
639.896	-0
640.083	0.04
640.27	0.03
640.456	-0.01
640.643	0
640.829	-0.08
641.016	-0.03
641.203	-0.05
641.389	0.01
641.576	-0.02
641.762	0.02
641.949	-0.07
642.135	0.01
642.322	-0
642.508	-0.04
642.695	-0.04
642.881	-0.01
643.068	-0.02
643.254	-0.03
643.441	0.03
643.627	0.04
643.813	-0.02
644	0.03
644.186	-0.01
644.372	0.01
644.559	0.03
644.745	-0
644.931	-0.02
645.118	-0
645.304	-0.01
645.49	-0.04
645.676	-0.04
645.862	0.02
646.049	0.05
646.235	-0
646.421	0.07
646.607	0.07
646.793	-0.04
646.979	-0.03
647.165	-0.01
647.352	0
647.538	0.02
647.724	0.02
647.91	0.02
648.096	0.01
648.282	0.06
648.468	-0.02
648.654	-0
648.84	-0.01
649.026	-0.02
649.212	-0.02
649.397	-0.03
649.583	-0.06
649.769	0.04
649.955	-0.03
650.141	-0.01
650.327	0.06
650.513	-0.02
650.698	0.01
650.884	-0.07
651.07	0.03
651.256	0.01
651.442	-0.02
651.627	-0.01
651.813	-0.03
651.999	-0.03
652.184	0
652.37	-0.01
652.556	-0.03
652.741	0.04
652.927	-0.06
653.113	-0.01
653.298	0.01
653.484	-0.03
653.669	-0.04
653.855	-0.03
654.04	0.03
654.226	0.01
654.412	-0.03
654.597	-0.06
654.782	-0.04
654.968	-0
655.153	0
655.339	-0.03
655.524	-0.06
655.71	0.03
655.895	-0.02
656.08	-0.02
656.266	0.06
656.451	-0.01
656.636	-0.04
656.822	0
657.007	-0.01
657.192	-0.02
657.378	-0.05
657.563	-0.02
657.748	0.01
657.933	0.03
658.118	-0.05
658.304	-0.02
658.489	0.03
658.674	0.01
658.859	-0.06
659.044	0
659.229	-0.01
659.414	-0.04
659.599	-0.03
659.785	-0.04
659.97	-0.01
660.155	0
660.34	0
660.525	0
660.71	-0.05
660.895	0.03
661.08	-0.03
661.264	-0.02
661.449	0.06
661.634	0
661.819	0.01
662.004	0
662.189	-0.06
662.374	-0.06
662.559	-0.05
662.743	-0.06
662.928	-0.02
663.113	-0.01
663.298	-0.1
663.483	-0.04
663.667	-0.01
663.852	-0.06
664.037	0.06
664.221	-0.03
664.406	0.04
664.591	0.02
664.775	-0.04
664.96	0.02
665.145	-0.01
665.329	-0
665.514	0
665.698	-0.02
665.883	-0.08
666.068	0.04
666.252	-0.02
666.437	-0.02
666.621	-0.01
666.806	0.02
666.99	-0.04
667.174	-0.05
667.359	0.05
667.543	-0.01
667.728	-0.02
667.912	-0.1
668.096	-0.01
668.281	0.05
668.465	0.01
668.649	-0.04
668.834	-0.01
669.018	-0.01
669.202	0.01
669.387	-0.1
669.571	0.08
669.755	-0.04
669.939	-0.03
670.124	-0.03
670.308	0.04
670.492	-0
670.676	0.02
670.86	0
671.044	-0.04
671.228	0
671.413	-0.02
671.597	-0.06
671.781	-0.08
671.965	0.04
672.149	-0.05
672.333	-0.04
672.517	-0.02
672.701	0.01
672.885	-0.02
673.069	-0.05
673.253	0.04
673.437	-0.03
673.621	-0.04
673.804	-0.05
673.988	-0.01
674.172	0
674.356	-0.03
674.54	-0.08
674.724	0.04
674.908	-0.06
675.091	0.01
675.275	-0
675.459	0
675.643	0
675.826	-0.02
676.01	-0.02
676.194	0.01
676.377	0.07
676.561	0.02
676.745	0.01
676.928	0.03
677.112	0.04
677.296	-0.04
677.479	-0.04
677.663	-0.04
677.846	0.02
678.03	-0.06
678.213	-0.02
678.397	0.04
678.58	-0.04
678.764	-0.04
678.947	-0.04
679.131	-0.01
679.314	0.06
679.498	-0.02
679.681	-0.02
679.865	0.04
680.048	-0.04
680.231	-0.02
680.415	0.01
680.598	-0.02
680.781	-0.02
680.965	-0.04
681.148	0.01
681.331	-0.06
681.514	0.02
681.698	-0.03
681.881	0.02
682.064	0
682.247	-0
682.43	-0.05
682.614	0.02
682.797	0
682.98	0.03
683.163	-0.05
683.346	0.01
683.529	-0.08
683.712	-0.05
683.895	-0.01
684.078	-0.09
684.261	-0.04
684.444	-0.01
684.627	0.05
684.81	-0.03
684.993	-0.03
685.176	0.06
685.359	-0.01
685.542	-0.03
685.725	0.09
685.908	0
686.091	-0.02
686.274	0.02
686.457	0.03
686.639	-0.04
686.822	0
687.005	-0.04
687.188	0.03
687.371	0.08
687.553	0.01
687.736	0.01
687.919	0.03
688.102	0.09
688.284	-0.06
688.467	-0.06
688.65	-0.01
688.832	-0.01
689.015	0.05
689.197	-0.08
689.38	0.13
689.563	0.04
689.745	-0.04
689.928	-0.04
690.11	-0
690.293	0.01
690.475	-0.06
690.658	0.01
690.84	0.02
691.023	0.02
691.205	-0.06
691.388	-0.03
691.57	0.06
691.752	-0.01
691.935	-0.11
692.117	-0.03
692.3	0.02
692.482	0.02
692.664	-0.02
692.847	0.01
693.029	0.06
693.211	0.04
693.393	-0.03
693.576	-0.05
693.758	-0.03
693.94	-0.03
694.122	0.03
694.304	-0.02
694.487	0.01
694.669	0.07
694.851	-0.06
695.033	-0.02
695.215	-0.04
695.397	-0.07
695.579	0.01
695.761	-0.07
695.943	-0.07
696.125	0.05
696.308	0.01
696.49	-0.12
696.671	0.1
696.853	-0.03
697.035	0.09
697.217	-0.01
697.399	0.03
697.581	0.01
697.763	0.01
697.945	-0.09
698.127	-0.01
698.309	0.07
698.491	0.03
698.672	0.01
698.854	0.02
699.036	0.06
699.218	-0.07
699.399	0.04
699.581	-0
699.763	-0.01
699.945	-0.03
700.126	-0.06
700.308	-0.04
700.49	0.02
700.671	-0.13
700.853	0.01
701.035	-0.06
701.216	0
701.398	-0.03
701.579	-0.09
701.761	0
701.943	0
702.124	-0.05
702.306	-0.07
702.487	0.11
702.669	0.02
702.85	-0.1
703.031	-0.07
703.213	0.11
703.394	0.06
703.576	-0.05
703.757	0.04
703.938	-0
704.12	0.08
704.301	-0.01
704.483	-0.02
704.664	0
704.845	0.06
705.026	0.06
705.208	-0.03
705.389	0.02
705.57	0.01
705.751	-0.03
705.933	-0.03
706.114	0.1
706.295	0.01
706.476	-0.08
706.657	0.02
706.838	0
707.02	0.04
707.201	-0.08
707.382	-0.01
707.563	0.03
707.744	-0
707.925	-0.09
708.106	-0.05
708.287	0.02
708.468	0.09
708.649	-0.03
708.83	-0.01
709.011	-0.04
709.192	0.07
709.373	-0.07
709.554	-0.04
709.734	0.01
709.915	0.02
710.096	0.02
710.277	-0.12
710.458	0
710.639	0
710.819	-0.11
711	-0.04
711.181	0.07
711.362	0.03
711.542	-0.03
711.723	-0.07
711.904	0.06
712.085	0.06
712.265	0.03
712.446	-0.11
712.627	-0.02
712.807	-0.02
712.988	0.06
713.168	-0.1
713.349	0.04
713.53	-0.18
713.71	-0.11
713.891	-0.06
714.071	-0.03
714.252	-0.04
714.432	-0.04
714.613	-0.08
714.793	-0.03
714.974	0.11
715.154	0.01
715.334	0.07
715.515	0.1
715.695	-0.05
715.876	-0.07
716.056	-0.03
716.236	-0.08
716.417	-0.01
716.597	0.01
716.777	0.11
716.957	-0.06
717.138	-0
717.318	-0.03
717.498	-0.07
717.678	0.04
717.859	0.02
718.039	-0.06
718.219	0.06
718.399	0.06
718.579	-0.07
718.759	-0.02
718.939	-0.01
719.12	0.01
719.3	-0.05
719.48	-0.13
719.66	-0.1
719.84	0.11
720.02	-0.03
720.2	-0.09
720.38	0
720.56	0.01
720.74	-0.03
720.92	-0.03
721.1	0.11
721.279	0.1
721.459	-0.01
721.639	-0.11
721.819	0.04
721.999	-0.13
722.179	0.03
722.359	-0.13
722.538	-0.02
722.718	-0.01
722.898	-0.1
723.078	-0.03
723.257	-0
723.437	-0.01
723.617	0.02
723.797	-0.06
723.976	0.01
724.156	0.04
724.336	0.06
724.515	0.1
724.695	-0.11
724.874	0.05
725.054	0.09
725.234	-0.1
725.413	-0.01
725.593	-0.02
725.772	-0.07
725.952	0
726.131	-0.07
726.311	-0.09
726.49	-0.03
726.67	-0.06
726.849	-0.12
727.028	-0.03
727.208	-0.02
727.387	0.04
727.567	-0.17
727.746	-0.01
727.925	-0.03
728.105	-0.09
728.284	-0.05
728.463	0.02
728.643	0.01
728.822	-0.04
729.001	-0.12
729.18	-0
729.359	0.04
729.539	-0.01
729.718	-0.05
729.897	-0
730.076	-0.04
730.255	-0.07
730.434	-0.05
730.614	-0.02
730.793	0.03
730.972	-0.03
731.151	-0.01
731.33	0.05
731.509	0.06
731.688	0.06
731.867	-0.06
732.046	-0.13
732.225	0.17
732.404	-0.1
732.583	-0.12
732.762	-0.07
732.941	0.05
733.12	0.04
733.298	-0.01
733.477	0.08
733.656	-0.07
733.835	0.02
734.014	0.07
734.193	-0.01
734.371	-0.01
734.55	0.05
734.729	-0.12
734.908	0.01
735.086	0.07
735.265	0.07
735.444	-0.16
735.623	-0.19
735.801	-0.13
735.98	-0.02
736.159	-0.09
736.337	0
736.516	-0.04
736.694	0.04
736.873	-0.12
737.052	0.08
737.23	0.13
737.409	-0.06
737.587	0.21
737.766	-0.18
737.944	-0.09
738.123	-0.03
738.301	0.13
738.479	-0.06
738.658	-0.05
738.836	-0.28
739.015	0.01
739.193	0.07
739.371	-0.13
739.55	0.03
739.728	-0.15
739.906	0.12
740.085	0.18
740.263	0.09
740.441	-0.24
740.62	0.13
740.798	0.03
740.976	-0.15
741.154	-0.12
741.332	0.17
741.511	-0
741.689	-0.01
741.867	0.03
742.045	-0.01
742.223	-0.04
742.401	-0.09
742.579	-0.08
742.757	0.1
742.935	-0.16
743.114	-0.12
743.292	0
743.47	0.07
743.648	0.03
743.826	-0.14
744.004	0.05
744.181	0.09
744.359	-0.07
744.537	0.01
744.715	0.01
744.893	-0.04
745.071	0
745.249	-0.06
745.427	-0.17
745.605	0.15
745.782	-0.01
745.96	0.12
746.138	-0.05
746.316	0.08
746.493	-0.02
746.671	-0.07
746.849	-0.04
747.027	0.13
747.204	-0.13
747.382	0.14
747.56	-0.1
747.737	0.02
747.915	-0.09
748.093	0.07
748.27	-0.08
748.448	-0.04
748.625	-0.03
748.803	-0.05
748.98	-0.13
749.158	0.06
749.335	0.02
749.513	-0.1
749.69	-0.05
749.868	-0.14
750.045	0.02
750.223	-0.01
750.4	-0.25
750.578	0.27
750.755	0.02
750.932	-0.18
751.11	0.21
751.287	-0.2
751.464	0.09
751.642	-0.11
751.819	0.07
751.996	0.05
752.173	-0.07
752.351	-0.1
752.528	0.01
752.705	-0.03
752.882	-0.03
753.06	-0.05
753.237	-0.05
753.414	0.15
753.591	0.04
753.768	0.07
753.945	0.05
754.122	-0.08
754.299	0.06
754.476	-0.14
754.654	0.06
754.831	0.05
755.008	0.07
755.185	-0.06
755.362	-0.15
755.539	0.01
755.716	-0.07
755.892	-0.1
756.069	-0.06
756.246	-0.06
756.423	-0.05
756.6	0.15
756.777	-0.05
756.954	-0.04
757.131	-0
757.307	-0.11
757.484	-0.09
757.661	-0.02
757.838	-0.05
758.015	-0.17
758.191	-0
758.368	-0.03
758.545	0.11
758.721	0.12
758.898	-0.16
759.075	0.03
759.251	0.11
759.428	0.03
759.605	-0.17
759.781	-0.11
759.958	0.03
760.134	0.04
760.311	-0.11
760.488	0.12
760.664	0.09
760.841	-0.09
761.017	-0.05
761.194	0.07
761.37	0.11
761.547	0.01
761.723	0.06
761.899	0.06
762.076	-0.07
762.252	-0.07
762.429	-0.09
762.605	0.03
762.781	-0.09
762.958	0.09
763.134	-0.11
763.31	-0.05
763.486	0.16
763.663	-0.18
763.839	-0.01
764.015	-0.2
764.191	-0.02
764.368	-0.08
764.544	-0.11
764.72	0.05
764.896	0.12
765.072	0.02
765.248	-0.13
765.425	-0.02
765.601	0
765.777	-0.05
765.953	-0.14
766.129	-0.04
766.305	-0.05
766.481	0.08
766.657	0.04
766.833	0.23
767.009	-0.1
767.185	0.02
767.361	0.04
767.537	-0.09
767.713	0.18
767.889	-0.14
768.065	-0.08
768.24	-0.09
768.416	0.07
768.592	-0.05
768.768	-0.02
768.944	0.09
769.12	-0.13
769.295	-0.07
769.471	-0.07
769.647	0.07
769.823	0.14
769.998	-0.12
770.174	-0.06
770.35	0.25
770.525	0.29
770.701	0.01
770.877	-0.05
771.052	-0.15
771.228	0.1
771.403	0.04
771.579	0.13
771.755	0.23
771.93	-0.07
772.106	-0.25
772.281	-0.28
772.457	-0.09
772.632	0.06
772.808	-0.14
772.983	-0.18
773.159	-0.26
773.334	0.09
773.509	0.06
773.685	-0.16
773.86	0.37
774.036	-0.04
774.211	-0.05
774.386	-0.15
774.562	-0.05
774.737	0.06
774.912	-0.17
775.087	0.07
775.263	0
775.438	0.12
775.613	-0.08
775.788	-0.11
775.964	0.22
776.139	0.44
776.314	-0.27
776.489	0.07
776.664	0.14
776.839	-0.28
777.014	-0.02
777.19	0.13
777.365	0.24
777.54	0.09
777.715	-0.15
777.89	-0.06
778.065	-0.2
778.24	0.02
778.415	0.2
778.59	-0.13
778.765	-0.01
778.94	-0.08
779.115	-0.02
779.289	-0.19
779.464	-0.15
779.639	0.01
779.814	-0.21
779.989	-0.06
780.164	0.27
780.339	0.11
780.513	-0.17
780.688	-0.19
780.863	-0.07
781.038	0.08
781.212	-0.2
781.387	0.07
781.562	0.32
781.737	-0.1
781.911	0.22
782.086	-0.11
782.261	-0.06
782.435	0.27
782.61	-0.06
782.784	0.05
782.959	0.23
783.134	0.04
783.308	-0.28
783.483	-0.14
783.657	0.23
783.832	0.11
784.006	-0.35
784.181	-0.09
784.355	0.22
784.53	-0.09
784.704	-0.3
784.878	0.21
785.053	0.02
785.227	0.09
785.402	0.33
785.576	-0.43
785.75	-0.18
785.925	-0.07
786.099	0.2
786.273	-0.03
786.448	0.11
786.622	0.14
786.796	-0.12
786.97	-0.15
787.145	0.37
787.319	-0.17
787.493	-0.17
787.667	-0.52
787.841	-0.01
788.015	0.18
788.19	-0.1
788.364	-0.1
788.538	0.03
788.712	0.09
788.886	-0.07
789.06	0.06
789.234	0.25
789.408	-0.29
789.582	-0.04
789.756	-0.14
789.93	-0.22
790.104	-0.26
790.278	-0.05
790.452	-0.25
790.626	-0.04
790.8	-0.18
790.973	0.19
791.147	0.13
791.321	0.22
791.495	0.29
791.669	0.18
791.843	0.23
792.016	0.03
792.19	0.32
792.364	-0.24
792.538	0.45
792.711	0.24
792.885	-0.15
793.059	-0.19
793.233	-0.58
793.406	0.02
793.58	-0.06
793.754	0.09
793.927	-0.03
794.101	0.37
794.274	-0.07
794.448	0.28
794.622	-0.49
794.795	0.38
794.969	-0.14
795.142	0.14
795.316	-0.25
795.489	-0.12
795.663	0.26
795.836	-0.04
796.009	-0.21
796.183	0.34
796.356	0.12
796.53	0.07
796.703	-0.2
796.876	0.39
797.05	-0.22
797.223	-0.45
797.396	-0.08
797.57	0.34
797.743	0.34
797.916	-0.19
798.09	0.07
798.263	0.34
798.436	0.19
798.609	-0.1
798.782	0.01
798.956	0.02
799.129	0.2
799.302	-0.21
799.475	-0.21
799.648	-0.04
799.821	0.09
799.994	-0.08
800.167	-0.27
800.34	-0.19
800.514	-0.18
800.687	-0.04
800.86	-0.37
801.033	-0.01
801.206	0.12
801.379	-0.16
801.551	0.15
801.724	0.27
801.897	0.62
802.07	-0.02
802.243	-0.39
802.416	-0.29
802.589	-0.3
802.762	0.04
802.935	0.13
803.107	-0.07
803.28	0.12
803.453	0.03
803.626	-0.33
803.798	-0.06
803.971	-0.24
804.144	0.07
804.317	0.14
804.489	0.34
804.662	0.11
804.835	-0.2
805.007	-0.27
805.18	0.32
805.353	-0.04
805.525	-0.34
805.698	-0.28
805.87	0.15
806.043	0.43
806.215	-0.18
806.388	-0.19
806.56	-0.27
806.733	0.72
806.905	-0.11
807.078	-0.13
807.25	-0.2
807.423	-0.04
807.595	0.21
807.768	0.19
807.94	0.31
808.112	0.36
808.285	-0.3
808.457	-0.31
808.629	-0.05
808.802	0.09
808.974	-0.18
809.146	-0.23
809.318	0.03
809.491	0.07
809.663	0.31
809.835	-0.3
810.007	0.09
810.18	0.25
810.352	-0.21
810.524	-0.11
810.696	0.13
810.868	0.19
811.04	-0.19
811.212	-0.23
811.384	0.18
811.556	-0.04
811.728	0.06
811.901	0.83
812.073	0.06
812.245	0.28
812.417	0.01
812.589	-0.56
812.76	0.26
812.932	0.33
813.104	0.45
813.276	0.06
813.448	0.54
813.62	0.26
813.792	0.17
813.964	0.09
814.136	-0.21
814.307	-0.14
814.479	-0.47
814.651	-0.34
814.823	0.63
814.995	-0.3
815.166	-0.12
815.338	-0.4
815.51	-0.33
815.681	0.49
815.853	-0.01
816.025	0.08
816.196	0.42
816.368	-0.14
816.54	-0.64
816.711	-0.59
816.883	0.65
817.054	0.87
817.226	-0.99
817.398	0.11
817.569	-0.14
817.741	0.1
817.912	-0.01
818.084	0.06
818.255	0.25
818.426	-0.25
818.598	-0.12
818.769	-0.38
818.941	0.48
819.112	0.8
819.283	0.61
819.455	-0.48
819.626	0.2
819.798	0.36
819.969	0.18
820.14	-0.26
820.311	-0.06
820.483	0.06
820.654	-0.16
820.825	0.02
820.996	-0.17
821.168	-0.66
821.339	-0.5
821.51	-0.66
821.681	-0.26
821.852	0.07
822.023	-0.33
822.195	-0.65
822.366	0.62
822.537	-0.41
822.708	-0.15
822.879	-0.45
823.05	0.44
823.221	-0.48
823.392	0.28
823.563	0.16
823.734	0.01
823.905	-0.22
824.076	-0.68
824.247	-0.72
824.418	-0.19
824.589	0.53
824.759	0.2
824.93	0.21
825.101	-1
825.272	0.34
825.443	0.84
825.614	0.64
825.784	-0.84
825.955	0.98
826.126	0.19
826.297	-0.1
826.467	0.59
826.638	0.69
826.809	-1.14
826.98	-0.08
827.15	-0.34
827.321	0.19
827.492	0.88
827.662	-0.4
827.833	0.98
828.003	1
828.174	-0.73
828.345	-0.44
828.515	0.74
828.686	0.19
828.856	-0.11
829.027	-0.08
829.197	0.15
829.368	0.39
829.538	0.05
829.709	-0.42
829.879	0.13
830.049	-0.1
830.22	-0.5
830.39	0.17
830.56	0.91
830.731	-0.02
830.901	-0.58
831.072	0.4
831.242	-0.2
831.412	0.3
831.582	-0.36
831.753	-1.09
831.923	0.74
832.093	-0.61
832.263	-0.23
832.434	-0.67
832.604	-0.22
832.774	0.31
832.944	0.15
833.114	-0.71
833.284	0.01
833.454	-0.21
833.624	-0.47
833.795	-0.99
833.965	0.45
834.135	0.2
834.305	-1.09
834.475	-0.71
834.645	0.24
834.815	-0.14
834.985	-0.82
835.155	0.17
835.325	0.25
835.494	0.58
835.664	-0.46
835.834	-1.02
836.004	-0.03
836.174	0.41
836.344	-0.43
836.514	-0.7
836.684	-0.16
836.853	0.21
837.023	0.33
837.193	-0.74
837.363	0.8
837.532	0.18
837.702	-0.75
837.872	-0.64
838.041	0.62
838.211	1.28
838.381	-0.33
838.55	-0.19
838.72	1.62
838.89	0.93
839.059	-0.61
839.229	-0.09
839.398	1.97
839.568	-0.14
839.738	-0.39
839.907	1.29
840.077	0.47
840.246	-0.39
840.416	-0.73
840.585	-1.14
840.755	1.56
840.924	0.56
841.093	-0.53
841.263	-0.98
841.432	0.64
841.602	-0.24
841.771	-0.46
841.94	0.41
842.11	2.25
842.279	0.89
842.448	-1.01
842.617	-1.3
842.787	1.94
842.956	-1.29
843.125	0.54
843.294	-0.43
843.464	0.94
843.633	-0.23
843.802	-0.29
843.971	-0.91
844.14	0.66
844.309	0.86
844.479	-0.78
844.648	-0.88
844.817	-0.35
844.986	0.3
845.155	-0.09
845.324	-0.63
845.493	-0.15
845.662	-0.11
845.831	0.01
846	0.77
846.169	-0.29
846.338	1.4
846.507	0.07
846.676	0.39
846.844	-0.33
847.013	-0.05
847.182	-0.09
847.351	0.04
847.52	-0.19
847.689	1.09
847.858	0.15
848.026	-0.44
848.195	-0.51
848.364	-0.6
848.533	-0.55
848.701	-1.46
848.87	0.92
849.039	0.94
849.207	0.64
849.376	0.16
849.545	0.59
849.713	-0.56
849.882	-0.36
850.051	0.47
850.219	0.01
850.388	0.39
850.556	-1.29
850.725	-1.04
850.893	-0.61
851.062	-1.09
851.23	0.49
851.399	-1.39
851.567	0.33
851.736	-0.31
851.904	-0.87
852.073	-0.15
852.241	-0.02
852.41	-0.3
852.578	-1
852.746	-0.88
852.915	0.12
853.083	-0.77
853.251	-1.41
853.42	0.24
853.588	0.19
853.756	0.67
853.924	0
854.093	-0.68
854.261	-0.05
854.429	-1.62
854.597	0.75
854.765	-2.47
854.934	0.36
855.102	0.81
855.27	-0.48
855.438	0.55
855.606	1.44
855.774	0.82
855.942	-1.59
856.11	-2.13
856.278	-0.86
856.446	0.78
856.614	-1.58
856.782	-1.36
856.95	0.42
857.118	0.19
857.286	-0.15
857.454	-0.82
857.622	0.71
857.79	0.67
857.958	-0.56
858.126	-0.69
858.294	-1.45
858.462	-0.9
858.629	-0.9
858.797	-0.85
858.965	-0.06
859.133	-0.51
859.301	-0.96
859.468	0.61
859.636	-0.27
859.804	1.44
859.971	1.09
860.139	-0.69
860.307	0.79
860.474	0.43
860.642	-0.17
860.81	-1.09
860.977	-1.05
861.145	1.67
861.313	-1.66
861.48	-0.63
861.648	0.54
861.815	-1.11
861.983	-2.25
862.15	-0.98
862.318	-0.16
862.485	0.7
862.653	-0.39
862.82	-1.03
862.988	1.88
863.155	0.59
863.322	-2.08
863.49	-0.85
863.657	-1.1
863.824	1.52
863.992	0.29
864.159	0.4
864.326	1.82
864.494	-0.56
864.661	3.15
864.828	-2.44
864.996	0.89
865.163	1.89
865.33	-1.66
865.497	-2.94
865.664	1.34
865.832	-0.86
865.999	-0.33
866.166	-1.62
866.333	-1.14
866.5	0.47
866.667	-0.1
866.834	-0.93
867.001	1.03
867.168	-2.64
867.335	-0.37
867.502	-1.43
867.669	0.45
867.836	3.86
868.003	0.46
868.17	1.49
868.337	0.83
868.504	2.76
868.671	-2.69
868.838	-0.3
869.005	0.45
869.172	1.08
869.339	0.49
869.505	-0.71
869.672	0.97
869.839	0.74
870.006	-0.77
870.173	-1.38
870.339	0.78
870.506	2.26
870.673	-2.9
870.84	2.01
871.006	0.18
871.173	0.7
871.34	-0.83
871.506	-1.07
871.673	0.36
871.839	-0.88
872.006	0.02
872.173	-1.38
872.339	-0.52
872.506	0.15
872.672	-0.26
872.839	-2.48
873.005	0.25
873.172	4.34
873.338	1.41
873.505	-0.2
873.671	-1.01
873.838	1.68
874.004	-1.36
874.171	-0.03
874.337	0.59
874.503	0.38
874.67	-1.68
874.836	-0.34
875.002	0.44
875.169	1.12
875.335	1.23
875.501	-1.22
875.668	1.27
875.834	1
876	-1.35
876.166	0.04
876.332	2.05
876.499	3.7
876.665	-2.35
876.831	0.26
876.997	4.27
877.163	0.83
877.329	0.19
877.495	0.39
877.662	0.3
877.828	1.73
877.994	-1.74
878.16	-3.32
878.326	-0.66
878.492	-0.18
878.658	-0.64
878.824	0.38
878.99	1.31
879.156	-0.5
879.322	2.51
879.487	-2.72
879.653	2.51
879.819	1.2
879.985	-2.26
880.151	0.1
880.317	-0.93
880.483	0.49
880.648	-0.07
880.814	-2.44
880.98	-0.11
881.146	-2.92
881.312	0.21
881.477	-1.05
881.643	-1.16
881.809	1.74
881.974	1.32
882.14	-2.98
882.306	-0.35
882.471	2.6
882.637	-0.37
882.803	0.94
882.968	2.88
883.134	3.67
883.299	-0.46
883.465	-1.45
883.63	1.5
883.796	0.21
883.961	0.64
884.127	0.45
884.292	-3.47
884.458	-2.82
884.623	-2.82
