Data from Apollo_Calib_20240827__AbsoluteIrradiance__516__07-45-02-785.txt Node

Date: Wed Aug 28 07:45:02 BST 2024
User: biology
Spectrometer: FLMT08252
Trigger mode: 0
Integration Time (sec): 5.000000E-1
Scans to average: 5
Electric dark correction enabled: true
Nonlinearity correction enabled: false
Boxcar width: 0
XAxis mode: Wavelengths
Number of Pixels in Spectrum: 3648
>>>>>Begin Spectral Data<<<<<
179.588	-0
179.809	-0
180.03	-0
180.251	-0
180.473	-0
180.694	0
180.915	0
181.136	-0
181.357	0
181.578	-0
181.799	-0
182.02	-0
182.241	-0
182.462	-0
182.683	0
182.904	-0
183.125	-0
183.346	0
183.567	0
183.788	0
184.009	-0
184.23	0
184.451	0
184.672	-0
184.892	-0
185.113	0
185.334	0
185.555	-0
185.776	-0
185.996	0
186.217	0
186.438	0
186.659	-0
186.879	0
187.1	0
187.321	-0
187.541	0
187.762	0
187.983	-0
188.203	-0
188.424	0
188.644	-0
188.865	0
189.086	-0
189.306	0
189.527	0
189.747	-0
189.968	-0
190.188	0
190.409	0
190.629	0
190.849	-0
191.07	-0
191.29	0
191.511	-0
191.731	-0
191.951	-0
192.172	-0
192.392	-0
192.612	-0
192.833	0
193.053	0
193.273	0
193.493	-0
193.714	-0
193.934	0
194.154	0
194.374	0
194.594	-0
194.815	-0
195.035	-0
195.255	0
195.475	-0
195.695	0
195.915	0
196.135	-0
196.355	0
196.575	0
196.795	0
197.015	-0
197.235	-0
197.455	0
197.675	-0
197.895	-0
198.115	-0
198.335	0
198.555	-0
198.775	0
198.995	0
199.214	0
199.434	-0
199.654	-0
199.874	0
200.094	1.13
200.313	-0.02
200.533	-0.04
200.753	-0.7
200.973	0.94
201.192	0.61
201.412	-1.02
201.632	-0.09
201.851	0.49
202.071	-0.55
202.291	-0.36
202.51	-0.47
202.73	0.32
202.95	-0.55
203.169	-0.25
203.389	-0.18
203.608	-0.14
203.828	-0.38
204.047	-0.22
204.267	0.31
204.486	-0.37
204.706	0.08
204.925	0.16
205.145	-0.23
205.364	0.22
205.583	0.45
205.803	-0.44
206.022	-0.27
206.242	0.19
206.461	0.05
206.68	-0.04
206.9	0.02
207.119	0.3
207.338	0.41
207.557	-0.19
207.777	-0.07
207.996	0.22
208.215	0.55
208.434	-0.26
208.654	-0.36
208.873	-0.02
209.092	0.43
209.311	-0.1
209.53	-0.11
209.749	-0.45
209.968	-0.29
210.187	0.12
210.407	-0.49
210.626	-0.21
210.845	0.34
211.064	-0.01
211.283	-0.25
211.502	0.25
211.721	0.05
211.94	-0.24
212.159	0.35
212.377	0.12
212.596	0.19
212.815	0.18
213.034	-0.03
213.253	0.29
213.472	0.08
213.691	0.03
213.91	-0.12
214.128	-0.17
214.347	0.22
214.566	-0.38
214.785	-0.56
215.003	0.09
215.222	0.05
215.441	0.13
215.66	-0.23
215.878	-0.01
216.097	0.19
216.316	-0.33
216.534	-0.05
216.753	0.02
216.972	0.03
217.19	0.01
217.409	-0.17
217.627	-0.11
217.846	-0.08
218.064	0.04
218.283	0.02
218.501	0.27
218.72	0.32
218.938	-0.3
219.157	-0.11
219.375	0.05
219.594	0.14
219.812	-0.25
220.031	-0.12
220.249	0.16
220.467	0.18
220.686	-0.19
220.904	-0.26
221.122	-0.17
221.341	0.35
221.559	0.12
221.777	-0.24
221.995	0.09
222.214	0.17
222.432	-0.04
222.65	0.1
222.868	0.01
223.086	0.1
223.305	0.05
223.523	-0.08
223.741	0.35
223.959	-0.17
224.177	-0.3
224.395	-0.05
224.613	0.04
224.831	0.19
225.049	-0
225.267	0.08
225.485	0.04
225.703	0.1
225.921	0.06
226.139	-0.07
226.357	0.07
226.575	-0.09
226.793	-0.01
227.011	0.52
227.229	0.04
227.447	0.16
227.665	-0.14
227.883	-0.18
228.1	-0.02
228.318	-0.08
228.536	-0.26
228.754	-0.17
228.972	0.02
229.189	0.03
229.407	-0.12
229.625	-0.11
229.843	0.13
230.06	0.06
230.278	-0.09
230.496	0.01
230.713	0.06
230.931	0.17
231.149	-0.11
231.366	-0.05
231.584	0.03
231.801	0.37
232.019	0.07
232.236	-0.1
232.454	-0.18
232.671	-0.04
232.889	0.04
233.106	-0.12
233.324	0.06
233.541	-0.07
233.759	0
233.976	-0.11
234.194	-0.03
234.411	0.05
234.628	-0.05
234.846	-0.04
235.063	0.01
235.28	-0.04
235.498	0.06
235.715	-0.09
235.932	0.11
236.149	0.03
236.367	-0.07
236.584	-0
236.801	-0.02
237.018	0.12
237.236	-0.01
237.453	-0.13
237.67	0.04
237.887	-0.06
238.104	-0.03
238.321	-0.07
238.538	-0.09
238.755	0.11
238.973	-0.21
239.19	0.04
239.407	0.05
239.624	0.03
239.841	-0.14
240.058	-0.09
240.275	-0.01
240.492	-0.01
240.709	0.04
240.925	-0.04
241.142	0.04
241.359	-0.05
241.576	-0.03
241.793	-0.07
242.01	0.08
242.227	0.12
242.444	-0.01
242.66	0.08
242.877	-0.03
243.094	-0.05
243.311	0.13
243.527	-0.05
243.744	-0.01
243.961	0.05
244.178	-0.01
244.394	0.01
244.611	0.07
244.828	0.1
245.044	-0.14
245.261	-0.02
245.477	-0.06
245.694	0.06
245.911	-0.01
246.127	-0.03
246.344	0.16
246.56	0.06
246.777	-0.06
246.993	0.03
247.21	-0.03
247.426	0
247.643	-0.05
247.859	-0.07
248.076	-0.03
248.292	0.16
248.508	-0.07
248.725	0.02
248.941	0.02
249.157	0.04
249.374	-0.13
249.59	0.06
249.806	0.06
250.023	0.07
250.239	-0.02
250.455	-0.03
250.671	-0.03
250.888	0.07
251.104	0.04
251.32	-0.1
251.536	-0.01
251.752	-0.04
251.969	0.02
252.185	0.01
252.401	0.11
252.617	0
252.833	-0
253.049	-0.06
253.265	0.04
253.481	0.01
253.697	0
253.913	-0.06
254.129	-0
254.345	0.01
254.561	-0.06
254.777	0.05
254.993	0.09
255.209	0.08
255.425	-0.02
255.641	-0.05
255.857	0.13
256.073	-0.01
256.288	-0.13
256.504	-0.03
256.72	-0.05
256.936	0.07
257.152	-0.02
257.367	-0.08
257.583	0.03
257.799	-0.01
258.015	-0.12
258.23	-0.04
258.446	0.07
258.662	-0.01
258.877	-0.11
259.093	-0.15
259.309	-0.06
259.524	0.06
259.74	-0.03
259.955	-0.14
260.171	0.03
260.387	0.02
260.602	0.1
260.818	0.06
261.033	-0.07
261.249	0
261.464	-0.04
261.68	-0.1
261.895	0.04
262.11	0.05
262.326	0.03
262.541	-0.11
262.757	0.05
262.972	0.09
263.187	0
263.403	0
263.618	0.07
263.833	-0.03
264.049	-0.08
264.264	-0.02
264.479	0.06
264.694	0.06
264.91	-0.08
265.125	-0.06
265.34	0.09
265.555	0.14
265.77	0.07
265.986	-0.04
266.201	0.06
266.416	0.09
266.631	0.05
266.846	0.03
267.061	0.01
267.276	-0.01
267.491	-0.17
267.706	0.02
267.921	0.08
268.136	-0.03
268.351	0.04
268.566	-0.04
268.781	0.13
268.996	0.05
269.211	0
269.426	-0.1
269.641	-0.02
269.856	0.04
270.071	-0.08
270.285	-0.05
270.5	0.07
270.715	0.11
270.93	0.01
271.145	-0.01
271.359	0.05
271.574	-0.07
271.789	-0
272.004	-0.11
272.218	-0.06
272.433	0.07
272.648	-0.05
272.862	0.1
273.077	0
273.292	0
273.506	-0.05
273.721	0.02
273.936	0.06
274.15	0.04
274.365	-0.02
274.579	0.04
274.794	0.06
275.008	0.05
275.223	-0.09
275.437	0
275.652	0.07
275.866	0.04
276.081	-0.04
276.295	0.07
276.509	0.04
276.724	0.04
276.938	0
277.153	0.02
277.367	0.05
277.581	0.02
277.796	-0.04
278.01	-0.11
278.224	0.06
278.438	0.11
278.653	-0.07
278.867	-0
279.081	0.01
279.295	-0.05
279.51	0
279.724	-0.07
279.938	0.02
280.152	-0
280.366	-0.03
280.58	0.04
280.794	0.07
281.008	0.03
281.222	0.03
281.437	0.11
281.651	0.01
281.865	0.03
282.079	0.02
282.293	-0.1
282.507	-0.03
282.721	-0.01
282.935	-0.02
283.148	-0.11
283.362	-0.05
283.576	-0.06
283.79	-0.06
284.004	-0.03
284.218	0.07
284.432	0.01
284.646	-0.02
284.859	-0
285.073	-0.02
285.287	0.02
285.501	-0.01
285.714	-0.02
285.928	0.02
286.142	0.01
286.356	-0
286.569	-0.02
286.783	0.06
286.997	0.06
287.21	0.02
287.424	-0.01
287.637	0.01
287.851	-0.06
288.065	0.04
288.278	0.02
288.492	0.02
288.705	-0.04
288.919	0.01
289.132	-0.04
289.346	0.07
289.559	-0.07
289.773	-0.09
289.986	-0.06
290.2	-0.02
290.413	0.07
290.626	-0.05
290.84	-0.04
291.053	0.05
291.267	0.05
291.48	0.02
291.693	0.01
291.906	-0
292.12	-0.02
292.333	-0.08
292.546	-0.02
292.76	0.13
292.973	0
293.186	0.06
293.399	-0.03
293.612	0.07
293.826	-0.02
294.039	0
294.252	-0.02
294.465	0.06
294.678	0.06
294.891	-0.02
295.104	-0.04
295.317	-0.04
295.53	0.06
295.743	-0
295.956	0.01
296.169	0.09
296.382	0.09
296.595	0.03
296.808	-0.04
297.021	0.04
297.234	0.05
297.447	-0.01
297.66	-0.01
297.873	0.03
298.086	0.04
298.299	-0
298.511	0
298.724	-0.02
298.937	-0.06
299.15	-0.01
299.363	0.02
299.575	0.06
299.788	0.04
300.001	0.02
300.213	-0.08
300.426	-0.01
300.639	0.02
300.852	-0
301.064	0.02
301.277	0.06
301.489	0.03
301.702	0.07
301.915	0.02
302.127	0.04
302.34	0.05
302.552	0.04
302.765	0
302.977	0.01
303.19	-0.03
303.402	0
303.615	0.02
303.827	-0.02
304.04	-0.06
304.252	-0.01
304.464	-0.03
304.677	0.13
304.889	0.02
305.102	0
305.314	-0.05
305.526	0.04
305.739	0.08
305.951	-0.03
306.163	-0
306.375	0.1
306.588	-0
306.8	-0.02
307.012	-0.05
307.224	-0
307.436	0.08
307.649	-0.06
307.861	0.03
308.073	0.02
308.285	-0.01
308.497	-0.03
308.709	-0.03
308.921	0.02
309.133	0.06
309.346	-0.01
309.558	0.01
309.77	0.05
309.982	0.02
310.194	0.01
310.406	-0.03
310.617	0.08
310.829	0.04
311.041	0.04
311.253	0.01
311.465	-0.02
311.677	-0.04
311.889	0.01
312.101	-0.03
312.313	0.05
312.524	0.06
312.736	-0.08
312.948	-0.01
313.16	0.06
313.372	0.06
313.583	0.02
313.795	-0.01
314.007	-0
314.218	0.06
314.43	0.02
314.642	-0.03
314.853	-0.01
315.065	0
315.277	-0
315.488	0.04
315.7	0.01
315.912	0.02
316.123	-0.04
316.335	-0.03
316.546	0.08
316.758	0.01
316.969	-0.04
317.181	0.03
317.392	0.01
317.604	0.05
317.815	-0.05
318.026	0
318.238	-0.02
318.449	0.03
318.661	-0.02
318.872	-0.07
319.083	-0.02
319.295	0.02
319.506	0.02
319.717	0.03
319.929	0.05
320.14	0.04
320.351	0.03
320.562	0.01
320.774	0.06
320.985	0.06
321.196	-0.07
321.407	-0.01
321.618	0.05
321.829	0.03
322.041	0.05
322.252	0.02
322.463	0.03
322.674	0.01
322.885	-0.02
323.096	0.01
323.307	0.02
323.518	0
323.729	-0.02
323.94	-0.04
324.151	0.01
324.362	0.02
324.573	0.01
324.784	-0.04
324.995	0.03
325.206	0.03
325.417	0.01
325.628	-0.03
325.838	0.02
326.049	0.04
326.26	0.02
326.471	0.05
326.682	0.02
326.892	0.05
327.103	-0.04
327.314	-0.06
327.525	0.03
327.735	0.01
327.946	0.03
328.157	-0.04
328.368	0
328.578	-0.03
328.789	0.02
328.999	0.03
329.21	-0.02
329.421	0.03
329.631	-0.03
329.842	-0.06
330.052	0.03
330.263	0.03
330.473	-0
330.684	-0.03
330.894	-0.05
331.105	0
331.315	-0.01
331.526	-0.04
331.736	0.08
331.947	0.02
332.157	0.03
332.367	0.01
332.578	0.06
332.788	0.03
332.999	0.02
333.209	0.02
333.419	-0.05
333.629	0.02
333.84	0.01
334.05	-0.02
334.26	0.03
334.47	0.05
334.681	0.02
334.891	-0.06
335.101	0.06
335.311	0.06
335.521	0.01
335.732	-0.06
335.942	0.06
336.152	0.02
336.362	0.01
336.572	0.02
336.782	-0.03
336.992	0.02
337.202	-0.02
337.412	-0.03
337.622	0.02
337.832	0.01
338.042	-0.05
338.252	-0.02
338.462	-0.01
338.672	0.03
338.882	-0.04
339.092	0.01
339.302	0.05
339.511	0.01
339.721	-0.01
339.931	-0.04
340.141	-0.02
340.351	0.05
340.561	0.01
340.77	-0.01
340.98	0.04
341.19	0.04
341.4	-0.06
341.609	-0.02
341.819	0.02
342.029	-0.05
342.238	0.02
342.448	-0.02
342.658	0.02
342.867	0.04
343.077	0.01
343.286	0.03
343.496	0.02
343.706	0.04
343.915	-0.02
344.125	-0.01
344.334	0.03
344.544	-0.06
344.753	0.02
344.963	0.04
345.172	-0.03
345.381	-0.03
345.591	-0.03
345.8	-0
346.01	0.06
346.219	0.03
346.428	-0.16
346.638	-0.04
346.847	0.01
347.056	0.07
347.266	-0.04
347.475	-0.01
347.684	0.03
347.893	0.03
348.103	0.02
348.312	-0
348.521	-0.02
348.73	-0.01
348.94	0.02
349.149	0
349.358	-0.02
349.567	0
349.776	-0.06
349.985	-0
350.194	0.02
350.403	0.05
350.612	-0.02
350.821	-0.04
351.03	0.01
351.239	0
351.448	-0
351.657	-0.03
351.866	0.05
352.075	-0
352.284	0.06
352.493	-0.05
352.702	0.05
352.911	0.07
353.12	0.04
353.329	-0.01
353.538	0.05
353.746	-0
353.955	-0.02
354.164	0.02
354.373	-0.01
354.582	0.01
354.79	0.03
354.999	0.01
355.208	-0.04
355.416	0.05
355.625	-0.04
355.834	0
356.042	0.03
356.251	-0.02
356.46	-0.03
356.668	0.05
356.877	0.09
357.085	0.03
357.294	-0.07
357.503	0.05
357.711	-0.01
357.92	0.16
358.128	0.04
358.337	-0.03
358.545	-0.01
358.754	0
358.962	0.03
359.17	0.01
359.379	-0.01
359.587	0.06
359.796	0.01
360.004	0.08
360.212	0.01
360.421	0.04
360.629	-0.01
360.837	0.01
361.046	0.04
361.254	0.09
361.462	-0.02
361.67	-0
361.879	0.02
362.087	0.07
362.295	0.01
362.503	-0.01
362.711	-0.03
362.92	-0.03
363.128	-0.05
363.336	-0.01
363.544	-0.05
363.752	-0.03
363.96	0
364.168	-0.04
364.376	0.01
364.584	0.05
364.792	0.02
365	-0
365.208	0.01
365.416	0.01
365.624	0.05
365.832	-0.02
366.04	0.04
366.248	-0.01
366.456	0.02
366.664	0.02
366.872	0
367.079	-0
367.287	0.02
367.495	0.01
367.703	0.02
367.911	-0.03
368.118	-0.02
368.326	0.01
368.534	-0.03
368.742	0.06
368.949	-0.01
369.157	-0.04
369.365	0.04
369.572	-0.05
369.78	-0.04
369.988	0.04
370.195	0.02
370.403	0.01
370.61	-0.04
370.818	0.04
371.026	0.05
371.233	-0.06
371.441	0
371.648	-0.01
371.856	0.03
372.063	0.05
372.271	-0.04
372.478	-0.01
372.685	-0.06
372.893	0.03
373.1	0.02
373.308	-0.02
373.515	0.05
373.722	0.08
373.93	-0.02
374.137	0.04
374.344	0.07
374.552	0.05
374.759	0.05
374.966	-0.01
375.173	-0.01
375.381	0.07
375.588	0.01
375.795	-0.07
376.002	-0.01
376.209	-0.04
376.417	-0.06
376.624	0.06
376.831	0.03
377.038	-0.02
377.245	-0.05
377.452	-0
377.659	0.01
377.866	0.01
378.073	-0
378.28	-0
378.487	0.02
378.694	0.04
378.901	0
379.108	0
379.315	0.03
379.522	0.07
379.729	-0
379.936	-0.01
380.143	0
380.35	0.03
380.557	-0.02
380.763	0.05
380.97	0.02
381.177	-0
381.384	-0
381.591	-0
381.797	0.01
382.004	0.02
382.211	0.02
382.418	-0
382.624	0.04
382.831	0.05
383.038	-0.05
383.244	0.01
383.451	-0.04
383.658	0.07
383.864	0.03
384.071	-0.01
384.277	0.04
384.484	-0.04
384.69	0.03
384.897	-0.01
385.103	0.01
385.31	-0.06
385.516	-0.01
385.723	-0.04
385.929	-0.01
386.136	-0.01
386.342	0.04
386.549	-0
386.755	0.06
386.961	-0.01
387.168	-0
387.374	-0
387.58	0.04
387.787	0
387.993	0.01
388.199	0
388.406	-0.03
388.612	-0
388.818	-0.03
389.024	-0.02
389.231	-0.02
389.437	0.03
389.643	0.01
389.849	-0.01
390.055	0.04
390.261	-0
390.467	0
390.674	-0.03
390.88	-0.05
391.086	0.01
391.292	-0.03
391.498	0.02
391.704	0.02
391.91	-0.01
392.116	-0.05
392.322	-0.11
392.528	-0
392.734	-0.04
392.94	-0.02
393.146	0
393.352	-0.01
393.557	-0.02
393.763	-0
393.969	0.02
394.175	-0.03
394.381	0.03
394.587	-0.03
394.792	-0.02
394.998	0.02
395.204	0.06
395.41	0
395.615	0.03
395.821	0.01
396.027	0.03
396.233	-0.04
396.438	0.01
396.644	0.08
396.85	0.02
397.055	-0.01
397.261	0.02
397.466	0.06
397.672	0.01
397.878	0.05
398.083	-0.03
398.289	0
398.494	-0.01
398.7	-0.01
398.905	-0.05
399.111	0.07
399.316	-0.03
399.522	0.03
399.727	0.04
399.932	-0.04
400.138	0.01
400.343	0.07
400.549	-0.01
400.754	-0
400.959	0.01
401.165	0.03
401.37	0.01
401.575	0.03
401.78	0.04
401.986	0.04
402.191	0
402.396	0
402.601	0
402.807	0.02
403.012	0.01
403.217	-0
403.422	-0.03
403.627	-0
403.832	-0.05
404.037	0.04
404.243	0.02
404.448	-0.02
404.653	-0.01
404.858	0.04
405.063	0.05
405.268	-0.02
405.473	-0.04
405.678	-0.02
405.883	0.12
406.088	0.03
406.293	-0.08
406.498	-0.02
406.703	-0.01
406.907	0.03
407.112	-0.05
407.317	-0.04
407.522	0.01
407.727	-0.02
407.932	0.03
408.136	0.03
408.341	-0.01
408.546	-0.02
408.751	0.03
408.956	-0.04
409.16	0.01
409.365	0.06
409.57	-0.04
409.774	0.01
409.979	0.03
410.184	0.02
410.388	-0.02
410.593	0.03
410.798	0.01
411.002	0.01
411.207	0.03
411.411	0.01
411.616	-0.05
411.82	0.02
412.025	0.05
412.229	-0.05
412.434	0.04
412.638	-0.01
412.843	0.02
413.047	0.03
413.252	0.02
413.456	-0.04
413.66	0.02
413.865	-0.05
414.069	0.1
414.273	-0.08
414.478	-0.02
414.682	-0.02
414.886	-0.01
415.091	-0.01
415.295	-0.05
415.499	0
415.703	-0.01
415.908	0.06
416.112	-0.09
416.316	0.04
416.52	-0.05
416.724	-0.08
416.929	0.01
417.133	0.1
417.337	0.02
417.541	-0.05
417.745	-0
417.949	0.02
418.153	0.07
418.357	-0.02
418.561	0.05
418.765	-0.01
418.969	0.08
419.173	0.06
419.377	-0.04
419.581	0.06
419.785	0.01
419.989	-0.05
420.193	-0.04
420.397	-0.04
420.601	0.04
420.804	0.06
421.008	-0
421.212	0.02
421.416	0.05
421.62	-0.01
421.823	-0.02
422.027	0.06
422.231	0.01
422.435	-0.04
422.638	0.05
422.842	-0.01
423.046	-0.05
423.249	0.01
423.453	0.05
423.657	0.04
423.86	-0.02
424.064	-0.04
424.268	0.07
424.471	0
424.675	0.09
424.878	0.07
425.082	0.03
425.285	0.01
425.489	-0.02
425.692	0.03
425.896	-0.06
426.099	0.04
426.303	-0.04
426.506	-0.04
426.71	0.05
426.913	0.05
427.116	0.03
427.32	-0
427.523	-0
427.726	0.08
427.93	-0.05
428.133	-0.02
428.336	-0.06
428.54	-0.05
428.743	-0.01
428.946	0.07
429.149	-0.03
429.353	0.04
429.556	0
429.759	0.03
429.962	0
430.165	-0.03
430.368	0.02
430.571	0
430.775	0.01
430.978	0.03
431.181	0
431.384	0
431.587	0.02
431.79	0.03
431.993	0.01
432.196	0.01
432.399	-0
432.602	0.1
432.805	-0.01
433.008	0.02
433.211	-0.07
433.414	0.04
433.616	0.05
433.819	-0.01
434.022	-0.08
434.225	0.02
434.428	0.05
434.631	0.07
434.833	0.03
435.036	0
435.239	0.05
435.442	0.01
435.645	0.01
435.847	0.02
436.05	0.02
436.253	0.02
436.455	-0.09
436.658	0.01
436.861	0.07
437.063	-0.04
437.266	-0.05
437.468	-0.04
437.671	0.12
437.874	-0.01
438.076	-0.05
438.279	-0.05
438.481	-0.02
438.684	-0.04
438.886	0.03
439.089	-0.07
439.291	-0.06
439.494	0.02
439.696	-0.08
439.899	-0.03
440.101	0.03
440.303	-0.1
440.506	0.02
440.708	-0.01
440.91	0.04
441.113	-0.04
441.315	0.02
441.517	-0.09
441.72	0.04
441.922	-0.07
442.124	-0.02
442.326	0.03
442.529	0.07
442.731	-0.04
442.933	0.09
443.135	-0.06
443.337	-0.07
443.539	0.05
443.742	0.02
443.944	-0.02
444.146	-0.02
444.348	0.02
444.55	0.03
444.752	0.02
444.954	-0.05
445.156	0.02
445.358	-0.01
445.56	0.01
445.762	0
445.964	-0.05
446.166	-0.03
446.368	-0.05
446.57	0.02
446.772	0.01
446.974	-0.04
447.175	0.01
447.377	-0.06
447.579	0
447.781	-0.03
447.983	0.08
448.184	-0.02
448.386	-0.01
448.588	-0.05
448.79	-0.02
448.991	-0.02
449.193	-0.01
449.395	-0.02
449.597	0.03
449.798	-0.02
450	0.01
450.202	0.02
450.403	-0.01
450.605	0.03
450.806	-0.01
451.008	-0.06
451.21	0.01
451.411	0.05
451.613	-0.03
451.814	-0.02
452.016	0.01
452.217	-0.01
452.419	0.03
452.62	-0.01
452.821	0.01
453.023	0.05
453.224	0.06
453.426	0
453.627	0.05
453.828	0.06
454.03	-0.03
454.231	0.01
454.432	-0.03
454.634	0.06
454.835	0
455.036	-0.02
455.238	0.01
455.439	0.04
455.64	-0.08
455.841	-0
456.042	0.1
456.244	0.02
456.445	-0.03
456.646	-0.05
456.847	-0.02
457.048	0.01
457.249	0.03
457.45	0.15
457.651	-0.07
457.852	0.02
458.054	-0.02
458.255	-0.01
458.456	0.04
458.657	0.01
458.858	-0.05
459.058	-0.01
459.259	0.05
459.46	-0.03
459.661	-0
459.862	0.11
460.063	-0.04
460.264	0.03
460.465	-0.04
460.666	0.13
460.866	-0.05
461.067	-0
461.268	0.05
461.469	-0.03
461.67	0.01
461.87	0.01
462.071	-0.03
462.272	-0.09
462.473	-0.01
462.673	-0.01
462.874	-0.05
463.075	-0.03
463.275	-0.06
463.476	0.02
463.676	-0.01
463.877	0.04
464.078	-0.03
464.278	0.02
464.479	-0.01
464.679	0.01
464.88	0.02
465.08	0.06
465.281	-0.04
465.481	0
465.682	-0.02
465.882	0.01
466.083	0.01
466.283	0.01
466.483	0.01
466.684	-0.05
466.884	0
467.085	-0.01
467.285	0.02
467.485	-0.01
467.686	0
467.886	-0.07
468.086	-0
468.286	-0
468.487	0.03
468.687	-0.03
468.887	-0.01
469.087	0.02
469.287	-0
469.488	-0.05
469.688	-0
469.888	0.06
470.088	0.02
470.288	0.07
470.488	0.01
470.688	-0.03
470.888	-0.02
471.088	-0.02
471.288	0.04
471.488	0.04
471.688	0.02
471.888	-0.03
472.088	0.05
472.288	0.06
472.488	-0.02
472.688	-0.04
472.888	-0.01
473.088	-0
473.288	-0.02
473.488	0.02
473.688	0.04
473.887	-0
474.087	-0.04
474.287	0.04
474.487	-0.01
474.687	0.01
474.886	-0.02
475.086	-0.02
475.286	0.02
475.486	0.06
475.685	-0.01
475.885	-0.01
476.085	0
476.284	0.02
476.484	-0.03
476.684	0.03
476.883	0.07
477.083	0.02
477.282	-0
477.482	0.05
477.681	0.06
477.881	0.02
478.08	-0.01
478.28	-0.01
478.479	0.03
478.679	0.07
478.878	-0.02
479.078	0.01
479.277	-0.02
479.477	0
479.676	0
479.875	0.01
480.075	-0.06
480.274	0.02
480.473	0.01
480.673	-0.03
480.872	0.04
481.071	0.03
481.271	0.01
481.47	-0.02
481.669	-0.02
481.868	-0.03
482.067	-0.01
482.267	-0.02
482.466	-0.02
482.665	-0.01
482.864	-0.03
483.063	-0.01
483.262	0.06
483.461	0.03
483.661	0.02
483.86	-0.02
484.059	-0.01
484.258	0.01
484.457	-0.01
484.656	0.02
484.855	0.02
485.054	-0.05
485.253	-0.03
485.452	-0
485.651	0.01
485.849	-0.02
486.048	-0.02
486.247	-0.03
486.446	-0.02
486.645	-0.04
486.844	-0.04
487.043	0.01
487.241	0.02
487.44	-0.02
487.639	0.01
487.838	0.01
488.037	0.02
488.235	0.05
488.434	-0.01
488.633	-0
488.831	0
489.03	0.01
489.229	-0.02
489.427	0.01
489.626	0.04
489.825	0.04
490.023	-0
490.222	-0.01
490.42	0.03
490.619	0.01
490.817	-0.01
491.016	-0
491.214	0.03
491.413	-0.01
491.611	-0.01
491.81	-0
492.008	0.01
492.207	0.03
492.405	0.01
492.604	-0.03
492.802	-0.01
493	-0.01
493.199	-0.02
493.397	-0
493.595	0.02
493.794	-0
493.992	0.05
494.19	-0.01
494.388	0.02
494.587	-0.02
494.785	-0
494.983	-0.01
495.181	0.03
495.379	0
495.578	-0.01
495.776	0.01
495.974	-0
496.172	-0.01
496.37	-0.02
496.568	-0.02
496.766	-0.02
496.964	0.02
497.162	0.01
497.36	-0.03
497.558	0.02
497.756	0.04
497.954	0.01
498.152	-0.02
498.35	-0.03
498.548	-0.02
498.746	0
498.944	-0.02
499.142	-0.02
499.34	-0.03
499.538	-0.02
499.736	0
499.933	0.03
500.131	0.05
500.329	0.01
500.527	0.02
500.725	0.02
500.922	0.01
501.12	0.01
501.318	0.01
501.516	-0.01
501.713	0.02
501.911	-0.01
502.109	-0.03
502.306	0.02
502.504	-0
502.701	-0.01
502.899	0.01
503.097	0.05
503.294	-0.01
503.492	-0.01
503.689	0
503.887	0.02
504.084	0.06
504.282	0.02
504.479	-0.02
504.677	0
504.874	-0.02
505.072	-0.01
505.269	-0.01
505.466	0.02
505.664	-0
505.861	-0.03
506.059	-0.04
506.256	-0
506.453	-0.01
506.651	0.03
506.848	0.02
507.045	-0
507.242	0.03
507.44	-0.01
507.637	-0.01
507.834	0
508.031	0.02
508.229	-0.02
508.426	0.01
508.623	0.01
508.82	-0.01
509.017	-0.01
509.214	-0.02
509.411	-0
509.608	-0.01
509.805	0
510.003	-0.01
510.2	-0
510.397	0.02
510.594	0
510.791	-0.02
510.988	-0.02
511.184	0.01
511.381	0.01
511.578	-0.01
511.775	0.03
511.972	-0.01
512.169	-0.02
512.366	-0
512.563	0.02
512.76	-0.01
512.956	-0.01
513.153	-0.01
513.35	0.01
513.547	-0.01
513.744	-0.01
513.94	-0.03
514.137	0
514.334	0.01
514.53	-0
514.727	0
514.924	0.06
515.12	-0.03
515.317	-0.03
515.514	-0
515.71	-0.05
515.907	-0.01
516.103	0.01
516.3	0.03
516.497	0.05
516.693	0.04
516.89	-0.01
517.086	-0.02
517.283	0.03
517.479	0.01
517.676	0.01
517.872	0.01
518.068	-0.03
518.265	-0.03
518.461	-0.03
518.658	-0.01
518.854	0.02
519.05	-0
519.247	-0.02
519.443	0
519.639	-0.01
519.836	-0
520.032	-0.01
520.228	0.01
520.424	0.06
520.621	0.02
520.817	0.02
521.013	0
521.209	0.01
521.405	0.03
521.601	0.02
521.798	0.01
521.994	0.04
522.19	-0.01
522.386	-0.01
522.582	-0.01
522.778	-0
522.974	-0
523.17	0
523.366	-0
523.562	0.02
523.758	0.01
523.954	-0.02
524.15	-0.01
524.346	-0
524.542	-0.01
524.738	-0.01
524.934	-0
525.129	-0
525.325	-0
525.521	-0
525.717	0.04
525.913	-0.01
526.109	0.01
526.304	0.01
526.5	0.02
526.696	0.02
526.892	0
527.087	0.01
527.283	-0.02
527.479	0
527.674	-0.01
527.87	-0.01
528.066	0.01
528.261	0.01
528.457	-0
528.653	-0.01
528.848	-0.02
529.044	0
529.239	0
529.435	0.03
529.63	0.01
529.826	0.04
530.021	-0.02
530.217	0.01
530.412	-0.01
530.608	-0
530.803	0
530.999	-0.01
531.194	-0.06
531.389	0
531.585	-0.05
531.78	-0.01
531.975	-0.02
532.171	0.01
532.366	0
532.561	0.01
532.757	0
532.952	0.01
533.147	0.02
533.342	0.01
533.538	0
533.733	0.03
533.928	-0.01
534.123	-0.02
534.318	-0.04
534.513	0.01
534.709	0.02
534.904	0
535.099	0.02
535.294	-0.02
535.489	0.01
535.684	0
535.879	-0.03
536.074	-0.01
536.269	-0.04
536.464	0
536.659	-0.01
536.854	-0
537.049	-0
537.244	0.02
537.439	-0.01
537.634	0.04
537.828	0.01
538.023	-0.01
538.218	-0.03
538.413	0.02
538.608	-0.05
538.803	0.03
538.997	-0.04
539.192	0.04
539.387	0.02
539.582	0.01
539.776	0.03
539.971	-0.01
540.166	-0.01
540.36	-0.01
540.555	0.03
540.75	-0
540.944	0
541.139	-0.03
541.334	-0.01
541.528	0.02
541.723	0.03
541.917	-0.03
542.112	-0.03
542.306	0.01
542.501	-0.01
542.695	0.01
542.89	-0.01
543.084	0.01
543.279	0
543.473	0
543.668	-0.01
543.862	-0.01
544.056	0.03
544.251	0
544.445	0.01
544.64	-0.01
544.834	-0.01
545.028	0.02
545.222	0.03
545.417	0.02
545.611	0.01
545.805	0
546	-0.02
546.194	-0.01
546.388	-0.01
546.582	0.03
546.776	0.01
546.97	0.01
547.165	0.03
547.359	0.02
547.553	-0.03
547.747	0.02
547.941	0.01
548.135	0
548.329	0.01
548.523	0.04
548.717	0
548.911	0.01
549.105	-0
549.299	0.02
549.493	0.03
549.687	0.02
549.881	0.01
550.075	-0
550.269	-0.02
550.463	0.04
550.657	-0.01
550.85	-0.01
551.044	-0
551.238	0.02
551.432	-0.03
551.626	0
551.82	0
552.013	-0
552.207	0.01
552.401	0.04
552.594	0.02
552.788	0.01
552.982	0.04
553.176	-0.01
553.369	0.01
553.563	0.02
553.756	-0.02
553.95	-0.03
554.144	0.02
554.337	0.04
554.531	-0.01
554.724	0.01
554.918	-0
555.111	0.02
555.305	-0.01
555.498	0.04
555.692	0.04
555.885	0.01
556.079	-0.01
556.272	-0.01
556.466	0.03
556.659	0.02
556.852	0.01
557.046	-0.02
557.239	0.03
557.432	-0.04
557.626	0
557.819	0.01
558.012	0.02
558.206	0.04
558.399	0.01
558.592	0.01
558.785	-0.02
558.979	0.04
559.172	0.01
559.365	0.03
559.558	0.01
559.751	-0.01
559.944	0.03
560.138	0.01
560.331	-0.01
560.524	-0.01
560.717	0.04
560.91	0.02
561.103	0.02
561.296	0
561.489	0.03
561.682	0.01
561.875	0.04
562.068	0
562.261	0.01
562.454	0.05
562.647	0.02
562.84	0.02
563.032	-0.01
563.225	0.02
563.418	0.02
563.611	-0
563.804	0
563.997	-0.01
564.19	-0.03
564.382	-0.05
564.575	0.01
564.768	-0
564.961	0.01
565.153	-0.01
565.346	0.01
565.539	0.05
565.731	0.05
565.924	0.03
566.117	0.03
566.309	0.01
566.502	0.01
566.695	0.01
566.887	0.03
567.08	-0.01
567.272	-0.01
567.465	0
567.657	0.02
567.85	0.02
568.042	0
568.235	0.04
568.427	0.01
568.62	0.01
568.812	0.05
569.005	0.03
569.197	-0.01
569.389	-0
569.582	0.03
569.774	0.04
569.966	-0.01
570.159	0.01
570.351	0.03
570.543	-0.01
570.736	0.03
570.928	0.02
571.12	0.01
571.312	0.02
571.505	-0
571.697	0.06
571.889	-0.01
572.081	0.02
572.273	0.01
572.465	0.04
572.658	0.03
572.85	0.03
573.042	0.01
573.234	0.04
573.426	0.05
573.618	0
573.81	0.04
574.002	0.05
574.194	0.07
574.386	-0.02
574.578	-0.02
574.77	-0
574.962	0.06
575.154	-0.02
575.346	0.03
575.538	0.05
575.729	0.02
575.921	0.03
576.113	0.02
576.305	0.06
576.497	0.02
576.689	0.05
576.88	0.02
577.072	0.06
577.264	0.03
577.456	0.05
577.647	-0.03
577.839	0.03
578.031	0.08
578.223	0.01
578.414	0.03
578.606	0.06
578.798	0.03
578.989	0.05
579.181	0.07
579.372	0.08
579.564	0.06
579.755	0.07
579.947	0.06
580.139	0.08
580.33	0.03
580.522	0.05
580.713	-0.01
580.905	0.07
581.096	0.1
581.287	0.08
581.479	0.09
581.67	0.07
581.862	0.1
582.053	0.06
582.244	0.04
582.436	0.06
582.627	0.07
582.818	0.1
583.01	0.04
583.201	0.12
583.392	0.12
583.583	0.09
583.775	0.09
583.966	0.08
584.157	0.1
584.348	0.09
584.54	0.07
584.731	0.13
584.922	0.08
585.113	0.09
585.304	0.14
585.495	0.16
585.686	0.13
585.877	0.16
586.068	0.13
586.259	0.15
586.45	0.15
586.641	0.13
586.832	0.1
587.023	0.16
587.214	0.15
587.405	0.18
587.596	0.15
587.787	0.18
587.978	0.2
588.169	0.13
588.36	0.15
588.551	0.18
588.742	0.13
588.932	0.2
589.123	0.18
589.314	0.24
589.505	0.22
589.696	0.2
589.886	0.17
590.077	0.16
590.268	0.2
590.458	0.16
590.649	0.17
590.84	0.24
591.03	0.2
591.221	0.18
591.412	0.19
591.602	0.26
591.793	0.24
591.984	0.22
592.174	0.24
592.365	0.33
592.555	0.24
592.746	0.29
592.936	0.32
593.127	0.3
593.317	0.32
593.508	0.29
593.698	0.3
593.889	0.31
594.079	0.32
594.269	0.29
594.46	0.31
594.65	0.33
594.84	0.33
595.031	0.34
595.221	0.35
595.411	0.3
595.602	0.4
595.792	0.36
595.982	0.36
596.172	0.43
596.363	0.41
596.553	0.41
596.743	0.43
596.933	0.42
597.123	0.46
597.314	0.41
597.504	0.42
597.694	0.5
597.884	0.47
598.074	0.47
598.264	0.46
598.454	0.49
598.644	0.48
598.834	0.52
599.024	0.46
599.214	0.51
599.404	0.57
599.594	0.56
599.784	0.53
599.974	0.61
600.164	0.61
600.354	0.59
600.544	0.57
600.734	0.63
600.924	0.65
601.114	0.59
601.303	0.65
601.493	0.66
601.683	0.68
601.873	0.71
602.063	0.67
602.252	0.75
602.442	0.68
602.632	0.69
602.821	0.73
603.011	0.78
603.201	0.79
603.39	0.76
603.58	0.72
603.77	0.84
603.959	0.85
604.149	0.86
604.339	0.88
604.528	0.91
604.718	0.89
604.907	0.92
605.097	0.9
605.286	0.93
605.476	0.96
605.665	0.97
605.855	0.99
606.044	0.99
606.234	1.03
606.423	1
606.612	1
606.802	1.1
606.991	1.08
607.181	1.1
607.37	1.09
607.559	1.13
607.749	1.14
607.938	1.23
608.127	1.21
608.316	1.22
608.506	1.23
608.695	1.27
608.884	1.21
609.073	1.31
609.263	1.36
609.452	1.4
609.641	1.34
609.83	1.34
610.019	1.42
610.208	1.43
610.397	1.44
610.586	1.52
610.775	1.49
610.965	1.51
611.154	1.51
611.343	1.59
611.532	1.59
611.721	1.62
611.91	1.65
612.099	1.69
612.287	1.68
612.476	1.71
612.665	1.81
612.854	1.8
613.043	1.88
613.232	1.85
613.421	1.83
613.61	1.93
613.798	1.91
613.987	2.02
614.176	2.06
614.365	2.09
614.554	2.14
614.742	2.18
614.931	2.15
615.12	2.27
615.309	2.26
615.497	2.3
615.686	2.29
615.875	2.38
616.063	2.41
616.252	2.48
616.44	2.54
616.629	2.55
616.818	2.61
617.006	2.67
617.195	2.7
617.383	2.71
617.572	2.77
617.76	2.81
617.949	2.9
618.137	3.02
618.326	2.98
618.514	2.92
618.703	3.06
618.891	3.14
619.079	3.1
619.268	3.31
619.456	3.24
619.644	3.35
619.833	3.36
620.021	3.43
620.209	3.39
620.398	3.57
620.586	3.54
620.774	3.69
620.962	3.73
621.151	3.85
621.339	3.82
621.527	3.83
621.715	3.94
621.903	3.99
622.092	3.99
622.28	4.17
622.468	4.05
622.656	4.2
622.844	4.21
623.032	4.29
623.22	4.27
623.408	4.43
623.596	4.47
623.784	4.55
623.972	4.49
624.16	4.51
624.348	4.68
624.536	4.79
624.724	4.65
624.912	4.8
625.1	4.84
625.288	4.87
625.476	4.83
625.664	5.04
625.851	4.94
626.039	4.97
626.227	4.99
626.415	5.03
626.603	5.02
626.79	5.06
626.978	5.13
627.166	5.09
627.354	5.04
627.541	5.06
627.729	4.98
627.917	5.22
628.104	5.11
628.292	4.99
628.48	5.14
628.667	5.02
628.855	5.13
629.042	5.16
629.23	5.06
629.418	4.95
629.605	4.96
629.793	4.85
629.98	4.89
630.168	4.79
630.355	4.83
630.543	4.74
630.73	4.64
630.917	4.49
631.105	4.61
631.292	4.51
631.48	4.47
631.667	4.4
631.854	4.2
632.042	4.17
632.229	4.02
632.416	4.08
632.604	3.96
632.791	3.68
632.978	3.72
633.165	3.63
633.353	3.6
633.54	3.56
633.727	3.34
633.914	3.31
634.101	3.16
634.289	3.17
634.476	3
634.663	2.91
634.85	2.84
635.037	2.8
635.224	2.65
635.411	2.65
635.598	2.55
635.785	2.43
635.972	2.38
636.159	2.32
636.346	2.18
636.533	2.12
636.72	2.11
636.907	2
637.094	1.91
637.281	1.83
637.468	1.88
637.655	1.7
637.842	1.71
638.029	1.64
638.215	1.56
638.402	1.53
638.589	1.42
638.776	1.39
638.963	1.31
639.149	1.38
639.336	1.32
639.523	1.24
639.709	1.19
639.896	1.13
640.083	1.14
640.27	1.1
640.456	1.03
640.643	1.03
640.829	0.93
641.016	0.94
641.203	0.86
641.389	0.92
641.576	0.88
641.762	0.83
641.949	0.74
642.135	0.76
642.322	0.77
642.508	0.65
642.695	0.69
642.881	0.64
643.068	0.63
643.254	0.61
643.441	0.63
643.627	0.61
643.813	0.53
644	0.6
644.186	0.49
644.372	0.51
644.559	0.53
644.745	0.51
644.931	0.45
645.118	0.47
645.304	0.42
645.49	0.42
645.676	0.39
645.862	0.37
646.049	0.41
646.235	0.37
646.421	0.42
646.607	0.41
646.793	0.29
646.979	0.31
647.165	0.35
647.352	0.31
647.538	0.33
647.724	0.27
647.91	0.27
648.096	0.32
648.282	0.26
648.468	0.24
648.654	0.27
648.84	0.24
649.026	0.27
649.212	0.23
649.397	0.19
649.583	0.21
649.769	0.24
649.955	0.18
650.141	0.2
650.327	0.29
650.513	0.15
650.698	0.19
650.884	0.1
651.07	0.18
651.256	0.16
651.442	0.14
651.627	0.18
651.813	0.19
651.999	0.14
652.184	0.14
652.37	0.11
652.556	0.12
652.741	0.16
652.927	0.03
653.113	0.12
653.298	0.12
653.484	0.1
653.669	0.03
653.855	0.1
654.04	0.13
654.226	0.16
654.412	0.08
654.597	0.08
654.782	0.13
654.968	0.11
655.153	0.09
655.339	0.06
655.524	0.04
655.71	0.1
655.895	0.08
656.08	0.1
656.266	0.08
656.451	0.1
656.636	0.05
656.822	0.06
657.007	0.06
657.192	0
657.378	0.03
657.563	0.07
657.748	0.11
657.933	0.08
658.118	0.05
658.304	0.05
658.489	0.06
658.674	0.08
658.859	0.03
659.044	0.07
659.229	0.07
659.414	0.03
659.599	0.05
659.785	-0
659.97	0.09
660.155	0.08
660.34	0.07
660.525	0.03
660.71	0.04
660.895	0.08
661.08	0.04
661.264	0.06
661.449	0.07
661.634	0.09
661.819	0.06
662.004	0.08
662.189	-0.01
662.374	0.01
662.559	-0
662.743	-0.03
662.928	0.02
663.113	0.03
663.298	-0.02
663.483	0.02
663.667	0.04
663.852	-0.03
664.037	0.07
664.221	-0.01
664.406	0.05
664.591	0.03
664.775	0.04
664.96	0.03
665.145	0.06
665.329	0.03
665.514	-0.01
665.698	0.04
665.883	-0.03
666.068	0.06
666.252	0.03
666.437	-0.05
666.621	0.03
666.806	0.05
666.99	0.01
667.174	-0.04
667.359	0.11
667.543	0.01
667.728	0.02
667.912	-0.04
668.096	0.08
668.281	0
668.465	0.02
668.649	0.01
668.834	-0.06
669.018	-0.01
669.202	0.02
669.387	-0.04
669.571	0.04
669.755	0.01
669.939	0
670.124	0
670.308	0.04
670.492	0.05
670.676	0.05
670.86	0.01
671.044	-0.06
671.228	0.06
671.413	-0.03
671.597	0.01
671.781	-0.02
671.965	0.02
672.149	0.04
672.333	0.03
672.517	-0.01
672.701	0.03
672.885	-0.04
673.069	-0.05
673.253	0.04
673.437	0.01
673.621	-0.02
673.804	-0.01
673.988	-0.03
674.172	-0
674.356	0.05
674.54	0
674.724	0.1
674.908	-0.02
675.091	0.06
675.275	-0.02
675.459	0.09
675.643	0.08
675.826	0.06
676.01	0.01
676.194	0.02
676.377	0.01
676.561	0.07
676.745	0.04
676.928	0.03
677.112	0.06
677.296	-0.03
677.479	0.02
677.663	-0
677.846	0.06
678.03	0.01
678.213	0.01
678.397	0.06
678.58	-0
678.764	0.02
678.947	-0.03
679.131	-0.03
679.314	0.07
679.498	-0.01
679.681	0.07
679.865	0.1
680.048	0.02
680.231	-0
680.415	0.02
680.598	-0
680.781	0.03
680.965	0.01
681.148	0.03
681.331	0.03
681.514	0.05
681.698	-0.01
681.881	0.01
682.064	0.01
682.247	0.01
682.43	-0.06
682.614	0.05
682.797	0.08
682.98	0.1
683.163	-0.02
683.346	0.08
683.529	0.01
683.712	-0.04
683.895	0.03
684.078	-0.03
684.261	-0.03
684.444	0.02
684.627	0.02
684.81	-0.03
684.993	0.05
685.176	-0
685.359	-0.06
685.542	-0.02
685.725	0.06
685.908	0.02
686.091	-0.01
686.274	0.02
686.457	0
686.639	-0.02
686.822	0.04
687.005	-0.04
687.188	-0.03
687.371	0.1
687.553	0.02
687.736	0
687.919	0.1
688.102	0.05
688.284	-0.03
688.467	0.02
688.65	-0.01
688.832	-0.03
689.015	0.01
689.197	-0
689.38	0.07
689.563	0.09
689.745	-0.03
689.928	-0.02
690.11	-0.02
690.293	0.02
690.475	-0.05
690.658	0.04
690.84	-0.03
691.023	0.06
691.205	-0.02
691.388	0.01
691.57	0.07
691.752	0.01
691.935	-0.05
692.117	-0.02
692.3	0.02
692.482	-0.02
692.664	-0
692.847	0.05
693.029	0.05
693.211	0.05
693.393	0.01
693.576	-0.01
693.758	-0.03
693.94	-0.05
694.122	-0.02
694.304	-0
694.487	-0.02
694.669	0.11
694.851	-0.01
695.033	0
695.215	0.01
695.397	-0.07
695.579	0.02
695.761	-0.01
695.943	-0.08
696.125	0.1
696.308	0.07
696.49	-0.07
696.671	0.12
696.853	0.01
697.035	0.08
697.217	0.02
697.399	0.04
697.581	-0.04
697.763	0.03
697.945	-0.06
698.127	-0.01
698.309	0.04
698.491	0.04
698.672	0.07
698.854	0.02
699.036	0.06
699.218	-0.03
699.399	0.04
699.581	0.06
699.763	-0.01
699.945	-0.02
700.126	-0.03
700.308	0.07
700.49	-0.04
700.671	-0.04
700.853	-0.02
701.035	-0.03
701.216	0.04
701.398	-0
701.579	0
701.761	0.09
701.943	-0.01
702.124	-0.06
702.306	-0.02
702.487	0.13
702.669	-0.03
702.85	-0.01
703.031	-0.07
703.213	0.1
703.394	0.1
703.576	0.01
703.757	0.03
703.938	0.05
704.12	0.14
704.301	-0.02
704.483	-0.05
704.664	0.04
704.845	0.08
705.026	0.02
705.208	-0.07
705.389	-0.04
705.57	0.04
705.751	-0
705.933	-0.03
706.114	0.13
706.295	-0
706.476	-0.05
706.657	0.08
706.838	0.05
707.02	0.04
707.201	-0.02
707.382	-0.06
707.563	-0.01
707.744	0.01
707.925	-0.01
708.106	-0.07
708.287	-0.05
708.468	0.06
708.649	-0
708.83	0.04
709.011	-0.04
709.192	0.03
709.373	-0.06
709.554	-0.07
709.734	0.03
709.915	0.05
710.096	0
710.277	-0.12
710.458	0.07
710.639	0
710.819	-0.11
711	0.01
711.181	0.03
711.362	0.1
711.542	-0.07
711.723	-0.07
711.904	0.01
712.085	0.01
712.265	-0.02
712.446	-0.08
712.627	-0.01
712.807	-0.04
712.988	0.02
713.168	-0.13
713.349	-0.03
713.53	-0.15
713.71	-0.05
713.891	-0.11
714.071	-0.03
714.252	-0.04
714.432	-0.06
714.613	-0.13
714.793	0.02
714.974	0.13
715.154	0.09
715.334	0
715.515	-0
715.695	-0.03
715.876	-0.02
716.056	-0.03
716.236	0
716.417	-0.03
716.597	-0.03
716.777	0.16
716.957	-0.02
717.138	-0.08
717.318	0.04
717.498	0.03
717.678	0.02
717.859	0.01
718.039	-0.14
718.219	0.04
718.399	0.05
718.579	-0.09
718.759	-0.05
718.939	0.01
719.12	0.02
719.3	0
719.48	-0.06
719.66	-0.05
719.84	0.16
720.02	0.05
720.2	-0
720.38	-0.03
720.56	0.11
720.74	-0.04
720.92	-0.02
721.1	0.14
721.279	0.07
721.459	-0.03
721.639	-0.12
721.819	-0.02
721.999	0.02
722.179	-0
722.359	-0.09
722.538	-0.01
722.718	-0.05
722.898	0.02
723.078	0.02
723.257	0
723.437	0
723.617	0.02
723.797	0.02
723.976	-0.02
724.156	0.01
724.336	0.08
724.515	0.09
724.695	-0.05
724.874	-0.06
725.054	0.03
725.234	-0.04
725.413	-0.05
725.593	0.01
725.772	-0.04
725.952	0.03
726.131	0.02
726.311	-0.05
726.49	0
726.67	-0.07
726.849	-0.13
727.028	0.07
727.208	-0.05
727.387	0.03
727.567	-0.08
727.746	-0.02
727.925	-0.12
728.105	-0.12
728.284	-0.04
728.463	-0.14
728.643	0.05
728.822	-0.13
729.001	0.03
729.18	0.03
729.359	0
729.539	-0.02
729.718	0.02
729.897	0.02
730.076	-0.02
730.255	-0.06
730.434	0.01
730.614	-0.01
730.793	0.04
730.972	-0.05
731.151	-0.05
731.33	0.19
731.509	0.15
731.688	-0.02
731.867	0.01
732.046	-0.16
732.225	0.14
732.404	-0.03
732.583	-0.08
732.762	-0.05
732.941	0.04
733.12	0.03
733.298	0.04
733.477	-0.03
733.656	0.02
733.835	-0.14
734.014	0.07
734.193	0.02
734.371	0.08
734.55	0.04
734.729	-0.07
734.908	0.03
735.086	0.07
735.265	0.12
735.444	-0.11
735.623	-0.03
735.801	-0.01
735.98	0.11
736.159	0
736.337	0.05
736.516	0.06
736.694	0
736.873	-0.19
737.052	0.24
737.23	0.05
737.409	-0
737.587	0.14
737.766	-0.2
737.944	-0.06
738.123	-0.01
738.301	0.14
738.479	0.04
738.658	0.12
738.836	-0.19
739.015	-0.05
739.193	0.02
739.371	-0.12
739.55	0.07
739.728	-0.11
739.906	0.11
740.085	0.14
740.263	-0.11
740.441	-0.24
740.62	0.15
740.798	0.1
740.976	-0.08
741.154	-0.07
741.332	0.12
741.511	-0.02
741.689	0.01
741.867	0.06
742.045	-0.12
742.223	-0
742.401	-0.01
742.579	-0.01
742.757	0.08
742.935	-0.19
743.114	-0.01
743.292	0.03
743.47	0.03
743.648	-0.02
743.826	-0.07
744.004	0.03
744.181	0.14
744.359	-0.11
744.537	0.08
744.715	-0.03
744.893	0
745.071	0.07
745.249	-0.1
745.427	-0.07
745.605	0.04
745.782	-0.01
745.96	0.07
746.138	0.04
746.316	0.1
746.493	-0.1
746.671	0.07
746.849	0.06
747.027	0.12
747.204	-0.04
747.382	0.03
747.56	-0.11
747.737	-0.01
747.915	0.06
748.093	0.1
748.27	-0.06
748.448	-0.08
748.625	-0.13
748.803	-0.01
748.98	-0.03
749.158	-0.02
749.335	0.1
749.513	-0.02
749.69	-0.02
749.868	-0
750.045	-0.02
750.223	-0.04
750.4	-0.13
750.578	0.12
750.755	0.09
750.932	-0.18
751.11	0.08
751.287	-0.3
751.464	0.12
751.642	-0.04
751.819	0.02
751.996	-0.02
752.173	-0.01
752.351	-0.11
752.528	0.03
752.705	0.07
752.882	-0.11
753.06	0.05
753.237	0.1
753.414	0.11
753.591	0.14
753.768	0.02
753.945	0.04
754.122	-0.03
754.299	0.07
754.476	-0.07
754.654	0.05
754.831	0.16
755.008	0.06
755.185	-0.05
755.362	-0.09
755.539	-0.09
755.716	0
755.892	-0.14
756.069	-0.08
756.246	0.13
756.423	-0.03
756.6	0.24
756.777	-0.02
756.954	0.05
757.131	0
757.307	-0.09
757.484	-0.18
757.661	-0.12
757.838	0.05
758.015	-0.24
758.191	0.18
758.368	0.04
758.545	0.17
758.721	0.07
758.898	-0.08
759.075	0.11
759.251	0.08
759.428	0.09
759.605	-0.11
759.781	-0.02
759.958	0.11
760.134	0.06
760.311	-0.14
760.488	0.07
760.664	0.17
760.841	-0.13
761.017	-0.03
761.194	0.13
761.37	0.03
761.547	0.05
761.723	-0.05
761.899	0.07
762.076	-0.02
762.252	-0.21
762.429	-0.06
762.605	0.04
762.781	-0.03
762.958	0.05
763.134	-0.07
763.31	-0.06
763.486	-0.03
763.663	-0.1
763.839	0.03
764.015	-0.16
764.191	-0.14
764.368	-0.05
764.544	-0.08
764.72	-0.05
764.896	0.1
765.072	-0.04
765.248	0.01
765.425	-0.02
765.601	0.03
765.777	0.08
765.953	-0.21
766.129	-0.08
766.305	-0.08
766.481	0.14
766.657	-0.12
766.833	0.13
767.009	-0.23
767.185	-0
767.361	0.05
767.537	-0.13
767.713	0.13
767.889	-0.08
768.065	0.07
768.24	-0.07
768.416	0.03
768.592	-0.08
768.768	-0.13
768.944	-0.05
769.12	-0.07
769.295	-0.06
769.471	-0.01
769.647	0
769.823	0.07
769.998	-0.12
770.174	-0.05
770.35	0.31
770.525	0.28
770.701	0.1
770.877	0.02
771.052	0.07
771.228	0.11
771.403	-0
771.579	0.01
771.755	0.33
771.93	-0.14
772.106	-0.01
772.281	-0.24
772.457	0.03
772.632	0.02
772.808	-0
772.983	-0.1
773.159	-0.06
773.334	0.26
773.509	-0.09
773.685	-0.07
773.86	0.28
774.036	0.09
774.211	0.04
774.386	0.01
774.562	-0.1
774.737	-0
774.912	-0.11
775.087	0.07
775.263	-0.16
775.438	0.06
775.613	-0.04
775.788	0.05
775.964	0.11
776.139	0.29
776.314	-0.26
776.489	0.01
776.664	0.06
776.839	-0.09
777.014	0.06
777.19	0.01
777.365	0.23
777.54	0.24
777.715	-0.11
777.89	-0.05
778.065	-0.16
778.24	0.02
778.415	0.25
778.59	-0.08
778.765	-0.04
778.94	0.15
779.115	-0.03
779.289	-0.14
779.464	-0.04
779.639	0.06
779.814	-0.17
779.989	-0.2
780.164	0.32
780.339	-0.03
780.513	-0.01
780.688	-0.08
780.863	-0.09
781.038	0.18
781.212	-0.21
781.387	-0.19
781.562	0.32
781.737	-0.16
781.911	0.25
782.086	-0.16
782.261	0.02
782.435	0.2
782.61	-0.09
782.784	-0.1
782.959	0.22
783.134	-0.1
783.308	-0.36
783.483	-0.03
783.657	0.29
783.832	0.14
784.006	-0.36
784.181	0.02
784.355	0.26
784.53	0.03
784.704	-0.26
784.878	0.38
785.053	0.04
785.227	0.18
785.402	0.22
785.576	-0.32
785.75	0.01
785.925	-0.14
786.099	0.08
786.273	0.13
786.448	0.04
786.622	0.26
786.796	0.11
786.97	0.02
787.145	0.53
787.319	-0.36
787.493	-0.07
787.667	-0.36
787.841	-0.09
788.015	0.11
788.19	-0.09
788.364	0.01
788.538	0.06
788.712	0.18
788.886	-0.05
789.06	0.2
789.234	0.11
789.408	-0.37
789.582	0.02
789.756	-0.07
789.93	-0.47
790.104	-0.16
790.278	-0.08
790.452	-0.09
790.626	0.12
790.8	-0.05
790.973	0.07
791.147	0.05
791.321	0.09
791.495	-0.05
791.669	0.05
791.843	-0.09
792.016	0.1
792.19	0.31
792.364	-0.36
792.538	0.56
792.711	0.32
792.885	0.1
793.059	-0.4
793.233	-0.59
793.406	0.1
793.58	0.03
793.754	0.17
793.927	-0.16
794.101	0.5
794.274	-0.16
794.448	0.09
794.622	0.03
794.795	0.48
794.969	-0.38
795.142	0.34
795.316	-0.38
795.489	-0.19
795.663	0.29
795.836	-0.08
796.009	-0.09
796.183	0.19
796.356	0.01
796.53	0.01
796.703	-0.25
796.876	0.54
797.05	-0
797.223	-0.08
797.396	0.02
797.57	0.11
797.743	0.21
797.916	-0.05
798.09	0.05
798.263	0.19
798.436	-0.01
798.609	-0.13
798.782	0.09
798.956	-0.03
799.129	0.02
799.302	-0.17
799.475	-0.16
799.648	-0.12
799.821	-0.29
799.994	0.12
800.167	-0.31
800.34	0.16
800.514	-0
800.687	-0.22
800.86	-0.16
801.033	-0.02
801.206	0.02
801.379	-0.13
801.551	0.16
801.724	0.08
801.897	0.3
802.07	-0.25
802.243	-0.48
802.416	0.06
802.589	-0.03
802.762	-0.11
802.935	-0.02
803.107	0.3
803.28	-0.06
803.453	0.18
803.626	-0.19
803.798	0.02
803.971	-0.12
804.144	0.23
804.317	0.04
804.489	0.35
804.662	-0.1
804.835	-0.15
805.007	-0.13
805.18	0.11
805.353	0.2
805.525	-0.21
805.698	0.02
805.87	-0.02
806.043	0.36
806.215	0.14
806.388	-0.19
806.56	-0.1
806.733	0.14
806.905	-0.07
807.078	-0.06
807.25	-0.24
807.423	0.19
807.595	0.04
807.768	-0.24
807.94	0.08
808.112	0.02
808.285	-0.27
808.457	-0.36
808.629	-0.11
808.802	0.22
808.974	-0.13
809.146	-0.22
809.318	-0.18
809.491	-0.15
809.663	0.46
809.835	-0.16
810.007	-0.14
810.18	-0.16
810.352	-0.31
810.524	-0.18
810.696	0.19
810.868	0.43
811.04	-0.32
811.212	-0.13
811.384	0.24
811.556	0.08
811.728	0.05
811.901	0.85
812.073	-0.6
812.245	0.17
812.417	0.04
812.589	-0.42
812.76	-0.09
812.932	0.2
813.104	0.38
813.276	0.1
813.448	0.32
813.62	0.21
813.792	-0.04
813.964	0.2
814.136	0.14
814.307	-0.19
814.479	-0.51
814.651	-0.41
814.823	0.56
814.995	-0.16
815.166	0.11
815.338	-0.32
815.51	-0.36
815.681	0.8
815.853	-0.05
816.025	-0.33
816.196	0.34
816.368	0.12
816.54	-0.14
816.711	-0.78
816.883	0.21
817.054	1.11
817.226	-0.54
817.398	0.18
817.569	-0.19
817.741	0
817.912	0.02
818.084	-0.1
818.255	0.29
818.426	-0.22
818.598	0.32
818.769	-0.28
818.941	0.15
819.112	0.29
819.283	0.33
819.455	-0.17
819.626	0.08
819.798	0.27
819.969	-0.06
820.14	0.27
820.311	0.08
820.483	0.54
820.654	0.02
820.825	-0
820.996	-0.11
821.168	-0.26
821.339	0.12
821.51	-0.41
821.681	-0.11
821.852	-0.06
822.023	-0.56
822.195	-0.57
822.366	0.2
822.537	-0.06
822.708	0.05
822.879	-0.53
823.05	0.66
823.221	-0.61
823.392	0.51
823.563	0.22
823.734	0.28
823.905	-0.27
824.076	-0.26
824.247	-0.47
824.418	-0.26
824.589	0.54
824.759	-0.08
824.93	-0.22
825.101	-0.25
825.272	0.36
825.443	0.22
825.614	-0.1
825.784	-0.88
825.955	0.43
826.126	0.11
826.297	0.44
826.467	0.52
826.638	0.56
826.809	-0.94
826.98	-0.18
827.15	0.29
827.321	0.17
827.492	0.11
827.662	0.08
827.833	0.79
828.003	0.28
828.174	-0.54
828.345	-0.37
828.515	0.35
828.686	0.58
828.856	0.19
829.027	0.13
829.197	0.09
829.368	0.73
829.538	-0.97
829.709	-0.39
829.879	0.29
830.049	-0.15
830.22	-0.12
830.39	0.02
830.56	0.16
830.731	-0.67
830.901	-0.58
831.072	-0.04
831.242	-0.09
831.412	0.09
831.582	-0.44
831.753	-0.68
831.923	-0.17
832.093	0.39
832.263	0.04
832.434	-0.65
832.604	0.01
832.774	-0.1
832.944	-0.3
833.114	-0.26
833.284	0.62
833.454	-1.1
833.624	-0.9
833.795	-0.85
833.965	0.47
834.135	0.48
834.305	-0.54
834.475	-0.92
834.645	-0.6
834.815	-0.59
834.985	-0.24
835.155	-0.31
835.325	0.67
835.494	0.02
835.664	-0.61
835.834	-0.6
836.004	0.25
836.174	0.16
836.344	0.05
836.514	-0.8
836.684	-0.09
836.853	0.06
837.023	0.04
837.193	0.05
837.363	0.12
837.532	0.45
837.702	-0.21
837.872	0
838.041	0.74
838.211	1.05
838.381	-0.44
838.55	-0.25
838.72	1.31
838.89	0.92
839.059	-0.54
839.229	-0.78
839.398	1.43
839.568	-0.32
839.738	-0.38
839.907	0.55
840.077	0.81
840.246	0.05
840.416	-0.23
840.585	-0.49
840.755	0.92
840.924	0.89
841.093	-0.37
841.263	0.42
841.432	0.18
841.602	-0.92
841.771	-0.45
841.94	-0.58
842.11	1.65
842.279	1.18
842.448	-0.96
842.617	-0.66
842.787	0.9
842.956	-0.74
843.125	0
843.294	0.05
843.464	0.69
843.633	-0.83
843.802	-1
843.971	-0.07
844.14	0.85
844.309	0.62
844.479	-0.73
844.648	-0.77
844.817	-0.4
844.986	-0.26
845.155	-0.48
845.324	-0.79
845.493	-0.09
845.662	-1.2
845.831	0.15
846	0.21
846.169	0.02
846.338	0.98
846.507	-0.11
846.676	-0.16
846.844	-0.37
847.013	1.34
847.182	0.15
847.351	-0.26
847.52	0.31
847.689	0.93
847.858	0.17
848.026	0.14
848.195	-0.1
848.364	-0.4
848.533	0.27
848.701	-0.36
848.87	0.39
849.039	0.43
849.207	0.22
849.376	0.63
849.545	0.57
849.713	-0.66
849.882	-0.11
850.051	0.18
850.219	0.08
850.388	0.93
850.556	-1.44
850.725	-0.9
850.893	-0.21
851.062	-0.27
851.23	0.72
851.399	-1.4
851.567	-0.98
851.736	-0.9
851.904	-1.18
852.073	0.42
852.241	1.43
852.41	-0.85
852.578	-0.46
852.746	-0.73
852.915	0.53
853.083	-0.03
853.251	-0.67
853.42	-0.28
853.588	0.54
853.756	0.89
853.924	-0.54
854.093	-0.08
854.261	0.55
854.429	-0.52
854.597	-0.3
854.765	-0.86
854.934	0.26
855.102	0.95
855.27	-1.1
855.438	0.54
855.606	-0.27
855.774	1.16
855.942	-1.89
856.11	-1.02
856.278	-0.8
856.446	0.32
856.614	1.39
856.782	0.05
856.95	0.87
857.118	-0.07
857.286	1.11
857.454	-1
857.622	-0.48
857.79	0.63
857.958	0.02
858.126	-0.36
858.294	-2.86
858.462	-0.17
858.629	-0.54
858.797	-0.62
858.965	-0.46
859.133	1.32
859.301	-0.25
859.468	0.48
859.636	-1.05
859.804	0.55
859.971	0.73
860.139	-0.65
860.307	1.2
860.474	0.3
860.642	-0.71
860.81	-0.48
860.977	-0.73
861.145	0.46
861.313	-0.18
861.48	0.68
861.648	0.87
861.815	-0.85
861.983	-1.05
862.15	-0.06
862.318	-0.33
862.485	1.15
862.653	-0.65
862.82	-0.84
862.988	0.87
863.155	0.63
863.322	-1.14
863.49	-1.37
863.657	-1.21
863.824	1.89
863.992	1.66
864.159	0.1
864.326	1.35
864.494	-1.43
864.661	1.94
864.828	-1.3
864.996	2.29
865.163	1.75
865.33	-0.26
865.497	-1.62
865.664	-0.4
865.832	-0.91
865.999	-1.3
866.166	-1.77
866.333	-1.28
866.5	0.23
866.667	-0.2
866.834	-0.47
867.001	0.13
867.168	-0.89
867.335	0.32
867.502	-3.06
867.669	0.11
867.836	1.09
868.003	-0.16
868.17	1.21
868.337	-1.4
868.504	1.03
868.671	-1.39
868.838	-1.11
869.005	0.75
869.172	-0.46
869.339	0.08
869.505	-0.95
869.672	-0.18
869.839	0.65
870.006	-0.09
870.173	-1.74
870.339	-0.04
870.506	2.04
870.673	-1.35
870.84	0.21
871.006	0.58
871.173	-1.04
871.34	-0.09
871.506	-1.49
871.673	0.67
871.839	-2.43
872.006	-1.3
872.173	-1.18
872.339	-0.69
872.506	1.46
872.672	-0.38
872.839	-1.64
873.005	-0.31
873.172	0.81
873.338	0.36
873.505	-0.45
873.671	0.18
873.838	0.01
874.004	-1.4
874.171	-0.37
874.337	1.48
874.503	-0.25
874.67	-0.89
874.836	-1.11
875.002	2.36
875.169	-0.17
875.335	-0.13
875.501	0.08
875.668	0.99
875.834	0.79
876	-0.56
876.166	0.24
876.332	-1
876.499	2.61
876.665	-0.43
876.831	-1.31
876.997	2.26
877.163	0.94
877.329	-2.43
877.495	0.63
877.662	0.9
877.828	0.17
877.994	-0.78
878.16	-0.97
878.326	-1.82
878.492	-0.47
878.658	0.3
878.824	1.25
878.99	0.94
879.156	-1.72
879.322	1.52
879.487	-0.46
879.653	-0.68
879.819	-0.59
879.985	-0.68
880.151	1.11
880.317	1.09
880.483	1.45
880.648	2.29
880.814	-1.75
880.98	1.92
881.146	-2.47
881.312	-0.91
881.477	-1.18
881.643	0.61
881.809	3
881.974	3.19
882.14	-3.9
882.306	0.42
882.471	2.25
882.637	-0.05
882.803	1.39
882.968	1.34
883.134	2.74
883.299	0.25
883.465	0.12
883.63	1.59
883.796	1
883.961	1.53
884.127	0.73
884.292	-4.34
884.458	-1.6
884.623	-1.6
