Data from Apollo_Calib_20240827__AbsoluteIrradiance__108__00-57-00-025.txt Node

Date: Wed Aug 28 00:57:00 BST 2024
User: biology
Spectrometer: FLMT08252
Trigger mode: 0
Integration Time (sec): 5.000000E-1
Scans to average: 5
Electric dark correction enabled: true
Nonlinearity correction enabled: false
Boxcar width: 0
XAxis mode: Wavelengths
Number of Pixels in Spectrum: 3648
>>>>>Begin Spectral Data<<<<<
179.588	-0
179.809	-0
180.03	-0
180.251	-0
180.473	-0
180.694	0
180.915	0
181.136	-0
181.357	-0
181.578	0
181.799	-0
182.02	-0
182.241	-0
182.462	-0
182.683	0
182.904	-0
183.125	-0
183.346	0
183.567	0
183.788	-0
184.009	-0
184.23	-0
184.451	0
184.672	-0
184.892	-0
185.113	0
185.334	-0
185.555	-0
185.776	-0
185.996	-0
186.217	-0
186.438	0
186.659	-0
186.879	-0
187.1	-0
187.321	-0
187.541	-0
187.762	-0
187.983	-0
188.203	-0
188.424	-0
188.644	-0
188.865	-0
189.086	-0
189.306	-0
189.527	-0
189.747	-0
189.968	-0
190.188	-0
190.409	-0
190.629	0
190.849	-0
191.07	-0
191.29	0
191.511	0
191.731	-0
191.951	-0
192.172	-0
192.392	-0
192.612	-0
192.833	-0
193.053	-0
193.273	0
193.493	-0
193.714	-0
193.934	0
194.154	0
194.374	-0
194.594	-0
194.815	-0
195.035	0
195.255	-0
195.475	-0
195.695	0
195.915	-0
196.135	-0
196.355	0
196.575	0
196.795	-0
197.015	-0
197.235	-0
197.455	-0
197.675	0
197.895	-0
198.115	-0
198.335	0
198.555	-0
198.775	-0
198.995	0
199.214	0
199.434	-0
199.654	-0
199.874	-0
200.094	-0.1
200.313	-0.56
200.533	-0.41
200.753	-1.22
200.973	0.34
201.192	0.07
201.412	-1.25
201.632	-0.76
201.851	0.68
202.071	-0.65
202.291	-0.63
202.51	-0.46
202.73	0.21
202.95	-0.34
203.169	-0.75
203.389	-0.6
203.608	0.39
203.828	-0.68
204.047	-0.2
204.267	0.36
204.486	-0.16
204.706	-0.04
204.925	-0.45
205.145	-0.17
205.364	-0.24
205.583	0.42
205.803	-0.36
206.022	-0.27
206.242	-0.66
206.461	-0.4
206.68	-0.28
206.9	0.16
207.119	0.04
207.338	0.05
207.557	-0.32
207.777	-0.3
207.996	-0.43
208.215	0.2
208.434	-0.29
208.654	-0.71
208.873	0.01
209.092	0.43
209.311	-0.35
209.53	-0.23
209.749	-0.15
209.968	-0.53
210.187	-0.13
210.407	-0.25
210.626	-0.11
210.845	0.05
211.064	0.03
211.283	-0.32
211.502	0.04
211.721	-0.21
211.94	-0.34
212.159	0.25
212.377	0.09
212.596	0.32
212.815	-0.23
213.034	0.14
213.253	0.15
213.472	0.23
213.691	-0.35
213.91	-0.67
214.128	-0.28
214.347	0.22
214.566	-0.4
214.785	-0.38
215.003	-0.05
215.222	0.12
215.441	-0.1
215.66	-0.11
215.878	-0.06
216.097	0.2
216.316	-0.21
216.534	-0.2
216.753	-0.16
216.972	-0.2
217.19	-0.18
217.409	-0.08
217.627	-0.19
217.846	-0.13
218.064	0.09
218.283	-0.28
218.501	0.14
218.72	0.08
218.938	-0.16
219.157	-0.25
219.375	0.3
219.594	-0.02
219.812	-0.35
220.031	-0.12
220.249	0.19
220.467	0.33
220.686	-0.03
220.904	-0.18
221.122	-0.2
221.341	0.15
221.559	-0.07
221.777	-0.22
221.995	0.02
222.214	0.11
222.432	-0.11
222.65	0.17
222.868	-0.02
223.086	0.07
223.305	-0.02
223.523	-0.09
223.741	0.25
223.959	-0.26
224.177	-0.3
224.395	-0.15
224.613	0.02
224.831	0.04
225.049	-0.21
225.267	-0.08
225.485	-0.03
225.703	0.03
225.921	0.08
226.139	-0.19
226.357	-0.03
226.575	0.04
226.793	-0.02
227.011	0.41
227.229	-0.01
227.447	0.19
227.665	-0.2
227.883	-0.26
228.1	0.03
228.318	0.01
228.536	-0.17
228.754	-0.22
228.972	0
229.189	0.07
229.407	-0.04
229.625	-0.06
229.843	-0.02
230.06	0.11
230.278	-0.2
230.496	-0.1
230.713	-0.03
230.931	0.14
231.149	-0.13
231.366	-0.23
231.584	-0.09
231.801	0.18
232.019	-0.02
232.236	-0.22
232.454	-0.06
232.671	-0.06
232.889	0.05
233.106	-0.16
233.324	-0.13
233.541	-0.09
233.759	-0.1
233.976	-0.06
234.194	-0.1
234.411	-0.11
234.628	-0.07
234.846	-0.08
235.063	-0.01
235.28	-0.06
235.498	-0.17
235.715	-0.08
235.932	0.06
236.149	-0.08
236.367	-0.12
236.584	-0.11
236.801	-0.11
237.018	-0.04
237.236	-0.02
237.453	-0.21
237.67	0.13
237.887	-0.07
238.104	-0
238.321	-0.17
238.538	-0.09
238.755	0.1
238.973	-0.26
239.19	0.03
239.407	-0.02
239.624	0.08
239.841	-0.19
240.058	-0.1
240.275	0.1
240.492	-0.14
240.709	0.01
240.925	-0.08
241.142	0.09
241.359	-0.09
241.576	-0.17
241.793	-0.02
242.01	0.02
242.227	0.12
242.444	0
242.66	0.01
242.877	0.09
243.094	-0.12
243.311	-0.05
243.527	-0.02
243.744	0.02
243.961	0.04
244.178	-0.05
244.394	-0.02
244.611	0.09
244.828	0.09
245.044	-0.18
245.261	-0.01
245.477	-0.04
245.694	0.01
245.911	-0.11
246.127	-0.04
246.344	0.15
246.56	-0.02
246.777	-0.03
246.993	-0.02
247.21	-0.01
247.426	-0.01
247.643	-0.11
247.859	-0.09
248.076	-0.04
248.292	0.1
248.508	-0.1
248.725	0.04
248.941	0.02
249.157	0.01
249.374	-0.1
249.59	-0.08
249.806	-0.06
250.023	-0.08
250.239	-0.14
250.455	-0.04
250.671	-0.03
250.888	0.06
251.104	0.07
251.32	-0.05
251.536	-0.11
251.752	-0.09
251.969	0.05
252.185	-0.03
252.401	0.07
252.617	0.09
252.833	-0.1
253.049	-0.07
253.265	-0.02
253.481	0.07
253.697	-0.03
253.913	-0.12
254.129	-0
254.345	0.01
254.561	-0.01
254.777	-0.03
254.993	0.06
255.209	-0.02
255.425	-0.06
255.641	-0.09
255.857	-0.01
256.073	0.06
256.288	-0.12
256.504	-0.06
256.72	0.02
256.936	0.05
257.152	-0.04
257.367	-0.11
257.583	-0.01
257.799	0.05
258.015	-0.07
258.23	-0.09
258.446	0.06
258.662	-0.02
258.877	-0.02
259.093	-0.1
259.309	-0.1
259.524	-0.01
259.74	-0.04
259.955	-0.08
260.171	-0.05
260.387	-0
260.602	0.07
260.818	-0.03
261.033	-0.14
261.249	-0.05
261.464	-0.03
261.68	-0.08
261.895	-0.01
262.11	0.06
262.326	-0.07
262.541	-0.12
262.757	0.04
262.972	0.07
263.187	0.01
263.403	-0.02
263.618	0.05
263.833	-0.04
264.049	-0.01
264.264	-0.05
264.479	-0.01
264.694	0.08
264.91	-0.1
265.125	-0.07
265.34	0.04
265.555	0.14
265.77	-0.01
265.986	-0.09
266.201	0.05
266.416	0.07
266.631	0
266.846	-0.07
267.061	0.01
267.276	-0.02
267.491	-0.14
267.706	0.03
267.921	-0.01
268.136	-0.02
268.351	-0.03
268.566	-0.12
268.781	0.08
268.996	0.03
269.211	-0
269.426	-0.05
269.641	-0.01
269.856	0.05
270.071	-0.02
270.285	-0.07
270.5	0.03
270.715	-0.04
270.93	-0.01
271.145	-0.03
271.359	0.03
271.574	-0.04
271.789	-0.02
272.004	-0.1
272.218	-0.03
272.433	0.02
272.648	-0.06
272.862	-0
273.077	-0.02
273.292	-0.04
273.506	-0.13
273.721	-0
273.936	0
274.15	0.03
274.365	-0.03
274.579	0.03
274.794	0.02
275.008	0.02
275.223	-0.12
275.437	-0.04
275.652	0.02
275.866	0.03
276.081	-0
276.295	0.07
276.509	0.02
276.724	-0.01
276.938	-0.04
277.153	0.04
277.367	-0.02
277.581	-0.04
277.796	-0.05
278.01	-0.07
278.224	0.05
278.438	0.08
278.653	-0.05
278.867	-0.02
279.081	-0.15
279.295	-0.01
279.51	0.01
279.724	-0.12
279.938	-0
280.152	0.02
280.366	-0.06
280.58	-0.04
280.794	0.05
281.008	0.03
281.222	0.05
281.437	0.1
281.651	0.01
281.865	0.02
282.079	-0.02
282.293	-0.12
282.507	-0.05
282.721	-0.05
282.935	-0.03
283.148	-0.07
283.362	-0.04
283.576	-0.01
283.79	0.06
284.004	-0.04
284.218	-0.02
284.432	-0.06
284.646	-0.03
284.859	-0
285.073	-0.07
285.287	0.01
285.501	-0.03
285.714	-0.01
285.928	0
286.142	0.02
286.356	-0.05
286.569	-0.05
286.783	0.08
286.997	0.05
287.21	-0.01
287.424	0.04
287.637	-0.03
287.851	-0.02
288.065	0.02
288.278	0.01
288.492	0.06
288.705	-0.02
288.919	-0.01
289.132	-0.1
289.346	0.03
289.559	-0.09
289.773	-0.05
289.986	0.01
290.2	0.05
290.413	0.05
290.626	-0.04
290.84	-0.03
291.053	-0.02
291.267	0.04
291.48	-0.02
291.693	0.02
291.906	-0.03
292.12	-0.05
292.333	-0.05
292.546	-0.01
292.76	0.1
292.973	-0
293.186	-0.02
293.399	-0.03
293.612	0
293.826	0.03
294.039	-0.03
294.252	0.01
294.465	0.03
294.678	-0.01
294.891	0.01
295.104	-0.07
295.317	-0.03
295.53	0.01
295.743	-0.03
295.956	-0
296.169	-0.01
296.382	0.02
296.595	-0.02
296.808	-0.04
297.021	0.01
297.234	0.06
297.447	-0.05
297.66	-0.01
297.873	0.04
298.086	0.05
298.299	-0.01
298.511	-0.06
298.724	0.07
298.937	-0.04
299.15	-0.03
299.363	0.02
299.575	0.04
299.788	-0.01
300.001	-0.03
300.213	-0.01
300.426	-0.02
300.639	-0.02
300.852	-0.02
301.064	0.03
301.277	0.03
301.489	-0.01
301.702	0.03
301.915	0.02
302.127	-0.02
302.34	0.01
302.552	0.06
302.765	-0.04
302.977	-0.01
303.19	-0.05
303.402	-0.01
303.615	-0.03
303.827	-0.05
304.04	-0.01
304.252	0.02
304.464	-0.06
304.677	0.12
304.889	0.02
305.102	-0.04
305.314	-0.03
305.526	0.03
305.739	0.01
305.951	-0.04
306.163	0.01
306.375	0.02
306.588	-0.02
306.8	0.01
307.012	-0.06
307.224	-0.03
307.436	0.05
307.649	-0.06
307.861	0.02
308.073	0.04
308.285	-0
308.497	-0.06
308.709	-0.06
308.921	0.05
309.133	0.05
309.346	-0.06
309.558	0
309.77	0.03
309.982	0.08
310.194	0.04
310.406	-0.03
310.617	0.08
310.829	0.01
311.041	0.04
311.253	-0.08
311.465	0.01
311.677	0.03
311.889	0.01
312.101	-0.04
312.313	0.02
312.524	0.07
312.736	-0.03
312.948	-0.03
313.16	0.05
313.372	0.02
313.583	0.03
313.795	-0
314.007	-0.02
314.218	0
314.43	-0.03
314.642	-0.05
314.853	-0.04
315.065	0.03
315.277	-0.02
315.488	-0.01
315.7	0.03
315.912	0.01
316.123	0.01
316.335	-0.01
316.546	0.09
316.758	0.01
316.969	-0.04
317.181	-0.04
317.392	-0.01
317.604	0.05
317.815	-0.04
318.026	-0.05
318.238	0.02
318.449	-0.03
318.661	-0.07
318.872	-0.07
319.083	-0.09
319.295	-0
319.506	0.01
319.717	0.04
319.929	-0.01
320.14	-0
320.351	0.01
320.562	-0.04
320.774	0.03
320.985	0
321.196	-0.03
321.407	-0.06
321.618	0
321.829	0
322.041	0.04
322.252	0.01
322.463	-0.01
322.674	0.02
322.885	-0.06
323.096	-0.05
323.307	-0.03
323.518	0.01
323.729	-0.05
323.94	0.02
324.151	-0.05
324.362	-0
324.573	-0.01
324.784	-0.03
324.995	0.08
325.206	0.01
325.417	0.01
325.628	-0.01
325.838	-0.04
326.049	-0.02
326.26	0.02
326.471	0.01
326.682	0.02
326.892	-0.03
327.103	-0.08
327.314	-0.04
327.525	0.01
327.735	0.04
327.946	-0.06
328.157	-0.05
328.368	0.01
328.578	-0.04
328.789	0.01
328.999	-0.04
329.21	-0.02
329.421	-0.01
329.631	-0.04
329.842	-0.01
330.052	0.03
330.263	0.01
330.473	0.02
330.684	-0.03
330.894	-0.02
331.105	0
331.315	0.01
331.526	-0.04
331.736	0.06
331.947	-0
332.157	0.01
332.367	-0.03
332.578	0.03
332.788	0.03
332.999	-0.01
333.209	-0.01
333.419	-0.04
333.629	-0
333.84	0.02
334.05	-0.02
334.26	0.06
334.47	0.02
334.681	0.06
334.891	-0.02
335.101	-0.01
335.311	0.08
335.521	-0.01
335.732	-0.03
335.942	0.06
336.152	0
336.362	0.04
336.572	-0
336.782	0.05
336.992	-0.01
337.202	-0.02
337.412	-0.02
337.622	-0.02
337.832	-0.01
338.042	-0.01
338.252	-0.06
338.462	-0.02
338.672	-0.02
338.882	-0.01
339.092	0.01
339.302	0.07
339.511	0.02
339.721	-0.04
339.931	-0.02
340.141	0.03
340.351	0.04
340.561	0.03
340.77	0.05
340.98	-0
341.19	0.01
341.4	-0.04
341.609	-0.07
341.819	-0.02
342.029	-0.05
342.238	-0.05
342.448	-0.02
342.658	0
342.867	-0.02
343.077	0
343.286	0.02
343.496	0.03
343.706	0.08
343.915	-0.05
344.125	-0.03
344.334	0.03
344.544	-0.02
344.753	0.01
344.963	0.01
345.172	-0.04
345.381	-0.08
345.591	-0.02
345.8	-0.01
346.01	0.04
346.219	0.08
346.428	-0.11
346.638	-0.05
346.847	0
347.056	0.07
347.266	-0.03
347.475	0.03
347.684	0.01
347.893	0.01
348.103	0.02
348.312	-0.05
348.521	-0.03
348.73	0.02
348.94	0.03
349.149	-0.02
349.358	-0.05
349.567	-0.03
349.776	-0.02
349.985	0
350.194	0.02
350.403	0.03
350.612	-0.03
350.821	-0.04
351.03	0.01
351.239	-0.05
351.448	-0
351.657	-0.06
351.866	0.04
352.075	-0.01
352.284	0.07
352.493	-0.03
352.702	0.07
352.911	0.03
353.12	-0.02
353.329	-0.05
353.538	0.02
353.746	-0.02
353.955	0
354.164	0.03
354.373	0.02
354.582	0.04
354.79	0.01
354.999	0.07
355.208	-0.06
355.416	0.03
355.625	-0.03
355.834	0.01
356.042	0
356.251	-0.02
356.46	-0.02
356.668	0
356.877	0.04
357.085	0.03
357.294	-0.07
357.503	0.02
357.711	0.01
357.92	0.12
358.128	-0.02
358.337	-0.01
358.545	0.02
358.754	-0.03
358.962	0.04
359.17	-0.03
359.379	0.02
359.587	0.07
359.796	0.02
360.004	0.02
360.212	-0.01
360.421	0.06
360.629	0.02
360.837	-0
361.046	0.04
361.254	0.06
361.462	0.03
361.67	0
361.879	0.04
362.087	0.07
362.295	0.03
362.503	-0.02
362.711	-0.03
362.92	0
363.128	-0.04
363.336	-0.01
363.544	-0.04
363.752	-0.02
363.96	-0.02
364.168	0
364.376	0.04
364.584	0
364.792	0.03
365	0.03
365.208	0.02
365.416	0.05
365.624	0.08
365.832	-0.02
366.04	0.03
366.248	0.02
366.456	0.02
366.664	0.07
366.872	-0.02
367.079	0.04
367.287	0.06
367.495	0.04
367.703	0.04
367.911	0.05
368.118	0.06
368.326	0.05
368.534	0.03
368.742	0.13
368.949	0.06
369.157	0.05
369.365	0.12
369.572	0.08
369.78	0.07
369.988	0.15
370.195	0.17
370.403	0.2
370.61	0.18
370.818	0.21
371.026	0.29
371.233	0.21
371.441	0.24
371.648	0.25
371.856	0.29
372.063	0.34
372.271	0.36
372.478	0.31
372.685	0.37
372.893	0.46
373.1	0.44
373.308	0.45
373.515	0.58
373.722	0.56
373.93	0.55
374.137	0.6
374.344	0.72
374.552	0.69
374.759	0.73
374.966	0.8
375.173	0.76
375.381	0.9
375.588	0.83
375.795	0.84
376.002	0.95
376.209	0.97
376.417	1.05
376.624	1.06
376.831	1.19
377.038	1.25
377.245	1.23
377.452	1.34
377.659	1.43
377.866	1.47
378.073	1.59
378.28	1.65
378.487	1.79
378.694	1.88
378.901	1.94
379.108	1.95
379.315	2.12
379.522	2.19
379.729	2.35
379.936	2.29
380.143	2.46
380.35	2.52
380.557	2.63
380.763	2.74
380.97	2.83
381.177	2.92
381.384	3.11
381.591	3.13
381.797	3.24
382.004	3.31
382.211	3.44
382.418	3.46
382.624	3.56
382.831	3.47
383.038	3.61
383.244	3.64
383.451	3.55
383.658	3.51
383.864	3.6
384.071	3.5
384.277	3.59
384.484	3.52
384.69	3.41
384.897	3.29
385.103	3.27
385.31	3.18
385.516	3.11
385.723	2.99
385.929	2.97
386.136	2.73
386.342	2.71
386.549	2.66
386.755	2.53
386.961	2.46
387.168	2.34
387.374	2.19
387.58	2.19
387.787	2.05
387.993	2.02
388.199	1.88
388.406	1.77
388.612	1.68
388.818	1.64
389.024	1.55
389.231	1.51
389.437	1.57
389.643	1.47
389.849	1.38
390.055	1.4
390.261	1.26
390.467	1.24
390.674	1.19
390.88	1.2
391.086	1.17
391.292	1.11
391.498	1.17
391.704	1.06
391.91	1.02
392.116	0.97
392.322	0.82
392.528	0.96
392.734	0.84
392.94	0.89
393.146	0.82
393.352	0.81
393.557	0.77
393.763	0.75
393.969	0.72
394.175	0.72
394.381	0.73
394.587	0.64
394.792	0.61
394.998	0.69
395.204	0.71
395.41	0.58
395.615	0.58
395.821	0.61
396.027	0.55
396.233	0.48
396.438	0.5
396.644	0.58
396.85	0.48
397.055	0.41
397.261	0.39
397.466	0.51
397.672	0.4
397.878	0.4
398.083	0.36
398.289	0.35
398.494	0.34
398.7	0.34
398.905	0.23
399.111	0.39
399.316	0.22
399.522	0.29
399.727	0.26
399.932	0.28
400.138	0.23
400.343	0.27
400.549	0.25
400.754	0.23
400.959	0.25
401.165	0.24
401.37	0.24
401.575	0.28
401.78	0.19
401.986	0.14
402.191	0.21
402.396	0.23
402.601	0.19
402.807	0.23
403.012	0.21
403.217	0.21
403.422	0.19
403.627	0.19
403.832	0.15
404.037	0.17
404.243	0.18
404.448	0.14
404.653	0.18
404.858	0.18
405.063	0.19
405.268	0.1
405.473	0.1
405.678	0.11
405.883	0.25
406.088	0.15
406.293	0.06
406.498	0.09
406.703	0.15
406.907	0.09
407.112	0.03
407.317	0.12
407.522	0.17
407.727	0.07
407.932	0.13
408.136	0.21
408.341	0.07
408.546	0.11
408.751	0.12
408.956	0.07
409.16	0.1
409.365	0.13
409.57	0.09
409.774	0.11
409.979	0.14
410.184	0.08
410.388	-0.01
410.593	0.12
410.798	0.08
411.002	0.05
411.207	0.09
411.411	0.07
411.616	0.02
411.82	0.08
412.025	0.09
412.229	0.07
412.434	0.1
412.638	0.09
412.843	0.06
413.047	0.07
413.252	0.04
413.456	0.02
413.66	0.1
413.865	0.01
414.069	0.07
414.273	0.06
414.478	0.01
414.682	0.01
414.886	0.04
415.091	0.01
415.295	-0.02
415.499	0.06
415.703	0.03
415.908	0.09
416.112	-0.03
416.316	0.08
416.52	0.05
416.724	0.02
416.929	0
417.133	0.14
417.337	0.04
417.541	-0.04
417.745	0.04
417.949	0.06
418.153	0.05
418.357	-0.03
418.561	0.08
418.765	0.02
418.969	0.1
419.173	0.12
419.377	0.01
419.581	0.15
419.785	-0.01
419.989	-0.03
420.193	-0.02
420.397	0.03
420.601	0.08
420.804	0.07
421.008	0.05
421.212	0.02
421.416	0.04
421.62	0.03
421.823	0.01
422.027	0.13
422.231	0.05
422.435	0.01
422.638	0.07
422.842	0.08
423.046	-0.04
423.249	0.01
423.453	0.06
423.657	0.04
423.86	-0.03
424.064	0.05
424.268	0.04
424.471	0.06
424.675	0.11
424.878	0.1
425.082	0.01
425.285	0.09
425.489	0.01
425.692	0.03
425.896	-0.01
426.099	0.07
426.303	0.02
426.506	0.01
426.71	0.04
426.913	0.08
427.116	0.09
427.32	0.05
427.523	0.01
427.726	0.11
427.93	-0.03
428.133	0.04
428.336	-0.02
428.54	-0.02
428.743	0.06
428.946	0.1
429.149	0.02
429.353	0.05
429.556	0.02
429.759	0.06
429.962	-0.01
430.165	-0.03
430.368	0.02
430.571	0.02
430.775	0.06
430.978	0.02
431.181	0.07
431.384	0.09
431.587	-0.01
431.79	0.09
431.993	-0
432.196	0.02
432.399	0.03
432.602	0.12
432.805	-0.02
433.008	0.06
433.211	-0.04
433.414	0.06
433.616	0.06
433.819	0.06
434.022	-0.04
434.225	0.09
434.428	0.07
434.631	0.17
434.833	0.03
435.036	0
435.239	0.06
435.442	0.02
435.645	-0.02
435.847	0.01
436.05	0.09
436.253	0.04
436.455	0.02
436.658	0.08
436.861	0.15
437.063	0.04
437.266	0.04
437.468	0.04
437.671	0.17
437.874	0.04
438.076	-0.03
438.279	-0.05
438.481	0
438.684	0.04
438.886	0.09
439.089	-0.04
439.291	0.03
439.494	0.03
439.696	-0.01
439.899	0.04
440.101	0.09
440.303	-0.01
440.506	0.08
440.708	0.05
440.91	0.08
441.113	-0
441.315	0.11
441.517	-0
441.72	0.05
441.922	0.02
442.124	0.02
442.326	0.03
442.529	0.12
442.731	0.04
442.933	0.15
443.135	0.06
443.337	0.04
443.539	0.02
443.742	0.05
443.944	0.11
444.146	0.01
444.348	0.05
444.55	0.01
444.752	0.08
444.954	0
445.156	0.11
445.358	0.04
445.56	0.12
445.762	0.09
445.964	0.1
446.166	0.05
446.368	0.07
446.57	0.16
446.772	0.12
446.974	0.07
447.175	0.07
447.377	0.03
447.579	0.07
447.781	0.01
447.983	0.16
448.184	0.11
448.386	0.09
448.588	-0.03
448.79	0.04
448.991	0.09
449.193	0.09
449.395	0.07
449.597	0.11
449.798	0.05
450	0.12
450.202	0.06
450.403	0.05
450.605	0.09
450.806	0.05
451.008	0
451.21	0.05
451.411	0.06
451.613	0.05
451.814	0.07
452.016	0.12
452.217	0.06
452.419	0.12
452.62	0.07
452.821	0.08
453.023	0.13
453.224	0.11
453.426	0.08
453.627	0.04
453.828	0.07
454.03	0.03
454.231	0.12
454.432	0.02
454.634	0.12
454.835	0.06
455.036	0.05
455.238	0.1
455.439	0.17
455.64	-0.01
455.841	0.01
456.042	0.12
456.244	0.09
456.445	0.02
456.646	-0.01
456.847	-0.01
457.048	0.1
457.249	0.09
457.45	0.33
457.651	-0.02
457.852	0.06
458.054	0.08
458.255	0.04
458.456	0.08
458.657	0.07
458.858	-0.02
459.058	0.05
459.259	0.09
459.46	0.03
459.661	0.02
459.862	0.11
460.063	0.02
460.264	0.12
460.465	-0.03
460.666	0.09
460.866	0.01
461.067	-0
461.268	-0.03
461.469	-0.01
461.67	0.04
461.87	0.01
462.071	0.01
462.272	-0.02
462.473	0.01
462.673	0.09
462.874	0.06
463.075	0.01
463.275	0.02
463.476	0.03
463.676	0.02
463.877	0.05
464.078	-0.02
464.278	0.11
464.479	0.07
464.679	-0.03
464.88	-0.01
465.08	0.11
465.281	0.01
465.481	0.01
465.682	0.01
465.882	0.04
466.083	0.08
466.283	0.02
466.483	0
466.684	0
466.884	-0.04
467.085	0.06
467.285	0.04
467.485	-0.02
467.686	0.01
467.886	0.01
468.086	0.02
468.286	0.05
468.487	0.03
468.687	-0.02
468.887	-0
469.087	0.04
469.287	-0.01
469.488	0.02
469.688	0.03
469.888	0.01
470.088	0.02
470.288	0.06
470.488	0.06
470.688	-0.03
470.888	-0.01
471.088	0
471.288	0.03
471.488	0.01
471.688	0.06
471.888	0.03
472.088	0.03
472.288	0
472.488	0
472.688	-0.03
472.888	0.02
473.088	0.01
473.288	0.01
473.488	0.04
473.688	0.06
473.887	0.02
474.087	0.02
474.287	0.08
474.487	-0.03
474.687	0.03
474.886	-0.01
475.086	0
475.286	0.03
475.486	0.01
475.685	0.02
475.885	0
476.085	0.02
476.284	0.03
476.484	-0.04
476.684	0.05
476.883	0.07
477.083	0.03
477.282	-0.02
477.482	0.08
477.681	0.07
477.881	0.03
478.08	0
478.28	-0.04
478.479	0.04
478.679	0.06
478.878	-0.02
479.078	-0.01
479.277	-0
479.477	0.02
479.676	0.04
479.875	0
480.075	-0.06
480.274	0.05
480.473	0.03
480.673	-0.02
480.872	0.01
481.071	0
481.271	0.03
481.47	-0.01
481.669	-0
481.868	-0
482.067	-0.03
482.267	-0.04
482.466	-0.03
482.665	-0.02
482.864	-0.02
483.063	-0.03
483.262	0.02
483.461	0.06
483.661	0.02
483.86	-0
484.059	0.02
484.258	0.01
484.457	0.02
484.656	0
484.855	0.05
485.054	-0.04
485.253	-0.02
485.452	-0.05
485.651	0.04
485.849	-0.01
486.048	-0.02
486.247	-0.02
486.446	0.01
486.645	-0.01
486.844	-0.05
487.043	0.01
487.241	0.01
487.44	-0.02
487.639	-0.01
487.838	0.03
488.037	0.02
488.235	0.05
488.434	0.01
488.633	-0.02
488.831	0.03
489.03	0.06
489.229	-0
489.427	-0.01
489.626	0.05
489.825	0.07
490.023	0.01
490.222	-0.02
490.42	0.03
490.619	0.04
490.817	0.03
491.016	-0.01
491.214	0.03
491.413	-0.01
491.611	-0.01
491.81	0.02
492.008	0
492.207	0.03
492.405	0.02
492.604	-0.04
492.802	-0.01
493	-0.01
493.199	0.01
493.397	0.01
493.595	-0.01
493.794	-0.02
493.992	0.03
494.19	-0.02
494.388	0.02
494.587	-0.03
494.785	0.01
494.983	-0.02
495.181	0
495.379	-0.01
495.578	-0.01
495.776	0.02
495.974	0.01
496.172	-0
496.37	-0
496.568	-0
496.766	-0.03
496.964	0.03
497.162	-0.02
497.36	-0.02
497.558	0.03
497.756	0.01
497.954	-0
498.152	-0.03
498.35	-0
498.548	-0.02
498.746	-0.01
498.944	0.01
499.142	-0.02
499.34	-0.04
499.538	0.01
499.736	-0.03
499.933	0.02
500.131	0.02
500.329	-0.01
500.527	0.02
500.725	0.02
500.922	0.01
501.12	-0
501.318	-0.01
501.516	-0.01
501.713	0.03
501.911	0
502.109	-0.03
502.306	0.02
502.504	-0.01
502.701	-0.02
502.899	-0.01
503.097	0.04
503.294	0.01
503.492	-0.01
503.689	-0
503.887	-0
504.084	0.04
504.282	-0
504.479	-0.01
504.677	-0
504.874	-0.02
505.072	-0.01
505.269	-0.01
505.466	0.02
505.664	0.01
505.861	-0.05
506.059	0.01
506.256	0.02
506.453	-0.01
506.651	0.04
506.848	0.04
507.045	0
507.242	0.02
507.44	0.01
507.637	0.01
507.834	-0.01
508.031	0.02
508.229	-0.02
508.426	0
508.623	0.01
508.82	-0.03
509.017	-0.04
509.214	0
509.411	-0.01
509.608	-0.02
509.805	-0
510.003	-0.01
510.2	-0.03
510.397	0.01
510.594	-0.01
510.791	-0.01
510.988	-0.01
511.184	0.02
511.381	-0.01
511.578	-0.02
511.775	0.03
511.972	-0
512.169	-0.01
512.366	-0.02
512.563	0.02
512.76	-0.01
512.956	0.02
513.153	-0.01
513.35	0.02
513.547	-0.01
513.744	-0.01
513.94	-0.03
514.137	0.01
514.334	0.01
514.53	0
514.727	-0.01
514.924	0.03
515.12	0
515.317	-0.03
515.514	-0.02
515.71	-0.01
515.907	0.01
516.103	-0.01
516.3	0.02
516.497	0.04
516.693	0.02
516.89	0
517.086	-0.03
517.283	0.03
517.479	0.03
517.676	-0.01
517.872	-0.03
518.068	-0.02
518.265	-0.03
518.461	-0
518.658	-0.03
518.854	0.02
519.05	-0.01
519.247	-0.02
519.443	0.03
519.639	0.02
519.836	-0.01
520.032	0.01
520.228	0.01
520.424	0.03
520.621	0.01
520.817	-0.03
521.013	0.01
521.209	0
521.405	0.05
521.601	-0.01
521.798	0.01
521.994	0.04
522.19	-0.01
522.386	-0.03
522.582	0
522.778	-0
522.974	-0
523.17	0.02
523.366	0.01
523.562	0.01
523.758	0
523.954	-0.01
524.15	0
524.346	0.02
524.542	-0.02
524.738	-0.01
524.934	0.01
525.129	0
525.325	-0.01
525.521	-0.01
525.717	0.02
525.913	-0.01
526.109	0
526.304	-0
526.5	0.01
526.696	0.01
526.892	-0.01
527.087	-0.02
527.283	-0.02
527.479	0.01
527.674	-0.01
527.87	-0.01
528.066	0.01
528.261	0.01
528.457	-0.02
528.653	-0.03
528.848	0
529.044	-0
529.239	-0
529.435	0.01
529.63	0.01
529.826	0.04
530.021	0
530.217	-0
530.412	-0.02
530.608	-0.01
530.803	0
530.999	-0.02
531.194	-0.06
531.389	0.01
531.585	-0.04
531.78	-0.01
531.975	-0.01
532.171	0.01
532.366	-0
532.561	0.01
532.757	-0.02
532.952	0
533.147	0.02
533.342	0
533.538	-0.02
533.733	0.03
533.928	-0.01
534.123	0.01
534.318	-0.04
534.513	-0
534.709	-0.01
534.904	-0.02
535.099	-0.02
535.294	0.01
535.489	0.02
535.684	-0
535.879	-0.04
536.074	0.01
536.269	-0.04
536.464	-0
536.659	0.01
536.854	-0
537.049	0.02
537.244	0
537.439	-0.02
537.634	0.01
537.828	0.02
538.023	-0
538.218	-0.02
538.413	-0.02
538.608	-0.02
538.803	0.01
538.997	-0.06
539.192	0.01
539.387	-0.01
539.582	0.01
539.776	0
539.971	-0.02
540.166	0
540.36	-0.02
540.555	-0
540.75	0.01
540.944	-0
541.139	-0.04
541.334	0.01
541.528	0
541.723	0
541.917	-0.03
542.112	-0.06
542.306	-0.03
542.501	-0.03
542.695	0
542.89	-0.03
543.084	0.01
543.279	-0.03
543.473	-0
543.668	0.01
543.862	0
544.056	0.02
544.251	0.01
544.445	0.01
544.64	-0.01
544.834	-0.03
545.028	0.02
545.222	0.01
545.417	0.02
545.611	0
545.805	0.01
546	-0.04
546.194	-0.01
546.388	-0.02
546.582	0
546.776	0.01
546.97	0.01
547.165	0.03
547.359	0.02
547.553	-0.03
547.747	-0.01
547.941	0.01
548.135	-0
548.329	0
548.523	0.02
548.717	-0.01
548.911	-0.01
549.105	-0.01
549.299	-0.01
549.493	0.01
549.687	0
549.881	0.02
550.075	-0
550.269	-0.03
550.463	0.01
550.657	-0.01
550.85	0.01
551.044	-0.02
551.238	0.01
551.432	-0.02
551.626	-0.03
551.82	-0.01
552.013	-0.02
552.207	0.01
552.401	0.03
552.594	0
552.788	0
552.982	0.01
553.176	-0.02
553.369	0.01
553.563	-0.01
553.756	-0.03
553.95	-0
554.144	0.01
554.337	0.01
554.531	-0.02
554.724	0
554.918	-0.01
555.111	0.01
555.305	0.02
555.498	0.04
555.692	0.03
555.885	-0.03
556.079	-0
556.272	-0.02
556.466	0.02
556.659	0.02
556.852	-0.02
557.046	-0.04
557.239	0.02
557.432	-0.02
557.626	-0.01
557.819	0.01
558.012	0.01
558.206	0
558.399	-0.01
558.592	-0.01
558.785	-0
558.979	0.04
559.172	0
559.365	0.02
559.558	0
559.751	0
559.944	-0.01
560.138	-0.03
560.331	0
560.524	-0.01
560.717	0.03
560.91	0.01
561.103	0.01
561.296	-0
561.489	0
561.682	0.01
561.875	0.02
562.068	0.01
562.261	0
562.454	0.03
562.647	0.01
562.84	-0.01
563.032	0
563.225	0.01
563.418	-0.01
563.611	-0.01
563.804	0.02
563.997	-0.01
564.19	-0.04
564.382	-0.01
564.575	-0
564.768	0
564.961	-0
565.153	-0.02
565.346	0.01
565.539	0.04
565.731	0.02
565.924	0.03
566.117	0.01
566.309	-0
566.502	-0
566.695	-0
566.887	-0
567.08	-0.01
567.272	-0.03
567.465	-0
567.657	-0
567.85	0.01
568.042	0.03
568.235	0.03
568.427	-0.02
568.62	0
568.812	0.02
569.005	-0
569.197	-0.05
569.389	0.01
569.582	-0.01
569.774	0.03
569.966	-0.03
570.159	-0.02
570.351	0
570.543	-0.02
570.736	-0
570.928	-0.05
571.12	0
571.312	-0.02
571.505	-0.03
571.697	0.03
571.889	-0.02
572.081	-0.02
572.273	-0.02
572.465	0.03
572.658	-0.03
572.85	0.01
573.042	-0
573.234	-0.02
573.426	0.04
573.618	-0.04
573.81	0
574.002	0.04
574.194	0.04
574.386	-0.04
574.578	-0.07
574.77	-0.03
574.962	-0
575.154	-0.03
575.346	0.03
575.538	-0.01
575.729	-0.03
575.921	-0.01
576.113	-0.01
576.305	0.02
576.497	-0.03
576.689	-0
576.88	-0.01
577.072	0.02
577.264	0.01
577.456	-0.01
577.647	-0.06
577.839	-0
578.031	0.04
578.223	-0.04
578.414	-0.02
578.606	0.02
578.798	-0.01
578.989	-0.01
579.181	-0.01
579.372	-0
579.564	-0.01
579.755	0.01
579.947	0.02
580.139	0.01
580.33	-0.05
580.522	-0.03
580.713	-0.05
580.905	-0.02
581.096	0.02
581.287	0.01
581.479	-0.01
581.67	0.02
581.862	-0.01
582.053	-0.01
582.244	-0.05
582.436	-0.03
582.627	-0.01
582.818	-0.04
583.01	-0.03
583.201	0.02
583.392	0.01
583.583	0
583.775	-0.01
583.966	-0.02
584.157	-0.02
584.348	-0.03
584.54	-0.05
584.731	-0.01
584.922	0.01
585.113	-0.03
585.304	0.03
585.495	0.01
585.686	0.01
585.877	0.04
586.068	0.01
586.259	0.02
586.45	-0.02
586.641	-0.02
586.832	-0.06
587.023	-0
587.214	-0.02
587.405	-0.01
587.596	-0.04
587.787	0.01
587.978	0.01
588.169	-0.01
588.36	-0.03
588.551	0.01
588.742	-0.03
588.932	0.02
589.123	-0.01
589.314	0.03
589.505	0.03
589.696	0.01
589.886	-0.01
590.077	-0.04
590.268	0
590.458	-0.05
590.649	-0.05
590.84	0.04
591.03	-0.03
591.221	-0.04
591.412	-0.04
591.602	0
591.793	0.01
591.984	-0.05
592.174	-0.01
592.365	0.04
592.555	-0.04
592.746	-0.01
592.936	-0
593.127	-0.02
593.317	0.03
593.508	-0.01
593.698	-0.04
593.889	-0.02
594.079	-0.02
594.269	-0.01
594.46	0.01
594.65	-0.01
594.84	0
595.031	-0.03
595.221	-0.01
595.411	-0.02
595.602	0.02
595.792	-0.01
595.982	-0.02
596.172	0.05
596.363	0.01
596.553	-0.01
596.743	-0.01
596.933	-0.01
597.123	0.03
597.314	-0.03
597.504	-0.01
597.694	0.05
597.884	-0
598.074	-0.01
598.264	-0.03
598.454	-0
598.644	-0
598.834	-0.01
599.024	-0.08
599.214	-0.01
599.404	0.02
599.594	-0.03
599.784	-0.07
599.974	0.03
600.164	0.02
600.354	-0.04
600.544	-0.02
600.734	0.01
600.924	0
601.114	-0.02
601.303	-0.01
601.493	-0
601.683	-0.02
601.873	0.02
602.063	-0.04
602.252	0.02
602.442	-0.05
602.632	-0.03
602.821	-0.05
603.011	0.01
603.201	-0.03
603.39	-0.03
603.58	-0.02
603.77	0.02
603.959	0.02
604.149	-0.01
604.339	-0.03
604.528	0.03
604.718	-0.01
604.907	-0.04
605.097	-0.01
605.286	-0.02
605.476	0.01
605.665	0.01
605.855	-0.03
606.044	0.03
606.234	0.03
606.423	0.01
606.612	-0.04
606.802	-0.02
606.991	0
607.181	-0
607.37	-0.06
607.559	-0.01
607.749	-0.06
607.938	0.01
608.127	-0.04
608.316	-0.03
608.506	0.01
608.695	-0.02
608.884	-0.03
609.073	-0.02
609.263	0.02
609.452	-0
609.641	0
609.83	-0.03
610.019	-0.05
610.208	-0.03
610.397	0
610.586	-0.01
610.775	-0.02
610.965	-0.02
611.154	-0.03
611.343	-0.02
611.532	-0.04
611.721	-0.02
611.91	-0.03
612.099	-0.01
612.287	-0.05
612.476	-0.06
612.665	0.01
612.854	-0.02
613.043	0.04
613.232	-0.01
613.421	-0.03
613.61	0
613.798	-0.02
613.987	0.02
614.176	-0.01
614.365	0.02
614.554	-0.01
614.742	0.04
614.931	-0.02
615.12	0
615.309	-0.02
615.497	0
615.686	-0.05
615.875	-0.03
616.063	-0.02
616.252	-0.02
616.44	-0
616.629	-0.02
616.818	0.02
617.006	0
617.195	-0.01
617.383	-0.01
617.572	0.01
617.76	-0.01
617.949	0
618.137	-0.01
618.326	-0
618.514	-0.05
618.703	-0.03
618.891	0.05
619.079	-0.05
619.268	0.02
619.456	-0.02
619.644	0.04
619.833	-0
620.021	-0.03
620.209	-0.05
620.398	0.04
620.586	0.03
620.774	0.03
620.962	-0.03
621.151	0.05
621.339	-0.02
621.527	-0.06
621.715	-0.04
621.903	-0.03
622.092	-0.03
622.28	-0.01
622.468	-0.02
622.656	-0.02
622.844	0.01
623.032	-0.01
623.22	-0.04
623.408	0.04
623.596	0.03
623.784	0.04
623.972	-0.01
624.16	-0.03
624.348	0.04
624.536	0
624.724	-0.02
624.912	0.05
625.1	0.04
625.288	-0.03
625.476	-0.01
625.664	0
625.851	-0.04
626.039	-0.04
626.227	0.02
626.415	-0.02
626.603	-0.07
626.79	-0.02
626.978	-0.01
627.166	-0.01
627.354	-0.01
627.541	-0.02
627.729	-0.06
627.917	-0.01
628.104	0.01
628.292	0.01
628.48	-0.03
628.667	0.01
628.855	-0
629.042	0.01
629.23	-0.01
629.418	-0.04
629.605	-0.01
629.793	-0.02
629.98	-0.03
630.168	-0.02
630.355	-0.02
630.543	0
630.73	-0.03
630.917	0.03
631.105	0.05
631.292	-0.03
631.48	0.01
631.667	0.06
631.854	-0
632.042	-0.01
632.229	-0.07
632.416	0.03
632.604	-0.01
632.791	-0.01
632.978	0.03
633.165	0
633.353	0.05
633.54	0.03
633.727	-0.06
633.914	-0.03
634.101	-0.09
634.289	0.02
634.476	-0.01
634.663	-0.05
634.85	-0.02
635.037	-0.04
635.224	-0.05
635.411	0.03
635.598	0.05
635.785	-0.01
635.972	-0.02
636.159	0.05
636.346	-0.01
636.533	0.02
636.72	-0.02
636.907	-0.02
637.094	0.07
637.281	-0
637.468	0.03
637.655	0.03
637.842	0.01
638.029	-0.03
638.215	0.01
638.402	-0.02
638.589	0.01
638.776	0.01
638.963	-0.01
639.149	0.03
639.336	0.06
639.523	0.02
639.709	0.03
639.896	0.01
640.083	0.06
640.27	0.01
640.456	-0.03
640.643	0.03
640.829	-0.01
641.016	-0.01
641.203	-0.02
641.389	0.02
641.576	0.01
641.762	0.02
641.949	-0.03
642.135	0.02
642.322	0.03
642.508	-0.04
642.695	0.02
642.881	-0.02
643.068	-0.02
643.254	0
643.441	0.04
643.627	0.03
643.813	-0.04
644	0.08
644.186	0.01
644.372	0.05
644.559	0.07
644.745	0.01
644.931	-0.02
645.118	0.03
645.304	0.01
645.49	0.01
645.676	-0
645.862	0.02
646.049	0.06
646.235	0.05
646.421	0.11
646.607	0.07
646.793	0.03
646.979	-0.01
647.165	0.04
647.352	0.04
647.538	0.04
647.724	0.07
647.91	0.06
648.096	0.08
648.282	0.06
648.468	0.01
648.654	0.07
648.84	0.04
649.026	0.02
649.212	0.05
649.397	0.05
649.583	-0.01
649.769	0.07
649.955	0.07
650.141	0.08
650.327	0.09
650.513	0.03
650.698	0.08
650.884	0.01
651.07	0.08
651.256	0.05
651.442	0.03
651.627	0.06
651.813	0.05
651.999	0.06
652.184	0.04
652.37	0.06
652.556	0.05
652.741	0.11
652.927	0.01
653.113	0.06
653.298	0.05
653.484	0.1
653.669	0.02
653.855	0.05
654.04	0.11
654.226	0.11
654.412	0.03
654.597	0.02
654.782	0.1
654.968	0.1
655.153	0.13
655.339	0.09
655.524	0.05
655.71	0.12
655.895	0.06
656.08	0.08
656.266	0.11
656.451	0.1
656.636	0.06
656.822	0.09
657.007	0.12
657.192	0.06
657.378	0.04
657.563	0.08
657.748	0.1
657.933	0.12
658.118	0.06
658.304	0.04
658.489	0.1
658.674	0.12
658.859	0.06
659.044	0.09
659.229	0.12
659.414	0.09
659.599	0.08
659.785	0.05
659.97	0.13
660.155	0.09
660.34	0.08
660.525	0.1
660.71	0.07
660.895	0.13
661.08	0.05
661.264	0.03
661.449	0.15
661.634	0.15
661.819	0.14
662.004	0.1
662.189	0
662.374	0.02
662.559	0.04
662.743	0.03
662.928	0.09
663.113	0.03
663.298	0.05
663.483	0.06
663.667	0.05
663.852	0.01
664.037	0.09
664.221	0.01
664.406	0.07
664.591	0.07
664.775	0.03
664.96	0.05
665.145	0.02
665.329	0.05
665.514	0.02
665.698	0.03
665.883	0
666.068	0.13
666.252	-0
666.437	0
666.621	0.01
666.806	0.02
666.99	0.05
667.174	-0.03
667.359	0.08
667.543	0.02
667.728	-0.02
667.912	-0.04
668.096	0.04
668.281	0.02
668.465	0
668.649	0.04
668.834	-0.05
669.018	-0.01
669.202	0.01
669.387	-0.01
669.571	0.04
669.755	-0.06
669.939	-0.01
670.124	0.01
670.308	0.04
670.492	0.01
670.676	0.02
670.86	0
671.044	-0.05
671.228	0.04
671.413	-0.05
671.597	-0.01
671.781	-0.05
671.965	0.03
672.149	0.01
672.333	-0.03
672.517	-0.01
672.701	0.02
672.885	-0.01
673.069	-0.03
673.253	0.03
673.437	-0
673.621	-0
673.804	-0.04
673.988	0.01
674.172	0.02
674.356	-0.09
674.54	-0.02
674.724	0.06
674.908	-0
675.091	0.02
675.275	-0
675.459	-0.02
675.643	0.05
675.826	0.02
676.01	0.04
676.194	-0.02
676.377	-0.01
676.561	0.01
676.745	-0.02
676.928	-0.03
677.112	0.01
677.296	-0.03
677.479	-0.04
677.663	-0.02
677.846	0.05
678.03	0.03
678.213	-0.04
678.397	0
678.58	-0.04
678.764	-0.04
678.947	-0.03
679.131	-0.02
679.314	0.05
679.498	-0.05
679.681	-0.02
679.865	0.04
680.048	-0.03
680.231	-0.01
680.415	-0.02
680.598	-0.03
680.781	0.01
680.965	-0.01
681.148	0
681.331	-0.03
681.514	-0.02
681.698	-0.01
681.881	-0.02
682.064	0.01
682.247	-0.01
682.43	-0.07
682.614	0.03
682.797	0.03
682.98	0.03
683.163	-0.05
683.346	0.01
683.529	-0
683.712	-0.07
683.895	0
684.078	-0.01
684.261	-0.06
684.444	-0.05
684.627	0.02
684.81	-0.05
684.993	-0.04
685.176	-0.01
685.359	-0.04
685.542	-0.06
685.725	-0.02
685.908	0
686.091	0.03
686.274	0
686.457	-0.03
686.639	-0.03
686.822	-0
687.005	0.04
687.188	0.02
687.371	0.04
687.553	-0.01
687.736	0.01
687.919	0.07
688.102	0.02
688.284	-0.01
688.467	0.01
688.65	-0.05
688.832	-0.04
689.015	-0.03
689.197	-0.1
689.38	0.06
689.563	0.05
689.745	-0.11
689.928	-0.03
690.11	-0.02
690.293	0
690.475	-0.08
690.658	0
690.84	-0.07
691.023	-0.04
691.205	-0.05
691.388	0
691.57	0.01
691.752	-0.01
691.935	-0.06
692.117	-0.08
692.3	0.03
692.482	0.02
692.664	-0.03
692.847	-0
693.029	0.02
693.211	-0.05
693.393	-0.06
693.576	-0.05
693.758	-0.02
693.94	0
694.122	-0.06
694.304	0.01
694.487	-0.04
694.669	0.06
694.851	-0.04
695.033	0.03
695.215	-0.08
695.397	-0.06
695.579	0.04
695.761	-0.06
695.943	-0.16
696.125	0.01
696.308	0.01
696.49	-0.07
696.671	0.06
696.853	-0.04
697.035	0.09
697.217	-0.04
697.399	-0.02
697.581	-0.02
697.763	-0.01
697.945	-0.07
698.127	0.03
698.309	0
698.491	0.02
698.672	0.03
698.854	-0.02
699.036	0.06
699.218	-0.03
699.399	0.04
699.581	0.01
699.763	-0.01
699.945	-0.07
700.126	0
700.308	0.01
700.49	0.03
700.671	-0.09
700.853	-0.06
701.035	-0.01
701.216	-0.02
701.398	-0
701.579	-0.04
701.761	0.05
701.943	-0.05
702.124	-0.07
702.306	-0.01
702.487	0.08
702.669	-0.01
702.85	-0.05
703.031	-0.06
703.213	0.06
703.394	0.06
703.576	-0.09
703.757	-0.01
703.938	0.09
704.12	0.1
704.301	-0.02
704.483	-0.03
704.664	0.02
704.845	0.12
705.026	0.03
705.208	-0.04
705.389	-0.03
705.57	-0.02
705.751	-0.02
705.933	-0.02
706.114	-0.01
706.295	-0.02
706.476	-0.05
706.657	0.11
706.838	0.04
707.02	0.09
707.201	-0.02
707.382	-0.07
707.563	-0
707.744	-0.04
707.925	-0.08
708.106	-0.08
708.287	0.02
708.468	0.02
708.649	-0.01
708.83	0.01
709.011	-0.06
709.192	0.04
709.373	-0.1
709.554	0.03
709.734	0.07
709.915	0.04
710.096	-0.08
710.277	-0.12
710.458	-0.02
710.639	0.09
710.819	-0.05
711	0.01
711.181	0.09
711.362	0.05
711.542	0.02
711.723	-0.02
711.904	0.07
712.085	0.06
712.265	0.02
712.446	-0.11
712.627	-0.03
712.807	-0
712.988	0.07
713.168	-0.09
713.349	-0.03
713.53	-0.15
713.71	-0.05
713.891	-0.03
714.071	-0.04
714.252	-0.03
714.432	-0.05
714.613	-0.05
714.793	0.01
714.974	0.06
715.154	0.12
715.334	0.06
715.515	0.09
715.695	-0.14
715.876	-0.02
716.056	0
716.236	-0.01
716.417	-0.01
716.597	-0.05
716.777	0.08
716.957	0
717.138	0.04
717.318	0.03
717.498	-0.03
717.678	0
717.859	0.04
718.039	-0.13
718.219	0.06
718.399	0.02
718.579	-0.03
718.759	-0.06
718.939	0.03
719.12	0.01
719.3	-0.04
719.48	-0.09
719.66	-0.08
719.84	0.07
720.02	-0.06
720.2	-0.06
720.38	0.09
720.56	0.08
720.74	-0.09
720.92	0.04
721.1	0.14
721.279	0.06
721.459	-0.03
721.639	-0
721.819	0.06
721.999	-0.06
722.179	0.1
722.359	-0.08
722.538	0.01
722.718	0.01
722.898	-0.03
723.078	-0.03
723.257	0.02
723.437	-0.05
723.617	0.05
723.797	0.01
723.976	0.1
724.156	0.05
724.336	0.08
724.515	0.09
724.695	-0.13
724.874	0.04
725.054	0.1
725.234	0.02
725.413	-0.01
725.593	0
725.772	0.02
725.952	0.05
726.131	0.01
726.311	0.07
726.49	0.05
726.67	-0.07
726.849	-0.07
727.028	0.04
727.208	-0.03
727.387	0.08
727.567	-0.02
727.746	0.02
727.925	-0.03
728.105	-0.06
728.284	-0.01
728.463	0.02
728.643	0.08
728.822	0.01
729.001	-0.01
729.18	0.02
729.359	0.09
729.539	0.04
729.718	0.02
729.897	0.02
730.076	-0.02
730.255	0.08
730.434	0.05
730.614	0.07
730.793	0.14
730.972	0.06
731.151	0.02
731.33	0.13
731.509	0.1
731.688	0.05
731.867	0.04
732.046	-0.12
732.225	0.22
732.404	-0
732.583	-0.08
732.762	0.13
732.941	0.08
733.12	0.07
733.298	0.07
733.477	0.08
733.656	0.03
733.835	-0
734.014	0.2
734.193	0.07
734.371	0.08
734.55	0.09
734.729	-0.05
734.908	0.05
735.086	0.03
735.265	0.14
735.444	-0.06
735.623	0.01
735.801	-0.03
735.98	0.14
736.159	0.05
736.337	0.13
736.516	0.09
736.694	0.07
736.873	0.07
737.052	0.12
737.23	0.21
737.409	-0.06
737.587	0.19
737.766	-0.12
737.944	-0.02
738.123	0.17
738.301	0.17
738.479	0.01
738.658	0.06
738.836	-0.12
739.015	-0.01
739.193	0.13
739.371	-0.05
739.55	0.06
739.728	0
739.906	0.2
740.085	0.24
740.263	0.11
740.441	-0.11
740.62	0.2
740.798	0.13
740.976	-0.06
741.154	0.02
741.332	0.26
741.511	0.07
741.689	0.05
741.867	0.1
742.045	-0.01
742.223	0.05
742.401	0.03
742.579	-0.03
742.757	-0
742.935	-0.09
743.114	-0.06
743.292	-0.04
743.47	-0.07
743.648	0.05
743.826	-0.05
744.004	0.13
744.181	0
744.359	-0.05
744.537	0.01
744.715	-0.02
744.893	0.07
745.071	-0.03
745.249	0.07
745.427	-0.01
745.605	-0.01
745.782	-0.08
745.96	0.08
746.138	0.03
746.316	-0.01
746.493	0.08
746.671	-0.05
746.849	0.06
747.027	0.07
747.204	-0.12
747.382	0.03
747.56	-0.15
747.737	0.02
747.915	-0.09
748.093	0.02
748.27	-0.06
748.448	-0.05
748.625	-0.12
748.803	-0.03
748.98	-0.12
749.158	0.11
749.335	0.02
749.513	-0.05
749.69	-0.03
749.868	-0.11
750.045	0.01
750.223	-0.08
750.4	-0.25
750.578	0.17
750.755	-0.01
750.932	-0.16
751.11	-0.01
751.287	-0.13
751.464	0.13
751.642	-0.06
751.819	0.04
751.996	-0.07
752.173	-0.04
752.351	-0.11
752.528	-0.05
752.705	-0.03
752.882	-0.03
753.06	0.03
753.237	0.03
753.414	0.12
753.591	0.07
753.768	0
753.945	-0.05
754.122	-0.13
754.299	-0.04
754.476	-0.03
754.654	0.05
754.831	-0.02
755.008	-0.07
755.185	-0.02
755.362	-0.18
755.539	0.08
755.716	-0.07
755.892	-0.02
756.069	-0.07
756.246	-0.03
756.423	-0.04
756.6	0.16
756.777	-0.05
756.954	0.27
757.131	-0.04
757.307	-0.05
757.484	-0.19
757.661	-0.01
757.838	-0.06
758.015	-0.17
758.191	0.06
758.368	-0.12
758.545	0.12
758.721	-0.09
758.898	0
759.075	0
759.251	0.06
759.428	0.1
759.605	-0.2
759.781	-0.07
759.958	0.01
760.134	0.05
760.311	-0.14
760.488	0.03
760.664	-0.01
760.841	0.02
761.017	-0.08
761.194	-0.1
761.37	0.03
761.547	-0.02
761.723	-0.12
761.899	0.02
762.076	-0.14
762.252	-0.16
762.429	-0.17
762.605	-0.06
762.781	-0.09
762.958	0.09
763.134	-0.06
763.31	-0.17
763.486	0.02
763.663	-0.23
763.839	-0.03
764.015	-0.16
764.191	0.02
764.368	-0.02
764.544	-0.05
764.72	-0.06
764.896	0.01
765.072	-0.06
765.248	-0.08
765.425	-0.09
765.601	-0.05
765.777	-0.03
765.953	-0.21
766.129	-0.11
766.305	-0.12
766.481	-0.01
766.657	-0.18
766.833	0.05
767.009	-0.14
767.185	-0.11
767.361	-0.1
767.537	-0.19
767.713	-0
767.889	-0.06
768.065	0.01
768.24	-0.16
768.416	0.11
768.592	-0.06
768.768	-0.09
768.944	-0.01
769.12	-0.07
769.295	-0.1
769.471	0.01
769.647	-0.09
769.823	0.08
769.998	-0.04
770.174	-0.17
770.35	0.13
770.525	0.2
770.701	-0
770.877	-0.11
771.052	-0.07
771.228	0
771.403	0.01
771.579	0.14
771.755	0.1
771.93	-0.12
772.106	-0.23
772.281	-0.21
772.457	-0.04
772.632	-0.03
772.808	-0.11
772.983	-0.08
773.159	-0.15
773.334	0.03
773.509	-0.01
773.685	-0.19
773.86	0.28
774.036	0.1
774.211	0.05
774.386	-0.13
774.562	-0.21
774.737	-0.06
774.912	-0.16
775.087	0.11
775.263	0
775.438	-0.08
775.613	-0.11
775.788	-0.05
775.964	0.03
776.139	0.25
776.314	-0.12
776.489	-0.07
776.664	0.04
776.839	-0.13
777.014	0.18
777.19	0.12
777.365	0.12
777.54	0.21
777.715	0.01
777.89	-0.06
778.065	-0.23
778.24	-0.09
778.415	0.06
778.59	-0.06
778.765	-0.09
778.94	-0.13
779.115	-0.03
779.289	-0.04
779.464	-0.06
779.639	-0.03
779.814	-0.27
779.989	-0.28
780.164	0.07
780.339	0.07
780.513	-0.1
780.688	-0.05
780.863	-0.05
781.038	0.03
781.212	-0.3
781.387	0.03
781.562	0.29
781.737	0.06
781.911	-0.02
782.086	-0.18
782.261	-0.11
782.435	0.09
782.61	-0.08
782.784	0.06
782.959	0.14
783.134	-0.07
783.308	-0.23
783.483	-0.07
783.657	0.27
783.832	-0
784.006	-0.14
784.181	-0.22
784.355	0.13
784.53	0.2
784.704	-0.04
784.878	0.23
785.053	0.02
785.227	0.27
785.402	0.14
785.576	-0.36
785.75	0
785.925	-0.18
786.099	-0.13
786.273	0.05
786.448	0.1
786.622	0.05
786.796	-0.07
786.97	-0.14
787.145	0.61
787.319	-0.35
787.493	-0.01
787.667	-0.37
787.841	-0.04
788.015	0.11
788.19	-0.23
788.364	-0.05
788.538	-0.16
788.712	-0.05
788.886	0.01
789.06	0.36
789.234	0.07
789.408	-0.36
789.582	-0.27
789.756	-0.01
789.93	-0.24
790.104	-0.16
790.278	-0.26
790.452	-0.31
790.626	0.12
790.8	-0.11
790.973	0.1
791.147	0.15
791.321	0.1
791.495	0.2
791.669	-0.05
791.843	0.16
792.016	0.06
792.19	0.3
792.364	-0.23
792.538	0.14
792.711	0.18
792.885	-0.13
793.059	-0.19
793.233	-0.38
793.406	0.13
793.58	-0
793.754	-0.05
793.927	-0.29
794.101	0.17
794.274	0.22
794.448	0.18
794.622	-0.13
794.795	0.21
794.969	-0.25
795.142	0.12
795.316	-0.1
795.489	-0.38
795.663	0.15
795.836	-0.25
796.009	-0.26
796.183	0.15
796.356	0.15
796.53	0.07
796.703	-0.38
796.876	0.16
797.05	-0.04
797.223	-0.28
797.396	-0.01
797.57	0
797.743	0.35
797.916	-0.05
798.09	-0.13
798.263	0.11
798.436	0.14
798.609	-0.06
798.782	-0.08
798.956	0.2
799.129	-0.02
799.302	-0.14
799.475	-0.18
799.648	-0.33
799.821	-0.23
799.994	-0.08
800.167	-0.32
800.34	0.01
800.514	0.11
800.687	-0.17
800.86	-0.33
801.033	-0.28
801.206	-0.08
801.379	-0.31
801.551	0.23
801.724	0.14
801.897	0.29
802.07	-0.33
802.243	-0.61
802.416	-0.08
802.589	-0.21
802.762	-0.02
802.935	0.08
803.107	0.26
803.28	0.13
803.453	0.12
803.626	-0.24
803.798	-0.06
803.971	-0.47
804.144	-0.27
804.317	0.04
804.489	0.09
804.662	-0.25
804.835	0.1
805.007	-0.17
805.18	0.29
805.353	0.25
805.525	-0.2
805.698	-0.3
805.87	0.11
806.043	0.06
806.215	-0.39
806.388	-0.03
806.56	-0.09
806.733	0.3
806.905	-0.11
807.078	-0.05
807.25	-0.23
807.423	0.06
807.595	0.32
807.768	-0.32
807.94	0.12
808.112	0.07
808.285	-0
808.457	0.05
808.629	-0.03
808.802	0.28
808.974	-0.09
809.146	-0.13
809.318	-0.39
809.491	0.18
809.663	0.29
809.835	-0.35
810.007	-0
810.18	-0.39
810.352	-0.51
810.524	0.04
810.696	-0.16
810.868	0.34
811.04	-0.5
811.212	-0.35
811.384	0.11
811.556	-0.02
811.728	-0.01
811.901	0.4
812.073	-0.37
812.245	0.24
812.417	-0.02
812.589	-0.81
812.76	0.16
812.932	0
813.104	-0.03
813.276	0.06
813.448	0.2
813.62	-0.1
813.792	0.2
813.964	-0.03
814.136	0.04
814.307	-0.33
814.479	-0.2
814.651	-0.13
814.823	0.43
814.995	-0.18
815.166	0.2
815.338	-0.59
815.51	-0.95
815.681	0.62
815.853	-0.04
816.025	0.1
816.196	0.44
816.368	0.05
816.54	-0.63
816.711	-0.31
816.883	-0.09
817.054	0.58
817.226	-0.92
817.398	0.08
817.569	-0.42
817.741	-0.19
817.912	0.09
818.084	-0.26
818.255	-0.32
818.426	-0.25
818.598	-0.22
818.769	-0.35
818.941	0.28
819.112	0.38
819.283	-0.16
819.455	-0.41
819.626	-0.06
819.798	-0.01
819.969	-0.1
820.14	-0.28
820.311	-0.22
820.483	-0.09
820.654	-0.2
820.825	0.05
820.996	-0.38
821.168	-0.56
821.339	-0.11
821.51	-0.21
821.681	-0.23
821.852	-0.2
822.023	-0.12
822.195	-0.68
822.366	-0.11
822.537	-0.05
822.708	-0.28
822.879	-0.58
823.05	0.35
823.221	0.05
823.392	0.54
823.563	-0.01
823.734	0.34
823.905	-0.19
824.076	-0.63
824.247	-0.71
824.418	-0.36
824.589	0.97
824.759	-0.25
824.93	-0.04
825.101	-0.93
825.272	0.36
825.443	0.03
825.614	0.41
825.784	-1.06
825.955	1.11
826.126	0.45
826.297	-0.37
826.467	0.33
826.638	0.17
826.809	-0.58
826.98	-0.55
827.15	0.05
827.321	0.34
827.492	0.6
827.662	0.4
827.833	0.45
828.003	0.06
828.174	-0.54
828.345	-0.26
828.515	0.53
828.686	0.06
828.856	-0.17
829.027	0.05
829.197	-0.34
829.368	0.44
829.538	-0.01
829.709	-0.18
829.879	0.38
830.049	-0.47
830.22	-0.63
830.39	-0.07
830.56	0.42
830.731	-0.45
830.901	-0.57
831.072	0.1
831.242	0.05
831.412	0.18
831.582	-0.19
831.753	-0.69
831.923	0.51
832.093	-0.35
832.263	-0.81
832.434	-0.98
832.604	-0.26
832.774	0.27
832.944	-0.24
833.114	-0.48
833.284	-0.4
833.454	-0.38
833.624	-0.57
833.795	-0.18
833.965	0.02
834.135	0.55
834.305	-0.73
834.475	-0.33
834.645	-0.66
834.815	-0.54
834.985	-0.48
835.155	-0.46
835.325	0.34
835.494	0.02
835.664	-0.31
835.834	-0.45
836.004	-0.49
836.174	-0.11
836.344	0.13
836.514	-0.82
836.684	-0.21
836.853	-0.42
837.023	-0.2
837.193	-0.21
837.363	-0.18
837.532	0.54
837.702	-0.44
837.872	-0.39
838.041	0.66
838.211	1.49
838.381	-0.36
838.55	-0.17
838.72	1.31
838.89	1.16
839.059	-0.32
839.229	-0.35
839.398	1.02
839.568	-0.13
839.738	-0.29
839.907	0.97
840.077	0.29
840.246	-0.61
840.416	-0.62
840.585	-0.88
840.755	-0.04
840.924	0.33
841.093	-0.94
841.263	-0.4
841.432	-0.6
841.602	-1.4
841.771	-0.72
841.94	0
842.11	1.79
842.279	1.29
842.448	-1.3
842.617	-1.06
842.787	0.54
842.956	-0.39
843.125	0.09
843.294	0.61
843.464	-0.22
843.633	0.36
843.802	-0.48
843.971	0.18
844.14	0.79
844.309	-0.23
844.479	-1.09
844.648	-1.36
844.817	-0.43
844.986	-0.17
845.155	-0.69
845.324	-0.26
845.493	-0.33
845.662	-0.78
845.831	-0.02
846	0.86
846.169	-0.54
846.338	1.24
846.507	0.31
846.676	-0.67
846.844	-0.54
847.013	0.31
847.182	-0.05
847.351	-0.35
847.52	0.38
847.689	0.09
847.858	-0.88
848.026	-0.91
848.195	-0.23
848.364	-0.8
848.533	-0.41
848.701	-0.32
848.87	0.01
849.039	0.95
849.207	0.51
849.376	0.47
849.545	0.49
849.713	-0.31
849.882	-0.44
850.051	-0.13
850.219	0.16
850.388	0.41
850.556	-0.96
850.725	-1.52
850.893	0.11
851.062	-0.68
851.23	-0.48
851.399	-0.83
851.567	-0.19
851.736	-1.38
851.904	-1.34
852.073	-0.11
852.241	-0.37
852.41	0.09
852.578	-1.27
852.746	-1.09
852.915	0.76
853.083	0.9
853.251	-2.06
853.42	-0.15
853.588	-0.11
853.756	0.69
853.924	0.19
854.093	0.2
854.261	-0.03
854.429	-1.14
854.597	-0.27
854.765	-1.41
854.934	1.34
855.102	0.33
855.27	-0.44
855.438	0.25
855.606	1.71
855.774	0.85
855.942	-2.26
856.11	-2.06
856.278	-0.76
856.446	-0.8
856.614	-0.71
856.782	-0.34
856.95	-0.06
857.118	0.48
857.286	-1.19
857.454	-0.44
857.622	1.06
857.79	-0.08
857.958	-0.65
858.126	-0.61
858.294	-2.09
858.462	-0.44
858.629	-1.08
858.797	-0.28
858.965	-0.26
859.133	-0.22
859.301	-0.78
859.468	0.32
859.636	-2.09
859.804	0.01
859.971	0.88
860.139	-1.13
860.307	0.77
860.474	-0.39
860.642	-1.49
860.81	-1.52
860.977	-0.38
861.145	0.39
861.313	-1.47
861.48	-0.07
861.648	0.44
861.815	1.02
861.983	-0.77
862.15	-0.74
862.318	1.12
862.485	0.96
862.653	-0.9
862.82	-0.24
862.988	0.84
863.155	-0.19
863.322	0
863.49	-2.6
863.657	-0.86
863.824	0.66
863.992	0.23
864.159	0.64
864.326	-0.46
864.494	-1.23
864.661	3.07
864.828	-0.79
864.996	1.09
865.163	1.41
865.33	-2.03
865.497	-2.46
865.664	-0.46
865.832	-1.56
865.999	0.57
866.166	-2.04
866.333	-0.92
866.5	-1.86
866.667	-0.84
866.834	-0.99
867.001	0.67
867.168	-2.86
867.335	-0.83
867.502	-1.82
867.669	0.21
867.836	1.25
868.003	0.53
868.17	0.88
868.337	0.97
868.504	0.32
868.671	-1.03
868.838	-2
869.005	-0.85
869.172	-0.26
869.339	-0.42
869.505	-1.04
869.672	-0.92
869.839	0.83
870.006	-0.08
870.173	-1.73
870.339	-0.99
870.506	1.63
870.673	-0.38
870.84	0.24
871.006	0.33
871.173	-2.53
871.34	0.4
871.506	-0.4
871.673	0.62
871.839	-3.1
872.006	-0.79
872.173	0.03
872.339	-0.59
872.506	1.54
872.672	-0.28
872.839	-1.7
873.005	-0.02
873.172	2.73
873.338	0.5
873.505	-1.06
873.671	-2.56
873.838	1.14
874.004	-1.92
874.171	-0.77
874.337	0.29
874.503	0.64
874.67	-0.43
874.836	-1.31
875.002	1.75
875.169	0.26
875.335	-0.77
875.501	-1.37
875.668	2.04
875.834	-0.69
876	0.69
876.166	0.46
876.332	0.68
876.499	2.69
876.665	-1.32
876.831	0.58
876.997	0.71
877.163	-0.64
877.329	-1.3
877.495	-1.68
877.662	0.27
877.828	0.07
877.994	-2.04
878.16	-2.42
878.326	-1.35
878.492	-0.3
878.658	-1.87
878.824	0.72
878.99	-0.32
879.156	-2.87
879.322	2.73
879.487	0.04
879.653	0.15
879.819	-0.35
879.985	-1.38
880.151	-0.35
880.317	1.57
880.483	1.06
880.648	0.73
880.814	-3.86
880.98	0.15
881.146	-3.79
881.312	0.32
881.477	-0.56
881.643	0.15
881.809	2.81
881.974	-0.38
882.14	-3.34
882.306	-0.66
882.471	3.45
882.637	-0.45
882.803	1.76
882.968	0.86
883.134	4.23
883.299	-1.03
883.465	1.23
883.63	1.4
883.796	1.68
883.961	1.77
884.127	0.97
884.292	-5.36
884.458	-1.92
884.623	-1.92
