Data from Apollo_Calib_20240827__AbsoluteIrradiance__591__09-00-01-813.txt Node

Date: Wed Aug 28 09:00:01 BST 2024
User: biology
Spectrometer: FLMT08252
Trigger mode: 0
Integration Time (sec): 5.000000E-1
Scans to average: 5
Electric dark correction enabled: true
Nonlinearity correction enabled: false
Boxcar width: 0
XAxis mode: Wavelengths
Number of Pixels in Spectrum: 3648
>>>>>Begin Spectral Data<<<<<
179.588	-0
179.809	-0
180.03	-0
180.251	-0
180.473	-0
180.694	0
180.915	0
181.136	-0
181.357	0
181.578	-0
181.799	-0
182.02	-0
182.241	0
182.462	-0
182.683	0
182.904	-0
183.125	0
183.346	0
183.567	0
183.788	-0
184.009	-0
184.23	0
184.451	0
184.672	-0
184.892	-0
185.113	0
185.334	0
185.555	0
185.776	0
185.996	0
186.217	0
186.438	0
186.659	-0
186.879	0
187.1	0
187.321	-0
187.541	-0
187.762	0
187.983	0
188.203	0
188.424	0
188.644	-0
188.865	0
189.086	0
189.306	0
189.527	0
189.747	0
189.968	-0
190.188	0
190.409	-0
190.629	0
190.849	0
191.07	-0
191.29	0
191.511	0
191.731	-0
191.951	-0
192.172	0
192.392	0
192.612	0
192.833	0
193.053	0
193.273	0
193.493	-0
193.714	0
193.934	0
194.154	0
194.374	0
194.594	0
194.815	0
195.035	0
195.255	0
195.475	0
195.695	0
195.915	0
196.135	0
196.355	0
196.575	0
196.795	0
197.015	0
197.235	0
197.455	-0
197.675	0
197.895	0
198.115	-0
198.335	0
198.555	-0
198.775	0
198.995	0
199.214	0
199.434	0
199.654	0
199.874	0
200.094	0.91
200.313	-0.23
200.533	0.15
200.753	-0.04
200.973	1.32
201.192	1.12
201.412	-0.29
201.632	-0.04
201.851	0.84
202.071	0.32
202.291	0.05
202.51	-0.19
202.73	0.2
202.95	0.49
203.169	-0.26
203.389	0.41
203.608	0.38
203.828	-0.26
204.047	0.19
204.267	0.78
204.486	0.58
204.706	0.66
204.925	0.54
205.145	-0.21
205.364	0.7
205.583	0.78
205.803	0.2
206.022	-0.01
206.242	0.26
206.461	0.38
206.68	-0.13
206.9	0.7
207.119	0.99
207.338	0.68
207.557	-0.01
207.777	0.1
207.996	0.1
208.215	0.6
208.434	-0.04
208.654	-0.02
208.873	0.13
209.092	0.9
209.311	0.18
209.53	0.08
209.749	-0
209.968	0.13
210.187	0.2
210.407	-0.06
210.626	0.01
210.845	0.46
211.064	0.14
211.283	0.06
211.502	0.56
211.721	0.14
211.94	0.27
212.159	0.23
212.377	0.3
212.596	0.48
212.815	0.16
213.034	0.14
213.253	0.47
213.472	0.43
213.691	0.06
213.91	-0.1
214.128	-0.04
214.347	0.58
214.566	-0.29
214.785	-0.16
215.003	0.39
215.222	0.2
215.441	0.31
215.66	-0.02
215.878	0.25
216.097	0.4
216.316	-0.14
216.534	-0.06
216.753	0.14
216.972	0.08
217.19	0.02
217.409	-0.07
217.627	-0.02
217.846	0.02
218.064	0.31
218.283	0.03
218.501	0.45
218.72	0.43
218.938	-0.11
219.157	-0.09
219.375	0.42
219.594	0.03
219.812	0
220.031	0.04
220.249	0.46
220.467	0.5
220.686	0.02
220.904	-0.1
221.122	0.07
221.341	0.37
221.559	0.13
221.777	0.01
221.995	0.14
222.214	0.24
222.432	0.07
222.65	0.25
222.868	0.24
223.086	0.07
223.305	0.19
223.523	0.02
223.741	0.44
223.959	0.05
224.177	-0.22
224.395	0.03
224.613	0.15
224.831	0.17
225.049	-0.12
225.267	0.03
225.485	0.09
225.703	0.2
225.921	0.06
226.139	0.07
226.357	0.25
226.575	0.19
226.793	0.07
227.011	0.61
227.229	0.3
227.447	0.22
227.665	0.02
227.883	-0.12
228.1	0.03
228.318	0.12
228.536	-0.11
228.754	-0
228.972	0.19
229.189	0.12
229.407	0.02
229.625	-0
229.843	0.17
230.06	0.23
230.278	-0.13
230.496	0.12
230.713	0.13
230.931	0.22
231.149	0.13
231.366	-0.01
231.584	0.14
231.801	0.46
232.019	0.04
232.236	0.02
232.454	-0.01
232.671	0.16
232.889	0.08
233.106	-0.12
233.324	0.1
233.541	0.19
233.759	0.15
233.976	-0.06
234.194	0.17
234.411	0.18
234.628	-0.01
234.846	0.13
235.063	0.02
235.28	0.11
235.498	0.19
235.715	0.01
235.932	0.1
236.149	0.08
236.367	-0.04
236.584	0.12
236.801	0.01
237.018	0.16
237.236	0.15
237.453	-0.03
237.67	0.21
237.887	0.05
238.104	0.03
238.321	0.06
238.538	0.08
238.755	0.2
238.973	-0.04
239.19	0.06
239.407	0.23
239.624	0.05
239.841	-0.07
240.058	0.01
240.275	0.16
240.492	-0
240.709	0.08
240.925	0
241.142	0.06
241.359	0.07
241.576	-0.02
241.793	0.1
242.01	0.09
242.227	0.15
242.444	0.13
242.66	0.2
242.877	0.04
243.094	0.03
243.311	0.1
243.527	-0.01
243.744	0.17
243.961	0.1
244.178	0.04
244.394	-0.04
244.611	0.18
244.828	0.24
245.044	0.02
245.261	0.01
245.477	0.05
245.694	0.16
245.911	0
246.127	0.09
246.344	0.3
246.56	0.15
246.777	0.06
246.993	0.05
247.21	0.13
247.426	0.13
247.643	0.05
247.859	-0.02
248.076	0.06
248.292	0.24
248.508	0.02
248.725	0.07
248.941	0.05
249.157	0.12
249.374	0.01
249.59	0
249.806	0.05
250.023	0.08
250.239	0.01
250.455	0.01
250.671	0.11
250.888	0.03
251.104	0.16
251.32	0.01
251.536	0.03
251.752	0.01
251.969	0.08
252.185	0.13
252.401	0.21
252.617	0.12
252.833	0.07
253.049	0.06
253.265	0.1
253.481	0.04
253.697	0.06
253.913	-0.05
254.129	0.1
254.345	0.12
254.561	0.04
254.777	0.11
254.993	0.07
255.209	0.04
255.425	-0.01
255.641	-0.03
255.857	0.12
256.073	0.03
256.288	-0.1
256.504	-0.01
256.72	0.13
256.936	0.17
257.152	0.04
257.367	0.01
257.583	0.04
257.799	0.12
258.015	-0.01
258.23	0.04
258.446	0.18
258.662	0.11
258.877	0.07
259.093	-0.03
259.309	0.13
259.524	0.07
259.74	-0.02
259.955	-0.02
260.171	0.03
260.387	0.03
260.602	0.1
260.818	0.1
261.033	-0.03
261.249	0
261.464	-0.04
261.68	-0.06
261.895	0.08
262.11	0.19
262.326	0.04
262.541	-0.02
262.757	0.11
262.972	0.06
263.187	0.07
263.403	0.1
263.618	0.15
263.833	0.09
264.049	-0
264.264	0.05
264.479	0.16
264.694	0.15
264.91	-0.01
265.125	0.04
265.34	0.08
265.555	0.19
265.77	0.11
265.986	0.04
266.201	0.1
266.416	0.17
266.631	0.05
266.846	0.09
267.061	0.06
267.276	0.04
267.491	-0.08
267.706	0.11
267.921	0.14
268.136	0.09
268.351	0.04
268.566	-0.04
268.781	0.1
268.996	0.11
269.211	0.04
269.426	-0.01
269.641	0.03
269.856	0.11
270.071	0.07
270.285	0.04
270.5	0.11
270.715	0.1
270.93	-0.03
271.145	0.08
271.359	0.05
271.574	0.01
271.789	0.02
272.004	0.01
272.218	0.02
272.433	0.02
272.648	0.05
272.862	0.12
273.077	0.02
273.292	0.03
273.506	0.04
273.721	0.04
273.936	0.12
274.15	0.17
274.365	0.01
274.579	0.13
274.794	0.09
275.008	0.12
275.223	-0.02
275.437	-0.01
275.652	0.05
275.866	0.08
276.081	0.06
276.295	0.1
276.509	0.05
276.724	0.05
276.938	0.02
277.153	0.11
277.367	0.07
277.581	0.03
277.796	0
278.01	0
278.224	0.11
278.438	0.13
278.653	0.03
278.867	0.01
279.081	0.04
279.295	0.09
279.51	0.09
279.724	-0.03
279.938	0.09
280.152	0.07
280.366	-0.04
280.58	0.05
280.794	0.15
281.008	0.09
281.222	0.13
281.437	0.13
281.651	0.06
281.865	0.14
282.079	-0.02
282.293	-0.04
282.507	0.01
282.721	0.01
282.935	0.05
283.148	-0.02
283.362	0.04
283.576	0.01
283.79	0.03
284.004	-0.05
284.218	0.06
284.432	0.02
284.646	0.06
284.859	-0.02
285.073	-0.04
285.287	0.07
285.501	0.03
285.714	0.01
285.928	0.07
286.142	0.05
286.356	-0.03
286.569	0.02
286.783	0.14
286.997	0.08
287.21	0.08
287.424	0.04
287.637	0.01
287.851	0.05
288.065	0.07
288.278	-0.05
288.492	0.05
288.705	0.04
288.919	0.09
289.132	-0.01
289.346	0.09
289.559	-0.06
289.773	-0.03
289.986	0.01
290.2	0.07
290.413	0.09
290.626	-0.05
290.84	-0.01
291.053	0.05
291.267	0.07
291.48	0.04
291.693	0.02
291.906	0
292.12	0.05
292.333	0.04
292.546	-0.01
292.76	0.12
292.973	0.04
293.186	0.04
293.399	0.02
293.612	0.07
293.826	0.02
294.039	0.05
294.252	0.03
294.465	0.06
294.678	0.07
294.891	0.02
295.104	0
295.317	0.05
295.53	0.03
295.743	0.04
295.956	0.01
296.169	0.1
296.382	0.12
296.595	0.05
296.808	-0.02
297.021	0.1
297.234	0.05
297.447	0.05
297.66	0.04
297.873	0.09
298.086	0.14
298.299	-0.01
298.511	-0.01
298.724	0.04
298.937	-0.01
299.15	-0.03
299.363	0.06
299.575	0.09
299.788	0.1
300.001	0.04
300.213	-0.02
300.426	0.03
300.639	0.03
300.852	0.01
301.064	0.04
301.277	0.12
301.489	0.07
301.702	0.1
301.915	0.08
302.127	0.06
302.34	0.08
302.552	0.04
302.765	0.03
302.977	0.09
303.19	-0.02
303.402	0.01
303.615	0.04
303.827	-0
304.04	0.03
304.252	0.07
304.464	-0
304.677	0.12
304.889	0.06
305.102	0
305.314	0.02
305.526	0.08
305.739	0.04
305.951	0.04
306.163	0.02
306.375	0.11
306.588	0.02
306.8	-0.02
307.012	-0.04
307.224	0.04
307.436	0.07
307.649	-0.04
307.861	0.06
308.073	0.07
308.285	0.01
308.497	-0.02
308.709	0.03
308.921	0.06
309.133	0.08
309.346	0.01
309.558	0.02
309.77	0.13
309.982	0.09
310.194	0.07
310.406	0.01
310.617	0.09
310.829	0.06
311.041	0.08
311.253	0
311.465	0.02
311.677	0.06
311.889	0.04
312.101	0.02
312.313	0.08
312.524	0.1
312.736	-0.01
312.948	0.05
313.16	0.1
313.372	0.04
313.583	0.06
313.795	0.02
314.007	0.04
314.218	0.04
314.43	0.02
314.642	0.01
314.853	0.01
315.065	0.03
315.277	-0.01
315.488	0.07
315.7	0.07
315.912	0.04
316.123	0.04
316.335	0.03
316.546	0.14
316.758	0.01
316.969	0.02
317.181	0.06
317.392	0.03
317.604	0.12
317.815	0.01
318.026	0
318.238	0.03
318.449	0.1
318.661	-0.03
318.872	-0.02
319.083	-0.01
319.295	0.05
319.506	0.01
319.717	0.06
319.929	0.06
320.14	0.02
320.351	0.07
320.562	0.01
320.774	0.06
320.985	0.06
321.196	-0.02
321.407	-0.04
321.618	0.1
321.829	0.05
322.041	0.06
322.252	0.05
322.463	0.03
322.674	0.07
322.885	0.04
323.096	0.05
323.307	0.06
323.518	0.06
323.729	0.01
323.94	0.07
324.151	-0
324.362	0.06
324.573	0.03
324.784	-0.01
324.995	0.08
325.206	0.05
325.417	0.01
325.628	0.04
325.838	0.03
326.049	0.01
326.26	0.08
326.471	0.02
326.682	0.08
326.892	0.03
327.103	-0.06
327.314	0
327.525	0.09
327.735	0.06
327.946	0
328.157	-0.02
328.368	0.07
328.578	0.02
328.789	0.06
328.999	0.04
329.21	0.05
329.421	0.07
329.631	-0.01
329.842	-0.04
330.052	0.03
330.263	0.08
330.473	0.08
330.684	0.05
330.894	-0.01
331.105	0.03
331.315	0.07
331.526	-0.02
331.736	0.09
331.947	0.07
332.157	0.06
332.367	0.01
332.578	0.03
332.788	0.08
332.999	0.08
333.209	0.03
333.419	-0.01
333.629	0.06
333.84	0.01
334.05	0.01
334.26	0.08
334.47	0.05
334.681	0.06
334.891	-0.02
335.101	0.09
335.311	0.06
335.521	0.03
335.732	-0.04
335.942	0.06
336.152	0.05
336.362	0.05
336.572	0.07
336.782	0.06
336.992	0.02
337.202	0.01
337.412	-0.01
337.622	0.07
337.832	0.06
338.042	0.05
338.252	0.02
338.462	-0.01
338.672	0.02
338.882	0.02
339.092	0.03
339.302	0.08
339.511	0.01
339.721	0
339.931	-0.02
340.141	0.07
340.351	0.09
340.561	0.05
340.77	0.04
340.98	0.06
341.19	0.09
341.4	0.01
341.609	-0.04
341.819	0.07
342.029	-0.01
342.238	0.01
342.448	-0.02
342.658	0.08
342.867	0.03
343.077	0.04
343.286	0.07
343.496	0.04
343.706	0.06
343.915	-0.04
344.125	-0.03
344.334	0.08
344.544	-0.03
344.753	-0.03
344.963	0.04
345.172	-0.01
345.381	-0
345.591	-0.01
345.8	0.05
346.01	0.05
346.219	0.06
346.428	-0.11
346.638	-0.03
346.847	0.01
347.056	0.11
347.266	-0
347.475	0.01
347.684	0.09
347.893	0.06
348.103	0.05
348.312	0.03
348.521	-0.01
348.73	0.01
348.94	0.05
349.149	0.01
349.358	0.05
349.567	0.01
349.776	0.03
349.985	0.02
350.194	0.04
350.403	0.07
350.612	-0.03
350.821	0.02
351.03	0.02
351.239	-0.04
351.448	0.01
351.657	0.03
351.866	0.12
352.075	0.03
352.284	0.09
352.493	0.02
352.702	0.1
352.911	0.01
353.12	0.08
353.329	0.01
353.538	0.05
353.746	-0.01
353.955	0.05
354.164	0.06
354.373	0.01
354.582	0.06
354.79	0.02
354.999	0.05
355.208	-0
355.416	0.12
355.625	-0.01
355.834	0.02
356.042	0.07
356.251	0.02
356.46	0.01
356.668	0.06
356.877	0.11
357.085	0.06
357.294	-0.07
357.503	0.05
357.711	0.02
357.92	0.14
358.128	0.03
358.337	0.02
358.545	0.04
358.754	0.02
358.962	0.12
359.17	0.04
359.379	0.04
359.587	0.05
359.796	0.01
360.004	0.08
360.212	0.09
360.421	0.08
360.629	0.01
360.837	0
361.046	0.01
361.254	0.09
361.462	0.04
361.67	-0.03
361.879	0.02
362.087	0.07
362.295	0.04
362.503	0.04
362.711	-0.01
362.92	0.03
363.128	-0
363.336	0
363.544	-0.01
363.752	0.01
363.96	0
364.168	-0.02
364.376	0.05
364.584	0.03
364.792	0.03
365	0.05
365.208	0.08
365.416	0.04
365.624	0.05
365.832	0
366.04	0.1
366.248	0.05
366.456	0.03
366.664	0.07
366.872	0.04
367.079	0.02
367.287	0.06
367.495	0.06
367.703	0.05
367.911	-0.01
368.118	0.05
368.326	0.04
368.534	0
368.742	0.07
368.949	-0.03
369.157	0.02
369.365	0.09
369.572	0.02
369.78	-0.04
369.988	0.08
370.195	0.05
370.403	0.05
370.61	0.01
370.818	0.05
371.026	0.1
371.233	-0.01
371.441	0.05
371.648	0.02
371.856	0.05
372.063	0.05
372.271	0.02
372.478	-0
372.685	0.01
372.893	0.1
373.1	0.02
373.308	-0.02
373.515	0.1
373.722	0.04
373.93	0.05
374.137	0.04
374.344	0.1
374.552	0.08
374.759	0.06
374.966	-0
375.173	0.06
375.381	0.08
375.588	0.02
375.795	-0.02
376.002	0.02
376.209	-0.03
376.417	0.04
376.624	-0
376.831	0.08
377.038	0.05
377.245	-0.05
377.452	0.01
377.659	0
377.866	0.03
378.073	0.01
378.28	0.03
378.487	0.11
378.694	0.03
378.901	0.03
379.108	0
379.315	0.05
379.522	0.1
379.729	0.07
379.936	0.01
380.143	0.03
380.35	0.02
380.557	-0.01
380.763	0.03
380.97	0.03
381.177	0.05
381.384	0.06
381.591	-0.02
381.797	0.02
382.004	0.06
382.211	0.07
382.418	0.04
382.624	0.04
382.831	0.09
383.038	-0.02
383.244	0.04
383.451	0.05
383.658	0.06
383.864	0.01
384.071	0.01
384.277	0.11
384.484	0.01
384.69	0.07
384.897	0.01
385.103	0.09
385.31	0.01
385.516	0.02
385.723	0.01
385.929	0.04
386.136	0.02
386.342	0.05
386.549	0.03
386.755	0.05
386.961	0.06
387.168	0.03
387.374	0.07
387.58	0.03
387.787	0.04
387.993	0.05
388.199	0.04
388.406	0.02
388.612	0.03
388.818	0.03
389.024	0.06
389.231	0.01
389.437	0.11
389.643	0.07
389.849	0.04
390.055	0.04
390.261	0.05
390.467	0.03
390.674	-0.03
390.88	0
391.086	0.03
391.292	0.01
391.498	0.08
391.704	0.06
391.91	0.02
392.116	-0
392.322	-0.05
392.528	0.03
392.734	-0
392.94	0
393.146	0.02
393.352	0.04
393.557	-0.03
393.763	-0.01
393.969	0
394.175	0.02
394.381	0.01
394.587	-0.05
394.792	-0.01
394.998	0.04
395.204	0.02
395.41	0
395.615	0.07
395.821	0.04
396.027	0.05
396.233	-0.01
396.438	0.04
396.644	0.11
396.85	0.05
397.055	0.02
397.261	0.04
397.466	0.01
397.672	0.06
397.878	0.05
398.083	0.09
398.289	-0.03
398.494	0.06
398.7	0.06
398.905	0
399.111	0.14
399.316	-0.02
399.522	0.03
399.727	0.04
399.932	-0.01
400.138	0.03
400.343	0.06
400.549	0.05
400.754	0.01
400.959	0.02
401.165	0.02
401.37	0.04
401.575	0.11
401.78	0.06
401.986	-0.03
402.191	0.04
402.396	-0.03
402.601	0.04
402.807	0.04
403.012	0.05
403.217	0.04
403.422	0.03
403.627	0.02
403.832	0
404.037	0.06
404.243	0.02
404.448	0
404.653	0.05
404.858	-0.01
405.063	0.06
405.268	-0.02
405.473	-0.03
405.678	-0
405.883	0.13
406.088	0.07
406.293	-0.01
406.498	0
406.703	0.03
406.907	0.05
407.112	-0.01
407.317	0.06
407.522	0.06
407.727	-0.03
407.932	0.04
408.136	0.1
408.341	0.04
408.546	0.03
408.751	0.04
408.956	-0.02
409.16	0.06
409.365	0.07
409.57	0.04
409.774	0.05
409.979	0.05
410.184	0.03
410.388	-0.03
410.593	0.06
410.798	0.05
411.002	-0.03
411.207	0.03
411.411	0.04
411.616	0
411.82	0.03
412.025	0.04
412.229	0.02
412.434	0.08
412.638	0.06
412.843	-0
413.047	0.03
413.252	-0.02
413.456	0
413.66	0.04
413.865	-0.02
414.069	0.12
414.273	0.02
414.478	-0.01
414.682	-0.01
414.886	-0.02
415.091	-0.03
415.295	-0.07
415.499	0.07
415.703	-0.03
415.908	0.03
416.112	-0.06
416.316	0.08
416.52	0.02
416.724	-0.01
416.929	0
417.133	0.11
417.337	0.03
417.541	-0.01
417.745	0.02
417.949	0.03
418.153	0.03
418.357	-0.04
418.561	0.1
418.765	0.02
418.969	0.15
419.173	0.06
419.377	0
419.581	0.07
419.785	-0.02
419.989	-0.01
420.193	-0.02
420.397	0.05
420.601	0.07
420.804	0.08
421.008	0.02
421.212	0.02
421.416	0.06
421.62	-0.03
421.823	0.01
422.027	0.07
422.231	0.03
422.435	0.02
422.638	0.04
422.842	0.03
423.046	-0
423.249	0.06
423.453	0.03
423.657	0.01
423.86	0.01
424.064	0
424.268	0.1
424.471	0.04
424.675	0.09
424.878	0.11
425.082	0.05
425.285	0.06
425.489	-0
425.692	0.05
425.896	-0.01
426.099	0.07
426.303	0.04
426.506	-0.02
426.71	0.08
426.913	0.07
427.116	0.07
427.32	0.04
427.523	0
427.726	0.12
427.93	-0.09
428.133	0.05
428.336	0.01
428.54	-0.05
428.743	0.07
428.946	0.01
429.149	-0.01
429.353	0.05
429.556	0.05
429.759	0.01
429.962	0
430.165	0.02
430.368	-0.01
430.571	0.01
430.775	0.03
430.978	-0
431.181	0.05
431.384	0.05
431.587	0.02
431.79	0.05
431.993	0.01
432.196	0.05
432.399	-0.01
432.602	0.08
432.805	-0.04
433.008	-0
433.211	-0.06
433.414	0.1
433.616	0.06
433.819	0.03
434.022	-0.03
434.225	0.07
434.428	0.02
434.631	0.15
434.833	0.02
435.036	0.02
435.239	0.08
435.442	0.01
435.645	-0.01
435.847	0.02
436.05	0.12
436.253	-0
436.455	-0.02
436.658	-0.01
436.861	0.08
437.063	0.02
437.266	0.01
437.468	0.02
437.671	0.12
437.874	-0.03
438.076	-0.04
438.279	-0.05
438.481	0.02
438.684	-0.03
438.886	0.11
439.089	-0.05
439.291	0.06
439.494	0.08
439.696	-0.02
439.899	-0.01
440.101	0.03
440.303	-0.07
440.506	0.02
440.708	0.04
440.91	0.09
441.113	0
441.315	0.08
441.517	-0.02
441.72	0.08
441.922	-0.01
442.124	-0.02
442.326	0.04
442.529	0.1
442.731	-0.04
442.933	0.09
443.135	0.01
443.337	0.02
443.539	0.01
443.742	0.01
443.944	0.06
444.146	0.01
444.348	-0.02
444.55	0.04
444.752	0
444.954	-0.03
445.156	0.02
445.358	0
445.56	0.07
445.762	-0.03
445.964	0.04
446.166	0.04
446.368	-0.04
446.57	0.09
446.772	-0.01
446.974	-0
447.175	0.03
447.377	-0.02
447.579	-0.02
447.781	-0.04
447.983	0.12
448.184	0.01
448.386	-0.02
448.588	-0.02
448.79	-0.02
448.991	0.02
449.193	0
449.395	0.05
449.597	0.09
449.798	0.06
450	0.06
450.202	0.05
450.403	0.06
450.605	0.04
450.806	0.03
451.008	-0.03
451.21	0.04
451.411	0
451.613	0.03
451.814	0.01
452.016	0.04
452.217	0.04
452.419	0.1
452.62	0.02
452.821	0.06
453.023	0.13
453.224	0.1
453.426	0.01
453.627	0.02
453.828	0.07
454.03	0.04
454.231	0.02
454.432	-0.02
454.634	0.12
454.835	0.01
455.036	-0.04
455.238	0.08
455.439	0.11
455.64	-0.04
455.841	-0.01
456.042	0.13
456.244	0.05
456.445	0.02
456.646	-0.02
456.847	0.01
457.048	0.07
457.249	0.06
457.45	0.19
457.651	-0.02
457.852	0.08
458.054	0.04
458.255	0.03
458.456	0.07
458.657	0.05
458.858	0.01
459.058	0.07
459.259	0.1
459.46	-0
459.661	0
459.862	0.08
460.063	0.03
460.264	0.09
460.465	-0.01
460.666	0.18
460.866	0.03
461.067	0.01
461.268	0.03
461.469	-0.01
461.67	0.04
461.87	0
462.071	-0.02
462.272	-0
462.473	0.04
462.673	0.06
462.874	-0.03
463.075	0.04
463.275	-0.01
463.476	0.04
463.676	-0
463.877	0.09
464.078	-0.02
464.278	0.04
464.479	0.05
464.679	0.02
464.88	0.03
465.08	0.1
465.281	-0.02
465.481	-0
465.682	0.04
465.882	0.08
466.083	0.02
466.283	-0.02
466.483	0.02
466.684	-0.02
466.884	-0.02
467.085	0.02
467.285	0.06
467.485	0
467.686	0.02
467.886	0.01
468.086	0.07
468.286	0.04
468.487	0.07
468.687	-0.04
468.887	-0
469.087	0.1
469.287	0.05
469.488	-0.06
469.688	0.07
469.888	0.05
470.088	0.07
470.288	0.07
470.488	0.08
470.688	-0.02
470.888	0.04
471.088	0.01
471.288	0.09
471.488	0.04
471.688	0.07
471.888	-0.02
472.088	0.07
472.288	0.02
472.488	-0.03
472.688	0.01
472.888	0.03
473.088	0.03
473.288	0.02
473.488	0
473.688	0.14
473.887	0.02
474.087	0.01
474.287	0.03
474.487	-0
474.687	0.03
474.886	0
475.086	0.03
475.286	0.03
475.486	0.02
475.685	-0.01
475.885	0
476.085	-0
476.284	0.03
476.484	-0.01
476.684	0.06
476.883	0.08
477.083	0.05
477.282	-0
477.482	0.1
477.681	0.11
477.881	0.02
478.08	-0.01
478.28	-0.01
478.479	0.06
478.679	0.07
478.878	0
479.078	-0.02
479.277	-0
479.477	-0.01
479.676	0.05
479.875	0.01
480.075	-0.04
480.274	0.05
480.473	0.04
480.673	0
480.872	0.06
481.071	0.07
481.271	0.06
481.47	-0.02
481.669	0.02
481.868	-0.02
482.067	-0.03
482.267	0.01
482.466	0.01
482.665	-0
482.864	-0.04
483.063	-0.01
483.262	0.01
483.461	0.06
483.661	0.02
483.86	0.01
484.059	0.05
484.258	0.02
484.457	0.01
484.656	-0.01
484.855	0.05
485.054	-0.01
485.253	0
485.452	-0.04
485.651	0.02
485.849	0.02
486.048	0
486.247	-0.02
486.446	0.01
486.645	-0.01
486.844	-0.01
487.043	-0.01
487.241	0.02
487.44	-0.01
487.639	0.02
487.838	0.05
488.037	0
488.235	0.06
488.434	0.01
488.633	-0.01
488.831	0.04
489.03	0.03
489.229	0.03
489.427	0.01
489.626	0.07
489.825	0.06
490.023	0.02
490.222	-0.02
490.42	0.05
490.619	0.03
490.817	-0.01
491.016	-0
491.214	0.03
491.413	0
491.611	0.02
491.81	0.02
492.008	0.03
492.207	0.01
492.405	0.03
492.604	-0.03
492.802	0.01
493	0.03
493.199	0.01
493.397	0.03
493.595	-0
493.794	-0.01
493.992	0.07
494.19	0.04
494.388	0.02
494.587	-0.01
494.785	0
494.983	-0.02
495.181	-0
495.379	-0
495.578	0.01
495.776	0.01
495.974	0.04
496.172	0.02
496.37	-0.01
496.568	0
496.766	0.01
496.964	0.05
497.162	0.02
497.36	-0.02
497.558	0.03
497.756	0.03
497.954	0.01
498.152	0.01
498.35	0.02
498.548	0.02
498.746	0.01
498.944	-0.01
499.142	-0
499.34	-0.03
499.538	0
499.736	-0.02
499.933	0.05
500.131	0.06
500.329	0.01
500.527	0.04
500.725	0.05
500.922	0.04
501.12	0.03
501.318	0.03
501.516	-0.02
501.713	0.02
501.911	-0
502.109	-0
502.306	0.03
502.504	-0
502.701	0.01
502.899	-0.02
503.097	0.06
503.294	0.02
503.492	0
503.689	0.01
503.887	0.05
504.084	0.06
504.282	0.03
504.479	-0.01
504.677	0
504.874	-0.01
505.072	0.01
505.269	-0.01
505.466	0.03
505.664	0.02
505.861	-0
506.059	-0.03
506.256	0.04
506.453	0
506.651	0.06
506.848	0.07
507.045	0.02
507.242	0.02
507.44	0.01
507.637	0.02
507.834	0.01
508.031	0.02
508.229	-0
508.426	0.02
508.623	0.02
508.82	-0
509.017	-0
509.214	-0.01
509.411	0.01
509.608	-0.02
509.805	0.01
510.003	0
510.2	-0
510.397	0.02
510.594	-0.01
510.791	0.01
510.988	0.01
511.184	0.03
511.381	0.01
511.578	-0
511.775	0.04
511.972	-0.01
512.169	-0
512.366	0
512.563	0.02
512.76	-0.01
512.956	0.03
513.153	0.02
513.35	0.01
513.547	-0.01
513.744	0
513.94	0.01
514.137	0.02
514.334	0.01
514.53	-0
514.727	0.02
514.924	0.05
515.12	-0.01
515.317	-0.01
515.514	0.03
515.71	0
515.907	0
516.103	0.03
516.3	0.03
516.497	0.04
516.693	0.05
516.89	0.01
517.086	-0.01
517.283	0.04
517.479	0.02
517.676	0.01
517.872	0.01
518.068	-0.01
518.265	0.02
518.461	-0.01
518.658	-0.01
518.854	0.03
519.05	0
519.247	0.01
519.443	0.03
519.639	0.03
519.836	0.03
520.032	0.01
520.228	0.01
520.424	0.05
520.621	0.02
520.817	0.01
521.013	0.02
521.209	0.02
521.405	0.04
521.601	0.01
521.798	0.01
521.994	0.06
522.19	-0.02
522.386	-0.02
522.582	-0.01
522.778	0
522.974	-0
523.17	0.02
523.366	0.01
523.562	0.05
523.758	0.01
523.954	-0.02
524.15	0.01
524.346	0.02
524.542	-0
524.738	-0
524.934	0.01
525.129	-0.07
525.325	0.03
525.521	-0
525.717	0
525.913	0.03
526.109	0.02
526.304	0.03
526.5	0.02
526.696	0.04
526.892	0.02
527.087	0.02
527.283	-0.01
527.479	0.04
527.674	-0.01
527.87	0.02
528.066	0.01
528.261	0.02
528.457	0.01
528.653	-0
528.848	0.02
529.044	0.02
529.239	-0
529.435	0.03
529.63	0.02
529.826	0.07
530.021	0.02
530.217	0.02
530.412	0.01
530.608	-0.01
530.803	0
530.999	0.02
531.194	-0.01
531.389	0.01
531.585	-0.03
531.78	0.01
531.975	0.04
532.171	0.03
532.366	0
532.561	0.01
532.757	-0.02
532.952	0.01
533.147	0.04
533.342	0.01
533.538	-0.01
533.733	0.05
533.928	0.01
534.123	0.01
534.318	-0.04
534.513	0.02
534.709	0.02
534.904	-0.01
535.099	-0.01
535.294	0.03
535.489	0.01
535.684	0
535.879	-0
536.074	0.02
536.269	-0.01
536.464	0.01
536.659	0.01
536.854	0.01
537.049	0.03
537.244	0.01
537.439	0.01
537.634	0.02
537.828	0.01
538.023	0
538.218	-0.01
538.413	0.01
538.608	-0.02
538.803	0.03
538.997	-0.02
539.192	0.05
539.387	0.02
539.582	0.02
539.776	0.03
539.971	-0
540.166	0
540.36	-0.02
540.555	0
540.75	0.01
540.944	-0.01
541.139	-0.01
541.334	0
541.528	0.02
541.723	0.02
541.917	0
542.112	-0.01
542.306	0.01
542.501	-0.01
542.695	0.02
542.89	-0.01
543.084	0.02
543.279	0.01
543.473	0.01
543.668	0.03
543.862	0.01
544.056	0.01
544.251	0.02
544.445	0.01
544.64	0.03
544.834	-0.03
545.028	0.02
545.222	0.01
545.417	0.03
545.611	0.02
545.805	0.01
546	-0.01
546.194	0
546.388	0.01
546.582	0.03
546.776	0.01
546.97	0.01
547.165	0.01
547.359	0.04
547.553	0.01
547.747	0.01
547.941	0.02
548.135	0
548.329	0.03
548.523	0.03
548.717	0.01
548.911	-0
549.105	0.02
549.299	0.02
549.493	0.03
549.687	0.02
549.881	0.03
550.075	0.02
550.269	-0.01
550.463	0.03
550.657	0.01
550.85	0.02
551.044	-0
551.238	0.01
551.432	0.01
551.626	-0.01
551.82	0.04
552.013	0.01
552.207	0.03
552.401	0.04
552.594	0.02
552.788	-0.01
552.982	0.01
553.176	-0.01
553.369	0.04
553.563	0.04
553.756	-0.03
553.95	-0
554.144	0.03
554.337	0.03
554.531	0.03
554.724	0.04
554.918	0.03
555.111	0.04
555.305	0.01
555.498	0.05
555.692	0.04
555.885	-0.01
556.079	0.03
556.272	0
556.466	0.02
556.659	0.02
556.852	0.02
557.046	0.02
557.239	0.06
557.432	0
557.626	-0
557.819	0.03
558.012	0.03
558.206	0.04
558.399	0
558.592	0.03
558.785	-0.01
558.979	0.05
559.172	0.06
559.365	0.05
559.558	0.03
559.751	0.04
559.944	0.03
560.138	0.01
560.331	0.01
560.524	0.02
560.717	0.01
560.91	0.02
561.103	0.04
561.296	0.05
561.489	0.04
561.682	0.02
561.875	0.05
562.068	0.05
562.261	0.03
562.454	0.07
562.647	0.02
562.84	0.04
563.032	0.03
563.225	0.04
563.418	0.02
563.611	0.02
563.804	0.03
563.997	0.02
564.19	-0
564.382	-0.05
564.575	0.01
564.768	0.03
564.961	0.01
565.153	0.01
565.346	0.06
565.539	0.04
565.731	0.05
565.924	0.06
566.117	0.04
566.309	0.05
566.502	0.02
566.695	0.01
566.887	0.04
567.08	0
567.272	-0.01
567.465	0
567.657	0.03
567.85	0.03
568.042	0.05
568.235	0.04
568.427	0.04
568.62	0.02
568.812	0.04
569.005	0.04
569.197	-0
569.389	0.02
569.582	0.03
569.774	0.04
569.966	-0.02
570.159	0
570.351	0.06
570.543	0.03
570.736	0.01
570.928	0.01
571.12	0.01
571.312	-0
571.505	-0.01
571.697	0.06
571.889	0.02
572.081	0.03
572.273	0.02
572.465	0.07
572.658	0.02
572.85	0.04
573.042	0.03
573.234	0.03
573.426	0.07
573.618	-0.01
573.81	0.05
574.002	0.07
574.194	0.05
574.386	-0.01
574.578	-0.04
574.77	-0
574.962	0.03
575.154	-0
575.346	0.02
575.538	0.03
575.729	0.01
575.921	0.01
576.113	0.02
576.305	0.08
576.497	0
576.689	0.05
576.88	0.01
577.072	0.06
577.264	0.03
577.456	0.04
577.647	-0.04
577.839	0.04
578.031	0.04
578.223	-0.01
578.414	0.01
578.606	0.05
578.798	0.02
578.989	0.02
579.181	0.03
579.372	0.04
579.564	0.03
579.755	0.04
579.947	0.03
580.139	0.04
580.33	-0
580.522	0.03
580.713	-0.03
580.905	0.04
581.096	0.08
581.287	0.01
581.479	0.04
581.67	0.03
581.862	0.02
582.053	0.02
582.244	0.01
582.436	0.03
582.627	0.02
582.818	0.03
583.01	0.01
583.201	0.06
583.392	0.06
583.583	0.04
583.775	0.03
583.966	0.03
584.157	0.03
584.348	0.02
584.54	0
584.731	0.05
584.922	0.04
585.113	0.01
585.304	0.06
585.495	0.06
585.686	0.05
585.877	0.05
586.068	0.04
586.259	0.05
586.45	0.05
586.641	0.03
586.832	0
587.023	0.05
587.214	0.03
587.405	0.06
587.596	0.02
587.787	0.06
587.978	0.06
588.169	-0
588.36	0.01
588.551	0.05
588.742	0.03
588.932	0.06
589.123	0.04
589.314	0.06
589.505	0.06
589.696	0.05
589.886	0.05
590.077	0
590.268	0.05
590.458	-0
590.649	0.02
590.84	0.08
591.03	0.03
591.221	0.04
591.412	0.01
591.602	0.08
591.793	0.07
591.984	0.02
592.174	0.05
592.365	0.13
592.555	0.04
592.746	0.06
592.936	0.09
593.127	0.08
593.317	0.09
593.508	0.03
593.698	0.03
593.889	0.06
594.079	0.06
594.269	0.04
594.46	0.05
594.65	0.07
594.84	0.08
595.031	0.04
595.221	0.03
595.411	0.04
595.602	0.08
595.792	0.07
595.982	0.07
596.172	0.13
596.363	0.11
596.553	0.08
596.743	0.1
596.933	0.11
597.123	0.11
597.314	0.07
597.504	0.08
597.694	0.14
597.884	0.1
598.074	0.08
598.264	0.09
598.454	0.1
598.644	0.11
598.834	0.11
599.024	0.08
599.214	0.08
599.404	0.13
599.594	0.06
599.784	0.07
599.974	0.16
600.164	0.12
600.354	0.07
600.544	0.07
600.734	0.12
600.924	0.15
601.114	0.1
601.303	0.13
601.493	0.12
601.683	0.1
601.873	0.14
602.063	0.07
602.252	0.12
602.442	0.07
602.632	0.1
602.821	0.12
603.011	0.15
603.201	0.14
603.39	0.09
603.58	0.11
603.77	0.14
603.959	0.18
604.149	0.15
604.339	0.13
604.528	0.19
604.718	0.15
604.907	0.15
605.097	0.13
605.286	0.12
605.476	0.17
605.665	0.19
605.855	0.18
606.044	0.2
606.234	0.2
606.423	0.18
606.612	0.14
606.802	0.19
606.991	0.2
607.181	0.22
607.37	0.16
607.559	0.18
607.749	0.17
607.938	0.19
608.127	0.19
608.316	0.2
608.506	0.2
608.695	0.21
608.884	0.2
609.073	0.23
609.263	0.26
609.452	0.25
609.641	0.24
609.83	0.23
610.019	0.24
610.208	0.23
610.397	0.25
610.586	0.29
610.775	0.24
610.965	0.25
611.154	0.25
611.343	0.27
611.532	0.3
611.721	0.3
611.91	0.29
612.099	0.33
612.287	0.29
612.476	0.28
612.665	0.35
612.854	0.29
613.043	0.39
613.232	0.34
613.421	0.29
613.61	0.37
613.798	0.34
613.987	0.41
614.176	0.39
614.365	0.42
614.554	0.39
614.742	0.45
614.931	0.35
615.12	0.43
615.309	0.45
615.497	0.45
615.686	0.4
615.875	0.43
616.063	0.47
616.252	0.48
616.44	0.47
616.629	0.48
616.818	0.5
617.006	0.5
617.195	0.49
617.383	0.51
617.572	0.51
617.76	0.52
617.949	0.56
618.137	0.57
618.326	0.58
618.514	0.53
618.703	0.53
618.891	0.63
619.079	0.56
619.268	0.67
619.456	0.63
619.644	0.71
619.833	0.66
620.021	0.64
620.209	0.64
620.398	0.73
620.586	0.68
620.774	0.75
620.962	0.76
621.151	0.81
621.339	0.77
621.527	0.74
621.715	0.78
621.903	0.82
622.092	0.78
622.28	0.88
622.468	0.86
622.656	0.9
622.844	0.94
623.032	0.95
623.22	0.9
623.408	1.01
623.596	1.02
623.784	1.05
623.972	0.97
624.16	1.02
624.348	1.13
624.536	1.08
624.724	1.04
624.912	1.19
625.1	1.19
625.288	1.13
625.476	1.18
625.664	1.27
625.851	1.21
626.039	1.23
626.227	1.29
626.415	1.29
626.603	1.28
626.79	1.37
626.978	1.4
627.166	1.42
627.354	1.46
627.541	1.39
627.729	1.37
627.917	1.59
628.104	1.54
628.292	1.55
628.48	1.61
628.667	1.61
628.855	1.67
629.042	1.76
629.23	1.71
629.418	1.75
629.605	1.78
629.793	1.77
629.98	1.84
630.168	1.84
630.355	1.89
630.543	1.95
630.73	1.93
630.917	2.04
631.105	2.13
631.292	2.12
631.48	2.1
631.667	2.23
631.854	2.16
632.042	2.24
632.229	2.21
632.416	2.33
632.604	2.36
632.791	2.3
632.978	2.47
633.165	2.48
633.353	2.57
633.54	2.6
633.727	2.5
633.914	2.63
634.101	2.58
634.289	2.83
634.476	2.75
634.663	2.86
634.85	2.89
635.037	2.91
635.224	2.86
635.411	3.05
635.598	3.05
635.785	3.1
635.972	3.13
636.159	3.19
636.346	3.24
636.533	3.24
636.72	3.36
636.907	3.38
637.094	3.37
637.281	3.42
637.468	3.59
637.655	3.61
637.842	3.72
638.029	3.72
638.215	3.76
638.402	3.92
638.589	3.9
638.776	3.92
638.963	3.98
639.149	4.11
639.336	4.19
639.523	4.17
639.709	4.31
639.896	4.35
640.083	4.35
640.27	4.56
640.456	4.56
640.643	4.61
640.829	4.62
641.016	4.78
641.203	4.76
641.389	4.9
641.576	4.95
641.762	5.09
641.949	5.08
642.135	5.2
642.322	5.31
642.508	5.37
642.695	5.65
642.881	5.5
643.068	5.65
643.254	5.77
643.441	5.83
643.627	6.02
643.813	5.95
644	6.21
644.186	6.17
644.372	6.38
644.559	6.45
644.745	6.53
644.931	6.64
645.118	6.85
645.304	6.92
645.49	7.09
645.676	7.13
645.862	7.23
646.049	7.5
646.235	7.45
646.421	7.76
646.607	7.96
646.793	7.95
646.979	7.9
647.165	8.19
647.352	8.34
647.538	8.46
647.724	8.58
647.91	8.69
648.096	8.99
648.282	9.08
648.468	9.18
648.654	9.39
648.84	9.51
649.026	9.7
649.212	9.71
649.397	9.93
649.583	10.19
649.769	10.35
649.955	10.43
650.141	10.85
650.327	10.76
650.513	10.95
650.698	11.22
650.884	11.23
651.07	11.59
651.256	11.52
651.442	11.82
651.627	11.84
651.813	12.28
651.999	12.23
652.184	12.31
652.37	12.8
652.556	12.9
652.741	13.06
652.927	12.97
653.113	13.31
653.298	13.41
653.484	13.66
653.669	13.94
653.855	14.08
654.04	14.3
654.226	14.5
654.412	14.54
654.597	14.47
654.782	14.92
654.968	15.03
655.153	15.21
655.339	15.43
655.524	15.5
655.71	15.76
655.895	15.95
656.08	16.07
656.266	16.47
656.451	16.25
656.636	16.37
656.822	16.6
657.007	16.73
657.192	16.96
657.378	17.05
657.563	16.92
657.748	17.09
657.933	17.47
658.118	17.18
658.304	17.52
658.489	17.66
658.674	17.62
658.859	17.46
659.044	17.63
659.229	17.63
659.414	17.85
659.599	17.65
659.785	17.5
659.97	17.5
660.155	17.32
660.34	17.52
660.525	17.17
660.71	16.99
660.895	16.98
661.08	16.78
661.264	16.44
661.449	16.29
661.634	15.83
661.819	15.83
662.004	15.2
662.189	15.15
662.374	14.99
662.559	14.49
662.743	14.21
662.928	13.9
663.113	13.51
663.298	13.33
663.483	12.96
663.667	12.51
663.852	12.2
664.037	11.94
664.221	11.59
664.406	11.28
664.591	10.98
664.775	10.64
664.96	10.31
665.145	9.73
665.329	9.56
665.514	9.27
665.698	8.84
665.883	8.48
666.068	8.41
666.252	8.09
666.437	7.7
666.621	7.5
666.806	7.28
666.99	6.91
667.174	6.69
667.359	6.52
667.543	6.21
667.728	5.97
667.912	5.75
668.096	5.49
668.281	5.38
668.465	5.25
668.649	5.09
668.834	4.75
669.018	4.72
669.202	4.53
669.387	4.33
669.571	4.32
669.755	4
669.939	3.92
670.124	3.73
670.308	3.74
670.492	3.58
670.676	3.42
670.86	3.3
671.044	3.14
671.228	3.17
671.413	2.94
671.597	2.84
671.781	2.72
671.965	2.71
672.149	2.64
672.333	2.53
672.517	2.38
672.701	2.39
672.885	2.26
673.069	2.17
673.253	2.16
673.437	2.07
673.621	2.01
673.804	1.99
673.988	1.83
674.172	1.81
674.356	1.71
674.54	1.69
674.724	1.73
674.908	1.58
675.091	1.6
675.275	1.49
675.459	1.52
675.643	1.45
675.826	1.35
676.01	1.29
676.194	1.25
676.377	1.25
676.561	1.23
676.745	1.22
676.928	1.17
677.112	1.1
677.296	1.06
677.479	1.03
677.663	0.96
677.846	1.03
678.03	0.92
678.213	0.82
678.397	0.87
678.58	0.81
678.764	0.82
678.947	0.77
679.131	0.73
679.314	0.83
679.498	0.67
679.681	0.76
679.865	0.77
680.048	0.65
680.231	0.68
680.415	0.64
680.598	0.6
680.781	0.58
680.965	0.58
681.148	0.57
681.331	0.55
681.514	0.58
681.698	0.45
681.881	0.51
682.064	0.49
682.247	0.5
682.43	0.38
682.614	0.5
682.797	0.51
682.98	0.46
683.163	0.38
683.346	0.36
683.529	0.35
683.712	0.35
683.895	0.39
684.078	0.33
684.261	0.34
684.444	0.41
684.627	0.39
684.81	0.32
684.993	0.31
685.176	0.33
685.359	0.24
685.542	0.28
685.725	0.35
685.908	0.29
686.091	0.27
686.274	0.31
686.457	0.33
686.639	0.25
686.822	0.28
687.005	0.34
687.188	0.3
687.371	0.31
687.553	0.23
687.736	0.27
687.919	0.3
688.102	0.31
688.284	0.24
688.467	0.27
688.65	0.25
688.832	0.19
689.015	0.21
689.197	0.14
689.38	0.28
689.563	0.33
689.745	0.15
689.928	0.19
690.11	0.25
690.293	0.23
690.475	0.14
690.658	0.21
690.84	0.14
691.023	0.23
691.205	0.16
691.388	0.16
691.57	0.25
691.752	0.23
691.935	0.12
692.117	0.12
692.3	0.17
692.482	0.15
692.664	0.18
692.847	0.15
693.029	0.2
693.211	0.17
693.393	0.15
693.576	0.11
693.758	0.19
693.94	0.14
694.122	0.13
694.304	0.14
694.487	0.13
694.669	0.16
694.851	0.09
695.033	0.14
695.215	0.11
695.397	0.11
695.579	0.17
695.761	0.06
695.943	0.05
696.125	0.16
696.308	0.12
696.49	0.04
696.671	0.23
696.853	0.13
697.035	0.23
697.217	0.12
697.399	0.14
697.581	0.03
697.763	0.04
697.945	0.08
698.127	0.12
698.309	0.18
698.491	0.12
698.672	0.17
698.854	0.14
699.036	0.15
699.218	0.08
699.399	0.18
699.581	0.12
699.763	0.05
699.945	0.07
700.126	0.1
700.308	0.07
700.49	0.11
700.671	0.06
700.853	0.06
701.035	0.08
701.216	0.12
701.398	0.03
701.579	0.08
701.761	0.12
701.943	0.03
702.124	0.06
702.306	0.11
702.487	0.22
702.669	0.09
702.85	0.05
703.031	-0.01
703.213	0.2
703.394	0.17
703.576	0.05
703.757	0.16
703.938	0.17
704.12	0.2
704.301	0.09
704.483	0.04
704.664	0.13
704.845	0.15
705.026	0.13
705.208	0.06
705.389	0.08
705.57	0.11
705.751	0.06
705.933	0.04
706.114	0.14
706.295	0.06
706.476	0.08
706.657	0.14
706.838	0.14
707.02	0.18
707.201	0.02
707.382	0.07
707.563	0.14
707.744	0.06
707.925	0.04
708.106	0.05
708.287	0.11
708.468	0.22
708.649	0.02
708.83	0.15
709.011	0.05
709.192	0.15
709.373	0.03
709.554	0.06
709.734	0.1
709.915	0.1
710.096	0.03
710.277	-0.01
710.458	0.07
710.639	0.1
710.819	-0.03
711	0.06
711.181	0.15
711.362	0.09
711.542	0.11
711.723	0.07
711.904	0.14
712.085	0.1
712.265	0.09
712.446	-0.01
712.627	0.08
712.807	0.04
712.988	0.06
713.168	-0
713.349	0.08
713.53	-0.06
713.71	-0
713.891	-0.02
714.071	0.06
714.252	0.07
714.432	0.05
714.613	0.01
714.793	0.1
714.974	0.14
715.154	0.13
715.334	0.1
715.515	0.14
715.695	-0.05
715.876	0.05
716.056	0.09
716.236	0.08
716.417	0.1
716.597	-0.04
716.777	0.18
716.957	0.04
717.138	0.05
717.318	0.06
717.498	-0.01
717.678	0.05
717.859	-0.02
718.039	0.01
718.219	0.03
718.399	0.08
718.579	-0.03
718.759	0.07
718.939	0.1
719.12	0.09
719.3	0.08
719.48	-0.08
719.66	-0.09
719.84	0.15
720.02	0.04
720.2	-0.06
720.38	-0.01
720.56	0.18
720.74	0.03
720.92	0.04
721.1	0.13
721.279	0.03
721.459	0.09
721.639	-0.04
721.819	0.1
721.999	0.05
722.179	0.12
722.359	-0.03
722.538	0.01
722.718	0.09
722.898	0.07
723.078	0.04
723.257	0.02
723.437	0.01
723.617	0.08
723.797	0.05
723.976	0.02
724.156	0.05
724.336	0.15
724.515	0.15
724.695	-0.04
724.874	0.08
725.054	0.17
725.234	-0.02
725.413	0.09
725.593	-0.01
725.772	0.08
725.952	0.03
726.131	0.06
726.311	0
726.49	0.07
726.67	-0.05
726.849	0
727.028	0.08
727.208	0.06
727.387	0.11
727.567	-0.06
727.746	0
727.925	-0.07
728.105	-0.05
728.284	0.03
728.463	-0.14
728.643	0.07
728.822	-0.08
729.001	0.03
729.18	0.09
729.359	0.11
729.539	0.12
729.718	0.11
729.897	0.04
730.076	0.07
730.255	-0.01
730.434	0.13
730.614	0.11
730.793	0.07
730.972	0.04
731.151	0.11
731.33	0.03
731.509	0.15
731.688	0.1
731.867	0.04
732.046	-0.12
732.225	0.18
732.404	-0.01
732.583	-0.09
732.762	0.04
732.941	0.12
733.12	-0.02
733.298	-0.06
733.477	0.14
733.656	0.06
733.835	-0
734.014	0.13
734.193	0.09
734.371	0.04
734.55	0.04
734.729	-0.03
734.908	0.1
735.086	0.08
735.265	0.12
735.444	-0.1
735.623	-0.05
735.801	-0.06
735.98	0.09
736.159	0.03
736.337	0.08
736.516	0.07
736.694	0.05
736.873	-0.07
737.052	0.24
737.23	0.17
737.409	-0.08
737.587	0.22
737.766	-0.12
737.944	-0.02
738.123	0.15
738.301	0.07
738.479	0.07
738.658	0.13
738.836	-0.15
739.015	0
739.193	0.13
739.371	0.01
739.55	0.02
739.728	0.04
739.906	0.1
740.085	0.24
740.263	0
740.441	-0.15
740.62	0.18
740.798	0.18
740.976	0.11
741.154	-0.11
741.332	0.2
741.511	-0.02
741.689	-0.02
741.867	0.12
742.045	0.04
742.223	-0.03
742.401	0.02
742.579	-0.04
742.757	0.08
742.935	-0.02
743.114	0.05
743.292	-0.04
743.47	-0.03
743.648	0.08
743.826	0.08
744.004	0.03
744.181	0.11
744.359	-0.04
744.537	0.08
744.715	-0.05
744.893	0.06
745.071	0.05
745.249	-0.03
745.427	-0.05
745.605	0.1
745.782	0.08
745.96	-0
746.138	0.08
746.316	0.13
746.493	0.02
746.671	0.01
746.849	-0.05
747.027	0.13
747.204	-0.08
747.382	0.12
747.56	-0.07
747.737	-0
747.915	0.01
748.093	0.15
748.27	0.06
748.448	-0.05
748.625	-0.08
748.803	-0.03
748.98	0.02
749.158	0.11
749.335	0.11
749.513	0.08
749.69	0.04
749.868	0.02
750.045	0.04
750.223	-0.01
750.4	-0.17
750.578	0.31
750.755	0
750.932	-0.08
751.11	0.13
751.287	-0.11
751.464	0.18
751.642	-0.05
751.819	0.08
751.996	0.05
752.173	-0.04
752.351	-0.05
752.528	0.06
752.705	0.03
752.882	0.06
753.06	0.02
753.237	0.15
753.414	0.15
753.591	0.28
753.768	0.12
753.945	0.02
754.122	-0.08
754.299	0.17
754.476	-0.08
754.654	0.02
754.831	0.18
755.008	-0.06
755.185	-0.01
755.362	-0.04
755.539	-0.03
755.716	-0.05
755.892	0.01
756.069	-0.05
756.246	0.03
756.423	0.01
756.6	0.16
756.777	-0.05
756.954	0.11
757.131	0.05
757.307	-0.11
757.484	-0.07
757.661	0.13
757.838	0.08
758.015	-0.1
758.191	0.13
758.368	0.02
758.545	0.2
758.721	0.01
758.898	-0.06
759.075	0.14
759.251	0.14
759.428	0.14
759.605	-0.18
759.781	0.01
759.958	0.14
760.134	0.17
760.311	-0.04
760.488	0.14
760.664	0.12
760.841	0.01
761.017	-0.06
761.194	0.05
761.37	0.23
761.547	0.11
761.723	0.11
761.899	0.12
762.076	-0.03
762.252	0.05
762.429	0.02
762.605	0.14
762.781	0.12
762.958	0.21
763.134	-0.02
763.31	0.05
763.486	0.2
763.663	-0.1
763.839	0.03
764.015	-0.12
764.191	-0.01
764.368	0.02
764.544	-0.03
764.72	0.18
764.896	0.02
765.072	0.17
765.248	-0.05
765.425	0.04
765.601	-0.02
765.777	-0.03
765.953	-0.15
766.129	-0.01
766.305	-0.05
766.481	0.08
766.657	0.06
766.833	0.37
767.009	-0.08
767.185	0.01
767.361	-0.07
767.537	0.01
767.713	0.08
767.889	-0.05
768.065	-0.01
768.24	-0.16
768.416	0.12
768.592	-0.1
768.768	-0.05
768.944	0.25
769.12	-0.13
769.295	-0.11
769.471	0.07
769.647	0.08
769.823	0.28
769.998	-0.05
770.174	-0.13
770.35	0.29
770.525	0.22
770.701	0.01
770.877	0.01
771.052	0.04
771.228	0.04
771.403	0.07
771.579	0
771.755	0.35
771.93	-0.05
772.106	-0.01
772.281	-0.27
772.457	0.05
772.632	0.21
772.808	-0.13
772.983	-0.07
773.159	-0.09
773.334	0.12
773.509	0.01
773.685	-0.05
773.86	0.33
774.036	0.23
774.211	-0.04
774.386	-0.08
774.562	0.01
774.737	0.1
774.912	-0.11
775.087	0.21
775.263	0
775.438	0.06
775.613	-0.08
775.788	-0.08
775.964	0.06
776.139	0.37
776.314	-0.1
776.489	0.07
776.664	0.11
776.839	-0.02
777.014	0.13
777.19	0.04
777.365	0.23
777.54	0.32
777.715	-0.08
777.89	0.1
778.065	0.02
778.24	0.15
778.415	0.1
778.59	-0.12
778.765	-0.07
778.94	0.15
779.115	-0.15
779.289	-0.12
779.464	0.2
779.639	0
779.814	-0.22
779.989	-0.08
780.164	0.23
780.339	0.16
780.513	0.11
780.688	-0.05
780.863	0.05
781.038	0.23
781.212	-0.11
781.387	0.23
781.562	0.33
781.737	-0.13
781.911	0.25
782.086	-0.05
782.261	0.15
782.435	0.35
782.61	-0.01
782.784	-0.02
782.959	0.23
783.134	-0.16
783.308	-0.2
783.483	-0.04
783.657	0.14
783.832	0.24
784.006	-0.31
784.181	0.06
784.355	0.09
784.53	-0.3
784.704	-0.03
784.878	0.2
785.053	0.18
785.227	0.4
785.402	0.31
785.576	-0.13
785.75	-0.13
785.925	0.22
786.099	0.05
786.273	0.11
786.448	0.23
786.622	0.26
786.796	0.04
786.97	0.09
787.145	0.46
787.319	-0.19
787.493	0
787.667	-0.36
787.841	0.16
788.015	0.25
788.19	-0.23
788.364	0.19
788.538	0.24
788.712	0.27
788.886	0.02
789.06	0.24
789.234	0.11
789.408	-0.13
789.582	-0.01
789.756	0.06
789.93	0.03
790.104	-0.09
790.278	-0.07
790.452	-0.03
790.626	0.18
790.8	-0.2
790.973	0.03
791.147	0.15
791.321	0.36
791.495	0.2
791.669	-0
791.843	0.25
792.016	0.06
792.19	0.28
792.364	-0.11
792.538	0.3
792.711	0.32
792.885	0.01
793.059	-0.32
793.233	-0.47
793.406	0.2
793.58	-0.04
793.754	0.11
793.927	0.07
794.101	0.31
794.274	-0.04
794.448	0.14
794.622	-0.08
794.795	0.35
794.969	-0.04
795.142	0.33
795.316	-0.1
795.489	0.07
795.663	0.36
795.836	0.24
796.009	0.06
796.183	0.22
796.356	-0.08
796.53	-0.02
796.703	0.15
796.876	0.46
797.05	-0.21
797.223	-0.09
797.396	0.07
797.57	0.08
797.743	0.16
797.916	-0.01
798.09	0.07
798.263	0.18
798.436	0.08
798.609	-0.04
798.782	-0.02
798.956	0.18
799.129	0.12
799.302	-0.08
799.475	-0.06
799.648	-0.13
799.821	0.01
799.994	0.22
800.167	-0.27
800.34	-0.06
800.514	0.28
800.687	-0.14
800.86	0.03
801.033	0.06
801.206	0.24
801.379	-0.5
801.551	0.04
801.724	0.31
801.897	0.37
802.07	0.09
802.243	-0.48
802.416	-0.04
802.589	-0.15
802.762	0.25
802.935	-0.11
803.107	0.08
803.28	0.27
803.453	0.29
803.626	0.1
803.798	0.07
803.971	-0.27
804.144	0.01
804.317	0.2
804.489	0.29
804.662	-0.14
804.835	0.2
805.007	-0.29
805.18	0.56
805.353	0.17
805.525	-0.04
805.698	-0.02
805.87	0.41
806.043	0.47
806.215	-0.02
806.388	-0.2
806.56	0.26
806.733	0.39
806.905	0.17
807.078	0.17
807.25	-0.11
807.423	0.15
807.595	0.35
807.768	-0.04
807.94	0.53
808.112	0.12
808.285	-0.19
808.457	0.14
808.629	0.01
808.802	0.17
808.974	-0.1
809.146	0.07
809.318	-0.33
809.491	0.05
809.663	0.44
809.835	-0.22
810.007	0.5
810.18	0.03
810.352	-0.27
810.524	-0.13
810.696	0.17
810.868	0.27
811.04	-0.27
811.212	-0.11
811.384	0.43
811.556	-0.07
811.728	0.12
811.901	0.66
812.073	-0.22
812.245	0.41
812.417	0.05
812.589	-0.46
812.76	-0.07
812.932	0.23
813.104	0.08
813.276	0.38
813.448	0.16
813.62	0.26
813.792	0.13
813.964	0.37
814.136	0.1
814.307	-0.24
814.479	-0.31
814.651	-0.06
814.823	0.44
814.995	0.11
815.166	0.45
815.338	-0.06
815.51	-0.71
815.681	0.92
815.853	-0.11
816.025	-0
816.196	0.46
816.368	0.26
816.54	-0.33
816.711	-0.15
816.883	0.32
817.054	0.91
817.226	-0.5
817.398	0.14
817.569	-0.16
817.741	-0.06
817.912	0.24
818.084	-0.17
818.255	0.28
818.426	-0.18
818.598	-0.08
818.769	-0.54
818.941	0.28
819.112	1.07
819.283	0.36
819.455	-0.33
819.626	0.13
819.798	0.5
819.969	0.16
820.14	0.07
820.311	-0.19
820.483	-0.02
820.654	0.39
820.825	-0.21
820.996	-0.1
821.168	-0.22
821.339	-0.22
821.51	-0.07
821.681	-0.34
821.852	-0.11
822.023	-0.32
822.195	-0.3
822.366	0.49
822.537	-0.11
822.708	0.22
822.879	0.25
823.05	0.98
823.221	0
823.392	0.74
823.563	0.21
823.734	0.48
823.905	0.35
824.076	-0
824.247	-0.24
824.418	-0.32
824.589	0.78
824.759	-0.13
824.93	0.25
825.101	-0.33
825.272	0.52
825.443	0.6
825.614	0.32
825.784	-0.83
825.955	0.92
826.126	0.79
826.297	0.36
826.467	0.72
826.638	1.1
826.809	-0.86
826.98	-0.07
827.15	0.28
827.321	0.14
827.492	0.51
827.662	0.54
827.833	1.37
828.003	0.45
828.174	-0.1
828.345	-0.45
828.515	0.65
828.686	0.12
828.856	-0.14
829.027	0.21
829.197	-0.17
829.368	0.7
829.538	0.1
829.709	-0.46
829.879	0.22
830.049	0.16
830.22	-0.25
830.39	-0
830.56	0.46
830.731	0.13
830.901	-0.39
831.072	0.21
831.242	0.04
831.412	0.43
831.582	0.42
831.753	-0.55
831.923	0.79
832.093	0.58
832.263	-0.09
832.434	-0.12
832.604	-0.44
832.774	0.71
832.944	0.06
833.114	-0.3
833.284	0.34
833.454	-0.45
833.624	-0.37
833.795	-0.64
833.965	0.69
834.135	0.68
834.305	-0.03
834.475	-0.97
834.645	0.02
834.815	-0.29
834.985	-0.33
835.155	-0.13
835.325	-0.05
835.494	0.02
835.664	-0.12
835.834	0.28
836.004	0.67
836.174	0.55
836.344	0.21
836.514	-1.01
836.684	-0.19
836.853	-0.11
837.023	0.78
837.193	-0.27
837.363	0.91
837.532	0.56
837.702	-0.09
837.872	-0.36
838.041	0.44
838.211	1.07
838.381	-0.76
838.55	0.67
838.72	1.68
838.89	0.92
839.059	-0.36
839.229	-0.13
839.398	0.79
839.568	0.07
839.738	0.29
839.907	0.86
840.077	-0.33
840.246	-0.12
840.416	-0.76
840.585	-0.25
840.755	1.74
840.924	1.06
841.093	-0.78
841.263	0.06
841.432	0.46
841.602	-0.34
841.771	0.23
841.94	0.18
842.11	2
842.279	0.96
842.448	-0.23
842.617	-0.03
842.787	0.99
842.956	-0.44
843.125	0.28
843.294	0.47
843.464	1.41
843.633	0.87
843.802	-1.72
843.971	-0.36
844.14	0.57
844.309	0.93
844.479	-0.4
844.648	-0.05
844.817	0.01
844.986	0.05
845.155	0.64
845.324	-0.45
845.493	0.28
845.662	-0.97
845.831	0.45
846	0.64
846.169	-0.56
846.338	1.15
846.507	0.04
846.676	0.46
846.844	-0.81
847.013	0.82
847.182	0.33
847.351	0.53
847.52	0.36
847.689	0.39
847.858	0.55
848.026	-0.37
848.195	0.08
848.364	0.01
848.533	-0.55
848.701	-0.42
848.87	-0.65
849.039	1.85
849.207	1.28
849.376	1.09
849.545	0.92
849.713	0.18
849.882	-0.21
850.051	-0.68
850.219	1.12
850.388	1.25
850.556	-0.95
850.725	-0.01
850.893	0.46
851.062	-0.62
851.23	0.37
851.399	-1.37
851.567	-0.62
851.736	-1.08
851.904	0.57
852.073	0.45
852.241	1
852.41	0.59
852.578	-0.68
852.746	0.12
852.915	0.33
853.083	-0.41
853.251	-0.63
853.42	0.08
853.588	0.76
853.756	1.38
853.924	0.44
854.093	-1.13
854.261	0.33
854.429	-1.2
854.597	0.97
854.765	-0.23
854.934	-0.53
855.102	0.86
855.27	-0.33
855.438	1.03
855.606	0.75
855.774	2.08
855.942	-0.95
856.11	0.01
856.278	0.11
856.446	1.31
856.614	-0.59
856.782	-0.38
856.95	0.77
857.118	1.2
857.286	0.47
857.454	-0.24
857.622	2.1
857.79	0.67
857.958	-0.53
858.126	-1.04
858.294	-1.87
858.462	0.56
858.629	-0.3
858.797	-0.99
858.965	0.44
859.133	-0.26
859.301	-0.06
859.468	0.29
859.636	-0.42
859.804	2.56
859.971	1.79
860.139	-1.11
860.307	0.28
860.474	-1.05
860.642	-1.15
860.81	-0.34
860.977	-0.14
861.145	0.47
861.313	-0.7
861.48	0.42
861.648	2.01
861.815	-0.01
861.983	-0.88
862.15	0.11
862.318	1.06
862.485	1.29
862.653	-0.59
862.82	-1.4
862.988	2.7
863.155	0.68
863.322	-0.72
863.49	-0.64
863.657	1.07
863.824	1.92
863.992	1.17
864.159	0.42
864.326	0.71
864.494	0.46
864.661	3.48
864.828	-1.58
864.996	0.85
865.163	3.31
865.33	-0.59
865.497	-0.95
865.664	0.12
865.832	-1.54
865.999	-0.05
866.166	-0.79
866.333	0.38
866.5	0.04
866.667	0.92
866.834	1.34
867.001	1.32
867.168	-0.77
867.335	-0.24
867.502	-1.74
867.669	0.14
867.836	2.48
868.003	0.44
868.17	0.63
868.337	-1.73
868.504	1.72
868.671	-1.63
868.838	-1.15
869.005	-0.81
869.172	0.57
869.339	-0.7
869.505	0.45
869.672	0.04
869.839	1.16
870.006	-0.6
870.173	-1.61
870.339	1.4
870.506	3.97
870.673	-1.49
870.84	1.33
871.006	0.34
871.173	-0.1
871.34	1.73
871.506	-0.78
871.673	0.76
871.839	-0.94
872.006	-0.22
872.173	0.4
872.339	2.01
872.506	1.19
872.672	0.67
872.839	-0.81
873.005	-0.29
873.172	5.68
873.338	2.53
873.505	-0.71
873.671	-0.73
873.838	0.11
874.004	-0.5
874.171	0.13
874.337	0.37
874.503	0.96
874.67	-0.73
874.836	-0.94
875.002	2.27
875.169	2.49
875.335	1.02
875.501	0.31
875.668	0.43
875.834	0.06
876	0.83
876.166	3.19
876.332	0.96
876.499	3.42
876.665	0.08
876.831	0.54
876.997	2.66
877.163	0.75
877.329	-0.74
877.495	0.89
877.662	0.27
877.828	2.79
877.994	-0.17
878.16	-3.02
878.326	-0.27
878.492	1.36
878.658	-2.27
878.824	1.55
878.99	0.9
879.156	-0.79
879.322	3.26
879.487	-0.36
879.653	0.16
879.819	0.03
879.985	0.07
880.151	-1.33
880.317	1.94
880.483	-1.02
880.648	1.64
880.814	-1.28
880.98	-0.42
881.146	-1.79
881.312	0.29
881.477	0.99
881.643	1.12
881.809	3.16
881.974	1.82
882.14	-2.54
882.306	0.91
882.471	3.5
882.637	0.09
882.803	0.07
882.968	3.41
883.134	3.84
883.299	0.87
883.465	1.06
883.63	1.65
883.796	1.3
883.961	-0.35
884.127	1.55
884.292	-3.55
884.458	-0.52
884.623	-0.52
