Data from Apollo_Calib_20240827__AbsoluteIrradiance__175__02-04-02-264.txt Node

Date: Wed Aug 28 02:04:02 BST 2024
User: biology
Spectrometer: FLMT08252
Trigger mode: 0
Integration Time (sec): 5.000000E-1
Scans to average: 5
Electric dark correction enabled: true
Nonlinearity correction enabled: false
Boxcar width: 0
XAxis mode: Wavelengths
Number of Pixels in Spectrum: 3648
>>>>>Begin Spectral Data<<<<<
179.588	-0
179.809	-0
180.03	-0
180.251	-0
180.473	-0
180.694	0
180.915	0
181.136	-0
181.357	0
181.578	-0
181.799	-0
182.02	-0
182.241	0
182.462	0
182.683	0
182.904	-0
183.125	-0
183.346	0
183.567	0
183.788	0
184.009	-0
184.23	0
184.451	0
184.672	-0
184.892	-0
185.113	0
185.334	0
185.555	-0
185.776	-0
185.996	0
186.217	0
186.438	0
186.659	-0
186.879	0
187.1	0
187.321	-0
187.541	-0
187.762	0
187.983	-0
188.203	-0
188.424	0
188.644	0
188.865	0
189.086	0
189.306	-0
189.527	-0
189.747	-0
189.968	-0
190.188	0
190.409	0
190.629	0
190.849	-0
191.07	-0
191.29	0
191.511	-0
191.731	-0
191.951	-0
192.172	-0
192.392	-0
192.612	-0
192.833	0
193.053	0
193.273	0
193.493	-0
193.714	-0
193.934	0
194.154	0
194.374	0
194.594	0
194.815	0
195.035	0
195.255	0
195.475	-0
195.695	0
195.915	0
196.135	0
196.355	0
196.575	0
196.795	0
197.015	-0
197.235	-0
197.455	-0
197.675	0
197.895	-0
198.115	-0
198.335	0
198.555	-0
198.775	0
198.995	0
199.214	0
199.434	0
199.654	0
199.874	-0
200.094	1.27
200.313	0.11
200.533	-0.53
200.753	-0.73
200.973	0.73
201.192	0.38
201.412	-1.03
201.632	-0.39
201.851	1.05
202.071	-0.3
202.291	-0.11
202.51	-0.13
202.73	0.54
202.95	0.18
203.169	-0.66
203.389	0.04
203.608	0.04
203.828	-0.36
204.047	-0.42
204.267	0.45
204.486	-0.09
204.706	0.72
204.925	-0.11
205.145	-0.33
205.364	0.73
205.583	0.47
205.803	-0.33
206.022	-0.19
206.242	0.06
206.461	-0.15
206.68	-0.39
206.9	0.1
207.119	0.64
207.338	0.67
207.557	-0.36
207.777	0.04
207.996	-0.02
208.215	0.42
208.434	-0.2
208.654	-0.38
208.873	0.17
209.092	0.26
209.311	0.06
209.53	0.16
209.749	-0
209.968	-0.16
210.187	-0.05
210.407	-0.26
210.626	-0.07
210.845	0.21
211.064	-0.1
211.283	-0.31
211.502	0.31
211.721	0.38
211.94	-0.12
212.159	0.11
212.377	0.39
212.596	0.41
212.815	0.04
213.034	0.08
213.253	0.29
213.472	0.18
213.691	-0.06
213.91	-0.24
214.128	-0.04
214.347	0.38
214.566	-0.25
214.785	-0.26
215.003	0.3
215.222	0.02
215.441	0.01
215.66	-0.15
215.878	0.08
216.097	0.32
216.316	-0.15
216.534	-0.08
216.753	0.01
216.972	0.06
217.19	0.05
217.409	-0.24
217.627	-0.12
217.846	-0.15
218.064	0.09
218.283	0.01
218.501	0.39
218.72	0.12
218.938	-0.21
219.157	0.02
219.375	0.25
219.594	0.13
219.812	-0.14
220.031	-0.18
220.249	0.24
220.467	0.26
220.686	-0.08
220.904	-0.09
221.122	0
221.341	0.32
221.559	0.08
221.777	-0.18
221.995	-0.09
222.214	0.26
222.432	-0.02
222.65	0.19
222.868	0.14
223.086	0.09
223.305	0.1
223.523	-0.1
223.741	0.37
223.959	0.07
224.177	-0.18
224.395	-0.01
224.613	0.08
224.831	0.19
225.049	-0.17
225.267	0.07
225.485	-0.04
225.703	-0.04
225.921	-0.07
226.139	-0.05
226.357	0.13
226.575	0.08
226.793	-0.1
227.011	0.63
227.229	0.08
227.447	0.14
227.665	-0.01
227.883	-0.27
228.1	-0.01
228.318	0.18
228.536	-0.27
228.754	-0.08
228.972	0.15
229.189	0.08
229.407	-0.06
229.625	-0.01
229.843	0.3
230.06	0.13
230.278	-0.1
230.496	0.07
230.713	0.09
230.931	0.22
231.149	-0.06
231.366	-0.11
231.584	0.03
231.801	0.27
232.019	0.11
232.236	-0.15
232.454	-0.05
232.671	0.02
232.889	0.03
233.106	-0.1
233.324	0.01
233.541	-0.04
233.759	0
233.976	0.01
234.194	0.09
234.411	0.03
234.628	0
234.846	-0.03
235.063	0.02
235.28	0.01
235.498	-0.04
235.715	-0.09
235.932	0.24
236.149	0.07
236.367	-0.05
236.584	0.03
236.801	0.05
237.018	0.12
237.236	0.05
237.453	-0.14
237.67	0.15
237.887	-0
238.104	-0.06
238.321	-0.15
238.538	-0.07
238.755	0.2
238.973	-0.18
239.19	0.12
239.407	0.04
239.624	0.09
239.841	-0.15
240.058	-0.1
240.275	0.05
240.492	-0.02
240.709	-0.02
240.925	-0.04
241.142	0.04
241.359	-0.08
241.576	-0.12
241.793	-0.03
242.01	0.04
242.227	0.16
242.444	0.13
242.66	0.07
242.877	0.09
243.094	-0.08
243.311	0.06
243.527	-0.04
243.744	0.07
243.961	0.1
244.178	-0.05
244.394	-0.04
244.611	0.16
244.828	0.2
245.044	-0.09
245.261	0.09
245.477	0.13
245.694	0.18
245.911	0
246.127	0.01
246.344	0.08
246.56	0.07
246.777	-0
246.993	0.04
247.21	0.06
247.426	-0.09
247.643	0.03
247.859	-0.08
248.076	0.01
248.292	0.19
248.508	-0.08
248.725	0.05
248.941	0.11
249.157	0.09
249.374	-0.04
249.59	0.07
249.806	0
250.023	0.18
250.239	-0.11
250.455	-0.03
250.671	0.01
250.888	-0.01
251.104	0.09
251.32	0.01
251.536	-0.03
251.752	0.02
251.969	0.04
252.185	0.04
252.401	0.13
252.617	0.09
252.833	-0.04
253.049	0.03
253.265	0
253.481	0.05
253.697	-0.01
253.913	-0.03
254.129	0.06
254.345	0.05
254.561	-0.03
254.777	-0.01
254.993	0.07
255.209	-0.01
255.425	-0.01
255.641	-0.02
255.857	0.12
256.073	0.04
256.288	-0.08
256.504	-0.08
256.72	0.04
256.936	0.09
257.152	0.04
257.367	-0.04
257.583	0.01
257.799	0.04
258.015	-0.05
258.23	-0.02
258.446	0.17
258.662	-0.04
258.877	-0.05
259.093	-0.04
259.309	0.01
259.524	-0.01
259.74	0.05
259.955	-0.08
260.171	0.08
260.387	0.05
260.602	0.13
260.818	0.04
261.033	-0.02
261.249	-0.01
261.464	-0.01
261.68	-0.09
261.895	0.06
262.11	0.11
262.326	-0.02
262.541	-0.13
262.757	0.02
262.972	0.01
263.187	0.04
263.403	-0.03
263.618	0.11
263.833	0.01
264.049	-0.01
264.264	0.03
264.479	0.09
264.694	0.11
264.91	-0.13
265.125	-0.02
265.34	0.08
265.555	0.09
265.77	0.05
265.986	-0
266.201	0.1
266.416	0.17
266.631	-0.04
266.846	0
267.061	0.08
267.276	0.04
267.491	-0.18
267.706	0.05
267.921	0.07
268.136	0.02
268.351	0.05
268.566	-0.07
268.781	0.12
268.996	0.08
269.211	0.02
269.426	-0.05
269.641	-0.03
269.856	0.08
270.071	-0.03
270.285	-0.11
270.5	-0.01
270.715	0.1
270.93	-0.01
271.145	-0.02
271.359	0.07
271.574	-0.02
271.789	0.06
272.004	-0.01
272.218	0.01
272.433	0.08
272.648	0
272.862	0.03
273.077	-0.05
273.292	-0.03
273.506	-0.07
273.721	-0
273.936	0.05
274.15	0.15
274.365	0.01
274.579	0.1
274.794	0.04
275.008	0.09
275.223	-0.08
275.437	0.03
275.652	0.07
275.866	0.06
276.081	0.02
276.295	0.07
276.509	0.08
276.724	0.04
276.938	-0.02
277.153	0.03
277.367	0.05
277.581	-0.05
277.796	-0.05
278.01	-0.07
278.224	0.11
278.438	0.11
278.653	-0.03
278.867	-0.02
279.081	0.05
279.295	0.07
279.51	0.06
279.724	-0.04
279.938	0.05
280.152	0.03
280.366	-0.05
280.58	-0.01
280.794	0.08
281.008	0.1
281.222	0.08
281.437	0.14
281.651	0.02
281.865	0.11
282.079	0.02
282.293	-0.11
282.507	-0.01
282.721	-0
282.935	0.06
283.148	-0.05
283.362	-0.01
283.576	-0.1
283.79	0.04
284.004	-0.01
284.218	0.04
284.432	-0
284.646	0.03
284.859	0.06
285.073	-0.01
285.287	0.04
285.501	0.02
285.714	0.01
285.928	-0.02
286.142	0.04
286.356	-0.03
286.569	-0.02
286.783	0.12
286.997	0.03
287.21	0.01
287.424	0.04
287.637	0.01
287.851	0.01
288.065	0.05
288.278	-0
288.492	0.04
288.705	-0.01
288.919	0.05
289.132	-0.03
289.346	0.05
289.559	-0.09
289.773	-0.05
289.986	-0.02
290.2	-0.02
290.413	0.09
290.626	-0.05
290.84	0.04
291.053	0.03
291.267	0.1
291.48	0.01
291.693	0.07
291.906	-0.05
292.12	0.01
292.333	-0.05
292.546	-0
292.76	0.1
292.973	0
293.186	0.06
293.399	-0
293.612	0.08
293.826	0.07
294.039	0.02
294.252	-0.05
294.465	0.03
294.678	0.03
294.891	0.02
295.104	0.01
295.317	0.01
295.53	0.03
295.743	-0.01
295.956	0.02
296.169	0.09
296.382	0.06
296.595	0.02
296.808	0.01
297.021	0.07
297.234	0.09
297.447	-0
297.66	0.01
297.873	0.08
298.086	0.04
298.299	0
298.511	-0.02
298.724	0.04
298.937	-0.01
299.15	0
299.363	0.02
299.575	0.04
299.788	0.02
300.001	0.03
300.213	-0.05
300.426	0.05
300.639	0.02
300.852	-0.02
301.064	0.1
301.277	0.14
301.489	0.07
301.702	0.06
301.915	0.01
302.127	0.04
302.34	0.04
302.552	0.05
302.765	-0.01
302.977	0.07
303.19	-0.03
303.402	0.02
303.615	0
303.827	0.02
304.04	0.02
304.252	0.03
304.464	-0.01
304.677	0.11
304.889	0.06
305.102	-0.01
305.314	-0.02
305.526	0.09
305.739	0.06
305.951	0.01
306.163	0.01
306.375	0.12
306.588	-0.01
306.8	-0.05
307.012	-0
307.224	0.02
307.436	0.08
307.649	-0.05
307.861	-0.02
308.073	0.1
308.285	-0.04
308.497	-0.01
308.709	-0.02
308.921	0.05
309.133	0.12
309.346	-0
309.558	0.02
309.77	0.05
309.982	0.07
310.194	0.07
310.406	0.01
310.617	0.1
310.829	0.06
311.041	0.03
311.253	0.01
311.465	0.02
311.677	0.02
311.889	0.01
312.101	-0.02
312.313	0.07
312.524	0.01
312.736	-0
312.948	-0.01
313.16	0.07
313.372	0.08
313.583	0.01
313.795	-0
314.007	0.01
314.218	0.09
314.43	0.01
314.642	0.04
314.853	-0.03
315.065	0.07
315.277	0.02
315.488	0.06
315.7	0.07
315.912	0.05
316.123	-0.01
316.335	-0.03
316.546	0.1
316.758	0.04
316.969	-0.01
317.181	0.03
317.392	0
317.604	0.1
317.815	0.01
318.026	-0.05
318.238	-0.03
318.449	0.02
318.661	-0.04
318.872	-0.04
319.083	-0.03
319.295	0.05
319.506	0.01
319.717	0.02
319.929	0.03
320.14	0.03
320.351	0.02
320.562	-0.01
320.774	0.01
320.985	0.02
321.196	-0.03
321.407	-0.06
321.618	0.04
321.829	0.05
322.041	-0.01
322.252	0.02
322.463	0.04
322.674	0.05
322.885	-0.01
323.096	0
323.307	0.01
323.518	0.03
323.729	-0.03
323.94	0.01
324.151	-0.03
324.362	0.02
324.573	0.06
324.784	-0.04
324.995	0.08
325.206	0.03
325.417	-0.04
325.628	0.04
325.838	0.03
326.049	0.07
326.26	0.05
326.471	0.01
326.682	0.07
326.892	0.01
327.103	-0.07
327.314	-0.05
327.525	0.09
327.735	-0.03
327.946	-0.01
328.157	-0.01
328.368	0.02
328.578	-0.01
328.789	0.05
328.999	0.06
329.21	0.02
329.421	0.06
329.631	-0.05
329.842	-0.04
330.052	0.05
330.263	0.08
330.473	0.06
330.684	0.03
330.894	-0.02
331.105	0.04
331.315	0.02
331.526	-0.03
331.736	0.1
331.947	0.05
332.157	0.06
332.367	0.01
332.578	0.05
332.788	0.08
332.999	0.07
333.209	0.03
333.419	-0.03
333.629	0.1
333.84	0.09
334.05	-0
334.26	0.06
334.47	0.02
334.681	0.09
334.891	-0
335.101	0.1
335.311	0.11
335.521	0.01
335.732	-0.02
335.942	0.08
336.152	0.06
336.362	0.06
336.572	0.04
336.782	0.06
336.992	0.01
337.202	0.03
337.412	-0.01
337.622	0.1
337.832	0.04
338.042	0.01
338.252	-0.01
338.462	-0.01
338.672	0.07
338.882	-0.04
339.092	-0
339.302	0.07
339.511	0.08
339.721	0
339.931	-0.03
340.141	0.1
340.351	0.07
340.561	0.04
340.77	-0.01
340.98	0.05
341.19	0.05
341.4	-0.01
341.609	-0.03
341.819	0
342.029	-0.03
342.238	0.01
342.448	0.02
342.658	0.06
342.867	0.04
343.077	0.03
343.286	0.02
343.496	0.05
343.706	0.11
343.915	0.01
344.125	0.04
344.334	0.02
344.544	-0.05
344.753	0.03
344.963	0.04
345.172	-0
345.381	0
345.591	-0.03
345.8	0
346.01	0.05
346.219	0.07
346.428	-0.06
346.638	0.07
346.847	0.02
347.056	0.11
347.266	-0.01
347.475	0.07
347.684	0.11
347.893	0.05
348.103	0.02
348.312	-0.01
348.521	0
348.73	0.03
348.94	0.02
349.149	0.01
349.358	0.01
349.567	-0.03
349.776	-0.04
349.985	0.02
350.194	0.07
350.403	0.07
350.612	0.01
350.821	0.01
351.03	0.03
351.239	-0.03
351.448	0.01
351.657	0.05
351.866	0.08
352.075	0.03
352.284	0.02
352.493	0
352.702	0.06
352.911	0.04
353.12	0.04
353.329	-0.01
353.538	0.06
353.746	0.04
353.955	-0.02
354.164	0.03
354.373	0.02
354.582	0.08
354.79	0.03
354.999	0.08
355.208	0.05
355.416	0.07
355.625	-0
355.834	0.03
356.042	0.04
356.251	0.02
356.46	-0.04
356.668	0.02
356.877	0.11
357.085	0.06
357.294	-0.05
357.503	0.05
357.711	-0.01
357.92	0.15
358.128	0.03
358.337	0.03
358.545	0.07
358.754	0.01
358.962	0.09
359.17	0.05
359.379	0.05
359.587	0.05
359.796	0.04
360.004	0.06
360.212	0.03
360.421	0.08
360.629	-0.02
360.837	0.04
361.046	0.06
361.254	0.16
361.462	0.03
361.67	-0.02
361.879	0.06
362.087	0.08
362.295	0.05
362.503	0.03
362.711	-0.02
362.92	0.04
363.128	-0.02
363.336	0.03
363.544	0
363.752	0.01
363.96	0.03
364.168	-0
364.376	0.04
364.584	0.09
364.792	0.09
365	0.07
365.208	0.03
365.416	0.06
365.624	0.07
365.832	0.03
366.04	0.05
366.248	0.03
366.456	0.06
366.664	0.05
366.872	0.05
367.079	0.01
367.287	0.05
367.495	0.06
367.703	0.03
367.911	0.06
368.118	0.04
368.326	0.01
368.534	0.01
368.742	0.12
368.949	0.01
369.157	0.01
369.365	0.06
369.572	0.02
369.78	0.02
369.988	0.08
370.195	0.06
370.403	0.06
370.61	0.04
370.818	0.04
371.026	0.09
371.233	0
371.441	0.05
371.648	0.02
371.856	0.06
372.063	0.04
372.271	0.02
372.478	0.01
372.685	0.03
372.893	0.1
373.1	0.02
373.308	0
373.515	0.12
373.722	0.08
373.93	0.02
374.137	0.08
374.344	0.11
374.552	0.13
374.759	0.09
374.966	0.11
375.173	0.03
375.381	0.1
375.588	0.05
375.795	0.01
376.002	0.05
376.209	0.02
376.417	0.01
376.624	0.05
376.831	0.04
377.038	0.04
377.245	-0
377.452	0.06
377.659	0.06
377.866	0
378.073	0.04
378.28	0.02
378.487	0.11
378.694	0.09
378.901	0.04
379.108	0.03
379.315	0.12
379.522	0.17
379.729	0.06
379.936	0.06
380.143	0.02
380.35	0.06
380.557	0.03
380.763	0.05
380.97	0.08
381.177	0.1
381.384	0.06
381.591	0.02
381.797	0.11
382.004	0.12
382.211	0.09
382.418	0.11
382.624	0.16
382.831	0.09
383.038	0.04
383.244	0.13
383.451	0.07
383.658	0.12
383.864	0.08
384.071	0.06
384.277	0.15
384.484	0.05
384.69	0.19
384.897	0.07
385.103	0.1
385.31	0.11
385.516	0.1
385.723	0.11
385.929	0.15
386.136	0.12
386.342	0.17
386.549	0.13
386.755	0.16
386.961	0.16
387.168	0.17
387.374	0.18
387.58	0.23
387.787	0.17
387.993	0.2
388.199	0.21
388.406	0.19
388.612	0.21
388.818	0.21
389.024	0.22
389.231	0.26
389.437	0.3
389.643	0.33
389.849	0.29
390.055	0.31
390.261	0.29
390.467	0.35
390.674	0.3
390.88	0.39
391.086	0.42
391.292	0.38
391.498	0.5
391.704	0.48
391.91	0.49
392.116	0.46
392.322	0.44
392.528	0.57
392.734	0.6
392.94	0.61
393.146	0.65
393.352	0.64
393.557	0.69
393.763	0.72
393.969	0.8
394.175	0.76
394.381	0.83
394.587	0.83
394.792	0.91
394.998	1.03
395.204	1.08
395.41	1.04
395.615	1.15
395.821	1.26
396.027	1.29
396.233	1.39
396.438	1.48
396.644	1.7
396.85	1.61
397.055	1.68
397.261	1.77
397.466	1.98
397.672	1.94
397.878	2.1
398.083	2.11
398.289	2.16
398.494	2.4
398.7	2.42
398.905	2.45
399.111	2.7
399.316	2.6
399.522	2.8
399.727	2.89
399.932	3.01
400.138	3.13
400.343	3.38
400.549	3.36
400.754	3.68
400.959	3.8
401.165	3.95
401.37	4.15
401.575	4.44
401.78	4.4
401.986	4.6
402.191	4.9
402.396	5.08
402.601	5.27
402.807	5.57
403.012	5.62
403.217	6.15
403.422	6.14
403.627	6.3
403.832	6.63
404.037	6.89
404.243	6.8
404.448	7.08
404.653	7.37
404.858	7.55
405.063	7.44
405.268	7.64
405.473	7.81
405.678	7.9
405.883	8.35
406.088	8.39
406.293	8.49
406.498	8.64
406.703	8.56
406.907	8.78
407.112	8.95
407.317	9.21
407.522	9.38
407.727	9.4
407.932	9.47
408.136	9.67
408.341	9.41
408.546	9.49
408.751	9.47
408.956	9.38
409.16	9.63
409.365	9.4
409.57	9.07
409.774	9.07
409.979	8.96
410.184	8.79
410.388	8.56
410.593	8.61
410.798	8.53
411.002	8.53
411.207	8.3
411.411	8.19
411.616	7.89
411.82	7.81
412.025	7.55
412.229	7.36
412.434	7.19
412.638	7
412.843	6.81
413.047	6.53
413.252	6.36
413.456	6.34
413.66	6.14
413.865	5.86
414.069	5.69
414.273	5.66
414.478	5.42
414.682	5.23
414.886	5.1
415.091	4.94
415.295	4.78
415.499	4.76
415.703	4.44
415.908	4.47
416.112	4.15
416.316	4.21
416.52	4.13
416.724	3.93
416.929	3.8
417.133	3.98
417.337	3.74
417.541	3.71
417.745	3.65
417.949	3.52
418.153	3.44
418.357	3.4
418.561	3.5
418.765	3.24
418.969	3.24
419.173	3.18
419.377	3.03
419.581	3.1
419.785	2.95
419.989	2.83
420.193	2.89
420.397	2.78
420.601	2.76
420.804	2.74
421.008	2.53
421.212	2.57
421.416	2.43
421.62	2.33
421.823	2.23
422.027	2.34
422.231	2.08
422.435	2.04
422.638	1.98
422.842	1.94
423.046	1.8
423.249	1.88
423.453	1.78
423.657	1.75
423.86	1.73
424.064	1.64
424.268	1.62
424.471	1.54
424.675	1.56
424.878	1.49
425.082	1.42
425.285	1.44
425.489	1.32
425.692	1.34
425.896	1.21
426.099	1.3
426.303	1.24
426.506	1.14
426.71	1.11
426.913	1.11
427.116	1.2
427.32	1.07
427.523	1.03
427.726	1.1
427.93	0.92
428.133	1.03
428.336	0.93
428.54	0.93
428.743	0.97
428.946	1.03
429.149	0.92
429.353	0.93
429.556	0.88
429.759	0.84
429.962	0.79
430.165	0.81
430.368	0.76
430.571	0.69
430.775	0.74
430.978	0.62
431.181	0.72
431.384	0.68
431.587	0.6
431.79	0.66
431.993	0.54
432.196	0.6
432.399	0.6
432.602	0.7
432.805	0.62
433.008	0.61
433.211	0.52
433.414	0.65
433.616	0.67
433.819	0.56
434.022	0.49
434.225	0.62
434.428	0.55
434.631	0.64
434.833	0.52
435.036	0.5
435.239	0.62
435.442	0.53
435.645	0.49
435.847	0.5
436.05	0.59
436.253	0.55
436.455	0.43
436.658	0.45
436.861	0.54
437.063	0.39
437.266	0.41
437.468	0.45
437.671	0.56
437.874	0.4
438.076	0.35
438.279	0.35
438.481	0.4
438.684	0.36
438.886	0.4
439.089	0.3
439.291	0.4
439.494	0.43
439.696	0.27
439.899	0.39
440.101	0.36
440.303	0.33
440.506	0.37
440.708	0.34
440.91	0.36
441.113	0.29
441.315	0.32
441.517	0.26
441.72	0.37
441.922	0.28
442.124	0.25
442.326	0.32
442.529	0.42
442.731	0.25
442.933	0.38
443.135	0.28
443.337	0.21
443.539	0.23
443.742	0.29
443.944	0.27
444.146	0.22
444.348	0.2
444.55	0.21
444.752	0.16
444.954	0.17
445.156	0.24
445.358	0.23
445.56	0.25
445.762	0.2
445.964	0.2
446.166	0.2
446.368	0.16
446.57	0.27
446.772	0.19
446.974	0.16
447.175	0.23
447.377	0.17
447.579	0.21
447.781	0.11
447.983	0.2
448.184	0.22
448.386	0.18
448.588	0.13
448.79	0.2
448.991	0.15
449.193	0.16
449.395	0.17
449.597	0.18
449.798	0.18
450	0.18
450.202	0.14
450.403	0.17
450.605	0.19
450.806	0.16
451.008	0.09
451.21	0.14
451.411	0.18
451.613	0.12
451.814	0.17
452.016	0.17
452.217	0.14
452.419	0.19
452.62	0.17
452.821	0.12
453.023	0.24
453.224	0.18
453.426	0.17
453.627	0.12
453.828	0.13
454.03	0.13
454.231	0.18
454.432	0.09
454.634	0.22
454.835	0.12
455.036	0.1
455.238	0.19
455.439	0.24
455.64	0.1
455.841	0.09
456.042	0.27
456.244	0.19
456.445	0.1
456.646	0.06
456.847	0.08
457.048	0.18
457.249	0.16
457.45	0.34
457.651	0.05
457.852	0.19
458.054	0.15
458.255	0.09
458.456	0.17
458.657	0.11
458.858	0.08
459.058	0.17
459.259	0.14
459.46	0.1
459.661	0.09
459.862	0.19
460.063	0.11
460.264	0.17
460.465	0.06
460.666	0.23
460.866	0.11
461.067	0.13
461.268	0.15
461.469	0.07
461.67	0.18
461.87	0.11
462.071	0.11
462.272	0.11
462.473	0.13
462.673	0.18
462.874	0.09
463.075	0.1
463.275	0.07
463.476	0.13
463.676	0.1
463.877	0.08
464.078	0.1
464.278	0.14
464.479	0.13
464.679	0.13
464.88	0.14
465.08	0.22
465.281	0.09
465.481	0.06
465.682	0.08
465.882	0.16
466.083	0.13
466.283	0.13
466.483	0.15
466.684	0.11
466.884	0.09
467.085	0.09
467.285	0.14
467.485	0.1
467.686	0.1
467.886	0.08
468.086	0.13
468.286	0.13
468.487	0.09
468.687	0.1
468.887	0.08
469.087	0.14
469.287	0.09
469.488	0.05
469.688	0.1
469.888	0.16
470.088	0.16
470.288	0.18
470.488	0.12
470.688	0.08
470.888	0.12
471.088	0.04
471.288	0.11
471.488	0.11
471.688	0.14
471.888	0.08
472.088	0.18
472.288	0.13
472.488	0.06
472.688	0.09
472.888	0.13
473.088	0.09
473.288	0.07
473.488	0.12
473.688	0.15
473.887	0.09
474.087	0.06
474.287	0.09
474.487	0.07
474.687	0.12
474.886	0.06
475.086	0.09
475.286	0.07
475.486	0.06
475.685	0.1
475.885	0.05
476.085	0.1
476.284	0.1
476.484	0.04
476.684	0.1
476.883	0.14
477.083	0.1
477.282	0.1
477.482	0.17
477.681	0.12
477.881	0.1
478.08	0.05
478.28	0.06
478.479	0.08
478.679	0.14
478.878	0.04
479.078	0.05
479.277	0.07
479.477	0.08
479.676	0.1
479.875	0.07
480.075	0.04
480.274	0.09
480.473	0.08
480.673	0.03
480.872	0.1
481.071	0.07
481.271	0.06
481.47	0.05
481.669	0.05
481.868	0.04
482.067	0.05
482.267	0.06
482.466	0.05
482.665	0.02
482.864	0.03
483.063	0.02
483.262	0.08
483.461	0.12
483.661	0.1
483.86	0.04
484.059	0.08
484.258	0.04
484.457	0.05
484.656	0.06
484.855	0.1
485.054	0.03
485.253	0.04
485.452	0.02
485.651	0.06
485.849	0.06
486.048	0.03
486.247	0.02
486.446	0.05
486.645	0
486.844	0.01
487.043	0.04
487.241	0.07
487.44	0
487.639	0.02
487.838	0.06
488.037	0.07
488.235	0.1
488.434	0.06
488.633	0.01
488.831	0.06
489.03	0.08
489.229	0.04
489.427	0.04
489.626	0.06
489.825	0.09
490.023	0.07
490.222	0.02
490.42	0.06
490.619	0.09
490.817	0.04
491.016	0.04
491.214	0.05
491.413	0.04
491.611	0.06
491.81	0.03
492.008	0.06
492.207	0.06
492.405	0.05
492.604	0.02
492.802	0.03
493	0.04
493.199	0.04
493.397	0.04
493.595	0.06
493.794	0.01
493.992	0.1
494.19	0.05
494.388	0.04
494.587	0.02
494.785	0.04
494.983	-0
495.181	0.06
495.379	0.05
495.578	0.03
495.776	0.06
495.974	0.04
496.172	0.03
496.37	0.02
496.568	0.03
496.766	0.02
496.964	0.08
497.162	0.03
497.36	0.02
497.558	0.06
497.756	0.05
497.954	0.03
498.152	-0
498.35	0.02
498.548	0.03
498.746	0.03
498.944	0.01
499.142	0.02
499.34	0.02
499.538	0.03
499.736	0
499.933	0.08
500.131	0.07
500.329	0.05
500.527	0.06
500.725	0.06
500.922	0.05
501.12	0.06
501.318	0.05
501.516	0.03
501.713	0.05
501.911	0.04
502.109	0
502.306	0.06
502.504	0.02
502.701	0.03
502.899	0.02
503.097	0.08
503.294	0.05
503.492	0.03
503.689	0.03
503.887	0.07
504.084	0.08
504.282	0.03
504.479	-0.03
504.677	0.05
504.874	-0.01
505.072	0.04
505.269	0.03
505.466	0.07
505.664	0.03
505.861	-0.01
506.059	0.02
506.256	0.05
506.453	0.02
506.651	0.09
506.848	0.07
507.045	0.04
507.242	0.04
507.44	0.01
507.637	0.02
507.834	0.02
508.031	0.06
508.229	0
508.426	0.04
508.623	0.05
508.82	0.04
509.017	0.01
509.214	0.01
509.411	0.02
509.608	0.01
509.805	0.03
510.003	0.03
510.2	0.01
510.397	0.05
510.594	0
510.791	0.02
510.988	0.04
511.184	0.06
511.381	0.02
511.578	0.01
511.775	0.07
511.972	0
512.169	0.03
512.366	0.01
512.563	0.06
512.76	0.01
512.956	0.06
513.153	-0
513.35	0.03
513.547	0.01
513.744	0.02
513.94	0
514.137	0.04
514.334	0.01
514.53	0.04
514.727	0.04
514.924	0.04
515.12	-0.01
515.317	-0.03
515.514	-0.02
515.71	-0.02
515.907	0.02
516.103	0.03
516.3	0.03
516.497	0.04
516.693	0.06
516.89	0.02
517.086	-0.01
517.283	0.05
517.479	0.03
517.676	0.02
517.872	0.04
518.068	0.02
518.265	0.02
518.461	0.02
518.658	-0.02
518.854	0.03
519.05	0.03
519.247	0
519.443	0.03
519.639	0.04
519.836	0.03
520.032	0.03
520.228	0.01
520.424	0.06
520.621	0.03
520.817	0.02
521.013	0.03
521.209	0.03
521.405	0.07
521.601	0.02
521.798	0.03
521.994	0.04
522.19	0
522.386	-0.02
522.582	0.03
522.778	0.03
522.974	0.01
523.17	0.03
523.366	0.04
523.562	0.05
523.758	0.02
523.954	-0.01
524.15	-0.01
524.346	0.05
524.542	0.03
524.738	-0.01
524.934	0.01
525.129	0.02
525.325	0.03
525.521	0.03
525.717	0.04
525.913	0.03
526.109	0.02
526.304	0.01
526.5	0.03
526.696	0.03
526.892	0.01
527.087	0.02
527.283	-0.01
527.479	0.03
527.674	-0.01
527.87	0
528.066	0
528.261	0.04
528.457	0.04
528.653	-0.01
528.848	0.01
529.044	0.03
529.239	0.04
529.435	0.06
529.63	0.01
529.826	0.05
530.021	0.02
530.217	0.04
530.412	0.01
530.608	0.01
530.803	0.02
530.999	0.01
531.194	-0.03
531.389	0.04
531.585	-0.04
531.78	0
531.975	0.02
532.171	0.07
532.366	0.02
532.561	0.01
532.757	0
532.952	0
533.147	0.02
533.342	0
533.538	-0
533.733	0.06
533.928	0.01
534.123	-0
534.318	-0.02
534.513	0
534.709	0.02
534.904	0.01
535.099	-0
535.294	-0
535.489	0.01
535.684	0.02
535.879	-0.01
536.074	0.03
536.269	0.01
536.464	0.01
536.659	0.02
536.854	-0
537.049	0.02
537.244	0.04
537.439	0.01
537.634	0.03
537.828	0.04
538.023	0
538.218	-0.01
538.413	0.01
538.608	0
538.803	0.01
538.997	-0.03
539.192	0.02
539.387	0.05
539.582	0.02
539.776	0.03
539.971	-0.01
540.166	0
540.36	-0.02
540.555	0.01
540.75	-0
540.944	0.02
541.139	-0.02
541.334	0.01
541.528	0.01
541.723	0.03
541.917	0.01
542.112	-0.03
542.306	0.01
542.501	0.02
542.695	0.02
542.89	-0.01
543.084	0.02
543.279	-0.02
543.473	-0.02
543.668	0.03
543.862	0.02
544.056	0.03
544.251	0.01
544.445	0.01
544.64	-0.01
544.834	-0.01
545.028	0.02
545.222	0.02
545.417	0.03
545.611	0.03
545.805	0.02
546	-0
546.194	0
546.388	0.01
546.582	0.01
546.776	0.02
546.97	0.01
547.165	0.02
547.359	0.04
547.553	-0.01
547.747	0
547.941	0.01
548.135	0.01
548.329	0.02
548.523	0.01
548.717	0.01
548.911	0.01
549.105	0
549.299	0.03
549.493	0.03
549.687	0.02
549.881	0.01
550.075	-0
550.269	-0
550.463	0.02
550.657	-0
550.85	0.01
551.044	-0.01
551.238	0.02
551.432	-0.01
551.626	-0.02
551.82	0
552.013	-0.01
552.207	0.02
552.401	0.03
552.594	0.01
552.788	0.01
552.982	0.01
553.176	-0
553.369	0.03
553.563	0.03
553.756	-0.02
553.95	-0.01
554.144	0.02
554.337	0.03
554.531	0.01
554.724	0.01
554.918	-0
555.111	0.02
555.305	0
555.498	0.06
555.692	0.01
555.885	-0.02
556.079	0.01
556.272	-0.03
556.466	0.02
556.659	0.02
556.852	-0
557.046	-0
557.239	0.04
557.432	-0.01
557.626	-0.02
557.819	0.04
558.012	0.04
558.206	0.02
558.399	-0
558.592	0.01
558.785	-0
558.979	0.02
559.172	0.03
559.365	0.02
559.558	0.01
559.751	-0
559.944	0
560.138	-0.02
560.331	0
560.524	-0.01
560.717	0.02
560.91	0.02
561.103	0.03
561.296	0.02
561.489	0.01
561.682	0.01
561.875	0.03
562.068	0
562.261	0.03
562.454	0.06
562.647	0.02
562.84	0.02
563.032	0.01
563.225	0
563.418	-0.01
563.611	-0.01
563.804	0.03
563.997	-0.01
564.19	-0.02
564.382	0.02
564.575	0.01
564.768	0.01
564.961	0
565.153	0
565.346	0.04
565.539	0.03
565.731	0.05
565.924	0.02
566.117	0.02
566.309	0.04
566.502	-0.02
566.695	-0.01
566.887	0.01
567.08	-0.01
567.272	-0.01
567.465	-0.02
567.657	0.03
567.85	0.01
568.042	0.03
568.235	0.05
568.427	-0
568.62	0.01
568.812	0.02
569.005	-0
569.197	-0.03
569.389	0
569.582	0.03
569.774	-0
569.966	-0.03
570.159	-0.03
570.351	-0.01
570.543	0
570.736	-0.01
570.928	-0.03
571.12	0.02
571.312	-0.02
571.505	-0.03
571.697	0.02
571.889	0
572.081	0.01
572.273	-0.01
572.465	0.04
572.658	0.01
572.85	0.01
573.042	0.01
573.234	0
573.426	0.03
573.618	-0.05
573.81	-0.01
574.002	0.04
574.194	0.04
574.386	-0.02
574.578	-0.05
574.77	-0.01
574.962	0
575.154	-0.03
575.346	0.02
575.538	0.03
575.729	0
575.921	-0
576.113	0.02
576.305	0.03
576.497	0.01
576.689	0
576.88	-0.04
577.072	0.06
577.264	-0
577.456	-0.01
577.647	-0.03
577.839	0
578.031	0.06
578.223	-0.04
578.414	-0.04
578.606	0.02
578.798	-0
578.989	-0.01
579.181	-0.01
579.372	-0.01
579.564	0
579.755	0
579.947	0.02
580.139	0.03
580.33	-0.02
580.522	-0.03
580.713	-0.06
580.905	-0
581.096	0.02
581.287	0.01
581.479	-0
581.67	0.03
581.862	0.01
582.053	-0.02
582.244	-0.05
582.436	0.01
582.627	-0
582.818	-0.01
583.01	-0.03
583.201	0.03
583.392	0.02
583.583	-0.01
583.775	0
583.966	-0.01
584.157	-0.01
584.348	-0.01
584.54	-0.03
584.731	0.01
584.922	0
585.113	-0.02
585.304	0.03
585.495	0.04
585.686	0.01
585.877	0.02
586.068	0.04
586.259	0.03
586.45	0
586.641	-0.01
586.832	-0.06
587.023	-0.01
587.214	0.02
587.405	0.01
587.596	-0.02
587.787	0.03
587.978	0.01
588.169	-0.01
588.36	-0.04
588.551	0.06
588.742	-0.01
588.932	0
589.123	0.01
589.314	0.04
589.505	0.02
589.696	-0
589.886	-0.03
590.077	-0.05
590.268	0.01
590.458	-0.03
590.649	-0.03
590.84	0.04
591.03	0
591.221	-0.02
591.412	-0.04
591.602	0.05
591.793	0.03
591.984	-0.01
592.174	-0.04
592.365	0.08
592.555	-0.02
592.746	0.02
592.936	0.01
593.127	0.03
593.317	0.04
593.508	-0.02
593.698	-0.02
593.889	-0.01
594.079	-0
594.269	0.02
594.46	0.02
594.65	0
594.84	0.01
595.031	-0.04
595.221	-0.01
595.411	-0.03
595.602	0.02
595.792	-0
595.982	-0.01
596.172	0.05
596.363	-0
596.553	0.02
596.743	-0
596.933	0.01
597.123	0.02
597.314	-0.04
597.504	-0.01
597.694	0.03
597.884	-0.02
598.074	-0.01
598.264	-0.04
598.454	0.02
598.644	0.01
598.834	0.02
599.024	-0.06
599.214	-0.01
599.404	0.04
599.594	-0.02
599.784	-0.03
599.974	0.03
600.164	0.03
600.354	-0.05
600.544	-0.03
600.734	0.03
600.924	0.06
601.114	-0.03
601.303	0.01
601.493	0
601.683	-0.03
601.873	0.02
602.063	-0.03
602.252	0.03
602.442	-0.07
602.632	-0.02
602.821	-0.06
603.011	0.07
603.201	-0.01
603.39	-0.01
603.58	-0.03
603.77	0.02
603.959	0.04
604.149	-0.01
604.339	-0
604.528	0
604.718	0.02
604.907	0.01
605.097	-0.02
605.286	-0.04
605.476	-0
605.665	0.02
605.855	-0.02
606.044	0.05
606.234	0.02
606.423	0
606.612	-0.02
606.802	0.01
606.991	0
607.181	0.02
607.37	-0.01
607.559	0.01
607.749	-0.05
607.938	0.01
608.127	-0.01
608.316	-0.03
608.506	0.03
608.695	-0
608.884	-0.02
609.073	0.01
609.263	0.03
609.452	0.01
609.641	0.02
609.83	-0.03
610.019	0.01
610.208	-0.01
610.397	-0.02
610.586	0.04
610.775	-0.02
610.965	-0.02
611.154	-0.04
611.343	0
611.532	-0.02
611.721	-0.03
611.91	-0.02
612.099	0.01
612.287	0
612.476	-0.04
612.665	0.02
612.854	-0.03
613.043	0.05
613.232	0
613.421	-0.05
613.61	0
613.798	-0.03
613.987	0.03
614.176	0.01
614.365	0.04
614.554	-0
614.742	0.03
614.931	-0.03
615.12	0.04
615.309	-0.02
615.497	0.02
615.686	-0.03
615.875	-0.01
616.063	0.01
616.252	0
616.44	0.01
616.629	-0
616.818	0.04
617.006	-0.01
617.195	-0.02
617.383	-0.02
617.572	-0.01
617.76	-0.01
617.949	-0.04
618.137	0.01
618.326	-0.01
618.514	-0.02
618.703	-0.04
618.891	0.07
619.079	-0.06
619.268	0.03
619.456	-0.03
619.644	0.06
619.833	-0.01
620.021	-0.03
620.209	-0.04
620.398	0.03
620.586	0.03
620.774	0.02
620.962	0.01
621.151	0.04
621.339	-0.02
621.527	-0.02
621.715	-0.06
621.903	-0.05
622.092	-0.06
622.28	0.02
622.468	0.02
622.656	0.01
622.844	0.05
623.032	-0.03
623.22	-0.03
623.408	0.02
623.596	0.03
623.784	0.04
623.972	-0.01
624.16	-0
624.348	0.08
624.536	-0.04
624.724	-0.03
624.912	0.07
625.1	0.05
625.288	-0.01
625.476	-0.05
625.664	0.02
625.851	-0.04
626.039	0.02
626.227	0.01
626.415	0.01
626.603	-0.06
626.79	0.03
626.978	0.02
627.166	0.02
627.354	0.01
627.541	-0.01
627.729	-0.04
627.917	0.03
628.104	0.03
628.292	0
628.48	-0
628.667	-0.02
628.855	0.01
629.042	0
629.23	0.01
629.418	-0.03
629.605	0.02
629.793	0
629.98	-0.02
630.168	-0.01
630.355	-0.02
630.543	0.02
630.73	-0.02
630.917	0.05
631.105	0.03
631.292	0
631.48	0.01
631.667	0.07
631.854	0.01
632.042	-0.02
632.229	-0.06
632.416	-0.02
632.604	-0.02
632.791	-0.04
632.978	0.02
633.165	0.03
633.353	0.08
633.54	0.05
633.727	-0.08
633.914	-0.01
634.101	-0.07
634.289	0.02
634.476	-0.03
634.663	-0.04
634.85	0.03
635.037	-0.02
635.224	-0.06
635.411	0.03
635.598	0.06
635.785	0
635.972	-0.02
636.159	0.03
636.346	-0.02
636.533	-0
636.72	0
636.907	-0.01
637.094	0.01
637.281	-0.01
637.468	0.04
637.655	0.01
637.842	-0.01
638.029	-0.04
638.215	0.03
638.402	0.02
638.589	-0.06
638.776	-0.02
638.963	-0.04
639.149	0.04
639.336	0.06
639.523	-0.01
639.709	-0.01
639.896	0.01
640.083	0.06
640.27	0.02
640.456	-0
640.643	0
640.829	-0.08
641.016	-0
641.203	-0.05
641.389	0.03
641.576	0.03
641.762	-0.01
641.949	-0.02
642.135	-0
642.322	0.02
642.508	-0.02
642.695	-0.01
642.881	0
643.068	-0.02
643.254	-0.01
643.441	0.06
643.627	0.04
643.813	-0.03
644	0.01
644.186	-0.02
644.372	-0.05
644.559	0.04
644.745	-0
644.931	-0
645.118	-0.01
645.304	-0.01
645.49	-0.02
645.676	-0
645.862	-0.01
646.049	0.04
646.235	0.01
646.421	0.07
646.607	0.03
646.793	0.02
646.979	-0.03
647.165	0.01
647.352	-0.01
647.538	0.07
647.724	-0.01
647.91	0.03
648.096	0.02
648.282	0.03
648.468	-0.03
648.654	0.01
648.84	0.03
649.026	0.01
649.212	-0
649.397	-0.01
649.583	-0.05
649.769	0.01
649.955	0.02
650.141	0.03
650.327	0.04
650.513	-0
650.698	0.01
650.884	-0.07
651.07	0
651.256	-0.02
651.442	-0
651.627	-0.01
651.813	-0.02
651.999	0.01
652.184	0.02
652.37	0.02
652.556	-0.02
652.741	0.07
652.927	-0.06
653.113	-0.01
653.298	0.02
653.484	-0.04
653.669	-0.08
653.855	-0.03
654.04	0.01
654.226	0.01
654.412	-0
654.597	-0.04
654.782	0.01
654.968	0.01
655.153	0.01
655.339	-0.06
655.524	-0.05
655.71	0.04
655.895	-0.02
656.08	0.01
656.266	0.02
656.451	0
656.636	-0.02
656.822	-0.02
657.007	-0.06
657.192	-0.02
657.378	-0.06
657.563	-0.01
657.748	0.04
657.933	-0.04
658.118	0.01
658.304	-0.01
658.489	0.04
658.674	0.03
658.859	-0.03
659.044	0.03
659.229	0.04
659.414	-0.04
659.599	0.02
659.785	-0.06
659.97	-0.03
660.155	0.03
660.34	0.01
660.525	-0.02
660.71	-0.04
660.895	0.05
661.08	-0.06
661.264	-0.06
661.449	0.06
661.634	0.04
661.819	0.01
662.004	0.04
662.189	-0.06
662.374	-0.04
662.559	-0.05
662.743	-0.04
662.928	-0.02
663.113	-0.01
663.298	-0.05
663.483	0
663.667	0.01
663.852	-0.04
664.037	0.02
664.221	-0.05
664.406	0.05
664.591	-0.02
664.775	-0.02
664.96	-0.05
665.145	0.02
665.329	0.03
665.514	-0
665.698	-0.03
665.883	-0.04
666.068	0.03
666.252	-0.03
666.437	-0.03
666.621	0.01
666.806	0.07
666.99	-0.01
667.174	-0.06
667.359	0.06
667.543	-0.01
667.728	-0.02
667.912	-0.07
668.096	0.02
668.281	-0.02
668.465	-0.02
668.649	0.02
668.834	-0.06
669.018	-0.01
669.202	-0.03
669.387	-0.04
669.571	0.03
669.755	-0.04
669.939	-0.01
670.124	0
670.308	0.05
670.492	0.02
670.676	0.01
670.86	-0.02
671.044	-0.06
671.228	0.04
671.413	-0.04
671.597	-0.01
671.781	-0.03
671.965	0.06
672.149	0.03
672.333	-0.03
672.517	-0.02
672.701	0.03
672.885	-0.03
673.069	-0.05
673.253	0.06
673.437	0.01
673.621	-0.01
673.804	-0.02
673.988	-0.01
674.172	-0.02
674.356	-0.07
674.54	-0.02
674.724	0.09
674.908	-0.01
675.091	0.03
675.275	-0.04
675.459	0.03
675.643	0.01
675.826	0.01
676.01	-0.02
676.194	0
676.377	0.06
676.561	0.02
676.745	0.01
676.928	0.02
677.112	0.07
677.296	-0.04
677.479	-0.03
677.663	-0.03
677.846	0.01
678.03	-0.01
678.213	-0.02
678.397	0.02
678.58	0.01
678.764	-0.02
678.947	-0.03
679.131	-0.04
679.314	0.06
679.498	-0.05
679.681	0.03
679.865	0.06
680.048	-0.01
680.231	-0
680.415	-0.01
680.598	-0.04
680.781	-0.03
680.965	0.01
681.148	0.02
681.331	-0.02
681.514	0.01
681.698	-0.02
681.881	0
682.064	0.01
682.247	0.01
682.43	-0.06
682.614	-0
682.797	0.05
682.98	-0
683.163	-0.03
683.346	0.03
683.529	-0.01
683.712	-0.03
683.895	-0.01
684.078	-0.05
684.261	-0.01
684.444	0.01
684.627	-0.02
684.81	-0.02
684.993	-0.02
685.176	0.02
685.359	0.02
685.542	-0.02
685.725	0.09
685.908	-0.02
686.091	-0.02
686.274	0.03
686.457	0.03
686.639	0.04
686.822	0.03
687.005	-0.03
687.188	0.02
687.371	0.07
687.553	0.03
687.736	0.03
687.919	0.06
688.102	0.04
688.284	-0.06
688.467	-0.01
688.65	-0.03
688.832	-0
689.015	-0
689.197	-0.05
689.38	0.07
689.563	0.12
689.745	-0.05
689.928	-0.03
690.11	0.02
690.293	0.03
690.475	-0.06
690.658	0.02
690.84	-0.04
691.023	0.02
691.205	-0.03
691.388	0.01
691.57	-0.02
691.752	0.02
691.935	-0.04
692.117	0.01
692.3	0.01
692.482	0
692.664	-0
692.847	0
693.029	0.1
693.211	0.05
693.393	-0
693.576	-0.05
693.758	-0
693.94	-0.03
694.122	-0.02
694.304	-0.01
694.487	-0.04
694.669	0.07
694.851	-0.07
695.033	0
695.215	-0.03
695.397	-0.06
695.579	0.05
695.761	-0.08
695.943	-0.06
696.125	0.08
696.308	0.02
696.49	-0.1
696.671	0.12
696.853	-0.03
697.035	0.11
697.217	0.05
697.399	0.06
697.581	0
697.763	0
697.945	-0.05
698.127	0.01
698.309	0.08
698.491	-0.01
698.672	0.03
698.854	0.03
699.036	0.07
699.218	0
699.399	0.03
699.581	0.07
699.763	0.05
699.945	-0.05
700.126	-0.07
700.308	0.05
700.49	0.01
700.671	-0.12
700.853	-0.05
701.035	-0.02
701.216	-0.01
701.398	-0.04
701.579	-0
701.761	0.07
701.943	-0.08
702.124	-0.04
702.306	-0.09
702.487	0.14
702.669	0
702.85	-0.07
703.031	-0.03
703.213	0.04
703.394	0.03
703.576	-0.03
703.757	0.05
703.938	0
704.12	0.16
704.301	0
704.483	-0.03
704.664	0.02
704.845	0.1
705.026	0.06
705.208	0.02
705.389	0.04
705.57	0.05
705.751	-0.05
705.933	0
706.114	0.04
706.295	0.01
706.476	-0.06
706.657	0.01
706.838	0.04
707.02	0.07
707.201	-0.02
707.382	-0.02
707.563	0.01
707.744	-0.02
707.925	-0.06
708.106	-0.09
708.287	0.08
708.468	0.07
708.649	-0.02
708.83	0.04
709.011	0.03
709.192	0.11
709.373	-0.08
709.554	-0.04
709.734	-0.02
709.915	0.03
710.096	-0.05
710.277	-0.14
710.458	0.04
710.639	0.07
710.819	-0.14
711	-0.02
711.181	0.06
711.362	0.04
711.542	0.01
711.723	-0.03
711.904	0.07
712.085	0.04
712.265	0.01
712.446	-0.07
712.627	-0.03
712.807	0.02
712.988	-0
713.168	-0.1
713.349	-0.01
713.53	-0.09
713.71	-0.03
713.891	-0.08
714.071	-0
714.252	-0.03
714.432	-0.06
714.613	-0.04
714.793	0.01
714.974	0.1
715.154	0.02
715.334	0.03
715.515	0.09
715.695	-0.08
715.876	-0.03
716.056	-0.04
716.236	-0.09
716.417	-0.06
716.597	-0.06
716.777	0.15
716.957	-0.01
717.138	-0.01
717.318	-0.11
717.498	-0.12
717.678	-0.02
717.859	0
718.039	-0.09
718.219	-0.01
718.399	0.08
718.579	-0.12
718.759	-0.02
718.939	0.08
719.12	-0.01
719.3	0.02
719.48	-0.09
719.66	-0.11
719.84	0.12
720.02	0.06
720.2	-0.06
720.38	0.03
720.56	0.13
720.74	-0.01
720.92	-0.02
721.1	0.06
721.279	0.01
721.459	-0.02
721.639	-0.09
721.819	0
721.999	-0.08
722.179	0.05
722.359	-0.09
722.538	-0.04
722.718	-0.01
722.898	-0.05
723.078	-0.05
723.257	-0.06
723.437	-0
723.617	-0.03
723.797	-0.01
723.976	0.01
724.156	0.04
724.336	0.11
724.515	0.13
724.695	-0.11
724.874	-0.04
725.054	0.03
725.234	0
725.413	0.08
725.593	-0.03
725.772	-0.01
725.952	-0
726.131	-0.01
726.311	-0
726.49	0.04
726.67	-0
726.849	0.01
727.028	0.07
727.208	-0.05
727.387	0.07
727.567	-0.13
727.746	-0.06
727.925	-0.04
728.105	-0.07
728.284	-0.04
728.463	-0.04
728.643	0.03
728.822	-0.15
729.001	-0.03
729.18	0.04
729.359	0.1
729.539	-0.02
729.718	-0.08
729.897	0.01
730.076	0.02
730.255	-0.09
730.434	-0.04
730.614	0.05
730.793	-0.02
730.972	-0.02
731.151	0.02
731.33	0.08
731.509	0.02
731.688	0.07
731.867	0.01
732.046	-0.14
732.225	0.14
732.404	-0.02
732.583	-0.11
732.762	-0.01
732.941	0.11
733.12	-0.02
733.298	-0.09
733.477	0.07
733.656	-0.05
733.835	-0.06
734.014	0.08
734.193	-0.04
734.371	0.16
734.55	0.09
734.729	-0.15
734.908	-0.01
735.086	0.07
735.265	-0.05
735.444	-0.12
735.623	-0.07
735.801	-0.14
735.98	0.03
736.159	-0.02
736.337	0.15
736.516	0
736.694	0.02
736.873	-0.04
737.052	0.1
737.23	0.05
737.409	-0.03
737.587	0.19
737.766	-0.15
737.944	-0.13
738.123	-0.06
738.301	0.09
738.479	0.05
738.658	0.13
738.836	-0.16
739.015	0.04
739.193	0.05
739.371	-0.11
739.55	-0.02
739.728	-0.09
739.906	0.1
740.085	0.17
740.263	0.04
740.441	-0.14
740.62	0.17
740.798	0.05
740.976	-0.06
741.154	0.02
741.332	0.12
741.511	0.05
741.689	-0.01
741.867	0.17
742.045	-0.03
742.223	0.07
742.401	-0.13
742.579	-0.1
742.757	0.08
742.935	-0.05
743.114	-0.17
743.292	-0.02
743.47	-0.11
743.648	-0.07
743.826	-0.06
744.004	0.05
744.181	0.05
744.359	-0.18
744.537	-0.01
744.715	-0.1
744.893	-0
745.071	-0.06
745.249	-0.09
745.427	0.01
745.605	0.16
745.782	0.01
745.96	-0.01
746.138	0.04
746.316	0.13
746.493	-0.03
746.671	-0.03
746.849	-0.06
747.027	0.11
747.204	-0.15
747.382	0.04
747.56	-0.09
747.737	0.08
747.915	-0.11
748.093	0.08
748.27	-0.01
748.448	0.08
748.625	-0.21
748.803	-0.16
748.98	-0.08
749.158	0.07
749.335	0.12
749.513	-0.17
749.69	-0.02
749.868	-0
750.045	0.03
750.223	-0.12
750.4	-0.1
750.578	0.19
750.755	0.04
750.932	-0.01
751.11	0.08
751.287	-0.11
751.464	0.19
751.642	-0.05
751.819	0.12
751.996	0.02
752.173	-0.09
752.351	-0.07
752.528	0.03
752.705	-0.02
752.882	-0.09
753.06	0.05
753.237	0.11
753.414	0.15
753.591	0.22
753.768	0.12
753.945	-0.09
754.122	-0.04
754.299	0.04
754.476	-0.02
754.654	-0.02
754.831	0.07
755.008	0.04
755.185	-0.1
755.362	-0.18
755.539	0
755.716	-0.13
755.892	0.04
756.069	0.03
756.246	-0.08
756.423	0.03
756.6	0.15
756.777	0
756.954	0.04
757.131	-0.02
757.307	-0.13
757.484	-0.06
757.661	-0.03
757.838	-0.04
758.015	-0.17
758.191	0.05
758.368	-0.09
758.545	0.19
758.721	0.03
758.898	-0.13
759.075	0.09
759.251	0.08
759.428	-0.08
759.605	-0.14
759.781	-0.1
759.958	-0.07
760.134	0.03
760.311	-0.05
760.488	0.17
760.664	0.01
760.841	0.04
761.017	-0.07
761.194	-0.01
761.37	0.05
761.547	0
761.723	-0.04
761.899	0.14
762.076	-0.05
762.252	-0.1
762.429	0.03
762.605	0.07
762.781	-0.04
762.958	0.06
763.134	-0.08
763.31	-0.07
763.486	0.16
763.663	-0.18
763.839	0
764.015	-0.25
764.191	-0.1
764.368	-0.02
764.544	-0.06
764.72	0.03
764.896	0.1
765.072	0.07
765.248	-0.07
765.425	-0.01
765.601	0.04
765.777	0.05
765.953	-0.13
766.129	0.03
766.305	-0.1
766.481	0.11
766.657	0.11
766.833	0.14
767.009	-0.07
767.185	-0.21
767.361	-0.08
767.537	-0.21
767.713	0.19
767.889	-0.06
768.065	-0.01
768.24	0.14
768.416	0.12
768.592	-0.13
768.768	0.01
768.944	-0.13
769.12	-0.08
769.295	0.12
769.471	-0.11
769.647	-0.08
769.823	0.11
769.998	-0.07
770.174	0.02
770.35	0.21
770.525	0.17
770.701	0.33
770.877	0
771.052	0.09
771.228	0.11
771.403	0.11
771.579	0.13
771.755	0.32
771.93	-0.17
772.106	-0.1
772.281	-0.17
772.457	0.03
772.632	-0
772.808	-0.3
772.983	0.01
773.159	-0.27
773.334	0.18
773.509	-0.05
773.685	-0.16
773.86	0.34
774.036	0.13
774.211	0.02
774.386	-0.08
774.562	0.05
774.737	0.12
774.912	-0.03
775.087	-0.13
775.263	-0.05
775.438	-0.04
775.613	0.06
775.788	-0.05
775.964	0.31
776.139	0.27
776.314	-0.17
776.489	0.21
776.664	0.01
776.839	-0.16
777.014	0.14
777.19	0.12
777.365	0.12
777.54	0.12
777.715	0.03
777.89	0.05
778.065	-0.17
778.24	0.02
778.415	0.17
778.59	-0.18
778.765	-0.11
778.94	-0.09
779.115	-0.01
779.289	-0.06
779.464	0
779.639	-0.07
779.814	-0.22
779.989	-0.25
780.164	0.01
780.339	-0
780.513	-0.17
780.688	-0.11
780.863	0.02
781.038	0.05
781.212	-0.08
781.387	-0.12
781.562	0.07
781.737	0.06
781.911	0.22
782.086	-0.03
782.261	0.17
782.435	0.3
782.61	-0.14
782.784	-0.01
782.959	0.25
783.134	-0.04
783.308	-0.29
783.483	-0.05
783.657	0.53
783.832	0.26
784.006	-0.34
784.181	-0.01
784.355	0.14
784.53	0.14
784.704	-0.09
784.878	0.25
785.053	0.15
785.227	0.17
785.402	0.4
785.576	-0.25
785.75	-0.04
785.925	0.06
786.099	0.03
786.273	-0.09
786.448	0.23
786.622	0.18
786.796	0.2
786.97	0.07
787.145	0.36
787.319	-0.26
787.493	0.09
787.667	-0.52
787.841	-0.19
788.015	0.28
788.19	-0.08
788.364	0.01
788.538	0.21
788.712	0.11
788.886	-0.06
789.06	0.25
789.234	0.2
789.408	-0.14
789.582	0.08
789.756	0.16
789.93	0.08
790.104	-0.04
790.278	-0.02
790.452	-0.11
790.626	0.28
790.8	-0.12
790.973	0
791.147	0.2
791.321	0.17
791.495	0.26
791.669	0.11
791.843	0.19
792.016	0.28
792.19	0.48
792.364	-0.02
792.538	0.5
792.711	0.19
792.885	-0.06
793.059	-0.32
793.233	-0.41
793.406	0.33
793.58	0.31
793.754	0.14
793.927	-0.13
794.101	0.34
794.274	0.25
794.448	0.5
794.622	-0.24
794.795	0.37
794.969	-0.1
795.142	0.22
795.316	-0.16
795.489	-0.12
795.663	0.22
795.836	0.06
796.009	-0.33
796.183	0.53
796.356	0.24
796.53	0
796.703	-0.17
796.876	0.43
797.05	0.13
797.223	0.06
797.396	0.19
797.57	0.05
797.743	0.28
797.916	-0.04
798.09	-0
798.263	0.3
798.436	0.19
798.609	0.03
798.782	-0.08
798.956	0.19
799.129	-0.11
799.302	0.04
799.475	-0.08
799.648	-0.17
799.821	-0.18
799.994	0.01
800.167	-0.25
800.34	0.1
800.514	0.28
800.687	0.15
800.86	-0.11
801.033	0.17
801.206	0.11
801.379	-0.43
801.551	0.52
801.724	0.17
801.897	0.18
802.07	0.12
802.243	-0.36
802.416	-0.02
802.589	-0.01
802.762	0.02
802.935	0.1
803.107	0.27
803.28	-0.03
803.453	0.23
803.626	-0.14
803.798	0.3
803.971	-0.17
804.144	0.05
804.317	0.14
804.489	0.27
804.662	-0.2
804.835	-0.28
805.007	-0.26
805.18	0.71
805.353	0.01
805.525	-0.36
805.698	-0.12
805.87	0.31
806.043	0.27
806.215	-0.12
806.388	-0.07
806.56	0.01
806.733	0.16
806.905	0.11
807.078	-0.4
807.25	-0.39
807.423	0.12
807.595	-0.02
807.768	0.29
807.94	0.4
808.112	0.2
808.285	-0.09
808.457	-0.08
808.629	-0.06
808.802	0.29
808.974	0.31
809.146	-0.09
809.318	-0.46
809.491	0.31
809.663	0.4
809.835	-0.29
810.007	0.12
810.18	-0.19
810.352	-0.34
810.524	0.18
810.696	0.33
810.868	0.4
811.04	0.26
811.212	-0.25
811.384	0.31
811.556	0.24
811.728	-0.01
811.901	0.36
812.073	-0.14
812.245	0.5
812.417	0.35
812.589	-0.43
812.76	0.16
812.932	0.15
813.104	0.27
813.276	0.07
813.448	0.25
813.62	0.17
813.792	0.25
813.964	-0.03
814.136	0.17
814.307	-0.33
814.479	-0.13
814.651	0.18
814.823	1.12
814.995	-0.05
815.166	0.27
815.338	-0.41
815.51	-0.53
815.681	1.02
815.853	0.05
816.025	0.05
816.196	0.59
816.368	0.17
816.54	-0.44
816.711	-0.15
816.883	-0.05
817.054	0.53
817.226	-0.47
817.398	0.01
817.569	-0.18
817.741	0.02
817.912	0.29
818.084	0.23
818.255	0.27
818.426	-0.09
818.598	-0.6
818.769	-0.42
818.941	0.6
819.112	0.34
819.283	0.34
819.455	-0.3
819.626	0.22
819.798	0.35
819.969	0.01
820.14	-0.2
820.311	-0.2
820.483	0.34
820.654	0.45
820.825	-0.11
820.996	-0.07
821.168	-0.52
821.339	0.07
821.51	-0.21
821.681	-0.19
821.852	0.27
822.023	-0.06
822.195	-0.77
822.366	0.47
822.537	0.03
822.708	0.27
822.879	-0.31
823.05	0.76
823.221	-0.24
823.392	0.61
823.563	0.08
823.734	-0.37
823.905	-0.13
824.076	-0.32
824.247	-0.62
824.418	-0.2
824.589	0.73
824.759	0.08
824.93	0.17
825.101	-0.87
825.272	0.56
825.443	0.56
825.614	0.84
825.784	-1.04
825.955	0.67
826.126	0.99
826.297	0.35
826.467	0.9
826.638	0.84
826.809	-1.17
826.98	0.4
827.15	0.49
827.321	-0.25
827.492	0.51
827.662	0.37
827.833	0.89
828.003	0.18
828.174	-0.6
828.345	-1.1
828.515	1.14
828.686	-0.09
828.856	0.06
829.027	-0.04
829.197	0.42
829.368	-0.07
829.538	-0.07
829.709	-0.67
829.879	0.7
830.049	-0.63
830.22	0.01
830.39	-0.43
830.56	0.85
830.731	-0.31
830.901	-0.06
831.072	0.05
831.242	-0.05
831.412	-0.18
831.582	-0.19
831.753	-0.77
831.923	0.36
832.093	-0.02
832.263	0.26
832.434	-0.41
832.604	-0.6
832.774	0.03
832.944	-0.06
833.114	-0.01
833.284	0.1
833.454	-0.57
833.624	-0.85
833.795	-0.83
833.965	0.51
834.135	0.45
834.305	-1.29
834.475	-0.67
834.645	-0.52
834.815	-0.06
834.985	-0.71
835.155	0.15
835.325	0.2
835.494	0.31
835.664	0.19
835.834	-0.7
836.004	0.06
836.174	0.16
836.344	-0.07
836.514	-1.15
836.684	-0.27
836.853	-0.36
837.023	0.4
837.193	-0.49
837.363	1.25
837.532	0.74
837.702	-0.17
837.872	-0.91
838.041	0.77
838.211	1.76
838.381	-0.36
838.55	0.29
838.72	1.34
838.89	1.45
839.059	-0.2
839.229	-0.88
839.398	1.2
839.568	0.23
839.738	-0.06
839.907	0.28
840.077	0
840.246	-1.04
840.416	-0.45
840.585	-1.31
840.755	1.17
840.924	1.22
841.093	-0.09
841.263	-0.28
841.432	1.35
841.602	0.41
841.771	-0.66
841.94	-0.59
842.11	2.5
842.279	0.89
842.448	-1.32
842.617	-0.86
842.787	0.41
842.956	-1.22
843.125	0.07
843.294	-0.26
843.464	0.82
843.633	0.33
843.802	-0.79
843.971	-0.27
844.14	1.18
844.309	0.68
844.479	-0.63
844.648	-0.55
844.817	-0.59
844.986	-0.13
845.155	-0.25
845.324	-0.45
845.493	0.14
845.662	-0.78
845.831	0.14
846	0.28
846.169	-0.2
846.338	0.78
846.507	-0.12
846.676	0.35
846.844	-0.71
847.013	0.46
847.182	-0.45
847.351	-0.42
847.52	0.17
847.689	0.61
847.858	-0.36
848.026	0.27
848.195	0.76
848.364	0.01
848.533	0.19
848.701	0.02
848.87	-0.35
849.039	0.53
849.207	0.96
849.376	1.44
849.545	1.4
849.713	-0.18
849.882	-0.42
850.051	-0.07
850.219	-0.15
850.388	1.7
850.556	-1.07
850.725	-0.22
850.893	0.03
851.062	0.03
851.23	0.26
851.399	-1.07
851.567	-0.4
851.736	0.06
851.904	-0.66
852.073	-0.35
852.241	0.42
852.41	-0.25
852.578	-0.87
852.746	0.19
852.915	0.2
853.083	-0.02
853.251	-1.88
853.42	-0.44
853.588	-0.83
853.756	1.41
853.924	0.4
854.093	0.1
854.261	-0.63
854.429	-0.91
854.597	0.8
854.765	-0.76
854.934	-0.88
855.102	0.53
855.27	0.35
855.438	0.66
855.606	0.06
855.774	0.91
855.942	-0.3
856.11	-0.8
856.278	0.22
856.446	1.09
856.614	-0.19
856.782	0.21
856.95	0.53
857.118	1.21
857.286	0.11
857.454	-0.61
857.622	1.27
857.79	0.49
857.958	-1.2
858.126	-0.96
858.294	-2.37
858.462	-0.54
858.629	-0.29
858.797	-1.25
858.965	-0.1
859.133	1.21
859.301	-0.36
859.468	-0.54
859.636	-0.04
859.804	1.52
859.971	1.12
860.139	-1.72
860.307	-0.27
860.474	-0.07
860.642	0.23
860.81	-0.84
860.977	-0.64
861.145	1.21
861.313	-1.29
861.48	-0.08
861.648	0.75
861.815	0.18
861.983	-1.31
862.15	0.54
862.318	0.11
862.485	1.55
862.653	-0.39
862.82	-1.69
862.988	2.8
863.155	0.73
863.322	-1.11
863.49	-0.84
863.657	0.62
863.824	1.86
863.992	-0.09
864.159	-0.64
864.326	1.71
864.494	-0.7
864.661	2.12
864.828	-0.91
864.996	1.18
865.163	0.77
865.33	-1.06
865.497	-2.75
865.664	-1
865.832	-2.54
865.999	-0.74
866.166	-1.06
866.333	-0.21
866.5	0.52
866.667	0.28
866.834	-1.47
867.001	1.54
867.168	-0.91
867.335	-0.11
867.502	-1.31
867.669	-0.6
867.836	1.8
868.003	0.94
868.17	0.41
868.337	-1.23
868.504	3.86
868.671	-1.48
868.838	-1.37
869.005	1.21
869.172	1.26
869.339	0.06
869.505	-0.31
869.672	-0.1
869.839	2.45
870.006	1.11
870.173	-1.66
870.339	1.51
870.506	4.57
870.673	-2.01
870.84	1.19
871.006	0.01
871.173	-0.42
871.34	-0.95
871.506	-0.54
871.673	0.87
871.839	-0.89
872.006	0.94
872.173	-1.01
872.339	0.31
872.506	2.59
872.672	-2
872.839	-2.87
873.005	0.31
873.172	2.99
873.338	1.04
873.505	0.73
873.671	-0.21
873.838	-0.16
874.004	-1.03
874.171	-1.46
874.337	1.57
874.503	0.99
874.67	-0.37
874.836	-0.23
875.002	3.92
875.169	-0.98
875.335	-0.01
875.501	-0.27
875.668	0.29
875.834	0.08
876	-0.81
876.166	0.98
876.332	0.3
876.499	4.12
876.665	-0.99
876.831	0.58
876.997	4.07
877.163	0.78
877.329	-0.41
877.495	1.16
877.662	1.24
877.828	1.77
877.994	0.78
878.16	-2.63
878.326	0.03
878.492	0.79
878.658	-0.84
878.824	1.31
878.99	2.43
879.156	-1.87
879.322	4.49
879.487	-0.03
879.653	1.23
879.819	2.23
879.985	0.55
880.151	1.22
880.317	0.38
880.483	-1.48
880.648	0.89
880.814	-1.97
880.98	0.14
881.146	-1.87
881.312	-0.78
881.477	-1
881.643	-0.18
881.809	3.23
881.974	1.52
882.14	-3.5
882.306	0.65
882.471	4.8
882.637	-2
882.803	1.88
882.968	1.9
883.134	4.37
883.299	-0.12
883.465	-0.74
883.63	-0.03
883.796	-1.2
883.961	-0.48
884.127	1.05
884.292	-4.46
884.458	-2.11
884.623	-2.11
