Data from Apollo_Calib_20240827__AbsoluteIrradiance__154__01-43-01-514.txt Node

Date: Wed Aug 28 01:43:01 BST 2024
User: biology
Spectrometer: FLMT08252
Trigger mode: 0
Integration Time (sec): 5.000000E-1
Scans to average: 5
Electric dark correction enabled: true
Nonlinearity correction enabled: false
Boxcar width: 0
XAxis mode: Wavelengths
Number of Pixels in Spectrum: 3648
>>>>>Begin Spectral Data<<<<<
179.588	-0
179.809	-0
180.03	-0
180.251	-0
180.473	-0
180.694	0
180.915	0
181.136	-0
181.357	0
181.578	-0
181.799	-0
182.02	-0
182.241	-0
182.462	-0
182.683	0
182.904	-0
183.125	-0
183.346	0
183.567	-0
183.788	-0
184.009	-0
184.23	0
184.451	0
184.672	-0
184.892	-0
185.113	0
185.334	0
185.555	-0
185.776	-0
185.996	0
186.217	0
186.438	-0
186.659	-0
186.879	-0
187.1	-0
187.321	-0
187.541	-0
187.762	-0
187.983	-0
188.203	-0
188.424	-0
188.644	-0
188.865	-0
189.086	-0
189.306	-0
189.527	-0
189.747	-0
189.968	-0
190.188	-0
190.409	-0
190.629	0
190.849	-0
191.07	-0
191.29	0
191.511	0
191.731	-0
191.951	-0
192.172	-0
192.392	-0
192.612	0
192.833	-0
193.053	0
193.273	0
193.493	-0
193.714	-0
193.934	0
194.154	0
194.374	0
194.594	-0
194.815	-0
195.035	-0
195.255	-0
195.475	-0
195.695	0
195.915	0
196.135	-0
196.355	0
196.575	0
196.795	0
197.015	-0
197.235	-0
197.455	-0
197.675	0
197.895	-0
198.115	-0
198.335	0
198.555	-0
198.775	0
198.995	0
199.214	0
199.434	-0
199.654	-0
199.874	-0
200.094	0.35
200.313	-0.17
200.533	-0.53
200.753	-1.07
200.973	0.33
201.192	0.38
201.412	-1.35
201.632	-0.52
201.851	0.37
202.071	-0.3
202.291	-0.47
202.51	-0.63
202.73	0.01
202.95	-0.29
203.169	-0.83
203.389	0.06
203.608	-0.22
203.828	-0.85
204.047	-0.23
204.267	0
204.486	0.19
204.706	0.12
204.925	-0.26
205.145	-0.41
205.364	0.37
205.583	0.51
205.803	-0.23
206.022	-0.71
206.242	-0.29
206.461	-0.42
206.68	-0.68
206.9	-0.2
207.119	0.09
207.338	0.57
207.557	-0.17
207.777	-0.16
207.996	-0.11
208.215	0.56
208.434	-0.33
208.654	-0.51
208.873	-0.27
209.092	0.52
209.311	-0.2
209.53	-0.39
209.749	-0.43
209.968	-0.44
210.187	-0.31
210.407	-0.61
210.626	-0.29
210.845	-0.06
211.064	-0.34
211.283	-0.41
211.502	0.05
211.721	-0.06
211.94	-0.27
212.159	-0.08
212.377	0.08
212.596	0.29
212.815	-0.25
213.034	0.04
213.253	0.28
213.472	0.15
213.691	-0.36
213.91	-0.39
214.128	-0.46
214.347	0.22
214.566	-0.6
214.785	-0.41
215.003	-0.07
215.222	-0.14
215.441	-0.01
215.66	-0.51
215.878	-0.12
216.097	0.21
216.316	-0.1
216.534	-0.22
216.753	-0.14
216.972	-0.15
217.19	0.04
217.409	-0.38
217.627	-0.27
217.846	-0.17
218.064	-0.23
218.283	-0.18
218.501	0.24
218.72	0.06
218.938	-0.37
219.157	-0.16
219.375	0.14
219.594	0.13
219.812	-0.39
220.031	-0.26
220.249	0.24
220.467	0.16
220.686	-0.09
220.904	-0.37
221.122	-0.3
221.341	0.11
221.559	-0.22
221.777	-0.34
221.995	-0.06
222.214	-0.09
222.432	-0.09
222.65	-0.05
222.868	0.02
223.086	0.04
223.305	-0.05
223.523	-0.09
223.741	0.29
223.959	-0.14
224.177	-0.42
224.395	-0.22
224.613	-0.15
224.831	0.17
225.049	-0.19
225.267	-0.17
225.485	-0.13
225.703	-0.19
225.921	-0.06
226.139	-0.02
226.357	0.01
226.575	-0.02
226.793	-0.11
227.011	0.43
227.229	0.01
227.447	0.17
227.665	-0.14
227.883	-0.27
228.1	0.01
228.318	-0.01
228.536	-0.26
228.754	-0.24
228.972	-0.03
229.189	0.06
229.407	-0.09
229.625	-0.1
229.843	-0
230.06	-0.09
230.278	-0.25
230.496	-0.08
230.713	0.02
230.931	0.13
231.149	-0.18
231.366	-0.24
231.584	-0.07
231.801	0.22
232.019	-0.05
232.236	-0.28
232.454	-0.16
232.671	-0.05
232.889	-0.12
233.106	-0.14
233.324	-0.06
233.541	-0.11
233.759	-0.1
233.976	-0.19
234.194	-0.01
234.411	-0.09
234.628	-0.14
234.846	-0.2
235.063	-0.12
235.28	-0.1
235.498	-0.11
235.715	-0.16
235.932	0.11
236.149	-0.08
236.367	-0.21
236.584	-0.1
236.801	-0.13
237.018	0.16
237.236	-0.06
237.453	-0.2
237.67	0.07
237.887	-0.02
238.104	-0.12
238.321	-0.03
238.538	-0.19
238.755	0.04
238.973	-0.28
239.19	-0.12
239.407	-0.06
239.624	-0
239.841	-0.24
240.058	-0.12
240.275	0.09
240.492	-0.08
240.709	-0.1
240.925	-0.1
241.142	-0.01
241.359	-0.13
241.576	-0.17
241.793	-0.13
242.01	-0.04
242.227	0.02
242.444	-0.02
242.66	0
242.877	-0.01
243.094	-0.12
243.311	0.1
243.527	-0.07
243.744	-0.04
243.961	-0.03
244.178	-0.14
244.394	-0.13
244.611	0.08
244.828	0.13
245.044	-0.15
245.261	-0.1
245.477	-0.06
245.694	0.04
245.911	-0.03
246.127	-0.02
246.344	0.12
246.56	-0.02
246.777	-0.09
246.993	-0.09
247.21	0.04
247.426	0.03
247.643	-0.12
247.859	-0.14
248.076	-0.06
248.292	0.14
248.508	-0.14
248.725	0.04
248.941	0.02
249.157	0.06
249.374	-0.14
249.59	0
249.806	-0.05
250.023	-0.03
250.239	-0.09
250.455	-0.04
250.671	-0.03
250.888	0.03
251.104	-0.04
251.32	-0.06
251.536	-0.08
251.752	-0.11
251.969	0.02
252.185	-0.01
252.401	0.14
252.617	0.02
252.833	-0.09
253.049	-0.04
253.265	-0.02
253.481	-0.03
253.697	-0.07
253.913	-0.17
254.129	-0.09
254.345	-0.01
254.561	-0.1
254.777	-0.03
254.993	-0
255.209	0.02
255.425	-0.07
255.641	-0.08
255.857	0.04
256.073	-0.02
256.288	-0.09
256.504	-0.1
256.72	0.04
256.936	0.09
257.152	-0.07
257.367	-0.09
257.583	0.01
257.799	0.02
258.015	-0.06
258.23	-0.13
258.446	0.09
258.662	-0.09
258.877	-0.09
259.093	-0.06
259.309	-0.08
259.524	-0.03
259.74	-0.07
259.955	-0.16
260.171	-0.03
260.387	-0.05
260.602	-0.04
260.818	-0.05
261.033	-0.09
261.249	0.01
261.464	-0.04
261.68	-0.12
261.895	0.01
262.11	0.02
262.326	-0.07
262.541	-0.14
262.757	0.07
262.972	-0.01
263.187	-0.04
263.403	-0
263.618	0.07
263.833	-0.02
264.049	-0.07
264.264	-0.06
264.479	0.04
264.694	0.03
264.91	-0.15
265.125	-0.11
265.34	-0.02
265.555	0.12
265.77	-0.05
265.986	-0.03
266.201	0.01
266.416	0.03
266.631	-0.11
266.846	-0.06
267.061	-0.01
267.276	0.01
267.491	-0.23
267.706	0.02
267.921	-0
268.136	-0.01
268.351	-0.05
268.566	-0.17
268.781	0.08
268.996	-0.02
269.211	-0.02
269.426	-0.1
269.641	-0.04
269.856	0.02
270.071	-0.09
270.285	-0.13
270.5	0.01
270.715	0.04
270.93	-0.01
271.145	-0
271.359	0.03
271.574	-0.07
271.789	0.01
272.004	-0.11
272.218	-0.06
272.433	0.06
272.648	-0.07
272.862	0.03
273.077	-0.02
273.292	-0.03
273.506	-0.09
273.721	-0.05
273.936	-0.02
274.15	0.02
274.365	-0.1
274.579	0.05
274.794	0.04
275.008	0.06
275.223	-0.16
275.437	-0.02
275.652	-0.01
275.866	-0
276.081	-0.01
276.295	0.04
276.509	-0.01
276.724	-0.04
276.938	-0.01
277.153	0.02
277.367	0.06
277.581	-0.07
277.796	-0.09
278.01	-0.1
278.224	0.06
278.438	0.15
278.653	-0.1
278.867	-0.08
279.081	-0.05
279.295	-0.04
279.51	-0
279.724	-0.17
279.938	0.06
280.152	0.05
280.366	-0.03
280.58	-0.02
280.794	0.06
281.008	-0.01
281.222	0.04
281.437	0.11
281.651	0.01
281.865	-0.02
282.079	-0.07
282.293	-0.09
282.507	-0.05
282.721	0.02
282.935	-0.04
283.148	-0.08
283.362	-0.09
283.576	-0.08
283.79	0
284.004	-0.1
284.218	0.02
284.432	-0.11
284.646	-0.02
284.859	-0.02
285.073	0.01
285.287	-0.02
285.501	-0.02
285.714	-0.04
285.928	0.01
286.142	-0.03
286.356	-0.09
286.569	-0.06
286.783	0.09
286.997	0.02
287.21	-0.05
287.424	-0.05
287.637	0
287.851	-0.07
288.065	-0.01
288.278	-0.02
288.492	0.01
288.705	-0.04
288.919	0.03
289.132	-0.07
289.346	0.04
289.559	-0.13
289.773	-0.11
289.986	-0.04
290.2	-0.02
290.413	0.03
290.626	-0.06
290.84	-0.05
291.053	-0.03
291.267	0.06
291.48	-0.01
291.693	0
291.906	-0.05
292.12	-0.07
292.333	-0.06
292.546	-0.07
292.76	0.04
292.973	0.03
293.186	0
293.399	-0.01
293.612	0.01
293.826	0.01
294.039	-0.04
294.252	-0.03
294.465	-0.01
294.678	0.02
294.891	-0.03
295.104	-0.08
295.317	-0.02
295.53	-0.01
295.743	0
295.956	-0.03
296.169	0.06
296.382	0.05
296.595	0.02
296.808	-0.02
297.021	-0.01
297.234	0.04
297.447	-0.01
297.66	0.03
297.873	0.01
298.086	0.02
298.299	-0.05
298.511	-0.07
298.724	-0.01
298.937	-0.04
299.15	-0.07
299.363	-0.02
299.575	0.02
299.788	0.03
300.001	-0.05
300.213	-0.04
300.426	-0.05
300.639	-0.02
300.852	-0.04
301.064	0.01
301.277	0.06
301.489	0.07
301.702	0.02
301.915	0.02
302.127	-0.01
302.34	-0.02
302.552	-0.03
302.765	-0.05
302.977	0.03
303.19	-0.04
303.402	-0.06
303.615	-0.03
303.827	-0.03
304.04	-0.02
304.252	0
304.464	-0.07
304.677	0.07
304.889	0.02
305.102	-0.02
305.314	-0.01
305.526	0.03
305.739	0.01
305.951	-0.06
306.163	-0.03
306.375	0.06
306.588	-0.06
306.8	-0.07
307.012	-0.11
307.224	-0
307.436	0.01
307.649	-0.09
307.861	0.02
308.073	0.04
308.285	-0.02
308.497	-0.05
308.709	-0
308.921	-0
309.133	0.03
309.346	-0.06
309.558	-0.02
309.77	0.05
309.982	0.03
310.194	0.03
310.406	-0.04
310.617	0.04
310.829	-0.02
311.041	0
311.253	-0.04
311.465	-0.01
311.677	-0.05
311.889	-0.03
312.101	-0.05
312.313	0.03
312.524	0.01
312.736	-0.09
312.948	-0.02
313.16	0.04
313.372	0.01
313.583	-0.04
313.795	-0.02
314.007	-0.06
314.218	0.02
314.43	-0.05
314.642	-0.08
314.853	-0.05
315.065	0.03
315.277	-0
315.488	0
315.7	0.04
315.912	0.02
316.123	-0.04
316.335	-0.02
316.546	0.07
316.758	-0.04
316.969	-0.01
317.181	-0.03
317.392	-0.04
317.604	0.07
317.815	-0.07
318.026	-0.08
318.238	0
318.449	0.02
318.661	-0.08
318.872	-0.07
319.083	-0.07
319.295	-0.01
319.506	-0.04
319.717	-0.02
319.929	0.01
320.14	-0.02
320.351	0
320.562	-0.03
320.774	-0.01
320.985	-0.02
321.196	-0.06
321.407	-0.08
321.618	0.03
321.829	-0.03
322.041	0.02
322.252	-0.01
322.463	0.03
322.674	-0
322.885	-0.06
323.096	-0.03
323.307	-0.07
323.518	0.02
323.729	-0.07
323.94	-0
324.151	-0.07
324.362	-0.06
324.573	-0.03
324.784	-0.08
324.995	0.07
325.206	0
325.417	-0.02
325.628	-0.01
325.838	-0.01
326.049	-0
326.26	0.03
326.471	-0.02
326.682	0.01
326.892	0.02
327.103	-0.09
327.314	-0.08
327.525	0.01
327.735	-0.01
327.946	-0.04
328.157	-0.03
328.368	0.05
328.578	-0.01
328.789	0.01
328.999	-0.04
329.21	-0.03
329.421	0.02
329.631	-0.05
329.842	-0.06
330.052	-0
330.263	-0.01
330.473	0.02
330.684	-0.03
330.894	-0.04
331.105	-0.04
331.315	-0.02
331.526	-0.05
331.736	0.05
331.947	-0.01
332.157	-0.02
332.367	-0.07
332.578	0
332.788	0.06
332.999	0.01
333.209	-0.04
333.419	-0.05
333.629	-0.01
333.84	0.03
334.05	-0.02
334.26	0.06
334.47	-0.05
334.681	0.02
334.891	-0.02
335.101	-0
335.311	0.07
335.521	0.01
335.732	-0.04
335.942	0.04
336.152	0.02
336.362	0.02
336.572	-0.04
336.782	0.02
336.992	-0.06
337.202	-0.04
337.412	-0.06
337.622	-0.01
337.832	-0.02
338.042	-0.01
338.252	-0.05
338.462	-0.08
338.672	0.01
338.882	-0.07
339.092	0.03
339.302	0.06
339.511	0.01
339.721	-0.02
339.931	-0.03
340.141	0.04
340.351	0.03
340.561	0.02
340.77	-0.02
340.98	-0.03
341.19	0.02
341.4	-0.03
341.609	-0.06
341.819	-0.03
342.029	-0.09
342.238	-0.01
342.448	-0.05
342.658	0.02
342.867	0.01
343.077	-0.01
343.286	-0.01
343.496	-0
343.706	0.06
343.915	-0.06
344.125	-0.05
344.334	0.03
344.544	-0.08
344.753	0
344.963	-0.04
345.172	-0.02
345.381	-0
345.591	-0.07
345.8	-0.01
346.01	0.05
346.219	0.03
346.428	-0.15
346.638	-0.01
346.847	-0.04
347.056	0.04
347.266	-0.04
347.475	-0.03
347.684	-0.03
347.893	-0.02
348.103	-0.01
348.312	-0.01
348.521	-0.03
348.73	-0.02
348.94	-0.03
349.149	-0.03
349.358	-0.02
349.567	-0.05
349.776	-0.06
349.985	-0.03
350.194	0.02
350.403	0.07
350.612	-0.03
350.821	0
351.03	-0.02
351.239	-0.05
351.448	-0
351.657	-0.06
351.866	0.03
352.075	-0.02
352.284	0.03
352.493	-0.08
352.702	0.03
352.911	-0.01
353.12	-0.01
353.329	-0.04
353.538	-0.01
353.746	-0.02
353.955	-0.05
354.164	0.01
354.373	-0.03
354.582	0.03
354.79	0.01
354.999	0.02
355.208	-0.03
355.416	0.03
355.625	-0.01
355.834	-0.04
356.042	-0
356.251	-0.05
356.46	-0.09
356.668	0.05
356.877	0.07
357.085	0.02
357.294	-0.09
357.503	-0.01
357.711	-0.04
357.92	0.1
358.128	0.01
358.337	-0.05
358.545	-0.02
358.754	-0.03
358.962	0.01
359.17	-0.01
359.379	0.01
359.587	0
359.796	-0.02
360.004	0.02
360.212	0.03
360.421	0.03
360.629	-0.03
360.837	-0
361.046	-0
361.254	0.13
361.462	0
361.67	-0.01
361.879	-0.06
362.087	0.08
362.295	0.01
362.503	-0.04
362.711	-0.03
362.92	-0.03
363.128	-0
363.336	-0.03
363.544	-0.06
363.752	-0.02
363.96	-0.03
364.168	-0.05
364.376	-0.03
364.584	0
364.792	0
365	-0.01
365.208	-0.01
365.416	0.01
365.624	0.01
365.832	-0.03
366.04	0.05
366.248	-0.01
366.456	0
366.664	0.01
366.872	-0.03
367.079	-0.02
367.287	-0.01
367.495	-0.02
367.703	-0.01
367.911	-0.03
368.118	-0.01
368.326	-0.02
368.534	-0.05
368.742	0.05
368.949	-0.09
369.157	-0.05
369.365	-0
369.572	0.03
369.78	-0.06
369.988	0
370.195	0.03
370.403	0.05
370.61	-0
370.818	-0.04
371.026	0.04
371.233	-0.05
371.441	0.03
371.648	-0.05
371.856	0
372.063	-0.03
372.271	-0.06
372.478	-0.05
372.685	-0.02
372.893	0.04
373.1	-0.05
373.308	-0.05
373.515	0.08
373.722	-0.01
373.93	-0.02
374.137	0.04
374.344	0.02
374.552	0.04
374.759	0.02
374.966	0.01
375.173	-0.07
375.381	-0
375.588	-0.03
375.795	-0.08
376.002	-0.04
376.209	-0.05
376.417	-0.04
376.624	-0.05
376.831	-0.02
377.038	-0.03
377.245	-0.05
377.452	-0.01
377.659	-0.03
377.866	-0.05
378.073	0.01
378.28	-0.01
378.487	0.04
378.694	-0.03
378.901	0.01
379.108	0.02
379.315	0.07
379.522	0.07
379.729	-0.05
379.936	-0.01
380.143	-0.05
380.35	-0.03
380.557	-0.02
380.763	-0.03
380.97	-0.03
381.177	0.02
381.384	0.03
381.591	-0.06
381.797	-0.02
382.004	0
382.211	0
382.418	-0.02
382.624	0.06
382.831	0.04
383.038	-0.06
383.244	-0.02
383.451	-0.02
383.658	0.01
383.864	-0.02
384.071	0
384.277	0.06
384.484	-0.05
384.69	-0
384.897	-0.04
385.103	-0.02
385.31	-0.03
385.516	-0.02
385.723	-0.05
385.929	-0.02
386.136	-0.03
386.342	-0
386.549	0
386.755	0.05
386.961	0.02
387.168	-0.01
387.374	0.01
387.58	0.04
387.787	0.03
387.993	0.02
388.199	-0.03
388.406	-0.05
388.612	0.04
388.818	-0
389.024	0.01
389.231	0.08
389.437	0.08
389.643	0.06
389.849	0.02
390.055	0.04
390.261	0.02
390.467	0.05
390.674	-0.02
390.88	-0.04
391.086	0.02
391.292	-0.02
391.498	0.05
391.704	0.03
391.91	0.04
392.116	0.03
392.322	-0.02
392.528	0.05
392.734	0.04
392.94	0.07
393.146	0.06
393.352	0.07
393.557	0.08
393.763	0.07
393.969	0.06
394.175	0.09
394.381	0.08
394.587	-0
394.792	0.07
394.998	0.14
395.204	0.15
395.41	0.07
395.615	0.11
395.821	0.15
396.027	0.16
396.233	0.11
396.438	0.22
396.644	0.21
396.85	0.19
397.055	0.17
397.261	0.16
397.466	0.28
397.672	0.21
397.878	0.25
398.083	0.23
398.289	0.24
398.494	0.25
398.7	0.28
398.905	0.18
399.111	0.35
399.316	0.24
399.522	0.3
399.727	0.35
399.932	0.29
400.138	0.38
400.343	0.44
400.549	0.38
400.754	0.4
400.959	0.49
401.165	0.5
401.37	0.46
401.575	0.62
401.78	0.44
401.986	0.49
402.191	0.55
402.396	0.58
402.601	0.61
402.807	0.66
403.012	0.67
403.217	0.8
403.422	0.75
403.627	0.74
403.832	0.79
404.037	0.83
404.243	0.84
404.448	0.9
404.653	0.89
404.858	0.89
405.063	0.97
405.268	0.9
405.473	0.91
405.678	1.01
405.883	1.14
406.088	1.04
406.293	1.01
406.498	1.05
406.703	1.13
406.907	1.02
407.112	1.03
407.317	1.16
407.522	1.18
407.727	1.09
407.932	1.12
408.136	1.27
408.341	1.16
408.546	1.23
408.751	1.15
408.956	1.12
409.16	1.17
409.365	1.11
409.57	1.12
409.774	1.08
409.979	1.1
410.184	1.09
410.388	0.99
410.593	1.04
410.798	1.02
411.002	0.98
411.207	0.97
411.411	0.95
411.616	0.85
411.82	0.89
412.025	0.89
412.229	0.87
412.434	0.87
412.638	0.77
412.843	0.74
413.047	0.72
413.252	0.68
413.456	0.73
413.66	0.72
413.865	0.61
414.069	0.71
414.273	0.56
414.478	0.55
414.682	0.55
414.886	0.56
415.091	0.48
415.295	0.44
415.499	0.58
415.703	0.49
415.908	0.52
416.112	0.41
416.316	0.47
416.52	0.4
416.724	0.37
416.929	0.36
417.133	0.53
417.337	0.41
417.541	0.32
417.745	0.34
417.949	0.42
418.153	0.37
418.357	0.35
418.561	0.42
418.765	0.37
418.969	0.36
419.173	0.36
419.377	0.32
419.581	0.42
419.785	0.27
419.989	0.25
420.193	0.29
420.397	0.28
420.601	0.37
420.804	0.34
421.008	0.26
421.212	0.27
421.416	0.24
421.62	0.2
421.823	0.19
422.027	0.34
422.231	0.22
422.435	0.22
422.638	0.22
422.842	0.22
423.046	0.17
423.249	0.22
423.453	0.2
423.657	0.16
423.86	0.1
424.064	0.16
424.268	0.24
424.471	0.17
424.675	0.19
424.878	0.21
425.082	0.1
425.285	0.13
425.489	0.08
425.692	0.12
425.896	0.06
426.099	0.12
426.303	0.08
426.506	0.07
426.71	0.11
426.913	0.12
427.116	0.13
427.32	0.11
427.523	0.11
427.726	0.13
427.93	0.05
428.133	0.09
428.336	0.04
428.54	0.05
428.743	0.1
428.946	0.1
429.149	0.08
429.353	0.05
429.556	0.02
429.759	0.07
429.962	0.04
430.165	0.09
430.368	0.04
430.571	-0
430.775	0.08
430.978	0.03
431.181	0.08
431.384	0.06
431.587	0.01
431.79	0.05
431.993	0.01
432.196	0.06
432.399	0.07
432.602	0.12
432.805	0.02
433.008	0.03
433.211	-0.01
433.414	0.07
433.616	0.04
433.819	0.06
434.022	-0.04
434.225	0.08
434.428	0.04
434.631	0.11
434.833	0.02
435.036	0.03
435.239	0.08
435.442	0.01
435.645	0.04
435.847	0.03
436.05	0.06
436.253	-0.02
436.455	-0.03
436.658	0.04
436.861	0.12
437.063	-0.08
437.266	0.07
437.468	0.02
437.671	0.22
437.874	0.05
438.076	-0.07
438.279	-0.05
438.481	0.03
438.684	0
438.886	0.07
439.089	-0.08
439.291	-0.01
439.494	0.06
439.696	-0.03
439.899	-0
440.101	0.03
440.303	-0.05
440.506	0.06
440.708	0.03
440.91	0.06
441.113	-0.02
441.315	0.06
441.517	-0.05
441.72	0.02
441.922	-0.01
442.124	-0.09
442.326	0
442.529	0.06
442.731	-0.04
442.933	0.08
443.135	-0.04
443.337	0
443.539	-0.02
443.742	-0.01
443.944	0.01
444.146	-0.04
444.348	0
444.55	0
444.752	0
444.954	-0.02
445.156	-0.02
445.358	-0.03
445.56	0.05
445.762	0.02
445.964	0.04
446.166	-0.01
446.368	0
446.57	0.03
446.772	-0.03
446.974	-0.06
447.175	0
447.377	-0.03
447.579	-0.05
447.781	-0.1
447.983	0.06
448.184	-0
448.386	-0.01
448.588	-0.07
448.79	0.02
448.991	-0.01
449.193	-0.06
449.395	-0.01
449.597	-0.01
449.798	0.05
450	-0.01
450.202	-0.03
450.403	-0
450.605	0.03
450.806	-0.02
451.008	-0.06
451.21	0.04
451.411	-0.04
451.613	-0.02
451.814	-0.02
452.016	0.01
452.217	0.03
452.419	0.03
452.62	-0.01
452.821	0.01
453.023	0.06
453.224	0.04
453.426	0.03
453.627	0
453.828	0.04
454.03	-0
454.231	0.02
454.432	-0.05
454.634	0.06
454.835	-0.05
455.036	-0.05
455.238	0.05
455.439	0.04
455.64	-0.08
455.841	-0.02
456.042	0.13
456.244	0.01
456.445	-0.04
456.646	-0.09
456.847	-0.03
457.048	-0.03
457.249	0.02
457.45	0.23
457.651	-0.08
457.852	0.04
458.054	-0
458.255	0.02
458.456	0.03
458.657	-0.01
458.858	-0.03
459.058	-0.05
459.259	0.02
459.46	0
459.661	-0.04
459.862	0.1
460.063	-0.08
460.264	0.04
460.465	-0.08
460.666	0.11
460.866	-0.04
461.067	-0.02
461.268	-0.01
461.469	-0.05
461.67	-0.01
461.87	-0
462.071	-0.07
462.272	-0.01
462.473	0.01
462.673	0.05
462.874	-0.08
463.075	-0.05
463.275	-0.01
463.476	0
463.676	-0
463.877	-0
464.078	-0.03
464.278	0.01
464.479	-0.05
464.679	-0.06
464.88	0.01
465.08	0.03
465.281	-0.02
465.481	-0.08
465.682	0.03
465.882	0.04
466.083	-0.02
466.283	-0.03
466.483	0.02
466.684	-0.06
466.884	-0.07
467.085	-0
467.285	0.05
467.485	0.01
467.686	-0.03
467.886	0
468.086	-0
468.286	-0.03
468.487	-0
468.687	-0.04
468.887	-0.03
469.087	0.04
469.287	-0.05
469.488	-0.07
469.688	0.01
469.888	0.07
470.088	-0.02
470.288	0.04
470.488	0.05
470.688	-0.03
470.888	-0.02
471.088	-0.03
471.288	0.05
471.488	-0
471.688	-0.02
471.888	0.01
472.088	0.04
472.288	-0
472.488	-0.03
472.688	-0.03
472.888	-0.03
473.088	0.01
473.288	0.01
473.488	-0.02
473.688	0.07
473.887	-0.01
474.087	-0.05
474.287	0.04
474.487	-0.04
474.687	0.01
474.886	-0.06
475.086	-0
475.286	0.01
475.486	-0.02
475.685	0.02
475.885	-0.03
476.085	0
476.284	0.02
476.484	-0.05
476.684	0.05
476.883	0.03
477.083	-0.01
477.282	-0.05
477.482	0.03
477.681	0.02
477.881	-0
478.08	-0.03
478.28	-0.04
478.479	0.03
478.679	0.07
478.878	-0.02
479.078	-0.02
479.277	-0.01
479.477	-0.01
479.676	0
479.875	0
480.075	-0.04
480.274	0.03
480.473	0.03
480.673	-0.04
480.872	0.03
481.071	0.04
481.271	0.02
481.47	-0.04
481.669	-0.01
481.868	-0.03
482.067	-0.03
482.267	-0.01
482.466	-0.02
482.665	-0.04
482.864	-0.04
483.063	-0.01
483.262	0.03
483.461	0.04
483.661	0.01
483.86	-0
484.059	0.01
484.258	0.02
484.457	-0
484.656	-0.02
484.855	0.03
485.054	-0.04
485.253	-0.02
485.452	-0.03
485.651	0.01
485.849	-0.02
486.048	-0
486.247	-0.03
486.446	0
486.645	-0.06
486.844	-0.02
487.043	-0.02
487.241	0.02
487.44	-0.03
487.639	-0.03
487.838	0.01
488.037	0.01
488.235	0.04
488.434	-0
488.633	-0.02
488.831	-0.02
489.03	0.02
489.229	0.02
489.427	-0.02
489.626	0.03
489.825	0.03
490.023	-0.01
490.222	-0.03
490.42	0.03
490.619	0.03
490.817	0.02
491.016	-0.02
491.214	0.02
491.413	-0
491.611	-0.02
491.81	-0.01
492.008	0.03
492.207	0.01
492.405	0.01
492.604	-0.04
492.802	-0.01
493	0
493.199	-0.05
493.397	0.01
493.595	-0.02
493.794	-0.02
493.992	0.05
494.19	-0.02
494.388	-0.01
494.587	-0.02
494.785	-0.03
494.983	-0.05
495.181	-0
495.379	-0.01
495.578	-0.02
495.776	-0.02
495.974	0.01
496.172	-0.01
496.37	-0.02
496.568	-0.03
496.766	-0.03
496.964	0.01
497.162	-0
497.36	-0.03
497.558	0.01
497.756	0.01
497.954	0
498.152	-0.04
498.35	-0.02
498.548	-0.02
498.746	-0
498.944	-0.04
499.142	-0.03
499.34	-0.02
499.538	0.01
499.736	-0.05
499.933	0.02
500.131	0.03
500.329	-0.02
500.527	-0.01
500.725	0.04
500.922	0.01
501.12	0.02
501.318	-0
501.516	-0.06
501.713	-0.01
501.911	-0.02
502.109	-0.01
502.306	0
502.504	-0.01
502.701	-0.03
502.899	-0.01
503.097	0.05
503.294	-0
503.492	-0.02
503.689	0
503.887	-0
504.084	0.04
504.282	0.01
504.479	-0.04
504.677	-0.01
504.874	-0.02
505.072	0.01
505.269	-0.01
505.466	0.01
505.664	0.01
505.861	-0.04
506.059	-0.02
506.256	0.01
506.453	-0.02
506.651	0.05
506.848	0.03
507.045	-0.01
507.242	0
507.44	-0.03
507.637	-0
507.834	-0.02
508.031	0.02
508.229	-0.04
508.426	0
508.623	0.01
508.82	-0.02
509.017	-0.04
509.214	-0.04
509.411	-0.01
509.608	-0.02
509.805	0
510.003	-0.04
510.2	0
510.397	0.02
510.594	-0.02
510.791	-0.03
510.988	-0.01
511.184	0.03
511.381	-0.01
511.578	-0.04
511.775	-0
511.972	-0.03
512.169	-0.02
512.366	0.01
512.563	-0
512.76	-0.03
512.956	0.03
513.153	-0
513.35	0
513.547	-0.02
513.744	-0.02
513.94	-0.03
514.137	-0.01
514.334	0
514.53	-0.01
514.727	-0.01
514.924	0.02
515.12	-0.02
515.317	-0.04
515.514	-0.04
515.71	-0.04
515.907	-0.02
516.103	-0
516.3	-0
516.497	0.01
516.693	0.02
516.89	-0.02
517.086	-0.02
517.283	0.03
517.479	-0.01
517.676	-0.01
517.872	-0.02
518.068	-0.01
518.265	-0.02
518.461	-0.02
518.658	-0.02
518.854	0.01
519.05	-0.01
519.247	-0.03
519.443	-0.01
519.639	0
519.836	0
520.032	-0.01
520.228	0.01
520.424	0.03
520.621	-0.01
520.817	-0.01
521.013	0
521.209	-0.02
521.405	0.02
521.601	-0.01
521.798	-0
521.994	0.01
522.19	-0.02
522.386	-0.05
522.582	-0.01
522.778	-0.02
522.974	-0.01
523.17	-0.02
523.366	-0.01
523.562	0.03
523.758	-0.01
523.954	-0.04
524.15	-0.01
524.346	0
524.542	-0.02
524.738	0
524.934	-0.02
525.129	-0.08
525.325	-0.01
525.521	0.01
525.717	0.01
525.913	-0.01
526.109	-0.01
526.304	-0.04
526.5	-0
526.696	0
526.892	-0.01
527.087	-0
527.283	-0.02
527.479	0.01
527.674	-0.02
527.87	-0.01
528.066	-0.01
528.261	-0
528.457	-0.01
528.653	-0.02
528.848	-0.01
529.044	0
529.239	-0.01
529.435	0.01
529.63	-0
529.826	0.02
530.021	0.02
530.217	0.02
530.412	-0.02
530.608	-0.03
530.803	-0.03
530.999	-0
531.194	-0.05
531.389	-0.01
531.585	-0.05
531.78	-0.01
531.975	-0.02
532.171	0.02
532.366	-0
532.561	-0.02
532.757	-0.03
532.952	-0.01
533.147	-0.01
533.342	0
533.538	0.01
533.733	0.03
533.928	-0.01
534.123	-0.02
534.318	-0.06
534.513	0.01
534.709	0.01
534.904	-0.03
535.099	-0.02
535.294	-0
535.489	0
535.684	-0.01
535.879	-0.06
536.074	-0.01
536.269	-0.02
536.464	0
536.659	-0.01
536.854	-0.02
537.049	-0
537.244	0.01
537.439	-0.02
537.634	0.02
537.828	0.02
538.023	-0.02
538.218	-0.05
538.413	-0.01
538.608	-0.03
538.803	0
538.997	-0.04
539.192	-0
539.387	-0
539.582	0.01
539.776	-0
539.971	-0.02
540.166	-0
540.36	-0.03
540.555	-0
540.75	-0.02
540.944	-0.03
541.139	-0.05
541.334	-0.02
541.528	0.01
541.723	0.02
541.917	-0.02
542.112	-0.05
542.306	-0.02
542.501	-0.02
542.695	0.02
542.89	-0.02
543.084	-0.01
543.279	-0
543.473	-0.02
543.668	-0.03
543.862	-0.03
544.056	-0.01
544.251	-0.01
544.445	0
544.64	0
544.834	-0.03
545.028	-0.01
545.222	0.02
545.417	0
545.611	-0
545.805	-0.02
546	-0.02
546.194	-0.02
546.388	-0.02
546.582	0
546.776	-0.01
546.97	-0.03
547.165	0.01
547.359	0
547.553	-0.05
547.747	-0.01
547.941	0
548.135	-0.03
548.329	0
548.523	0.01
548.717	-0.03
548.911	-0.03
549.105	-0
549.299	-0
549.493	0.01
549.687	0.01
549.881	-0.01
550.075	-0.01
550.269	-0.04
550.463	0.01
550.657	-0.04
550.85	-0.02
551.044	-0.04
551.238	-0.01
551.432	-0.04
551.626	-0.03
551.82	-0
552.013	-0.03
552.207	-0.01
552.401	0.01
552.594	0
552.788	-0.04
552.982	-0.01
553.176	-0.04
553.369	0.01
553.563	-0.01
553.756	-0.05
553.95	-0.02
554.144	-0.01
554.337	0.03
554.531	0.01
554.724	0.01
554.918	-0.02
555.111	-0
555.305	-0.01
555.498	0.05
555.692	0.01
555.885	-0.02
556.079	0
556.272	-0.02
556.466	0.01
556.659	0
556.852	-0.02
557.046	-0.02
557.239	0.02
557.432	-0.03
557.626	-0.02
557.819	-0.04
558.012	0
558.206	0.01
558.399	-0
558.592	-0.01
558.785	-0.02
558.979	-0.02
559.172	-0.02
559.365	-0.02
559.558	0
559.751	-0.02
559.944	-0.03
560.138	-0.01
560.331	-0.03
560.524	0.01
560.717	-0.03
560.91	-0.03
561.103	-0.01
561.296	-0.01
561.489	-0.01
561.682	0
561.875	0.03
562.068	0.01
562.261	-0.01
562.454	0.01
562.647	-0.01
562.84	0
563.032	-0.04
563.225	0.01
563.418	-0.02
563.611	-0.02
563.804	-0
563.997	-0.04
564.19	-0.04
564.382	-0
564.575	-0.01
564.768	-0
564.961	-0.02
565.153	-0.02
565.346	0
565.539	0.01
565.731	0.03
565.924	0.01
566.117	0.02
566.309	0
566.502	-0.04
566.695	-0.03
566.887	-0
567.08	-0.02
567.272	-0.02
567.465	-0.02
567.657	0
567.85	-0
568.042	0.01
568.235	0.03
568.427	0
568.62	0.01
568.812	0.01
569.005	-0
569.197	-0.05
569.389	-0.02
569.582	-0
569.774	0.01
569.966	-0.03
570.159	-0.02
570.351	0
570.543	-0.04
570.736	-0.01
570.928	-0.04
571.12	0
571.312	-0.04
571.505	-0.04
571.697	0.01
571.889	-0.02
572.081	-0.01
572.273	-0.04
572.465	0.03
572.658	-0.02
572.85	-0
573.042	-0.03
573.234	-0.01
573.426	0.03
573.618	-0.03
573.81	-0
574.002	0.02
574.194	0.04
574.386	-0.06
574.578	-0.07
574.77	-0.04
574.962	-0.02
575.154	-0.06
575.346	-0.02
575.538	0
575.729	-0.03
575.921	-0.03
576.113	-0
576.305	0
576.497	-0.04
576.689	-0.02
576.88	-0.02
577.072	-0
577.264	-0.02
577.456	-0.03
577.647	-0.09
577.839	-0.01
578.031	0.03
578.223	-0.04
578.414	-0.07
578.606	-0.01
578.798	-0.01
578.989	-0.04
579.181	-0.03
579.372	0
579.564	0
579.755	-0.01
579.947	-0
580.139	-0
580.33	-0.06
580.522	-0.05
580.713	-0.06
580.905	-0.01
581.096	0
581.287	-0
581.479	-0.04
581.67	0
581.862	-0
582.053	-0.02
582.244	-0.05
582.436	-0
582.627	-0.02
582.818	-0.03
583.01	-0.05
583.201	0.02
583.392	-0
583.583	-0.03
583.775	-0.02
583.966	-0.03
584.157	-0.03
584.348	-0.05
584.54	-0.04
584.731	0.01
584.922	-0.02
585.113	-0.06
585.304	0
585.495	0.02
585.686	0.01
585.877	-0.01
586.068	-0.02
586.259	-0
586.45	-0.04
586.641	-0.02
586.832	-0.07
587.023	0
587.214	-0.04
587.405	-0.01
587.596	-0.03
587.787	0.01
587.978	-0.03
588.169	-0.05
588.36	-0.03
588.551	-0.01
588.742	-0.02
588.932	-0.01
589.123	-0.02
589.314	0.03
589.505	0
589.696	0.01
589.886	-0.04
590.077	-0.03
590.268	-0.01
590.458	-0.07
590.649	-0.06
590.84	0.01
591.03	-0.03
591.221	-0.04
591.412	-0.06
591.602	-0.01
591.793	-0.01
591.984	-0.05
592.174	-0.01
592.365	0.02
592.555	-0.05
592.746	-0.01
592.936	0
593.127	-0.01
593.317	0.01
593.508	-0.02
593.698	-0.04
593.889	-0.02
594.079	-0.03
594.269	-0.03
594.46	-0.02
594.65	-0.05
594.84	-0.02
595.031	-0.04
595.221	-0.03
595.411	-0.05
595.602	0.01
595.792	-0.02
595.982	-0.05
596.172	0.03
596.363	-0
596.553	-0
596.743	-0.02
596.933	-0.03
597.123	0.01
597.314	-0.06
597.504	-0.03
597.694	0.02
597.884	0.01
598.074	-0.03
598.264	-0.04
598.454	0.01
598.644	-0.02
598.834	-0.02
599.024	-0.1
599.214	-0.01
599.404	0.01
599.594	-0.03
599.784	-0.03
599.974	0.03
600.164	0
600.354	-0.06
600.544	-0.06
600.734	-0.01
600.924	0.02
601.114	-0.03
601.303	-0.02
601.493	-0.02
601.683	-0.02
601.873	0.01
602.063	-0.06
602.252	0.03
602.442	-0.07
602.632	-0.05
602.821	-0.06
603.011	-0.03
603.201	-0.01
603.39	-0.03
603.58	-0.06
603.77	-0.03
603.959	-0
604.149	-0.02
604.339	-0.04
604.528	0.04
604.718	0
604.907	-0.03
605.097	-0.03
605.286	-0.08
605.476	0.02
605.665	-0.01
605.855	-0.01
606.044	0.07
606.234	0.04
606.423	-0.03
606.612	-0.05
606.802	-0
606.991	-0.01
607.181	-0.01
607.37	-0.04
607.559	-0
607.749	-0.06
607.938	-0.03
608.127	-0.01
608.316	-0.04
608.506	-0.02
608.695	-0.03
608.884	-0.06
609.073	-0.01
609.263	-0.02
609.452	-0.01
609.641	-0.01
609.83	-0.06
610.019	-0.01
610.208	-0.07
610.397	-0.01
610.586	-0.03
610.775	-0.03
610.965	-0.03
611.154	-0.04
611.343	0
611.532	0
611.721	-0.03
611.91	-0.05
612.099	-0.02
612.287	-0.03
612.476	-0.04
612.665	-0.03
612.854	-0.04
613.043	0.01
613.232	-0.03
613.421	-0.06
613.61	0.01
613.798	-0.03
613.987	0
614.176	-0.04
614.365	0.01
614.554	-0.02
614.742	-0
614.931	-0.04
615.12	0.02
615.309	-0.02
615.497	-0.02
615.686	-0.05
615.875	-0.02
616.063	-0.01
616.252	-0.03
616.44	-0.03
616.629	-0.03
616.818	-0.02
617.006	-0
617.195	-0.01
617.383	-0.01
617.572	-0.03
617.76	-0.03
617.949	-0.03
618.137	0.02
618.326	-0.01
618.514	-0.04
618.703	-0.04
618.891	0.03
619.079	-0.09
619.268	0
619.456	-0.05
619.644	0.02
619.833	-0.01
620.021	-0.04
620.209	-0.07
620.398	0.02
620.586	-0.02
620.774	-0.01
620.962	-0
621.151	0.01
621.339	-0.02
621.527	-0.05
621.715	-0.06
621.903	-0.05
622.092	-0.04
622.28	0
622.468	-0.01
622.656	-0.06
622.844	0
623.032	-0.05
623.22	-0.06
623.408	0.01
623.596	0.01
623.784	-0.01
623.972	-0.06
624.16	-0.04
624.348	-0.01
624.536	-0.04
624.724	-0.04
624.912	0.05
625.1	0.02
625.288	-0.07
625.476	-0.06
625.664	-0.01
625.851	-0.01
626.039	-0.02
626.227	-0.01
626.415	-0.01
626.603	-0.06
626.79	-0.01
626.978	-0.04
627.166	-0.01
627.354	-0.01
627.541	-0.04
627.729	-0.07
627.917	0.01
628.104	0.01
628.292	-0.01
628.48	-0.04
628.667	-0.02
628.855	-0.04
629.042	0.02
629.23	-0.03
629.418	-0.02
629.605	-0.04
629.793	-0.05
629.98	-0.03
630.168	0
630.355	-0.02
630.543	-0.03
630.73	-0.04
630.917	-0
631.105	0.04
631.292	-0.04
631.48	-0.03
631.667	0.02
631.854	-0.03
632.042	-0.04
632.229	-0.06
632.416	-0.02
632.604	-0.01
632.791	-0.06
632.978	0
633.165	0.02
633.353	0.03
633.54	-0.01
633.727	-0.1
633.914	-0.02
634.101	-0.08
634.289	-0.03
634.476	-0.08
634.663	-0.03
634.85	0
635.037	-0.06
635.224	-0.1
635.411	0
635.598	0.03
635.785	-0.02
635.972	-0.03
636.159	0.02
636.346	-0.07
636.533	-0.02
636.72	-0.06
636.907	-0.04
637.094	0
637.281	-0.05
637.468	0.04
637.655	0.01
637.842	0.01
638.029	-0.06
638.215	0.02
638.402	-0.01
638.589	-0.05
638.776	-0.04
638.963	-0.07
639.149	0
639.336	0.03
639.523	-0
639.709	0
639.896	-0.02
640.083	0.05
640.27	-0.03
640.456	-0.04
640.643	0.01
640.829	-0.07
641.016	-0.01
641.203	-0.05
641.389	-0
641.576	-0.01
641.762	-0.03
641.949	-0.06
642.135	-0.01
642.322	0
642.508	-0.08
642.695	0
642.881	-0.04
643.068	-0.04
643.254	-0.01
643.441	0.03
643.627	-0.02
643.813	-0.04
644	0.04
644.186	-0.05
644.372	-0.07
644.559	0.01
644.745	-0.04
644.931	-0.04
645.118	-0.04
645.304	-0.07
645.49	-0.03
645.676	-0.03
645.862	-0.02
646.049	0.02
646.235	-0.04
646.421	0.03
646.607	0
646.793	-0.04
646.979	-0.05
647.165	0.02
647.352	0.01
647.538	0.01
647.724	-0.04
647.91	0.01
648.096	0.01
648.282	0.02
648.468	-0.06
648.654	-0.02
648.84	0
649.026	0
649.212	-0.03
649.397	-0.05
649.583	-0.07
649.769	0.01
649.955	-0.03
650.141	-0.01
650.327	0
650.513	-0.04
650.698	-0.01
650.884	-0.09
651.07	-0.01
651.256	-0.02
651.442	-0.04
651.627	-0.05
651.813	-0.04
651.999	0.01
652.184	-0.01
652.37	-0.02
652.556	-0.04
652.741	0.05
652.927	-0.1
653.113	-0.01
653.298	-0.02
653.484	-0.03
653.669	-0.08
653.855	-0.03
654.04	-0.01
654.226	-0.02
654.412	-0.05
654.597	-0.06
654.782	-0.04
654.968	0.03
655.153	0.01
655.339	-0.01
655.524	-0.09
655.71	0.03
655.895	-0.04
656.08	-0.05
656.266	0.02
656.451	-0.04
656.636	-0.06
656.822	0.01
657.007	-0.05
657.192	-0.05
657.378	-0.07
657.563	-0.02
657.748	-0.02
657.933	-0
658.118	-0.05
658.304	-0.04
658.489	0.03
658.674	0.01
658.859	-0.05
659.044	-0.03
659.229	-0.01
659.414	-0.02
659.599	-0.04
659.785	-0.07
659.97	-0.04
660.155	0
660.34	-0.01
660.525	-0.07
660.71	-0.03
660.895	0.03
661.08	-0.05
661.264	-0.03
661.449	0.02
661.634	-0.01
661.819	-0.01
662.004	-0
662.189	-0.09
662.374	-0.06
662.559	-0.08
662.743	-0.07
662.928	-0
663.113	-0.05
663.298	-0.08
663.483	-0.04
663.667	-0.04
663.852	-0.06
664.037	0.03
664.221	-0.08
664.406	-0.02
664.591	0.02
664.775	-0.04
664.96	-0.01
665.145	-0.04
665.329	0.01
665.514	-0.02
665.698	-0.02
665.883	-0.07
666.068	0.03
666.252	-0
666.437	-0.06
666.621	0
666.806	-0.01
666.99	-0.02
667.174	-0.05
667.359	0.01
667.543	-0.07
667.728	-0.03
667.912	-0.08
668.096	-0.01
668.281	-0.04
668.465	-0.04
668.649	-0.02
668.834	-0.06
669.018	-0.06
669.202	0.01
669.387	-0.04
669.571	0.01
669.755	-0.08
669.939	-0.03
670.124	-0.01
670.308	0.02
670.492	0.03
670.676	-0.03
670.86	-0.04
671.044	-0.07
671.228	0.03
671.413	-0.07
671.597	-0.05
671.781	-0.03
671.965	-0
672.149	-0.01
672.333	-0.03
672.517	-0.06
672.701	0.01
672.885	-0.06
673.069	-0.09
673.253	0.04
673.437	-0.02
673.621	-0.07
673.804	0
673.988	-0.03
674.172	-0.05
674.356	-0.09
674.54	0
674.724	0.05
674.908	-0.05
675.091	0.01
675.275	-0.01
675.459	-0.04
675.643	0.04
675.826	-0
676.01	-0.04
676.194	-0.04
676.377	0.04
676.561	0.03
676.745	-0.03
676.928	0.03
677.112	0.02
677.296	-0.07
677.479	-0.1
677.663	-0.04
677.846	-0.03
678.03	-0.04
678.213	-0.06
678.397	0.02
678.58	-0.03
678.764	-0.05
678.947	-0.1
679.131	-0.04
679.314	-0.01
679.498	0
679.681	-0.06
679.865	0.02
680.048	-0.05
680.231	-0.03
680.415	-0.05
680.598	-0.03
680.781	-0.03
680.965	-0.05
681.148	0.02
681.331	-0.05
681.514	-0
681.698	-0.07
681.881	-0.01
682.064	-0.03
682.247	-0.06
682.43	-0.09
682.614	0
682.797	0.03
682.98	0.02
683.163	-0.06
683.346	-0
683.529	-0.02
683.712	-0.08
683.895	0.02
684.078	-0.08
684.261	-0.05
684.444	-0.02
684.627	-0
684.81	-0.04
684.993	-0.05
685.176	-0
685.359	-0.03
685.542	-0.02
685.725	0.03
685.908	-0.02
686.091	0
686.274	0.03
686.457	0.03
686.639	-0.02
686.822	-0.03
687.005	-0.02
687.188	0.01
687.371	0.05
687.553	-0.02
687.736	0.01
687.919	0.1
688.102	0.04
688.284	-0.04
688.467	0
688.65	-0.05
688.832	-0.05
689.015	-0.05
689.197	-0.06
689.38	0.1
689.563	0.05
689.745	-0.02
689.928	-0.05
690.11	-0.05
690.293	-0.01
690.475	-0.1
690.658	-0.02
690.84	-0.03
691.023	-0
691.205	-0.03
691.388	-0.07
691.57	0
691.752	-0.03
691.935	-0.11
692.117	-0.06
692.3	-0.02
692.482	-0.01
692.664	-0
692.847	-0.02
693.029	-0.04
693.211	0.01
693.393	-0.05
693.576	-0.06
693.758	-0.01
693.94	-0.05
694.122	-0.03
694.304	-0.01
694.487	-0.01
694.669	0.04
694.851	-0.05
695.033	-0.04
695.215	-0.05
695.397	-0.06
695.579	0.02
695.761	-0.07
695.943	-0.09
696.125	0.05
696.308	0.01
696.49	-0.09
696.671	0.03
696.853	-0.04
697.035	0.08
697.217	-0.03
697.399	0.01
697.581	-0.07
697.763	-0.05
697.945	-0.07
698.127	-0.05
698.309	0.01
698.491	-0.02
698.672	-0.01
698.854	-0
699.036	-0
699.218	-0.08
699.399	0.03
699.581	0.03
699.763	-0.04
699.945	-0.03
700.126	-0.07
700.308	-0.03
700.49	-0.01
700.671	-0.14
700.853	-0.09
701.035	-0.06
701.216	-0.03
701.398	-0.13
701.579	-0.03
701.761	-0.01
701.943	-0.04
702.124	-0.06
702.306	-0.01
702.487	0.16
702.669	-0.03
702.85	-0.08
703.031	-0.06
703.213	0.08
703.394	0.02
703.576	-0.09
703.757	0.06
703.938	0
704.12	0.13
704.301	0
704.483	-0.08
704.664	0.03
704.845	0.07
705.026	-0
705.208	-0.05
705.389	-0
705.57	-0.02
705.751	-0.08
705.933	-0.04
706.114	0.01
706.295	-0.03
706.476	-0.1
706.657	0.1
706.838	-0.05
707.02	0.03
707.201	-0.09
707.382	-0.11
707.563	0.04
707.744	-0.06
707.925	-0.08
708.106	-0.13
708.287	0.07
708.468	0.01
708.649	-0.1
708.83	0
709.011	-0.08
709.192	-0.01
709.373	-0.11
709.554	-0.08
709.734	0.05
709.915	0
710.096	-0.01
710.277	-0.13
710.458	-0.01
710.639	-0.01
710.819	-0.16
711	-0.07
711.181	0.03
711.362	0.03
711.542	-0.04
711.723	-0.05
711.904	-0.09
712.085	-0.03
712.265	-0.03
712.446	-0.12
712.627	-0.07
712.807	0
712.988	-0.05
713.168	-0.08
713.349	-0.01
713.53	-0.2
713.71	-0.15
713.891	-0.11
714.071	-0.04
714.252	-0.06
714.432	-0.07
714.613	-0.09
714.793	-0
714.974	0.06
715.154	0.01
715.334	0.04
715.515	0.07
715.695	-0.08
715.876	-0
716.056	-0.04
716.236	-0.06
716.417	-0.06
716.597	-0.06
716.777	0.08
716.957	-0.06
717.138	-0.03
717.318	0.04
717.498	-0.11
717.678	-0.02
717.859	0.01
718.039	-0.1
718.219	0.01
718.399	0
718.579	-0.12
718.759	-0.06
718.939	0.05
719.12	0.01
719.3	0.01
719.48	-0.09
719.66	-0.12
719.84	0.02
720.02	-0.06
720.2	-0.06
720.38	-0.08
720.56	0.08
720.74	-0.04
720.92	-0.04
721.1	0.02
721.279	0
721.459	-0.03
721.639	-0.18
721.819	0.02
721.999	-0.09
722.179	0.08
722.359	-0.1
722.538	-0
722.718	-0.09
722.898	-0.04
723.078	-0.03
723.257	-0.05
723.437	-0.03
723.617	-0.07
723.797	-0.05
723.976	-0.05
724.156	-0.04
724.336	-0.03
724.515	0.12
724.695	-0.21
724.874	-0.07
725.054	0.01
725.234	-0.08
725.413	0.02
725.593	-0.05
725.772	-0.07
725.952	-0.11
726.131	-0.06
726.311	-0
726.49	-0.08
726.67	-0.07
726.849	-0.15
727.028	-0.05
727.208	-0.07
727.387	-0.04
727.567	-0.16
727.746	-0.09
727.925	-0.08
728.105	-0.11
728.284	-0.13
728.463	-0.04
728.643	0.01
728.822	-0.19
729.001	-0.11
729.18	-0.06
729.359	-0.01
729.539	-0.06
729.718	-0.04
729.897	0.03
730.076	-0.11
730.255	-0.17
730.434	0.01
730.614	-0
730.793	0.01
730.972	-0.03
731.151	-0.03
731.33	0.07
731.509	-0.02
731.688	-0.04
731.867	-0.04
732.046	-0.15
732.225	0.12
732.404	-0.08
732.583	-0.1
732.762	-0.05
732.941	0.02
733.12	-0.08
733.298	-0.03
733.477	-0.04
733.656	-0.06
733.835	-0.12
734.014	0.04
734.193	-0.04
734.371	-0.01
734.55	0.14
734.729	-0.14
734.908	-0.04
735.086	-0.09
735.265	0
735.444	-0.17
735.623	-0.14
735.801	-0.09
735.98	-0
736.159	-0.07
736.337	-0
736.516	-0.01
736.694	-0.1
736.873	-0.06
737.052	0.08
737.23	0.08
737.409	-0.14
737.587	0.12
737.766	-0.24
737.944	-0.12
738.123	0.03
738.301	-0.04
738.479	-0.08
738.658	-0.01
738.836	-0.31
739.015	-0.06
739.193	0.07
739.371	-0.16
739.55	-0.17
739.728	-0.2
739.906	0.03
740.085	0.13
740.263	-0.02
740.441	-0.22
740.62	0.15
740.798	0.05
740.976	-0.18
741.154	-0.15
741.332	0.13
741.511	-0.05
741.689	-0.04
741.867	-0.06
742.045	-0.04
742.223	0
742.401	-0.01
742.579	-0.19
742.757	0.05
742.935	-0.13
743.114	-0.15
743.292	-0.04
743.47	-0.13
743.648	-0.01
743.826	-0.12
744.004	0
744.181	-0.02
744.359	0.01
744.537	-0.07
744.715	0
744.893	-0.05
745.071	-0.05
745.249	-0.09
745.427	-0.03
745.605	-0.01
745.782	-0.04
745.96	-0.02
746.138	-0.05
746.316	0.14
746.493	-0.06
746.671	-0.07
746.849	-0.04
747.027	0.1
747.204	-0.19
747.382	-0.01
747.56	-0.18
747.737	0.02
747.915	-0.16
748.093	-0.05
748.27	-0.21
748.448	-0.01
748.625	-0.06
748.803	-0.13
748.98	-0.11
749.158	-0.08
749.335	0.06
749.513	-0.03
749.69	-0.02
749.868	0.02
750.045	0
750.223	-0.17
750.4	-0.29
750.578	0.12
750.755	-0.02
750.932	-0.23
751.11	0.1
751.287	-0.22
751.464	0.06
751.642	-0.15
751.819	0.04
751.996	-0.01
752.173	-0.1
752.351	-0.16
752.528	-0.06
752.705	-0.02
752.882	-0.09
753.06	-0.01
753.237	0.02
753.414	0.21
753.591	0.18
753.768	-0.01
753.945	-0.19
754.122	-0.12
754.299	-0.11
754.476	-0.04
754.654	-0.1
754.831	-0.06
755.008	-0.07
755.185	-0.24
755.362	-0.02
755.539	0.03
755.716	-0.08
755.892	-0.09
756.069	-0.04
756.246	-0.07
756.423	-0.02
756.6	0.15
756.777	-0.14
756.954	0.02
757.131	-0.13
757.307	-0.15
757.484	-0.22
757.661	-0.06
757.838	-0.05
758.015	-0.09
758.191	0.09
758.368	-0.21
758.545	0.08
758.721	-0.01
758.898	-0.27
759.075	0.03
759.251	0.11
759.428	0.06
759.605	-0.12
759.781	-0.16
759.958	-0.01
760.134	-0.06
760.311	-0.11
760.488	0.04
760.664	0.17
760.841	-0.03
761.017	-0.21
761.194	-0.05
761.37	0.06
761.547	-0.1
761.723	-0.08
761.899	0.12
762.076	-0.23
762.252	-0.16
762.429	-0.15
762.605	0.02
762.781	-0.07
762.958	0
763.134	-0.1
763.31	-0.03
763.486	0.07
763.663	-0.22
763.839	-0.04
764.015	-0.12
764.191	-0.14
764.368	-0.03
764.544	-0.06
764.72	0.03
764.896	-0.01
765.072	-0.03
765.248	-0.07
765.425	-0.13
765.601	-0.04
765.777	0.03
765.953	-0.34
766.129	-0.18
766.305	-0.2
766.481	0.05
766.657	-0.11
766.833	0.14
767.009	-0.15
767.185	-0.14
767.361	-0.12
767.537	-0.05
767.713	0.07
767.889	-0.13
768.065	0.01
768.24	-0.03
768.416	-0.03
768.592	-0.24
768.768	-0.13
768.944	0.13
769.12	-0.28
769.295	0.03
769.471	-0.11
769.647	0.03
769.823	0.04
769.998	-0.16
770.174	-0.23
770.35	0.18
770.525	0.14
770.701	0.02
770.877	-0.04
771.052	-0.17
771.228	0.13
771.403	-0.01
771.579	-0.02
771.755	0.29
771.93	-0.13
772.106	-0.18
772.281	-0.21
772.457	0.01
772.632	-0.05
772.808	-0.28
772.983	-0.12
773.159	-0.17
773.334	0.13
773.509	-0.06
773.685	-0.16
773.86	0.2
774.036	0.26
774.211	-0.08
774.386	-0.13
774.562	0.08
774.737	-0.07
774.912	-0.06
775.087	0.03
775.263	0.05
775.438	-0.1
775.613	-0.13
775.788	-0.01
775.964	-0.02
776.139	0.21
776.314	-0.25
776.489	-0.15
776.664	0.01
776.839	-0.19
777.014	0.1
777.19	0.01
777.365	0.23
777.54	0.11
777.715	-0.13
777.89	-0.17
778.065	-0.21
778.24	-0.14
778.415	0.11
778.59	-0.23
778.765	-0.12
778.94	-0.1
779.115	-0.06
779.289	-0.14
779.464	-0.17
779.639	-0.11
779.814	-0.26
779.989	-0.33
780.164	0.14
780.339	-0.14
780.513	-0.21
780.688	-0.12
780.863	-0.24
781.038	0.06
781.212	-0.24
781.387	-0.08
781.562	0.09
781.737	0.03
781.911	0.1
782.086	-0.26
782.261	0.07
782.435	0.19
782.61	-0.09
782.784	-0.23
782.959	0.22
783.134	-0.2
783.308	-0.37
783.483	-0.14
783.657	0.3
783.832	-0.11
784.006	-0.26
784.181	-0.11
784.355	0.03
784.53	-0.11
784.704	-0.18
784.878	0.09
785.053	-0.04
785.227	-0
785.402	0.31
785.576	-0.26
785.75	-0.23
785.925	-0.21
786.099	-0.14
786.273	-0.07
786.448	-0.02
786.622	-0.09
786.796	0.04
786.97	-0.37
787.145	0.36
787.319	-0.13
787.493	-0.03
787.667	-0.49
787.841	-0.3
788.015	0.24
788.19	-0.07
788.364	-0
788.538	0.02
788.712	0.15
788.886	-0.24
789.06	0.17
789.234	-0.05
789.408	-0.38
789.582	-0.21
789.756	-0.1
789.93	-0.12
790.104	-0.07
790.278	-0.08
790.452	-0.31
790.626	0.08
790.8	-0.12
790.973	0.01
791.147	0.1
791.321	0.2
791.495	0.08
791.669	0.04
791.843	-0.07
792.016	-0.06
792.19	0.34
792.364	-0.25
792.538	0.29
792.711	0.2
792.885	-0.23
793.059	-0.39
793.233	-0.7
793.406	0.05
793.58	-0.17
793.754	-0.09
793.927	-0.03
794.101	0.14
794.274	0.01
794.448	0.13
794.622	-0.28
794.795	0.24
794.969	-0.37
795.142	0.29
795.316	-0.33
795.489	-0.13
795.663	0.38
795.836	-0.24
796.009	-0.43
796.183	-0.03
796.356	-0.03
796.53	-0.07
796.703	-0.02
796.876	0.76
797.05	-0.08
797.223	-0.3
797.396	0.1
797.57	0.05
797.743	0.11
797.916	-0.34
798.09	-0.12
798.263	0.38
798.436	0.41
798.609	-0.22
798.782	-0.08
798.956	-0.21
799.129	-0.09
799.302	-0.04
799.475	-0.1
799.648	-0.33
799.821	-0.33
799.994	-0.13
800.167	-0.59
800.34	-0.3
800.514	-0.05
800.687	-0.16
800.86	-0.41
801.033	-0.01
801.206	0.1
801.379	-0.59
801.551	0.01
801.724	-0.09
801.897	0.04
802.07	-0.27
802.243	-0.54
802.416	-0.13
802.589	-0.12
802.762	-0.06
802.935	-0.04
803.107	0.17
803.28	0.32
803.453	-0.01
803.626	-0.2
803.798	-0.33
803.971	-0.07
804.144	0.12
804.317	0.12
804.489	0.2
804.662	-0.56
804.835	0.14
805.007	-0.17
805.18	0.46
805.353	0.13
805.525	-0.24
805.698	-0.44
805.87	0.15
806.043	0.27
806.215	-0.49
806.388	-0.41
806.56	0.16
806.733	0.18
806.905	-0.19
807.078	-0.46
807.25	-0.27
807.423	-0.06
807.595	-0.27
807.768	-0.14
807.94	-0.04
808.112	-0.12
808.285	-0.02
808.457	-0.03
808.629	0.01
808.802	-0.03
808.974	0.02
809.146	-0.24
809.318	-0.56
809.491	-0.15
809.663	0.23
809.835	-0.31
810.007	0.11
810.18	0.07
810.352	-0.67
810.524	-0.33
810.696	-0.08
810.868	0.23
811.04	-0.38
811.212	-0.42
811.384	0.03
811.556	-0.15
811.728	-0.24
811.901	0.52
812.073	-0.47
812.245	0.39
812.417	-0.3
812.589	-0.83
812.76	-0.07
812.932	0.2
813.104	0.3
813.276	-0.16
813.448	0.21
813.62	0.21
813.792	0.02
813.964	-0.51
814.136	-0.02
814.307	-0.31
814.479	-0.39
814.651	-0.19
814.823	0.48
814.995	-0.41
815.166	-0.06
815.338	-0.43
815.51	-0.95
815.681	0.69
815.853	-0.12
816.025	-0.59
816.196	0.07
816.368	-0.16
816.54	-0.51
816.711	-0.47
816.883	0.15
817.054	0.58
817.226	-0.65
817.398	-0.2
817.569	-0.3
817.741	-0.04
817.912	0.01
818.084	-0.3
818.255	0.07
818.426	-0.15
818.598	-0.29
818.769	-0.52
818.941	0.26
819.112	0.81
819.283	0.31
819.455	-0.44
819.626	-0.32
819.798	-0.06
819.969	-0.09
820.14	-0.21
820.311	-0.44
820.483	-0.08
820.654	-0.25
820.825	-0.1
820.996	-0.41
821.168	-0.48
821.339	-0.07
821.51	-0.74
821.681	-0.05
821.852	-0.25
822.023	-0.57
822.195	-0.91
822.366	-0.02
822.537	-0.36
822.708	-0.08
822.879	-0.79
823.05	0.14
823.221	-0.66
823.392	0.06
823.563	-0.22
823.734	0.1
823.905	-0.42
824.076	-0.3
824.247	-0.32
824.418	-0.74
824.589	0.36
824.759	-0.41
824.93	-0.28
825.101	-0.9
825.272	0.28
825.443	0.1
825.614	0.47
825.784	-1.2
825.955	0.33
826.126	0.35
826.297	-0.27
826.467	0.74
826.638	-0.02
826.809	-0.71
826.98	-0.07
827.15	-0.11
827.321	-0.06
827.492	0.66
827.662	-0.03
827.833	1.13
828.003	-0.38
828.174	-0.83
828.345	-1.05
828.515	0.06
828.686	0.01
828.856	-0.21
829.027	-0.11
829.197	-0.17
829.368	0.08
829.538	-0.42
829.709	-0.48
829.879	-0.32
830.049	-0.48
830.22	-0.24
830.39	0.01
830.56	-0.13
830.731	-0.37
830.901	-0.77
831.072	-0.12
831.242	-0.21
831.412	-0.45
831.582	-0.43
831.753	-1.28
831.923	0.85
832.093	-0.44
832.263	-0.24
832.434	-0.98
832.604	-0.4
832.774	0.15
832.944	-0.78
833.114	-0.82
833.284	-0.12
833.454	-0.56
833.624	-0.5
833.795	-0.27
833.965	-0.2
834.135	0.38
834.305	-1.31
834.475	-0.93
834.645	-0.26
834.815	-0.97
834.985	-0.9
835.155	-0.21
835.325	0.19
835.494	0.13
835.664	-0.07
835.834	-1.21
836.004	0.46
836.174	0.36
836.344	0.11
836.514	-0.78
836.684	0.1
836.853	-0.05
837.023	-0.37
837.193	-1.03
837.363	0.21
837.532	0.17
837.702	-0.02
837.872	-0.8
838.041	-0.06
838.211	0.88
838.381	-1.58
838.55	-0.19
838.72	1.31
838.89	1.13
839.059	-0.15
839.229	-0.78
839.398	0.81
839.568	-0.12
839.738	0.61
839.907	0.59
840.077	0.48
840.246	-0.42
840.416	-0.66
840.585	-0.71
840.755	0.89
840.924	0.73
841.093	-1.57
841.263	-0.85
841.432	-0.03
841.602	-1.06
841.771	-0.72
841.94	0.07
842.11	1.01
842.279	1.1
842.448	-1.09
842.617	-0.71
842.787	0.73
842.956	-1.19
843.125	-0.5
843.294	-0.18
843.464	0.3
843.633	-0.55
843.802	-1.04
843.971	-0.44
844.14	0.6
844.309	0.37
844.479	-1.24
844.648	-0.06
844.817	-1.12
844.986	-0.05
845.155	-0.76
845.324	-0.29
845.493	0.02
845.662	-1.03
845.831	0.22
846	0.5
846.169	0
846.338	1.49
846.507	0.61
846.676	0.31
846.844	-0.67
847.013	-0.7
847.182	-0.14
847.351	-0.83
847.52	0.26
847.689	0.08
847.858	0.07
848.026	-1.18
848.195	0.05
848.364	-0.53
848.533	-0.21
848.701	-0.98
848.87	0.06
849.039	0.72
849.207	0.43
849.376	0.71
849.545	-0.04
849.713	-1.31
849.882	-0.12
850.051	-0.72
850.219	0.66
850.388	0.88
850.556	-1.3
850.725	-0.39
850.893	0.16
851.062	-0.86
851.23	0.84
851.399	-1.58
851.567	-1.65
851.736	-0.54
851.904	-1.59
852.073	-0.26
852.241	0.52
852.41	-0.21
852.578	-0.53
852.746	-0.29
852.915	0.21
853.083	0.41
853.251	-1.08
853.42	-1.21
853.588	0.97
853.756	1.84
853.924	-0.41
854.093	-0.54
854.261	-0.19
854.429	-1.38
854.597	0.52
854.765	-1.69
854.934	-0.04
855.102	0.37
855.27	-0.51
855.438	-0.14
855.606	0.7
855.774	0
855.942	-2.06
856.11	-2.32
856.278	0.84
856.446	0.24
856.614	-0.11
856.782	-1.03
856.95	-0.65
857.118	0.01
857.286	-0.26
857.454	-0.71
857.622	0.15
857.79	0.17
857.958	-0.53
858.126	-1.58
858.294	-2.59
858.462	0.06
858.629	-1.35
858.797	-1.53
858.965	-0.64
859.133	-0.14
859.301	-0.94
859.468	0.06
859.636	-1.14
859.804	1.85
859.971	1.23
860.139	-0.98
860.307	1.04
860.474	-0.16
860.642	-0.93
860.81	-0.05
860.977	-0.96
861.145	0.72
861.313	0.04
861.48	-0.28
861.648	0.12
861.815	-0.39
861.983	-2.12
862.15	-2.33
862.318	-0.24
862.485	0.42
862.653	-1.16
862.82	-1
862.988	1.64
863.155	0.66
863.322	-1.61
863.49	-0.75
863.657	-0.17
863.824	0.32
863.992	0.13
864.159	-0.67
864.326	1.72
864.494	-1.49
864.661	1.44
864.828	-2.23
864.996	-0.25
865.163	0.85
865.33	-1.7
865.497	-2.07
865.664	-1.73
865.832	-2.93
865.999	-1.47
866.166	-3.16
866.333	-0.88
866.5	-0.6
866.667	0.24
866.834	-0.04
867.001	1.03
867.168	-2.79
867.335	-0.01
867.502	-1.77
867.669	-1.03
867.836	0.85
868.003	-0.17
868.17	-0.12
868.337	-0.8
868.504	2.41
868.671	-2.22
868.838	-0.74
869.005	-0.4
869.172	0.25
869.339	-1.16
869.505	-2.42
869.672	-1.31
869.839	0.76
870.006	-1.24
870.173	-2.2
870.339	-0.23
870.506	2.04
870.673	-2.27
870.84	-0.49
871.006	0.05
871.173	-0.12
871.34	-1.19
871.506	-3.54
871.673	1.45
871.839	-3.08
872.006	0.33
872.173	-1.2
872.339	-0.69
872.506	3.48
872.672	-0.11
872.839	-3.09
873.005	-0.2
873.172	2.79
873.338	0.7
873.505	-0.48
873.671	0.71
873.838	2.17
874.004	-2.44
874.171	-2.99
874.337	-0.01
874.503	-0.15
874.67	-0.08
874.836	-1.77
875.002	0.89
875.169	1.06
875.335	0
875.501	-1.7
875.668	1.55
875.834	-1.47
876	-0.64
876.166	0.02
876.332	0.09
876.499	4.21
876.665	-1.25
876.831	-1.04
876.997	1.89
877.163	1.22
877.329	-2.05
877.495	-1.62
877.662	-0.33
877.828	-0.4
877.994	-0.14
878.16	-3.4
878.326	-2.23
878.492	-0.79
878.658	-0.5
878.824	0.36
878.99	0.08
879.156	-1.91
879.322	1.8
879.487	-0.82
879.653	0.19
879.819	-1.08
879.985	-0.94
880.151	0.3
880.317	0.4
880.483	-0.05
880.648	0.51
880.814	-3.28
880.98	-0.3
881.146	-4.11
881.312	-1.4
881.477	-0.13
881.643	0.42
881.809	1.3
881.974	0.53
882.14	-2.96
882.306	-1.65
882.471	2.21
882.637	-1.05
882.803	-0.8
882.968	3.74
883.134	1.3
883.299	0.04
883.465	-1.92
883.63	1.2
883.796	0.32
883.961	0.72
884.127	0.21
884.292	-4.04
884.458	-1.55
884.623	-1.54
