Data from Apollo_Calib_20240827__AbsoluteIrradiance__504__07-33-02-815.txt Node

Date: Wed Aug 28 07:33:02 BST 2024
User: biology
Spectrometer: FLMT08252
Trigger mode: 0
Integration Time (sec): 5.000000E-1
Scans to average: 5
Electric dark correction enabled: true
Nonlinearity correction enabled: false
Boxcar width: 0
XAxis mode: Wavelengths
Number of Pixels in Spectrum: 3648
>>>>>Begin Spectral Data<<<<<
179.588	-0
179.809	-0
180.03	-0
180.251	-0
180.473	-0
180.694	-0
180.915	0
181.136	-0
181.357	0
181.578	-0
181.799	0
182.02	0
182.241	-0
182.462	-0
182.683	0
182.904	-0
183.125	-0
183.346	0
183.567	0
183.788	-0
184.009	-0
184.23	-0
184.451	0
184.672	-0
184.892	-0
185.113	0
185.334	0
185.555	0
185.776	0
185.996	0
186.217	0
186.438	-0
186.659	-0
186.879	-0
187.1	0
187.321	-0
187.541	-0
187.762	0
187.983	-0
188.203	0
188.424	0
188.644	-0
188.865	0
189.086	-0
189.306	-0
189.527	0
189.747	0
189.968	-0
190.188	0
190.409	-0
190.629	0
190.849	-0
191.07	-0
191.29	0
191.511	0
191.731	-0
191.951	-0
192.172	-0
192.392	0
192.612	-0
192.833	-0
193.053	0
193.273	0
193.493	-0
193.714	-0
193.934	0
194.154	0
194.374	0
194.594	0
194.815	0
195.035	0
195.255	0
195.475	-0
195.695	0
195.915	0
196.135	-0
196.355	0
196.575	0
196.795	-0
197.015	-0
197.235	-0
197.455	-0
197.675	-0
197.895	-0
198.115	-0
198.335	0
198.555	0
198.775	0
198.995	0
199.214	0
199.434	0
199.654	-0
199.874	-0
200.094	1.23
200.313	0.1
200.533	-0.27
200.753	-0.05
200.973	0.91
201.192	-0.08
201.412	-0.77
201.632	-0.28
201.851	0.74
202.071	0.09
202.291	-0.42
202.51	-0.6
202.73	0.25
202.95	-0.12
203.169	-0.55
203.389	-0.15
203.608	0.23
203.828	-0.59
204.047	-0.04
204.267	0.59
204.486	0.42
204.706	0.17
204.925	0.12
205.145	-0.23
205.364	0.04
205.583	0.74
205.803	0.08
206.022	-0.32
206.242	-0.04
206.461	-0.2
206.68	-0.52
206.9	0.17
207.119	0.46
207.338	0.54
207.557	-0.23
207.777	0.12
207.996	-0.22
208.215	0.32
208.434	-0.02
208.654	-0.37
208.873	0.11
209.092	0.83
209.311	-0.07
209.53	0
209.749	-0.31
209.968	-0.24
210.187	-0.1
210.407	-0.53
210.626	-0.15
210.845	0.27
211.064	0.17
211.283	-0.13
211.502	0.27
211.721	-0.21
211.94	-0.05
212.159	0.1
212.377	0.22
212.596	0.18
212.815	-0.12
213.034	0.06
213.253	0.43
213.472	0.21
213.691	-0.1
213.91	-0.29
214.128	-0.08
214.347	0.31
214.566	-0.29
214.785	-0.4
215.003	0.14
215.222	0.09
215.441	0.01
215.66	-0.18
215.878	0.08
216.097	0.28
216.316	-0.23
216.534	-0.03
216.753	0.08
216.972	0
217.19	-0.07
217.409	-0.19
217.627	-0.26
217.846	-0.12
218.064	-0.03
218.283	-0.09
218.501	0.47
218.72	0.13
218.938	-0.1
219.157	-0.09
219.375	0.26
219.594	0.02
219.812	-0.28
220.031	-0.2
220.249	0.29
220.467	0.36
220.686	-0.17
220.904	-0.14
221.122	0.02
221.341	0.42
221.559	0.09
221.777	-0.25
221.995	0.04
222.214	0.1
222.432	-0.02
222.65	0.21
222.868	-0.02
223.086	0.07
223.305	0.14
223.523	-0
223.741	0.13
223.959	-0.09
224.177	-0.24
224.395	-0.06
224.613	0
224.831	0.16
225.049	-0.14
225.267	0.02
225.485	0.16
225.703	-0.08
225.921	-0
226.139	0.01
226.357	-0.03
226.575	0.15
226.793	-0.08
227.011	0.48
227.229	0.08
227.447	0.2
227.665	-0.06
227.883	-0.21
228.1	-0.02
228.318	0.09
228.536	-0.26
228.754	-0.08
228.972	0.06
229.189	0.08
229.407	-0.1
229.625	-0.16
229.843	0.24
230.06	-0.05
230.278	-0.05
230.496	-0.09
230.713	0.09
230.931	0.09
231.149	-0.09
231.366	-0.21
231.584	-0.01
231.801	0.33
232.019	0.01
232.236	-0.11
232.454	-0.12
232.671	0.05
232.889	-0.06
233.106	-0.19
233.324	-0.02
233.541	-0.08
233.759	0.02
233.976	-0.07
234.194	0.07
234.411	-0.01
234.628	-0.08
234.846	0
235.063	-0.03
235.28	0.11
235.498	0.01
235.715	-0.1
235.932	0.05
236.149	0.04
236.367	-0.05
236.584	0.13
236.801	-0.04
237.018	0.07
237.236	0.01
237.453	-0.13
237.67	0.1
237.887	0.04
238.104	-0.03
238.321	-0.15
238.538	0.05
238.755	0.04
238.973	-0.18
239.19	-0.04
239.407	0.07
239.624	0.06
239.841	-0.23
240.058	-0.18
240.275	0.01
240.492	-0.07
240.709	0.07
240.925	-0.01
241.142	0.02
241.359	-0.14
241.576	-0.07
241.793	-0.04
242.01	0.03
242.227	0.11
242.444	0.03
242.66	0.07
242.877	0.01
243.094	-0.07
243.311	0.01
243.527	-0.08
243.744	0.02
243.961	0.01
244.178	-0.04
244.394	0.07
244.611	0.11
244.828	0.15
245.044	-0.09
245.261	-0.02
245.477	0.02
245.694	0.1
245.911	-0.09
246.127	0.05
246.344	0.18
246.56	0.04
246.777	-0.06
246.993	-0.07
247.21	0.08
247.426	0.09
247.643	-0.07
247.859	-0.13
248.076	-0.05
248.292	0.22
248.508	0.03
248.725	0.07
248.941	0.09
249.157	0.18
249.374	0
249.59	-0.04
249.806	0.03
250.023	0.04
250.239	-0.06
250.455	-0.08
250.671	-0.04
250.888	-0.01
251.104	-0.01
251.32	-0.01
251.536	0.03
251.752	-0.08
251.969	-0.01
252.185	0.04
252.401	0.12
252.617	0.08
252.833	0.01
253.049	-0.03
253.265	0.02
253.481	0.02
253.697	-0.07
253.913	-0.05
254.129	-0.02
254.345	-0.02
254.561	0.01
254.777	0.03
254.993	0.09
255.209	0.06
255.425	0
255.641	-0.06
255.857	0.09
256.073	-0.01
256.288	-0.12
256.504	-0.03
256.72	0.09
256.936	0.11
257.152	-0.04
257.367	-0.02
257.583	0.01
257.799	0.08
258.015	-0.07
258.23	-0.04
258.446	0.13
258.662	0.01
258.877	-0.03
259.093	-0.02
259.309	-0
259.524	0.02
259.74	-0.05
259.955	-0.11
260.171	0.02
260.387	-0.05
260.602	0.06
260.818	0.09
261.033	-0.11
261.249	-0.05
261.464	-0.06
261.68	-0.12
261.895	0.1
262.11	0.07
262.326	0.02
262.541	-0.02
262.757	0
262.972	-0.01
263.187	0.05
263.403	0.03
263.618	0.05
263.833	0.03
264.049	-0.09
264.264	0.01
264.479	0.03
264.694	0.04
264.91	-0.05
265.125	-0.03
265.34	0.02
265.555	0.11
265.77	0.08
265.986	-0.03
266.201	0.07
266.416	0.12
266.631	0.01
266.846	-0.01
267.061	0.07
267.276	0.03
267.491	-0.16
267.706	0.09
267.921	0.04
268.136	-0.01
268.351	-0.05
268.566	-0.05
268.781	0.12
268.996	0.04
269.211	-0
269.426	-0.05
269.641	-0.02
269.856	0.04
270.071	-0.02
270.285	-0.03
270.5	0.07
270.715	0.08
270.93	0.02
271.145	0.03
271.359	0.08
271.574	-0.02
271.789	0.06
272.004	-0.09
272.218	0.04
272.433	0.1
272.648	-0.07
272.862	0.07
273.077	0
273.292	0.03
273.506	-0.02
273.721	0.01
273.936	0.05
274.15	0.06
274.365	0.01
274.579	0.01
274.794	0.07
275.008	0.11
275.223	-0.14
275.437	-0.01
275.652	0.05
275.866	0.07
276.081	-0.06
276.295	0.12
276.509	-0.02
276.724	0.02
276.938	0.04
277.153	-0.01
277.367	0.08
277.581	-0.03
277.796	0.03
278.01	0
278.224	0.04
278.438	0.16
278.653	-0.02
278.867	-0.06
279.081	-0.2
279.295	0.03
279.51	0.02
279.724	-0.06
279.938	0.07
280.152	0.05
280.366	-0.03
280.58	-0
280.794	0.05
281.008	0.03
281.222	0.02
281.437	0.08
281.651	-0.02
281.865	0.1
282.079	-0.01
282.293	-0.07
282.507	-0.07
282.721	0.01
282.935	0.06
283.148	-0.07
283.362	-0.01
283.576	-0.04
283.79	-0.01
284.004	-0.02
284.218	0.08
284.432	-0.01
284.646	-0.04
284.859	0
285.073	-0.03
285.287	-0
285.501	0.01
285.714	0.01
285.928	0.02
286.142	0.04
286.356	-0.06
286.569	-0.02
286.783	0.05
286.997	0.05
287.21	-0.04
287.424	0.03
287.637	0.01
287.851	0.03
288.065	-0.01
288.278	0.01
288.492	0.05
288.705	-0
288.919	0.03
289.132	-0.06
289.346	0.03
289.559	-0.1
289.773	-0.04
289.986	-0.01
290.2	-0
290.413	0.05
290.626	-0.01
290.84	0.03
291.053	-0.01
291.267	0.07
291.48	0
291.693	0.02
291.906	-0.06
292.12	-0
292.333	-0.05
292.546	0
292.76	0.11
292.973	0.03
293.186	0.07
293.399	-0.01
293.612	0.05
293.826	0.04
294.039	0.01
294.252	0
294.465	0
294.678	0.03
294.891	0.03
295.104	-0.06
295.317	0.03
295.53	0.03
295.743	-0.02
295.956	-0.02
296.169	0.09
296.382	0.08
296.595	-0
296.808	-0.03
297.021	0.08
297.234	0.04
297.447	0.01
297.66	0.05
297.873	0.06
298.086	0.02
298.299	-0.03
298.511	-0.05
298.724	-0.03
298.937	-0.05
299.15	-0.01
299.363	0.03
299.575	0.03
299.788	0.04
300.001	-0.07
300.213	-0.06
300.426	0.01
300.639	-0.02
300.852	0.01
301.064	0.06
301.277	0.09
301.489	0.04
301.702	0.04
301.915	0.04
302.127	0.01
302.34	-0
302.552	0.03
302.765	-0.03
302.977	0.07
303.19	-0.03
303.402	-0.03
303.615	-0
303.827	-0.01
304.04	-0.02
304.252	0.07
304.464	-0
304.677	0.08
304.889	0.04
305.102	-0.02
305.314	-0.03
305.526	0.06
305.739	0.06
305.951	-0.03
306.163	-0.01
306.375	0.09
306.588	-0.03
306.8	-0
307.012	-0.04
307.224	0.02
307.436	0.04
307.649	-0.07
307.861	0.04
308.073	0.02
308.285	-0.02
308.497	-0.02
308.709	-0.01
308.921	0.01
309.133	0.03
309.346	-0.03
309.558	-0.03
309.77	0.03
309.982	0.03
310.194	0.04
310.406	0.02
310.617	0.02
310.829	0.03
311.041	0.06
311.253	-0.03
311.465	0.01
311.677	-0.01
311.889	0.01
312.101	-0.03
312.313	-0
312.524	0.08
312.736	-0.04
312.948	-0.01
313.16	0.09
313.372	-0.02
313.583	0.03
313.795	-0.04
314.007	0
314.218	0.06
314.43	-0.01
314.642	-0.05
314.853	-0.04
315.065	0.02
315.277	-0
315.488	0.04
315.7	0.05
315.912	0.02
316.123	-0.02
316.335	0.01
316.546	0.1
316.758	-0.02
316.969	-0.02
317.181	-0.02
317.392	-0.01
317.604	0.07
317.815	-0.04
318.026	0
318.238	-0.01
318.449	0.05
318.661	-0.05
318.872	-0.06
319.083	-0.03
319.295	0.03
319.506	-0.03
319.717	0.04
319.929	-0.01
320.14	-0.01
320.351	-0.02
320.562	-0.02
320.774	0.04
320.985	-0
321.196	-0.06
321.407	-0.07
321.618	0.05
321.829	0.04
322.041	0.02
322.252	-0.01
322.463	0.01
322.674	0.02
322.885	-0.03
323.096	-0.02
323.307	0.03
323.518	0.03
323.729	0
323.94	0.01
324.151	0.02
324.362	-0
324.573	0.03
324.784	-0.04
324.995	0.05
325.206	-0.02
325.417	-0.01
325.628	-0
325.838	0.04
326.049	-0.01
326.26	0
326.471	0.02
326.682	-0.01
326.892	0.03
327.103	-0.05
327.314	-0.03
327.525	0.05
327.735	0
327.946	0.01
328.157	-0.01
328.368	0.04
328.578	-0.01
328.789	0.03
328.999	0.03
329.21	0
329.421	0.02
329.631	-0.03
329.842	-0.03
330.052	0.03
330.263	0.03
330.473	0.06
330.684	-0
330.894	0.01
331.105	0.06
331.315	-0.02
331.526	-0.03
331.736	0.03
331.947	0.03
332.157	0.01
332.367	-0.04
332.578	0.04
332.788	0.07
332.999	0.05
333.209	0.03
333.419	-0.04
333.629	-0.01
333.84	0.03
334.05	0.04
334.26	0.06
334.47	0.07
334.681	0.03
334.891	-0.02
335.101	0.01
335.311	0.07
335.521	0.01
335.732	-0.01
335.942	0.06
336.152	0.02
336.362	0.05
336.572	-0.01
336.782	0.03
336.992	-0
337.202	-0.02
337.412	-0.02
337.622	0.02
337.832	0.02
338.042	0.02
338.252	-0.01
338.462	-0.03
338.672	0.04
338.882	-0.01
339.092	-0.01
339.302	0.06
339.511	0.03
339.721	-0.02
339.931	-0.03
340.141	0.03
340.351	0.05
340.561	0.04
340.77	-0.02
340.98	0.06
341.19	0.05
341.4	-0.01
341.609	-0.05
341.819	-0.02
342.029	-0.04
342.238	-0.01
342.448	0.03
342.658	0.05
342.867	0.05
343.077	0.03
343.286	0.01
343.496	-0.03
343.706	0.05
343.915	-0.06
344.125	0.03
344.334	0
344.544	-0.08
344.753	-0
344.963	0.01
345.172	0.03
345.381	-0.03
345.591	0
345.8	0.03
346.01	0.08
346.219	0.01
346.428	-0.11
346.638	0.01
346.847	0.01
347.056	0.09
347.266	0
347.475	-0.01
347.684	0.05
347.893	0.04
348.103	0.03
348.312	-0.02
348.521	0.01
348.73	-0.01
348.94	0
349.149	0.02
349.358	-0.01
349.567	0
349.776	-0.07
349.985	-0.01
350.194	0.05
350.403	0.03
350.612	-0.05
350.821	0
351.03	-0.03
351.239	-0.05
351.448	0.02
351.657	-0.07
351.866	0.06
352.075	0.03
352.284	0.03
352.493	-0.02
352.702	0.04
352.911	0
353.12	0.04
353.329	0
353.538	0.03
353.746	-0.01
353.955	-0.01
354.164	-0.02
354.373	-0.02
354.582	0.04
354.79	0.06
354.999	0.05
355.208	-0.01
355.416	0.05
355.625	-0.01
355.834	-0.03
356.042	0.03
356.251	-0.01
356.46	-0.01
356.668	0.01
356.877	0.08
357.085	0.08
357.294	-0.11
357.503	-0
357.711	-0
357.92	0.13
358.128	0.03
358.337	0.01
358.545	0.04
358.754	0.01
358.962	0.03
359.17	-0.01
359.379	0.04
359.587	0.05
359.796	-0.01
360.004	0.04
360.212	0.03
360.421	0.03
360.629	-0.01
360.837	-0
361.046	0.01
361.254	0.1
361.462	0
361.67	-0
361.879	0.02
362.087	0.06
362.295	0.05
362.503	-0.01
362.711	-0
362.92	-0.01
363.128	0
363.336	-0.02
363.544	-0.05
363.752	-0.02
363.96	0.02
364.168	-0.01
364.376	0.01
364.584	0.02
364.792	0.03
365	0.03
365.208	0
365.416	0.04
365.624	0.05
365.832	-0
366.04	0.02
366.248	-0.01
366.456	0.02
366.664	0
366.872	-0.02
367.079	-0
367.287	0.01
367.495	0.01
367.703	-0
367.911	-0.01
368.118	-0.03
368.326	0.02
368.534	0
368.742	0.07
368.949	-0.01
369.157	-0.05
369.365	0.03
369.572	0.04
369.78	-0.02
369.988	0.05
370.195	0.02
370.403	0.05
370.61	-0.01
370.818	0.01
371.026	0.05
371.233	-0.03
371.441	0.05
371.648	-0.03
371.856	0.04
372.063	0.04
372.271	0.01
372.478	-0.01
372.685	-0.01
372.893	0.05
373.1	-0.02
373.308	0.01
373.515	0.12
373.722	0.06
373.93	0.01
374.137	0.06
374.344	0.1
374.552	0.03
374.759	0.05
374.966	0.03
375.173	-0.01
375.381	0.07
375.588	-0.01
375.795	-0.06
376.002	-0.05
376.209	-0.03
376.417	-0.03
376.624	0.01
376.831	0.03
377.038	-0.02
377.245	-0.04
377.452	0.03
377.659	0.03
377.866	-0.05
378.073	0.01
378.28	0
378.487	0.03
378.694	0.02
378.901	0.02
379.108	0
379.315	0.03
379.522	0.07
379.729	0.04
379.936	-0.01
380.143	0.04
380.35	-0
380.557	0.01
380.763	0.05
380.97	-0.02
381.177	0.05
381.384	0.04
381.591	-0.03
381.797	0.01
382.004	0.02
382.211	0.01
382.418	-0.01
382.624	0
382.831	0.02
383.038	-0.03
383.244	-0.01
383.451	-0.04
383.658	0.05
383.864	0.01
384.071	-0.02
384.277	0.07
384.484	-0.04
384.69	0.05
384.897	-0.02
385.103	-0.01
385.31	-0.04
385.516	-0.02
385.723	-0.03
385.929	-0
386.136	-0.04
386.342	0
386.549	-0
386.755	0.07
386.961	-0.01
387.168	-0.02
387.374	0.03
387.58	0.05
387.787	0.03
387.993	0.02
388.199	-0
388.406	-0.06
388.612	0.05
388.818	-0.02
389.024	-0.02
389.231	-0.01
389.437	0.1
389.643	0.04
389.849	-0.02
390.055	-0.01
390.261	-0.05
390.467	0.01
390.674	-0.07
390.88	0.01
391.086	0.07
391.292	-0.03
391.498	0.05
391.704	0.03
391.91	0.02
392.116	0.02
392.322	-0.09
392.528	0.02
392.734	-0.01
392.94	0
393.146	-0.01
393.352	-0.02
393.557	-0
393.763	0
393.969	-0
394.175	0.01
394.381	0.05
394.587	-0.02
394.792	-0
394.998	0.06
395.204	0.07
395.41	-0.03
395.615	0.02
395.821	0
396.027	0.02
396.233	-0.02
396.438	0.01
396.644	0.01
396.85	0.07
397.055	0.01
397.261	0.01
397.466	0.06
397.672	0.02
397.878	0.06
398.083	0.02
398.289	-0.01
398.494	0.04
398.7	0.04
398.905	-0.08
399.111	0.03
399.316	-0.04
399.522	-0.04
399.727	0.01
399.932	-0.01
400.138	-0.02
400.343	0.07
400.549	0.02
400.754	-0.01
400.959	-0.02
401.165	-0.06
401.37	0
401.575	0.07
401.78	-0
401.986	-0.04
402.191	-0.04
402.396	-0.01
402.601	0.03
402.807	0.01
403.012	0.01
403.217	0.03
403.422	0.03
403.627	-0.03
403.832	-0.05
404.037	0.03
404.243	0.01
404.448	-0.02
404.653	0.02
404.858	-0
405.063	0.02
405.268	-0
405.473	0
405.678	-0.05
405.883	0.14
406.088	0.01
406.293	-0.02
406.498	-0.03
406.703	0.03
406.907	-0.03
407.112	-0.02
407.317	0.02
407.522	0.05
407.727	-0.09
407.932	-0
408.136	0.05
408.341	-0
408.546	0.01
408.751	0.02
408.956	-0.01
409.16	0.04
409.365	0.02
409.57	-0.02
409.774	-0.05
409.979	0.02
410.184	-0.01
410.388	-0.02
410.593	0.02
410.798	0.01
411.002	-0.03
411.207	0
411.411	0.03
411.616	-0.02
411.82	-0.04
412.025	0.02
412.229	-0.03
412.434	0.08
412.638	0
412.843	-0.01
413.047	-0.01
413.252	-0.02
413.456	-0.01
413.66	0.05
413.865	-0.01
414.069	0.02
414.273	-0.04
414.478	-0.01
414.682	-0.01
414.886	-0.04
415.091	-0.05
415.295	-0.07
415.499	0.04
415.703	-0.02
415.908	0.02
416.112	-0.07
416.316	0.05
416.52	0.02
416.724	-0.01
416.929	-0.03
417.133	0.04
417.337	-0
417.541	-0.01
417.745	-0.01
417.949	0.03
418.153	0.01
418.357	-0.06
418.561	0.05
418.765	0
418.969	0.11
419.173	0.02
419.377	-0.02
419.581	0.05
419.785	-0.03
419.989	-0.05
420.193	-0.07
420.397	-0.03
420.601	0.06
420.804	0.05
421.008	-0.01
421.212	0.03
421.416	0.04
421.62	-0.06
421.823	-0.02
422.027	0.12
422.231	0.02
422.435	0.02
422.638	0.03
422.842	-0.01
423.046	-0.01
423.249	0.04
423.453	0.07
423.657	0
423.86	0.03
424.064	-0.05
424.268	0.08
424.471	0.01
424.675	0.05
424.878	0.08
425.082	-0.04
425.285	0.04
425.489	-0.01
425.692	-0.01
425.896	-0.03
426.099	0
426.303	-0.03
426.506	-0.04
426.71	-0.03
426.913	0.05
427.116	0.02
427.32	0
427.523	0.01
427.726	0.07
427.93	-0.07
428.133	0
428.336	-0.07
428.54	-0.05
428.743	0.02
428.946	0.05
429.149	-0.02
429.353	-0.03
429.556	-0.06
429.759	-0.03
429.962	-0.06
430.165	0.04
430.368	0
430.571	0
430.775	0.04
430.978	-0.04
431.181	0.01
431.384	0.02
431.587	-0.02
431.79	0.01
431.993	0
432.196	-0.04
432.399	-0.02
432.602	0.1
432.805	0.04
433.008	-0.01
433.211	-0.07
433.414	0.03
433.616	0.03
433.819	-0.02
434.022	-0.11
434.225	0.07
434.428	0.01
434.631	0.08
434.833	-0
435.036	-0.02
435.239	0.08
435.442	0.02
435.645	-0.05
435.847	0.02
436.05	0.07
436.253	0.01
436.455	-0.04
436.658	0.02
436.861	0.07
437.063	-0.03
437.266	-0
437.468	0.01
437.671	0.12
437.874	-0
438.076	-0.02
438.279	-0.03
438.481	-0.03
438.684	-0.03
438.886	0.02
439.089	-0.06
439.291	-0.03
439.494	0.03
439.696	-0
439.899	-0.03
440.101	0.04
440.303	-0.08
440.506	0.03
440.708	-0.04
440.91	0.05
441.113	-0.08
441.315	0.03
441.517	-0.02
441.72	0.06
441.922	0
442.124	-0.02
442.326	0
442.529	0.1
442.731	-0.02
442.933	0.06
443.135	0.01
443.337	-0.03
443.539	-0.04
443.742	-0.03
443.944	0.05
444.146	-0.03
444.348	-0
444.55	-0.04
444.752	-0.02
444.954	-0.05
445.156	-0.04
445.358	-0.02
445.56	0.03
445.762	-0.04
445.964	0.06
446.166	-0.04
446.368	-0.05
446.57	0.03
446.772	0.01
446.974	-0.03
447.175	0.02
447.377	-0.1
447.579	0
447.781	-0.08
447.983	0.06
448.184	0.02
448.386	0.04
448.588	-0.07
448.79	-0
448.991	-0.03
449.193	-0.02
449.395	0.01
449.597	0.06
449.798	0.02
450	-0.01
450.202	0.01
450.403	-0.02
450.605	0.05
450.806	-0.03
451.008	-0.06
451.21	-0.01
451.411	0.02
451.613	0.04
451.814	0.01
452.016	0.02
452.217	0.04
452.419	0.02
452.62	0.01
452.821	-0
453.023	0.08
453.224	0.09
453.426	0.01
453.627	0.04
453.828	0.03
454.03	0
454.231	0
454.432	-0.01
454.634	0.12
454.835	-0.02
455.036	-0.07
455.238	0.02
455.439	0.03
455.64	-0.03
455.841	-0.05
456.042	0.1
456.244	0.02
456.445	-0.07
456.646	-0.07
456.847	0.01
457.048	0.03
457.249	0.04
457.45	0.15
457.651	-0.02
457.852	0.03
458.054	-0.01
458.255	0.02
458.456	0.08
458.657	0.04
458.858	-0.06
459.058	-0.01
459.259	0.07
459.46	0.02
459.661	-0.04
459.862	0.07
460.063	0.05
460.264	0.03
460.465	-0.04
460.666	0.07
460.866	-0.01
461.067	0.02
461.268	0
461.469	-0.02
461.67	0
461.87	-0.03
462.071	-0.02
462.272	-0.05
462.473	0.02
462.673	0.01
462.874	-0.03
463.075	-0.01
463.275	-0.09
463.476	0.01
463.676	0.01
463.877	0
464.078	0.02
464.278	0.01
464.479	-0.06
464.679	-0.02
464.88	-0.05
465.08	0.1
465.281	-0.02
465.481	-0.02
465.682	0
465.882	0.06
466.083	-0.01
466.283	-0.02
466.483	0.02
466.684	-0.07
466.884	-0.06
467.085	0.01
467.285	0
467.485	-0
467.686	-0
467.886	-0.01
468.086	0
468.286	0.03
468.487	0.05
468.687	-0.03
468.887	0
469.087	0.04
469.287	-0.05
469.488	-0.05
469.688	0.05
469.888	0.08
470.088	0.03
470.288	0.02
470.488	0.04
470.688	-0.05
470.888	0
471.088	-0.04
471.288	0.02
471.488	0.04
471.688	-0.01
471.888	-0.03
472.088	0.04
472.288	0.06
472.488	-0.03
472.688	-0.03
472.888	-0.02
473.088	0.02
473.288	0.02
473.488	0.02
473.688	0.11
473.887	-0.03
474.087	-0.05
474.287	0.03
474.487	-0.03
474.687	0
474.886	-0.04
475.086	0.01
475.286	0.03
475.486	-0.01
475.685	0.01
475.885	-0.01
476.085	-0.03
476.284	0.02
476.484	-0.03
476.684	0.04
476.883	0.07
477.083	0.02
477.282	0.01
477.482	0.06
477.681	0.05
477.881	0.03
478.08	-0.05
478.28	-0.01
478.479	0.03
478.679	0.07
478.878	-0.01
479.078	-0.01
479.277	0.01
479.477	-0.03
479.676	0.03
479.875	-0.01
480.075	-0.04
480.274	-0.01
480.473	0.02
480.673	-0.02
480.872	0.01
481.071	0.02
481.271	-0.01
481.47	0.01
481.669	-0
481.868	-0.02
482.067	-0.01
482.267	-0.02
482.466	-0.03
482.665	-0.03
482.864	-0.04
483.063	-0.03
483.262	0.04
483.461	0.06
483.661	0.04
483.86	0.01
484.059	0.04
484.258	-0.01
484.457	0.01
484.656	-0.02
484.855	0.06
485.054	-0.03
485.253	-0.01
485.452	-0.02
485.651	0
485.849	-0.03
486.048	-0.02
486.247	-0.03
486.446	0.02
486.645	-0.05
486.844	-0.03
487.043	-0
487.241	0.03
487.44	-0.03
487.639	-0
487.838	-0
488.037	-0.02
488.235	0.05
488.434	-0
488.633	-0.02
488.831	0.01
489.03	0.04
489.229	0.04
489.427	-0
489.626	0.01
489.825	0.05
490.023	-0.01
490.222	0
490.42	0.02
490.619	0.04
490.817	0.03
491.016	-0.02
491.214	0.04
491.413	-0.01
491.611	-0
491.81	0.01
492.008	0.02
492.207	0.03
492.405	-0
492.604	-0.04
492.802	-0.02
493	-0
493.199	-0.02
493.397	0.01
493.595	0.02
493.794	-0.02
493.992	0.05
494.19	0
494.388	0.03
494.587	-0.02
494.785	0
494.983	-0.04
495.181	0.01
495.379	0.01
495.578	-0.01
495.776	0.02
495.974	0.02
496.172	-0.02
496.37	-0.02
496.568	-0.04
496.766	-0.03
496.964	0.04
497.162	-0.04
497.36	-0.02
497.558	0.02
497.756	0.04
497.954	0
498.152	-0.02
498.35	0
498.548	0.01
498.746	-0.03
498.944	-0.03
499.142	-0.01
499.34	-0.01
499.538	-0
499.736	-0.01
499.933	0.02
500.131	0.05
500.329	0.01
500.527	0.02
500.725	0.02
500.922	0.01
501.12	0
501.318	0.02
501.516	-0
501.713	0.02
501.911	-0.01
502.109	-0.02
502.306	0.02
502.504	0
502.701	-0.02
502.899	0.01
503.097	0.04
503.294	0
503.492	-0.01
503.689	0.01
503.887	0.03
504.084	0.04
504.282	0
504.479	-0.03
504.677	-0
504.874	-0.02
505.072	0.01
505.269	-0
505.466	0.01
505.664	-0
505.861	-0.04
506.059	-0.05
506.256	0.04
506.453	-0.01
506.651	0.04
506.848	0.03
507.045	0.02
507.242	-0.01
507.44	-0
507.637	0
507.834	-0.01
508.031	0.03
508.229	-0.03
508.426	0.01
508.623	0.01
508.82	-0.01
509.017	-0.03
509.214	-0.01
509.411	-0
509.608	-0.01
509.805	-0.01
510.003	0.02
510.2	0
510.397	0.02
510.594	0.01
510.791	-0.01
510.988	0.01
511.184	0.01
511.381	-0.02
511.578	-0.01
511.775	0.02
511.972	-0.01
512.169	-0
512.366	-0
512.563	0.03
512.76	-0.01
512.956	0.01
513.153	0.01
513.35	0
513.547	-0.01
513.744	-0.02
513.94	-0.03
514.137	0.01
514.334	0.01
514.53	0.02
514.727	0.01
514.924	0.06
515.12	0.01
515.317	-0.01
515.514	-0.01
515.71	-0.03
515.907	-0
516.103	0
516.3	0.01
516.497	0.03
516.693	0.05
516.89	-0.01
517.086	-0.01
517.283	0
517.479	0.02
517.676	-0.01
517.872	-0.01
518.068	-0.02
518.265	0
518.461	-0
518.658	-0.01
518.854	0
519.05	-0.01
519.247	-0.03
519.443	0.02
519.639	-0
519.836	0
520.032	0.01
520.228	-0.01
520.424	0.04
520.621	0.02
520.817	-0.01
521.013	0
521.209	0.02
521.405	0.05
521.601	-0
521.798	0
521.994	0.03
522.19	-0.02
522.386	-0.04
522.582	0.02
522.778	0.01
522.974	0
523.17	0.03
523.366	-0.01
523.562	0.02
523.758	-0.01
523.954	-0.02
524.15	-0
524.346	0
524.542	0
524.738	-0.01
524.934	0
525.129	-0.01
525.325	0.01
525.521	-0.01
525.717	0.02
525.913	0
526.109	-0
526.304	-0.01
526.5	0.02
526.696	0.01
526.892	-0.01
527.087	0.02
527.283	-0.02
527.479	0.01
527.674	-0.01
527.87	-0.02
528.066	-0
528.261	0.04
528.457	-0
528.653	0
528.848	-0
529.044	0.01
529.239	0
529.435	0.02
529.63	-0.01
529.826	0.03
530.021	-0.01
530.217	0.02
530.412	0
530.608	-0.03
530.803	-0
530.999	-0
531.194	-0.01
531.389	0.01
531.585	-0.05
531.78	-0.02
531.975	-0
532.171	0.01
532.366	0.01
532.561	0.02
532.757	-0.02
532.952	-0.01
533.147	0
533.342	-0.02
533.538	-0.01
533.733	0.04
533.928	0.01
534.123	-0.01
534.318	-0.03
534.513	0.01
534.709	-0.01
534.904	-0.01
535.099	0
535.294	0.02
535.489	-0.01
535.684	-0
535.879	-0.01
536.074	0.01
536.269	-0.01
536.464	-0.01
536.659	-0.01
536.854	-0
537.049	0
537.244	0.01
537.439	0
537.634	0.03
537.828	0.01
538.023	0.01
538.218	-0.02
538.413	-0.01
538.608	-0.02
538.803	0.01
538.997	-0.03
539.192	0.02
539.387	0.02
539.582	0.02
539.776	0.02
539.971	-0
540.166	0.01
540.36	-0.04
540.555	0
540.75	0
540.944	0.02
541.139	-0.03
541.334	0
541.528	0.01
541.723	0.01
541.917	0.01
542.112	-0.04
542.306	-0
542.501	-0.01
542.695	-0
542.89	-0
543.084	0.01
543.279	-0.01
543.473	0
543.668	0.01
543.862	-0.01
544.056	0
544.251	0.02
544.445	0.01
544.64	-0.02
544.834	-0.01
545.028	0.01
545.222	0.02
545.417	0.03
545.611	0
545.805	0
546	0
546.194	-0.01
546.388	-0.03
546.582	0.01
546.776	-0.03
546.97	0.01
547.165	0.02
547.359	0.02
547.553	-0.03
547.747	0
547.941	-0.01
548.135	0.02
548.329	0.02
548.523	0.03
548.717	-0.01
548.911	-0.01
549.105	0
549.299	0.01
549.493	0.02
549.687	0.03
549.881	0
550.075	0
550.269	-0
550.463	0
550.657	-0
550.85	0.01
551.044	-0.04
551.238	0.02
551.432	-0.01
551.626	-0.03
551.82	0.01
552.013	0
552.207	0.01
552.401	0.03
552.594	0.02
552.788	-0.01
552.982	0.02
553.176	-0
553.369	0.01
553.563	0.01
553.756	-0.02
553.95	-0.03
554.144	0.01
554.337	0.04
554.531	0
554.724	0.02
554.918	0.01
555.111	0.03
555.305	-0
555.498	0.06
555.692	0.03
555.885	0
556.079	0.02
556.272	-0.02
556.466	0.04
556.659	0
556.852	0.01
557.046	-0.01
557.239	0.03
557.432	-0.03
557.626	-0.02
557.819	0.01
558.012	0.02
558.206	0.02
558.399	0.02
558.592	0
558.785	-0
558.979	0.03
559.172	0
559.365	0.02
559.558	0.02
559.751	0.01
559.944	0
560.138	0.01
560.331	0.01
560.524	0
560.717	0
560.91	0.01
561.103	0.01
561.296	0.01
561.489	0.02
561.682	0.01
561.875	0.05
562.068	0.03
562.261	0.03
562.454	0.04
562.647	0.03
562.84	0.01
563.032	-0.02
563.225	0
563.418	0
563.611	-0.01
563.804	0.01
563.997	-0
564.19	-0.02
564.382	-0.02
564.575	0
564.768	0.04
564.961	0
565.153	-0.01
565.346	0.01
565.539	0.02
565.731	0.03
565.924	0.02
566.117	0.03
566.309	0.03
566.502	-0.01
566.695	0.01
566.887	0.02
567.08	-0
567.272	0.01
567.465	0.01
567.657	0.04
567.85	0.03
568.042	0.03
568.235	0.06
568.427	0.02
568.62	0.04
568.812	0.04
569.005	0.01
569.197	-0.03
569.389	0.03
569.582	0.01
569.774	0.02
569.966	0
570.159	0.01
570.351	0.03
570.543	0.02
570.736	0.03
570.928	0.02
571.12	0.03
571.312	-0
571.505	0
571.697	0.06
571.889	0
572.081	0.02
572.273	-0.02
572.465	0.05
572.658	0
572.85	0.03
573.042	0.03
573.234	0.02
573.426	0.07
573.618	0
573.81	0.02
574.002	0.07
574.194	0.06
574.386	0.01
574.578	-0.02
574.77	0.02
574.962	0.05
575.154	0.01
575.346	0.04
575.538	0.03
575.729	0.03
575.921	0.02
576.113	0.03
576.305	0.06
576.497	0.04
576.689	0.02
576.88	0.04
577.072	0.05
577.264	0.04
577.456	0.03
577.647	0.02
577.839	0.06
578.031	0.08
578.223	0.03
578.414	0.01
578.606	0.08
578.798	0.06
578.989	0.04
579.181	0.03
579.372	0.06
579.564	0.05
579.755	0.07
579.947	0.05
580.139	0.09
580.33	0.01
580.522	0.04
580.713	0.03
580.905	0.04
581.096	0.08
581.287	0.08
581.479	0.07
581.67	0.07
581.862	0.07
582.053	0.07
582.244	0.05
582.436	0.08
582.627	0.08
582.818	0.05
583.01	0.06
583.201	0.12
583.392	0.12
583.583	0.11
583.775	0.06
583.966	0.08
584.157	0.09
584.348	0.09
584.54	0.05
584.731	0.15
584.922	0.1
585.113	0.09
585.304	0.15
585.495	0.14
585.686	0.15
585.877	0.12
586.068	0.14
586.259	0.12
586.45	0.11
586.641	0.11
586.832	0.08
587.023	0.12
587.214	0.15
587.405	0.14
587.596	0.14
587.787	0.17
587.978	0.15
588.169	0.14
588.36	0.14
588.551	0.15
588.742	0.16
588.932	0.17
589.123	0.18
589.314	0.17
589.505	0.2
589.696	0.21
589.886	0.17
590.077	0.16
590.268	0.2
590.458	0.16
590.649	0.16
590.84	0.24
591.03	0.2
591.221	0.18
591.412	0.17
591.602	0.24
591.793	0.27
591.984	0.22
592.174	0.25
592.365	0.31
592.555	0.23
592.746	0.28
592.936	0.29
593.127	0.3
593.317	0.34
593.508	0.27
593.698	0.28
593.889	0.33
594.079	0.29
594.269	0.29
594.46	0.33
594.65	0.33
594.84	0.32
595.031	0.29
595.221	0.34
595.411	0.31
595.602	0.37
595.792	0.38
595.982	0.34
596.172	0.43
596.363	0.4
596.553	0.41
596.743	0.41
596.933	0.41
597.123	0.44
597.314	0.42
597.504	0.41
597.694	0.49
597.884	0.45
598.074	0.46
598.264	0.48
598.454	0.49
598.644	0.48
598.834	0.53
599.024	0.45
599.214	0.51
599.404	0.54
599.594	0.57
599.784	0.54
599.974	0.58
600.164	0.6
600.354	0.56
600.544	0.54
600.734	0.63
600.924	0.65
601.114	0.6
601.303	0.64
601.493	0.66
601.683	0.65
601.873	0.7
602.063	0.65
602.252	0.74
602.442	0.67
602.632	0.71
602.821	0.71
603.011	0.76
603.201	0.77
603.39	0.76
603.58	0.74
603.77	0.82
603.959	0.85
604.149	0.87
604.339	0.86
604.528	0.88
604.718	0.89
604.907	0.92
605.097	0.95
605.286	0.89
605.476	0.96
605.665	1.01
605.855	1
606.044	1.07
606.234	1.04
606.423	1.04
606.612	1.03
606.802	1.09
606.991	1.12
607.181	1.13
607.37	1.09
607.559	1.13
607.749	1.16
607.938	1.2
608.127	1.19
608.316	1.24
608.506	1.25
608.695	1.29
608.884	1.24
609.073	1.32
609.263	1.37
609.452	1.42
609.641	1.4
609.83	1.33
610.019	1.49
610.208	1.42
610.397	1.55
610.586	1.55
610.775	1.54
610.965	1.6
611.154	1.59
611.343	1.67
611.532	1.66
611.721	1.71
611.91	1.76
612.099	1.78
612.287	1.76
612.476	1.8
612.665	1.94
612.854	1.89
613.043	1.98
613.232	1.97
613.421	1.98
613.61	2.06
613.798	2.08
613.987	2.2
614.176	2.2
614.365	2.24
614.554	2.29
614.742	2.33
614.931	2.31
615.12	2.49
615.309	2.42
615.497	2.48
615.686	2.47
615.875	2.57
616.063	2.64
616.252	2.72
616.44	2.75
616.629	2.77
616.818	2.8
617.006	2.85
617.195	2.88
617.383	2.94
617.572	3.01
617.76	3.03
617.949	3.15
618.137	3.21
618.326	3.3
618.514	3.26
618.703	3.28
618.891	3.45
619.079	3.4
619.268	3.62
619.456	3.56
619.644	3.68
619.833	3.57
620.021	3.7
620.209	3.73
620.398	3.83
620.586	3.8
620.774	4.02
620.962	4.02
621.151	4.13
621.339	4.12
621.527	4.1
621.715	4.14
621.903	4.21
622.092	4.22
622.28	4.38
622.468	4.26
622.656	4.45
622.844	4.44
623.032	4.58
623.22	4.52
623.408	4.65
623.596	4.65
623.784	4.78
623.972	4.63
624.16	4.68
624.348	4.79
624.536	4.86
624.724	4.79
624.912	4.83
625.1	4.92
625.288	4.93
625.476	4.85
625.664	4.89
625.851	4.92
626.039	4.92
626.227	4.89
626.415	4.9
626.603	4.81
626.79	4.87
626.978	4.85
627.166	4.84
627.354	4.75
627.541	4.77
627.729	4.63
627.917	4.77
628.104	4.72
628.292	4.6
628.48	4.59
628.667	4.48
628.855	4.51
629.042	4.42
629.23	4.28
629.418	4.24
629.605	4.18
629.793	4.1
629.98	4.09
630.168	3.95
630.355	3.9
630.543	3.82
630.73	3.67
630.917	3.56
631.105	3.61
631.292	3.47
631.48	3.4
631.667	3.35
631.854	3.2
632.042	3.11
632.229	2.96
632.416	2.93
632.604	2.83
632.791	2.65
632.978	2.69
633.165	2.56
633.353	2.44
633.54	2.44
633.727	2.31
633.914	2.23
634.101	2.09
634.289	2.18
634.476	2.05
634.663	1.92
634.85	1.91
635.037	1.78
635.224	1.68
635.411	1.76
635.598	1.63
635.785	1.56
635.972	1.47
636.159	1.49
636.346	1.36
636.533	1.37
636.72	1.28
636.907	1.26
637.094	1.21
637.281	1.1
637.468	1.13
637.655	1.07
637.842	1.09
638.029	1.03
638.215	0.99
638.402	0.97
638.589	0.87
638.776	0.89
638.963	0.82
639.149	0.85
639.336	0.86
639.523	0.75
639.709	0.75
639.896	0.69
640.083	0.73
640.27	0.69
640.456	0.63
640.643	0.65
640.829	0.52
641.016	0.58
641.203	0.53
641.389	0.55
641.576	0.54
641.762	0.5
641.949	0.47
642.135	0.5
642.322	0.49
642.508	0.42
642.695	0.47
642.881	0.37
643.068	0.36
643.254	0.41
643.441	0.41
643.627	0.35
643.813	0.34
644	0.4
644.186	0.3
644.372	0.35
644.559	0.34
644.745	0.31
644.931	0.27
645.118	0.31
645.304	0.28
645.49	0.25
645.676	0.27
645.862	0.23
646.049	0.28
646.235	0.25
646.421	0.3
646.607	0.27
646.793	0.21
646.979	0.18
647.165	0.23
647.352	0.23
647.538	0.24
647.724	0.19
647.91	0.21
648.096	0.19
648.282	0.22
648.468	0.16
648.654	0.17
648.84	0.14
649.026	0.16
649.212	0.15
649.397	0.13
649.583	0.1
649.769	0.13
649.955	0.12
650.141	0.15
650.327	0.2
650.513	0.1
650.698	0.12
650.884	0.04
651.07	0.12
651.256	0.11
651.442	0.09
651.627	0.1
651.813	0.1
651.999	0.09
652.184	0.1
652.37	0.08
652.556	0.07
652.741	0.12
652.927	0.04
653.113	0.08
653.298	0.11
653.484	0.04
653.669	0.03
653.855	0.12
654.04	0.09
654.226	0.1
654.412	0.04
654.597	0.02
654.782	0.09
654.968	0.07
655.153	0.09
655.339	0.02
655.524	0.03
655.71	0.05
655.895	-0.01
656.08	0.04
656.266	0.09
656.451	0.06
656.636	0.05
656.822	0.09
657.007	-0.01
657.192	0.04
657.378	-0
657.563	0.06
657.748	0.06
657.933	0.08
658.118	0.02
658.304	0.05
658.489	0.07
658.674	0.07
658.859	0
659.044	0.04
659.229	0.08
659.414	0
659.599	0.08
659.785	-0.04
659.97	0.03
660.155	0.06
660.34	0.03
660.525	0.03
660.71	0.02
660.895	0.05
661.08	0.01
661.264	0.02
661.449	0.07
661.634	0.08
661.819	0.05
662.004	0.08
662.189	-0.07
662.374	0.03
662.559	-0.01
662.743	-0.06
662.928	0.03
663.113	0.01
663.298	-0.04
663.483	0.03
663.667	0.05
663.852	-0.03
664.037	0.08
664.221	0.01
664.406	0.06
664.591	0.03
664.775	0.03
664.96	-0.01
665.145	0.04
665.329	0.02
665.514	-0.01
665.698	0.04
665.883	-0.04
666.068	0.06
666.252	-0
666.437	-0.02
666.621	0.04
666.806	0.01
666.99	0.02
667.174	-0.01
667.359	0.05
667.543	-0.03
667.728	-0.01
667.912	-0.05
668.096	0.02
668.281	0.01
668.465	-0.02
668.649	0.05
668.834	0.03
669.018	0.01
669.202	0.04
669.387	0
669.571	0.01
669.755	-0.02
669.939	0.03
670.124	0.02
670.308	0.06
670.492	-0.01
670.676	0.01
670.86	0.01
671.044	-0.02
671.228	0.05
671.413	-0.05
671.597	-0.01
671.781	-0.04
671.965	0.05
672.149	-0.01
672.333	0.01
672.517	-0.01
672.701	0.04
672.885	-0.01
673.069	-0.06
673.253	0.06
673.437	0.01
673.621	-0.02
673.804	-0.02
673.988	0.01
674.172	-0.01
674.356	-0.02
674.54	0.03
674.724	0.08
674.908	0.01
675.091	0.05
675.275	0.01
675.459	0.04
675.643	0.01
675.826	0.02
676.01	0.01
676.194	-0.02
676.377	0.02
676.561	0.03
676.745	0.02
676.928	0.03
677.112	0.07
677.296	-0.04
677.479	-0
677.663	-0
677.846	0.02
678.03	-0.01
678.213	-0.01
678.397	0
678.58	-0.01
678.764	-0.04
678.947	-0.04
679.131	-0.05
679.314	0.02
679.498	-0.01
679.681	-0.01
679.865	0.02
680.048	0.01
680.231	-0.02
680.415	-0
680.598	0.01
680.781	-0.02
680.965	0
681.148	0.02
681.331	-0.01
681.514	0.06
681.698	-0.01
681.881	0.03
682.064	-0
682.247	-0.01
682.43	-0.02
682.614	0.02
682.797	0.08
682.98	0.03
683.163	-0.02
683.346	0.03
683.529	-0.02
683.712	-0.03
683.895	0.03
684.078	-0.07
684.261	-0.01
684.444	0.04
684.627	0.05
684.81	-0.02
684.993	-0
685.176	0.01
685.359	-0.03
685.542	-0.06
685.725	0.06
685.908	0.05
686.091	-0.01
686.274	0.03
686.457	0.03
686.639	-0.04
686.822	0.04
687.005	-0.01
687.188	0.03
687.371	0.03
687.553	0.03
687.736	0.05
687.919	0.09
688.102	0.05
688.284	0.04
688.467	0
688.65	0.02
688.832	-0.03
689.015	-0.02
689.197	-0.03
689.38	0.09
689.563	0.06
689.745	-0.06
689.928	-0.01
690.11	0
690.293	0.02
690.475	-0.07
690.658	-0
690.84	0
691.023	-0.01
691.205	-0.01
691.388	-0.01
691.57	0.06
691.752	0.06
691.935	-0.08
692.117	-0.05
692.3	0.04
692.482	-0.02
692.664	0.01
692.847	0.06
693.029	0.08
693.211	0.02
693.393	0.01
693.576	0.01
693.758	-0
693.94	0.03
694.122	-0.06
694.304	-0.02
694.487	-0.02
694.669	0.05
694.851	0.04
695.033	0.05
695.215	-0
695.397	-0.05
695.579	0.05
695.761	-0.02
695.943	-0.11
696.125	0.1
696.308	0.02
696.49	-0.08
696.671	0.11
696.853	-0.05
697.035	0.15
697.217	0.03
697.399	0.09
697.581	-0.06
697.763	0.01
697.945	-0.05
698.127	0.02
698.309	0.07
698.491	-0.01
698.672	0.03
698.854	0.01
699.036	0.06
699.218	0.03
699.399	-0.01
699.581	0.04
699.763	-0.04
699.945	-0.03
700.126	-0.03
700.308	-0.05
700.49	-0.05
700.671	-0.09
700.853	-0.04
701.035	-0.01
701.216	-0.01
701.398	-0.04
701.579	0.05
701.761	0.03
701.943	-0.09
702.124	-0.06
702.306	-0.01
702.487	0.08
702.669	0.01
702.85	-0.04
703.031	-0.04
703.213	0.07
703.394	0.06
703.576	0.04
703.757	0.06
703.938	0.05
704.12	0.11
704.301	0.02
704.483	-0.01
704.664	0.09
704.845	0.1
705.026	0.01
705.208	-0.01
705.389	0.04
705.57	0.03
705.751	-0.04
705.933	0.04
706.114	0.1
706.295	0.03
706.476	-0.05
706.657	0.09
706.838	0.08
707.02	0.04
707.201	-0.07
707.382	0.02
707.563	0.06
707.744	-0.01
707.925	-0.05
708.106	-0.03
708.287	0.07
708.468	0.09
708.649	-0.01
708.83	0.04
709.011	-0.02
709.192	0.06
709.373	-0.02
709.554	-0.01
709.734	0.1
709.915	0.01
710.096	0.04
710.277	-0.11
710.458	0.04
710.639	-0.01
710.819	-0.11
711	0.03
711.181	0.07
711.362	0.07
711.542	0.04
711.723	-0.02
711.904	0.03
712.085	-0.01
712.265	0.06
712.446	-0
712.627	-0
712.807	-0.04
712.988	-0.06
713.168	-0
713.349	-0
713.53	-0.1
713.71	-0.08
713.891	-0.06
714.071	-0.01
714.252	0.02
714.432	-0.06
714.613	-0.05
714.793	-0.02
714.974	0.09
715.154	0.07
715.334	0.08
715.515	0.02
715.695	-0.09
715.876	-0
716.056	-0.1
716.236	-0
716.417	0.03
716.597	-0.05
716.777	0.09
716.957	0.06
717.138	-0.01
717.318	0.01
717.498	-0.14
717.678	0
717.859	-0.03
718.039	-0.04
718.219	0.05
718.399	0.13
718.579	-0.06
718.759	-0.05
718.939	0.07
719.12	0.04
719.3	0.05
719.48	-0.11
719.66	-0.12
719.84	0.06
720.02	-0.04
720.2	-0.06
720.38	-0.05
720.56	0.08
720.74	-0
720.92	0.07
721.1	0.05
721.279	0.06
721.459	-0
721.639	-0.07
721.819	-0.05
721.999	-0.06
722.179	-0.02
722.359	-0.1
722.538	0
722.718	-0
722.898	-0.05
723.078	-0.04
723.257	-0.07
723.437	0.05
723.617	0
723.797	-0
723.976	0.04
724.156	0.01
724.336	0.12
724.515	0.13
724.695	-0.1
724.874	-0.03
725.054	0.04
725.234	-0.07
725.413	0.04
725.593	-0.03
725.772	-0.08
725.952	-0.04
726.131	0.01
726.311	0.02
726.49	-0.07
726.67	-0.1
726.849	-0.06
727.028	-0.05
727.208	-0.01
727.387	-0.01
727.567	-0.09
727.746	-0.05
727.925	0.01
728.105	-0.15
728.284	0.01
728.463	-0.03
728.643	0.03
728.822	-0.03
729.001	-0.02
729.18	-0.02
729.359	0.03
729.539	-0
729.718	-0.01
729.897	0.07
730.076	0.05
730.255	-0.09
730.434	0.08
730.614	-0.03
730.793	0.04
730.972	0.05
731.151	-0.02
731.33	0.03
731.509	0.08
731.688	0.03
731.867	-0.08
732.046	-0.12
732.225	0.15
732.404	-0.06
732.583	-0.15
732.762	0.01
732.941	0.02
733.12	0.08
733.298	-0.05
733.477	0.05
733.656	-0.04
733.835	-0.07
734.014	0.14
734.193	-0.06
734.371	0.07
734.55	0.07
734.729	-0.11
734.908	0.07
735.086	-0.02
735.265	-0.03
735.444	-0.11
735.623	-0.08
735.801	-0.18
735.98	0.02
736.159	-0.06
736.337	-0.01
736.516	0.05
736.694	0.03
736.873	-0.06
737.052	0.1
737.23	0.12
737.409	-0.04
737.587	0.14
737.766	-0.15
737.944	-0.07
738.123	0.03
738.301	0.09
738.479	-0.09
738.658	0.1
738.836	-0.17
739.015	0.04
739.193	0.17
739.371	-0.03
739.55	-0.05
739.728	-0.03
739.906	0.15
740.085	0.06
740.263	0.03
740.441	-0.13
740.62	0.15
740.798	0.03
740.976	-0.09
741.154	-0.01
741.332	0.12
741.511	0.06
741.689	0.07
741.867	0.06
742.045	0.02
742.223	-0.06
742.401	-0.03
742.579	-0.11
742.757	0.05
742.935	-0.08
743.114	-0.07
743.292	-0.11
743.47	-0.04
743.648	-0.08
743.826	0.06
744.004	0.07
744.181	0.14
744.359	-0.01
744.537	-0.03
744.715	-0.08
744.893	0.04
745.071	-0.05
745.249	-0.08
745.427	-0.02
745.605	0.03
745.782	-0.04
745.96	0.13
746.138	0.11
746.316	0.1
746.493	-0.06
746.671	-0.01
746.849	-0
747.027	0.1
747.204	-0.06
747.382	0.04
747.56	-0.06
747.737	0.03
747.915	-0.09
748.093	0.05
748.27	-0.15
748.448	-0.06
748.625	-0.07
748.803	-0.04
748.98	-0.11
749.158	-0.03
749.335	0
749.513	-0.03
749.69	0.03
749.868	0.07
750.045	0.08
750.223	-0.05
750.4	-0.28
750.578	0.16
750.755	0.07
750.932	-0.15
751.11	0.05
751.287	-0.12
751.464	0.07
751.642	-0.04
751.819	0.05
751.996	-0.1
752.173	-0
752.351	-0.17
752.528	-0
752.705	-0.01
752.882	-0.19
753.06	0.01
753.237	0.09
753.414	0.07
753.591	0.18
753.768	0.06
753.945	-0.04
754.122	-0.04
754.299	0.09
754.476	-0.12
754.654	-0.04
754.831	0.06
755.008	-0
755.185	-0.04
755.362	-0.19
755.539	-0.01
755.716	-0.11
755.892	-0.01
756.069	0.06
756.246	-0.06
756.423	0
756.6	0.13
756.777	-0
756.954	0.08
757.131	-0.01
757.307	-0.2
757.484	-0.15
757.661	0.03
757.838	0.09
758.015	-0.04
758.191	-0.04
758.368	-0.02
758.545	0.09
758.721	0.01
758.898	-0.01
759.075	0.02
759.251	0.14
759.428	0.05
759.605	-0.11
759.781	-0.05
759.958	0.04
760.134	0.07
760.311	-0.08
760.488	0.13
760.664	0.09
760.841	-0.03
761.017	-0.06
761.194	0.07
761.37	0.08
761.547	-0.02
761.723	-0.02
761.899	0.21
762.076	-0.09
762.252	-0.09
762.429	-0.02
762.605	0.04
762.781	0
762.958	0.08
763.134	-0.13
763.31	-0.08
763.486	0.17
763.663	-0.19
763.839	0.17
764.015	-0.15
764.191	0.02
764.368	0.1
764.544	-0.06
764.72	-0.03
764.896	0.12
765.072	0.03
765.248	-0.02
765.425	-0.04
765.601	-0.01
765.777	0.02
765.953	-0.16
766.129	-0.07
766.305	-0.03
766.481	0
766.657	0.06
766.833	0.04
767.009	-0.16
767.185	-0.06
767.361	-0.05
767.537	-0.18
767.713	0.05
767.889	-0.08
768.065	-0.04
768.24	-0.22
768.416	0.03
768.592	-0.07
768.768	-0.02
768.944	0.01
769.12	-0.06
769.295	-0.12
769.471	-0.06
769.647	-0.14
769.823	0.04
769.998	-0.02
770.174	-0.05
770.35	0.26
770.525	0.22
770.701	0.01
770.877	-0.09
771.052	-0.06
771.228	0.03
771.403	0.06
771.579	0.01
771.755	0.19
771.93	-0.05
772.106	-0.11
772.281	-0.13
772.457	-0.08
772.632	0.03
772.808	-0.15
772.983	-0.01
773.159	-0.21
773.334	0.14
773.509	-0.08
773.685	-0.03
773.86	0.42
774.036	0.06
774.211	-0.02
774.386	-0.1
774.562	0.01
774.737	-0.07
774.912	-0.15
775.087	-0.01
775.263	0.24
775.438	0.09
775.613	-0.08
775.788	-0.01
775.964	0.08
776.139	0.36
776.314	-0.11
776.489	0.02
776.664	0.04
776.839	-0.15
777.014	0.1
777.19	0.17
777.365	0.03
777.54	0.16
777.715	-0.03
777.89	0.16
778.065	0
778.24	-0.06
778.415	0.09
778.59	-0.19
778.765	-0.23
778.94	0.01
779.115	-0.02
779.289	-0.07
779.464	0.02
779.639	-0.12
779.814	-0.11
779.989	-0.09
780.164	0.19
780.339	0.07
780.513	-0.18
780.688	-0.17
780.863	0.01
781.038	0.14
781.212	-0.17
781.387	0.06
781.562	0.27
781.737	-0.1
781.911	0.24
782.086	0
782.261	0.09
782.435	0.22
782.61	-0
782.784	-0.14
782.959	0.21
783.134	-0.12
783.308	-0.03
783.483	-0.05
783.657	0.42
783.832	0.1
784.006	-0.29
784.181	0.22
784.355	0.13
784.53	-0.29
784.704	-0.04
784.878	0.31
785.053	0.2
785.227	0.03
785.402	0.35
785.576	-0.32
785.75	-0.06
785.925	-0.12
786.099	0.15
786.273	-0.07
786.448	0.19
786.622	0.24
786.796	-0.21
786.97	-0.24
787.145	0.5
787.319	-0.38
787.493	-0.12
787.667	-0.26
787.841	0.01
788.015	0.02
788.19	0.03
788.364	-0.1
788.538	-0.04
788.712	0.18
788.886	-0.04
789.06	0.19
789.234	0.13
789.408	-0.37
789.582	-0.05
789.756	-0.09
789.93	-0.28
790.104	-0.02
790.278	-0.17
790.452	-0.13
790.626	0.09
790.8	-0.25
790.973	0.12
791.147	0.13
791.321	0.14
791.495	0.12
791.669	-0.04
791.843	0.21
792.016	0.22
792.19	0.32
792.364	-0.27
792.538	0.47
792.711	-0.02
792.885	-0.09
793.059	-0.12
793.233	-0.57
793.406	0.04
793.58	-0.06
793.754	-0.05
793.927	-0.03
794.101	0.34
794.274	-0.12
794.448	0.29
794.622	-0.16
794.795	0.18
794.969	-0.03
795.142	0.36
795.316	-0.18
795.489	-0.11
795.663	0.44
795.836	-0.06
796.009	-0.16
796.183	0.21
796.356	0.2
796.53	0.07
796.703	-0.14
796.876	0.34
797.05	-0.04
797.223	-0.09
797.396	0.2
797.57	0.31
797.743	0.31
797.916	-0.04
798.09	-0.16
798.263	0.27
798.436	0.08
798.609	-0.13
798.782	-0.01
798.956	-0.01
799.129	0.12
799.302	-0.18
799.475	-0.28
799.648	-0.07
799.821	-0.05
799.994	-0.02
800.167	-0.26
800.34	-0.06
800.514	0.17
800.687	-0.1
800.86	-0.12
801.033	-0.06
801.206	0.07
801.379	-0.38
801.551	0.3
801.724	-0.06
801.897	0.24
802.07	-0.05
802.243	-0.66
802.416	-0.29
802.589	-0.06
802.762	0.08
802.935	-0.1
803.107	0.08
803.28	0.22
803.453	0.17
803.626	-0.56
803.798	-0.06
803.971	0.01
804.144	0.07
804.317	0.06
804.489	0.27
804.662	0.01
804.835	0.05
805.007	-0.41
805.18	0.18
805.353	0.12
805.525	-0.49
805.698	-0.31
805.87	0.33
806.043	0.19
806.215	-0.01
806.388	-0.17
806.56	0.18
806.733	0.34
806.905	-0.05
807.078	-0.21
807.25	-0.24
807.423	0.14
807.595	0.06
807.768	-0.11
807.94	0.12
808.112	0.21
808.285	-0.1
808.457	-0.04
808.629	-0.05
808.802	0.19
808.974	0.08
809.146	-0.18
809.318	-0.46
809.491	-0.17
809.663	0.05
809.835	-0.4
810.007	0.33
810.18	-0.14
810.352	-0.21
810.524	-0.15
810.696	0.29
810.868	0.33
811.04	-0.02
811.212	-0.05
811.384	0.22
811.556	0.12
811.728	0.12
811.901	0.7
812.073	-0.28
812.245	0.3
812.417	-0.09
812.589	-0.33
812.76	-0.16
812.932	0.31
813.104	0.27
813.276	-0.11
813.448	0.02
813.62	-0.14
813.792	0.03
813.964	-0.15
814.136	0.32
814.307	-0.13
814.479	-0.2
814.651	-0.02
814.823	0.85
814.995	-0.17
815.166	-0.26
815.338	-0.16
815.51	-0.46
815.681	0.76
815.853	0.1
816.025	-0.01
816.196	0.24
816.368	0
816.54	-0.45
816.711	0.06
816.883	0.21
817.054	1.09
817.226	-0.59
817.398	0.32
817.569	-0.06
817.741	-0.02
817.912	0.04
818.084	-0.23
818.255	0.17
818.426	0.28
818.598	-0.1
818.769	-0.24
818.941	0.18
819.112	0.22
819.283	0.4
819.455	-0.42
819.626	0.09
819.798	0.4
819.969	0.15
820.14	-0.08
820.311	0.12
820.483	0.17
820.654	0.23
820.825	0.14
820.996	-0.26
821.168	-0.45
821.339	-0.21
821.51	-0.43
821.681	-0.33
821.852	0.16
822.023	-0.5
822.195	-0.71
822.366	0.38
822.537	-0.29
822.708	0.3
822.879	-0.26
823.05	1.09
823.221	-0.47
823.392	0.14
823.563	0.13
823.734	-0.58
823.905	0.28
824.076	-0.5
824.247	-0.03
824.418	-0.49
824.589	0.44
824.759	0.14
824.93	-0.2
825.101	-0.55
825.272	0.76
825.443	0.01
825.614	1.03
825.784	-1.21
825.955	1.23
826.126	1.13
826.297	0.39
826.467	0.46
826.638	0.89
826.809	-0.85
826.98	0.34
827.15	0.26
827.321	0.36
827.492	0.5
827.662	-0.09
827.833	0.85
828.003	0.19
828.174	-0.72
828.345	-0.72
828.515	1.19
828.686	0.25
828.856	0.34
829.027	0.14
829.197	0.49
829.368	0.09
829.538	-0.25
829.709	-0.71
829.879	0.07
830.049	0.26
830.22	-0.28
830.39	-0.07
830.56	0.83
830.731	-0.15
830.901	-0.87
831.072	0.11
831.242	-0.2
831.412	0.62
831.582	0.03
831.753	-0.29
831.923	0.45
832.093	-0.13
832.263	0.14
832.434	-0.36
832.604	-0.1
832.774	0.63
832.944	-0.27
833.114	-0.19
833.284	-0.26
833.454	-0.5
833.624	-0.26
833.795	-0.63
833.965	0.55
834.135	1.09
834.305	-1.36
834.475	-0.1
834.645	0.35
834.815	-0.13
834.985	-0.62
835.155	0.38
835.325	0.68
835.494	-0.39
835.664	-0.26
835.834	-0.36
836.004	-0.3
836.174	0.17
836.344	-0.5
836.514	-1
836.684	-0.29
836.853	-0.66
837.023	0.18
837.193	-0.13
837.363	0.7
837.532	0.41
837.702	0.07
837.872	-0.43
838.041	0.87
838.211	1.07
838.381	-0.46
838.55	-0.1
838.72	1.55
838.89	0.82
839.059	0.2
839.229	-0.87
839.398	0.85
839.568	0.19
839.738	-0.67
839.907	0.22
840.077	0.6
840.246	-0.85
840.416	-1.11
840.585	-0.73
840.755	1.17
840.924	1.45
841.093	-0.75
841.263	0.01
841.432	-0.05
841.602	-1.15
841.771	-1.08
841.94	-0.44
842.11	1.5
842.279	0.98
842.448	-1.15
842.617	-1.09
842.787	1.15
842.956	-0.82
843.125	-0.09
843.294	0.39
843.464	0.95
843.633	-0.37
843.802	-1.27
843.971	0.32
844.14	-0.27
844.309	1.2
844.479	-0.25
844.648	-1.23
844.817	-0.09
844.986	-0.24
845.155	0.32
845.324	-0.94
845.493	-0.07
845.662	-1.33
845.831	0.18
846	0.81
846.169	-0.4
846.338	1.47
846.507	0.17
846.676	1.16
846.844	-0.44
847.013	-0.03
847.182	0.29
847.351	-0.73
847.52	-0.1
847.689	0.44
847.858	-0.09
848.026	0.02
848.195	-0.47
848.364	-0.19
848.533	-0.53
848.701	-0.4
848.87	-0.04
849.039	0.31
849.207	0.99
849.376	1.15
849.545	1.17
849.713	-0.38
849.882	-0.07
850.051	-0.37
850.219	0.74
850.388	0.75
850.556	-0.54
850.725	0.19
850.893	0.27
851.062	-0.6
851.23	-0.01
851.399	-0.95
851.567	-0.39
851.736	-0.82
851.904	-1.23
852.073	-0.24
852.241	-0.03
852.41	0.43
852.578	-0.37
852.746	-0.52
852.915	1.24
853.083	-0.24
853.251	-0.75
853.42	-0.23
853.588	-0.1
853.756	0.99
853.924	0.51
854.093	-0.69
854.261	-0.41
854.429	-0.53
854.597	-0.35
854.765	-1.5
854.934	-0.8
855.102	1.05
855.27	-0.86
855.438	1.28
855.606	1.23
855.774	0.11
855.942	-1.28
856.11	-1.41
856.278	-0.34
856.446	0.79
856.614	0.62
856.782	-0.04
856.95	0.69
857.118	-0.11
857.286	0.12
857.454	0.28
857.622	0.23
857.79	0.22
857.958	-0.81
858.126	-0.58
858.294	-2.15
858.462	-0.47
858.629	-1.24
858.797	-0.39
858.965	0.27
859.133	0.76
859.301	-0.38
859.468	-0.06
859.636	-1.11
859.804	0.25
859.971	0.14
860.139	-0.68
860.307	-0.8
860.474	-0.68
860.642	-0.98
860.81	-0.14
860.977	-0.18
861.145	0.31
861.313	-0.14
861.48	-0.24
861.648	2
861.815	0.07
861.983	-0.97
862.15	-0.79
862.318	1.56
862.485	0.76
862.653	-0.76
862.82	-0.58
862.988	1.98
863.155	0.37
863.322	-1.23
863.49	-2.02
863.657	-0.12
863.824	3.46
863.992	-0.58
864.159	0.12
864.326	2.32
864.494	-0.66
864.661	1.97
864.828	-0.96
864.996	0.14
865.163	1.9
865.33	-0.67
865.497	-1.59
865.664	0.41
865.832	-3.24
865.999	0.38
866.166	0.49
866.333	-0.81
866.5	-0.81
866.667	0.39
866.834	-0.12
867.001	1.56
867.168	-3.04
867.335	1.17
867.502	-1.26
867.669	1.02
867.836	0.62
868.003	-0.06
868.17	1.25
868.337	1.13
868.504	2.27
868.671	-1.73
868.838	-2.02
869.005	1.33
869.172	-0.02
869.339	-0.07
869.505	-1.06
869.672	-1.92
869.839	1.66
870.006	0.34
870.173	-1.39
870.339	0.86
870.506	0.82
870.673	0.77
870.84	0.57
871.006	0.04
871.173	0.32
871.34	-1.01
871.506	-2.07
871.673	1.28
871.839	-2.44
872.006	-0.49
872.173	-0.58
872.339	-0.63
872.506	0.33
872.672	-1.05
872.839	-1.42
873.005	0.4
873.172	3.21
873.338	0.5
873.505	1.41
873.671	-0.15
873.838	0.49
874.004	-1.72
874.171	-1.71
874.337	1.86
874.503	-0.05
874.67	-1.36
874.836	-0.47
875.002	2.43
875.169	0.94
875.335	-0.79
875.501	-0.28
875.668	1.28
875.834	1.24
876	-0.41
876.166	1.18
876.332	0.28
876.499	2.54
876.665	0.29
876.831	-0.62
876.997	2.87
877.163	1.28
877.329	-0.77
877.495	0.75
877.662	0.27
877.828	0.6
877.994	0.11
878.16	-3.51
878.326	-0.61
878.492	0.44
878.658	-1.67
878.824	-1.58
878.99	2.12
879.156	-1.47
879.322	3.19
879.487	0.02
879.653	0.61
879.819	0.54
879.985	-2.01
880.151	-1.05
880.317	0.52
880.483	0.15
880.648	0.52
880.814	-1.46
880.98	1.46
881.146	-2.44
881.312	-2.72
881.477	-1.6
881.643	1.63
881.809	0.96
881.974	2.59
882.14	-2.44
882.306	-0.68
882.471	1.09
882.637	0.71
882.803	0.02
882.968	1.87
883.134	2.9
883.299	0.48
883.465	-0.71
883.63	1.66
883.796	0.91
883.961	2.58
884.127	-0.6
884.292	-4.2
884.458	-3.1
884.623	-3.1
