Data from Apollo_Calib_20240827__AbsoluteIrradiance__277__03-46-00-432.txt Node

Date: Wed Aug 28 03:46:00 BST 2024
User: biology
Spectrometer: FLMT08252
Trigger mode: 0
Integration Time (sec): 5.000000E-1
Scans to average: 5
Electric dark correction enabled: true
Nonlinearity correction enabled: false
Boxcar width: 0
XAxis mode: Wavelengths
Number of Pixels in Spectrum: 3648
>>>>>Begin Spectral Data<<<<<
179.588	-0
179.809	-0
180.03	-0
180.251	-0
180.473	-0
180.694	0
180.915	0
181.136	-0
181.357	0
181.578	-0
181.799	-0
182.02	-0
182.241	0
182.462	-0
182.683	0
182.904	-0
183.125	-0
183.346	0
183.567	0
183.788	0
184.009	-0
184.23	0
184.451	0
184.672	-0
184.892	-0
185.113	0
185.334	0
185.555	-0
185.776	-0
185.996	0
186.217	0
186.438	0
186.659	-0
186.879	0
187.1	-0
187.321	-0
187.541	-0
187.762	0
187.983	-0
188.203	0
188.424	0
188.644	0
188.865	0
189.086	0
189.306	0
189.527	0
189.747	0
189.968	-0
190.188	0
190.409	0
190.629	0
190.849	-0
191.07	-0
191.29	0
191.511	0
191.731	0
191.951	-0
192.172	0
192.392	0
192.612	0
192.833	0
193.053	0
193.273	0
193.493	-0
193.714	0
193.934	0
194.154	0
194.374	0
194.594	0
194.815	0
195.035	0
195.255	0
195.475	-0
195.695	0
195.915	0
196.135	-0
196.355	0
196.575	0
196.795	0
197.015	-0
197.235	-0
197.455	-0
197.675	0
197.895	0
198.115	0
198.335	0
198.555	0
198.775	0
198.995	0
199.214	0
199.434	0
199.654	-0
199.874	-0
200.094	1.46
200.313	-0.15
200.533	0.23
200.753	-0.64
200.973	1.25
201.192	1.1
201.412	-1.05
201.632	-0.18
201.851	1.12
202.071	0.08
202.291	0.23
202.51	-0.25
202.73	0.88
202.95	0.22
203.169	-0.49
203.389	0.02
203.608	0.03
203.828	-0.6
204.047	-0.24
204.267	0.27
204.486	0.52
204.706	0.58
204.925	0.44
205.145	-0.01
205.364	0.42
205.583	0.95
205.803	-0.02
206.022	-0.14
206.242	0.25
206.461	0.23
206.68	-0.04
206.9	0.21
207.119	0.66
207.338	0.74
207.557	-0.12
207.777	0.16
207.996	0.37
208.215	0.68
208.434	-0.1
208.654	-0.34
208.873	0.51
209.092	0.6
209.311	0.04
209.53	0.01
209.749	0.03
209.968	-0.04
210.187	0.14
210.407	-0.22
210.626	-0.03
210.845	0.54
211.064	0
211.283	-0.14
211.502	0.47
211.721	0.24
211.94	0.21
212.159	0.2
212.377	0.32
212.596	0.58
212.815	0.22
213.034	0.14
213.253	0.43
213.472	0.54
213.691	-0.05
213.91	-0.17
214.128	0.08
214.347	0.57
214.566	-0.15
214.785	-0.15
215.003	0.4
215.222	0.39
215.441	0.2
215.66	-0.2
215.878	0.14
216.097	0.4
216.316	0.05
216.534	0.17
216.753	0.25
216.972	-0.1
217.19	0.11
217.409	-0.19
217.627	0.19
217.846	-0.02
218.064	0.12
218.283	0
218.501	0.74
218.72	0.53
218.938	-0.04
219.157	0.02
219.375	0.23
219.594	0.27
219.812	-0.04
220.031	-0.11
220.249	0.47
220.467	0.52
220.686	-0.17
220.904	0.02
221.122	-0.02
221.341	0.56
221.559	0.05
221.777	-0.05
221.995	0.24
222.214	0.41
222.432	0.02
222.65	0.29
222.868	0.13
223.086	0.13
223.305	0.12
223.523	0.08
223.741	0.6
223.959	0.16
224.177	-0.1
224.395	-0.02
224.613	0.09
224.831	0.4
225.049	-0.1
225.267	0.04
225.485	0.09
225.703	0.16
225.921	-0.05
226.139	-0.07
226.357	0.23
226.575	0.19
226.793	-0.11
227.011	0.7
227.229	0.22
227.447	0.31
227.665	-0.04
227.883	-0.08
228.1	0.17
228.318	0.14
228.536	-0.19
228.754	-0.12
228.972	0.23
229.189	0.15
229.407	0.04
229.625	0.15
229.843	0.18
230.06	0.32
230.278	-0.06
230.496	0.09
230.713	0.15
230.931	0.3
231.149	0.03
231.366	-0.12
231.584	0.09
231.801	0.42
232.019	0.09
232.236	-0.07
232.454	-0.01
232.671	0.11
232.889	0.16
233.106	-0.1
233.324	0.11
233.541	0.14
233.759	0.01
233.976	-0.01
234.194	0.13
234.411	0.07
234.628	0.02
234.846	0.03
235.063	0.08
235.28	0.09
235.498	0.03
235.715	-0.1
235.932	0.2
236.149	0.14
236.367	-0.04
236.584	0.02
236.801	-0.06
237.018	0.18
237.236	0.01
237.453	-0.09
237.67	0.26
237.887	0.08
238.104	0.12
238.321	0
238.538	-0.06
238.755	0.19
238.973	-0
239.19	0.13
239.407	0.09
239.624	0.17
239.841	-0.01
240.058	0.01
240.275	0.12
240.492	0.06
240.709	0.06
240.925	-0.04
241.142	0
241.359	-0.07
241.576	-0.12
241.793	0.06
242.01	0.02
242.227	0.13
242.444	0.08
242.66	0.13
242.877	0.1
243.094	0.07
243.311	0.07
243.527	0.06
243.744	0.14
243.961	0.06
244.178	-0.04
244.394	0.05
244.611	0.22
244.828	0.35
245.044	-0.02
245.261	0.01
245.477	0.11
245.694	0.14
245.911	-0.05
246.127	0.07
246.344	0.25
246.56	0.11
246.777	0.11
246.993	0
247.21	0.1
247.426	0.11
247.643	-0
247.859	-0.03
248.076	0.06
248.292	0.21
248.508	0.02
248.725	0.08
248.941	0.14
249.157	0.22
249.374	0.02
249.59	0.11
249.806	0.06
250.023	0.07
250.239	0.05
250.455	0.07
250.671	0.03
250.888	0.06
251.104	0.15
251.32	0.01
251.536	0.09
251.752	0.09
251.969	0.13
252.185	0.02
252.401	0.3
252.617	0.18
252.833	0.11
253.049	0.07
253.265	0.1
253.481	0.13
253.697	-0.02
253.913	-0.08
254.129	0.08
254.345	0.15
254.561	0.05
254.777	0.11
254.993	0.11
255.209	0.08
255.425	0.07
255.641	-0.02
255.857	0.22
256.073	0.08
256.288	-0.08
256.504	0.04
256.72	0.14
256.936	0.09
257.152	-0.03
257.367	0.04
257.583	0.1
257.799	0.13
258.015	0.01
258.23	0.03
258.446	0.23
258.662	0.06
258.877	0.08
259.093	0.01
259.309	0.1
259.524	0.15
259.74	-0.05
259.955	-0.11
260.171	0.07
260.387	0.04
260.602	0.09
260.818	0.12
261.033	0.01
261.249	0.05
261.464	0.02
261.68	-0.1
261.895	0.09
262.11	0.11
262.326	0.02
262.541	-0.03
262.757	0.11
262.972	0.11
263.187	0.07
263.403	0.06
263.618	0.13
263.833	0.13
264.049	0.02
264.264	0.02
264.479	0.08
264.694	0.11
264.91	-0.09
265.125	0.08
265.34	0.15
265.555	0.25
265.77	0.08
265.986	0.06
266.201	0.03
266.416	0.17
266.631	-0.01
266.846	-0.02
267.061	0.11
267.276	0.13
267.491	-0.08
267.706	0.08
267.921	0.12
268.136	0.11
268.351	0.03
268.566	-0.04
268.781	0.19
268.996	0.13
269.211	0.03
269.426	-0.05
269.641	0.06
269.856	0.16
270.071	-0.01
270.285	-0.01
270.5	0.14
270.715	0.13
270.93	0.11
271.145	0.08
271.359	0.14
271.574	-0.04
271.789	0.06
272.004	-0
272.218	0.02
272.433	0.11
272.648	-0
272.862	0.08
273.077	0.08
273.292	0.07
273.506	0.02
273.721	0.06
273.936	0.13
274.15	0.15
274.365	0.01
274.579	0.08
274.794	0.09
275.008	0.14
275.223	-0.01
275.437	0.02
275.652	0.09
275.866	0.1
276.081	0.03
276.295	0.12
276.509	0.04
276.724	0.13
276.938	0.09
277.153	0.1
277.367	0.09
277.581	0.05
277.796	0.02
278.01	-0.05
278.224	0.17
278.438	0.12
278.653	-0.03
278.867	-0
279.081	-0.16
279.295	0.04
279.51	0.09
279.724	-0.06
279.938	0.07
280.152	0.04
280.366	-0.01
280.58	0.06
280.794	0.15
281.008	0.07
281.222	0.09
281.437	0.17
281.651	0.1
281.865	0.15
282.079	0.04
282.293	-0.05
282.507	0.03
282.721	0.09
282.935	0.08
283.148	-0.01
283.362	-0.02
283.576	-0
283.79	0.02
284.004	0.04
284.218	0.13
284.432	-0
284.646	0.02
284.859	0.01
285.073	0.03
285.287	0.03
285.501	0.04
285.714	0.05
285.928	0.07
286.142	0.05
286.356	-0.02
286.569	0.01
286.783	0.15
286.997	0.07
287.21	0.09
287.424	0.06
287.637	0.07
287.851	0.06
288.065	0.09
288.278	0.05
288.492	0.04
288.705	0.02
288.919	0.06
289.132	-0.08
289.346	0.13
289.559	-0.02
289.773	0.02
289.986	0.01
290.2	0.04
290.413	0.1
290.626	0.03
290.84	0.06
291.053	0.02
291.267	0.1
291.48	0.06
291.693	0.06
291.906	-0.02
292.12	0.05
292.333	0
292.546	0.01
292.76	0.13
292.973	0.05
293.186	0.13
293.399	0.03
293.612	0.11
293.826	0.04
294.039	0.03
294.252	0.04
294.465	0.08
294.678	0.03
294.891	0.07
295.104	-0.03
295.317	0
295.53	0.05
295.743	0.02
295.956	0.06
296.169	0.13
296.382	0.08
296.595	0.06
296.808	0.02
297.021	0.14
297.234	0.06
297.447	0.1
297.66	0.03
297.873	0.1
298.086	0.09
298.299	-0.03
298.511	-0.05
298.724	0.02
298.937	-0.01
299.15	0.06
299.363	0.05
299.575	0.1
299.788	0.1
300.001	0.07
300.213	-0.03
300.426	0.05
300.639	0.07
300.852	0
301.064	0.06
301.277	0.15
301.489	0.12
301.702	0.07
301.915	0.1
302.127	0.05
302.34	0.1
302.552	0.06
302.765	0.01
302.977	0.1
303.19	0.02
303.402	0.02
303.615	0.04
303.827	0.06
304.04	0.07
304.252	0.07
304.464	0.01
304.677	0.12
304.889	0.1
305.102	0.02
305.314	-0
305.526	0.06
305.739	0.1
305.951	0.02
306.163	0.03
306.375	0.16
306.588	0.03
306.8	0.02
307.012	-0.01
307.224	0.08
307.436	0.12
307.649	-0.04
307.861	0.05
308.073	0.1
308.285	0.01
308.497	-0.02
308.709	0.01
308.921	0.07
309.133	0.15
309.346	0.02
309.558	0.07
309.77	0.1
309.982	0.09
310.194	0.08
310.406	0.01
310.617	0.14
310.829	0.06
311.041	0.05
311.253	-0.01
311.465	0.06
311.677	0.09
311.889	0.04
312.101	-0
312.313	0.12
312.524	0.11
312.736	-0
312.948	0.06
313.16	0.16
313.372	0.11
313.583	0.06
313.795	0.03
314.007	0.03
314.218	0.1
314.43	0.05
314.642	0.03
314.853	-0.04
315.065	0.07
315.277	0.05
315.488	0.06
315.7	0.09
315.912	0.06
316.123	0.06
316.335	0.02
316.546	0.11
316.758	0.08
316.969	-0.01
317.181	0.03
317.392	0.04
317.604	0.11
317.815	0.03
318.026	-0.02
318.238	0.03
318.449	0.08
318.661	-0.04
318.872	-0.01
319.083	0.04
319.295	0.09
319.506	0.03
319.717	0.04
319.929	0.07
320.14	0.07
320.351	0.06
320.562	0.02
320.774	0.06
320.985	0.07
321.196	0.02
321.407	-0.02
321.618	0.1
321.829	0.06
322.041	0.08
322.252	0.08
322.463	0.08
322.674	0.06
322.885	0
323.096	0.03
323.307	0.05
323.518	0.02
323.729	0.03
323.94	0.05
324.151	0.02
324.362	0.02
324.573	0.02
324.784	0.02
324.995	0.1
325.206	0.06
325.417	0.03
325.628	0.05
325.838	0.06
326.049	0.05
326.26	0.09
326.471	0.04
326.682	0.1
326.892	0.05
327.103	-0.02
327.314	-0.02
327.525	0.12
327.735	0.09
327.946	0.06
328.157	0.01
328.368	0.09
328.578	0.04
328.789	0.09
328.999	0.05
329.21	0.08
329.421	0.07
329.631	0.02
329.842	0.04
330.052	0.07
330.263	0.05
330.473	0.11
330.684	0.03
330.894	0.05
331.105	0.07
331.315	0.05
331.526	0.01
331.736	0.13
331.947	0.08
332.157	0.08
332.367	-0.03
332.578	0.08
332.788	0.12
332.999	0.13
333.209	0.07
333.419	0
333.629	0.05
333.84	0.06
334.05	0.06
334.26	0.14
334.47	0.07
334.681	0.12
334.891	0.02
335.101	0.07
335.311	0.18
335.521	0.05
335.732	0.01
335.942	0.14
336.152	0.11
336.362	0.04
336.572	0.07
336.782	0.06
336.992	0.07
337.202	0.07
337.412	0.06
337.622	0.12
337.832	0.04
338.042	0.06
338.252	-0.01
338.462	0.08
338.672	0.07
338.882	0.01
339.092	0.04
339.302	0.1
339.511	0.07
339.721	0.04
339.931	0.02
340.141	0.12
340.351	0.12
340.561	0.05
340.77	0.08
340.98	0.05
341.19	0.11
341.4	0.01
341.609	-0.02
341.819	0.02
342.029	-0.03
342.238	0.09
342.448	0.03
342.658	0.09
342.867	0.04
343.077	0.04
343.286	0.07
343.496	0.04
343.706	0.09
343.915	0.01
344.125	0.1
344.334	0.12
344.544	-0.01
344.753	0.03
344.963	0.04
345.172	0.03
345.381	-0
345.591	-0.01
345.8	0.04
346.01	0.12
346.219	0.09
346.428	-0.09
346.638	0.09
346.847	0.06
347.056	0.12
347.266	0.01
347.475	0.04
347.684	0.1
347.893	0.1
348.103	0.04
348.312	0.08
348.521	0
348.73	0.06
348.94	0.05
349.149	0.04
349.358	0.07
349.567	0.06
349.776	0.02
349.985	0.04
350.194	0.07
350.403	0.12
350.612	-0.03
350.821	-0.01
351.03	0.04
351.239	0.04
351.448	0.06
351.657	0.04
351.866	0.14
352.075	0.09
352.284	0.13
352.493	-0
352.702	0.12
352.911	0.08
353.12	0.06
353.329	0.04
353.538	0.11
353.746	0.08
353.955	0
354.164	0.09
354.373	0.05
354.582	0.11
354.79	0.06
354.999	0.08
355.208	0.07
355.416	0.16
355.625	0.05
355.834	0.02
356.042	0.08
356.251	0
356.46	0.05
356.668	0.06
356.877	0.16
357.085	0.09
357.294	-0.01
357.503	0.06
357.711	0.03
357.92	0.19
358.128	0.1
358.337	0.06
358.545	0.1
358.754	0.04
358.962	0.11
359.17	0.04
359.379	0.1
359.587	0.1
359.796	0.05
360.004	0.11
360.212	0.13
360.421	0.16
360.629	0.05
360.837	0.07
361.046	0.14
361.254	0.15
361.462	0.05
361.67	0.04
361.879	0.09
362.087	0.17
362.295	0.07
362.503	0.06
362.711	0.02
362.92	0.07
363.128	0.02
363.336	0.03
363.544	0.04
363.752	0.05
363.96	0.04
364.168	0.05
364.376	0.06
364.584	0.07
364.792	0.1
365	0.1
365.208	0.06
365.416	0.1
365.624	0.08
365.832	0
366.04	0.14
366.248	0.08
366.456	0.06
366.664	0.07
366.872	0.05
367.079	0.08
367.287	0.07
367.495	0.11
367.703	0.06
367.911	0.03
368.118	0.08
368.326	0.07
368.534	0.06
368.742	0.13
368.949	0.03
369.157	0.05
369.365	0.06
369.572	0.06
369.78	0.03
369.988	0.1
370.195	0.07
370.403	0.11
370.61	0.04
370.818	0.09
371.026	0.13
371.233	0.05
371.441	0.06
371.648	0.03
371.856	0.12
372.063	0.09
372.271	0.03
372.478	0.05
372.685	0.03
372.893	0.14
373.1	0.09
373.308	0.05
373.515	0.15
373.722	0.09
373.93	0.02
374.137	0.1
374.344	0.15
374.552	0.13
374.759	0.16
374.966	0.1
375.173	0.07
375.381	0.12
375.588	0.05
375.795	0.04
376.002	0.08
376.209	0.07
376.417	0.08
376.624	0.04
376.831	0.1
377.038	0.08
377.245	-0.01
377.452	0.04
377.659	0.07
377.866	0.08
378.073	0.06
378.28	0.09
378.487	0.09
378.694	0.11
378.901	0.05
379.108	0.06
379.315	0.11
379.522	0.19
379.729	0.07
379.936	0.07
380.143	0.12
380.35	0.14
380.557	0.1
380.763	0.09
380.97	0.1
381.177	0.11
381.384	0.13
381.591	0.1
381.797	0.11
382.004	0.13
382.211	0.14
382.418	0.06
382.624	0.14
382.831	0.13
383.038	0.08
383.244	0.14
383.451	0.09
383.658	0.13
383.864	0.06
384.071	0.06
384.277	0.15
384.484	0.1
384.69	0.15
384.897	0.07
385.103	0.12
385.31	0.09
385.516	0.12
385.723	0.1
385.929	0.08
386.136	0.07
386.342	0.11
386.549	0.06
386.755	0.14
386.961	0.15
387.168	0.1
387.374	0.09
387.58	0.12
387.787	0.09
387.993	0.12
388.199	0.11
388.406	0.09
388.612	0.1
388.818	0.06
389.024	0.11
389.231	0.12
389.437	0.22
389.643	0.16
389.849	0.11
390.055	0.14
390.261	0.15
390.467	0.19
390.674	0.11
390.88	0.16
391.086	0.15
391.292	0.11
391.498	0.19
391.704	0.18
391.91	0.16
392.116	0.12
392.322	0.08
392.528	0.22
392.734	0.14
392.94	0.19
393.146	0.19
393.352	0.18
393.557	0.18
393.763	0.19
393.969	0.21
394.175	0.21
394.381	0.23
394.587	0.17
394.792	0.2
394.998	0.28
395.204	0.29
395.41	0.23
395.615	0.28
395.821	0.3
396.027	0.31
396.233	0.28
396.438	0.31
396.644	0.36
396.85	0.32
397.055	0.27
397.261	0.33
397.466	0.35
397.672	0.41
397.878	0.4
398.083	0.38
398.289	0.38
398.494	0.51
398.7	0.44
398.905	0.35
399.111	0.55
399.316	0.38
399.522	0.45
399.727	0.49
399.932	0.5
400.138	0.47
400.343	0.59
400.549	0.61
400.754	0.58
400.959	0.61
401.165	0.6
401.37	0.68
401.575	0.8
401.78	0.7
401.986	0.74
402.191	0.79
402.396	0.84
402.601	0.95
402.807	0.95
403.012	0.95
403.217	1.1
403.422	1.03
403.627	1.1
403.832	1.13
404.037	1.29
404.243	1.25
404.448	1.27
404.653	1.38
404.858	1.46
405.063	1.51
405.268	1.58
405.473	1.52
405.678	1.58
405.883	1.94
406.088	1.86
406.293	1.83
406.498	1.94
406.703	2.06
406.907	2.15
407.112	2.23
407.317	2.41
407.522	2.56
407.727	2.61
407.932	2.74
408.136	2.99
408.341	2.96
408.546	3.14
408.751	3.24
408.956	3.37
409.16	3.59
409.365	3.64
409.57	3.76
409.774	3.88
409.979	4.14
410.184	4.28
410.388	4.35
410.593	4.56
410.798	4.78
411.002	4.98
411.207	5.11
411.411	5.38
411.616	5.42
411.82	5.73
412.025	6.01
412.229	6.15
412.434	6.4
412.638	6.59
412.843	6.86
413.047	6.95
413.252	7.25
413.456	7.59
413.66	7.79
413.865	8.02
414.069	8.2
414.273	8.52
414.478	8.69
414.682	8.94
414.886	9.35
415.091	9.47
415.295	9.77
415.499	10.12
415.703	10.21
415.908	10.77
416.112	10.99
416.316	11.44
416.52	11.76
416.724	12
416.929	12.31
417.133	12.96
417.337	12.93
417.541	13.41
417.745	13.46
417.949	13.94
418.153	14.44
418.357	14.69
418.561	15.23
418.765	15.39
418.969	15.65
419.173	16.4
419.377	16.48
419.581	17.02
419.785	17.59
419.989	17.55
420.193	18.37
420.397	18.3
420.601	18.87
420.804	19.03
421.008	18.94
421.212	19.42
421.416	19.16
421.62	19.2
421.823	19.18
422.027	19.33
422.231	19.05
422.435	18.83
422.638	18.77
422.842	18.97
423.046	19.31
423.249	19.29
423.453	19.06
423.657	19.16
423.86	19.19
424.064	19.54
424.268	19.08
424.471	19.02
424.675	19.16
424.878	18.95
425.082	19.03
425.285	19.36
425.489	18.49
425.692	18.46
425.896	18
426.099	17.94
426.303	17.97
426.506	17.92
426.71	17.72
426.913	17.58
427.116	17.52
427.32	16.89
427.523	16.6
427.726	16.56
427.93	16.33
428.133	16.4
428.336	16.22
428.54	15.9
428.743	15.67
428.946	15.64
429.149	14.98
429.353	14.43
429.556	14
429.759	13.5
429.962	13.18
430.165	12.93
430.368	11.81
430.571	11.64
430.775	11.14
430.978	10.77
431.181	10.43
431.384	10.13
431.587	9.86
431.79	9.87
431.993	9.51
432.196	9.43
432.399	9.44
432.602	9.21
432.805	8.97
433.008	9.02
433.211	8.67
433.414	8.7
433.616	8.4
433.819	7.99
434.022	7.84
434.225	7.74
434.428	7.45
434.631	7.57
434.833	7.12
435.036	7.08
435.239	7.02
435.442	6.75
435.645	6.69
435.847	6.45
436.05	6.39
436.253	6.3
436.455	6.11
436.658	5.87
436.861	5.85
437.063	5.74
437.266	5.5
437.468	5.54
437.671	5.46
437.874	5.28
438.076	4.95
438.279	4.94
438.481	4.79
438.684	4.97
438.886	4.74
439.089	4.57
439.291	4.49
439.494	4.34
439.696	4.3
439.899	4.32
440.101	4.3
440.303	4.06
440.506	4.22
440.708	4.02
440.91	3.99
441.113	3.79
441.315	3.78
441.517	3.57
441.72	3.62
441.922	3.27
442.124	3.13
442.326	3.28
442.529	3.24
442.731	2.99
442.933	3.1
443.135	2.86
443.337	2.74
443.539	2.7
443.742	2.55
443.944	2.67
444.146	2.4
444.348	2.45
444.55	2.27
444.752	2.36
444.954	2.19
445.156	2.12
445.358	2.05
445.56	2.11
445.762	1.96
445.964	2
446.166	1.86
446.368	1.88
446.57	1.85
446.772	1.73
446.974	1.65
447.175	1.69
447.377	1.61
447.579	1.66
447.781	1.45
447.983	1.57
448.184	1.44
448.386	1.47
448.588	1.32
448.79	1.41
448.991	1.35
449.193	1.33
449.395	1.25
449.597	1.26
449.798	1.2
450	1.28
450.202	1.18
450.403	1.16
450.605	1.18
450.806	1.11
451.008	0.99
451.21	1.07
451.411	1.06
451.613	1.03
451.814	1
452.016	1.05
452.217	0.93
452.419	0.95
452.62	0.87
452.821	0.88
453.023	0.97
453.224	0.88
453.426	0.84
453.627	0.8
453.828	0.83
454.03	0.82
454.231	0.83
454.432	0.76
454.634	0.87
454.835	0.73
455.036	0.69
455.238	0.78
455.439	0.76
455.64	0.65
455.841	0.71
456.042	0.85
456.244	0.7
456.445	0.58
456.646	0.6
456.847	0.62
457.048	0.67
457.249	0.68
457.45	0.84
457.651	0.54
457.852	0.59
458.054	0.55
458.255	0.54
458.456	0.51
458.657	0.51
458.858	0.48
459.058	0.49
459.259	0.53
459.46	0.54
459.661	0.41
459.862	0.62
460.063	0.45
460.264	0.45
460.465	0.35
460.666	0.57
460.866	0.4
461.067	0.4
461.268	0.41
461.469	0.36
461.67	0.42
461.87	0.35
462.071	0.36
462.272	0.34
462.473	0.34
462.673	0.37
462.874	0.32
463.075	0.37
463.275	0.31
463.476	0.4
463.676	0.33
463.877	0.36
464.078	0.3
464.278	0.36
464.479	0.35
464.679	0.32
464.88	0.34
465.08	0.41
465.281	0.25
465.481	0.23
465.682	0.28
465.882	0.3
466.083	0.29
466.283	0.27
466.483	0.23
466.684	0.21
466.884	0.23
467.085	0.22
467.285	0.34
467.485	0.22
467.686	0.19
467.886	0.22
468.086	0.2
468.286	0.28
468.487	0.26
468.687	0.2
468.887	0.22
469.087	0.26
469.287	0.21
469.488	0.18
469.688	0.26
469.888	0.28
470.088	0.26
470.288	0.25
470.488	0.28
470.688	0.17
470.888	0.16
471.088	0.16
471.288	0.22
471.488	0.21
471.688	0.21
471.888	0.15
472.088	0.27
472.288	0.24
472.488	0.15
472.688	0.13
472.888	0.16
473.088	0.18
473.288	0.18
473.488	0.15
473.688	0.24
473.887	0.16
474.087	0.16
474.287	0.16
474.487	0.14
474.687	0.17
474.886	0.14
475.086	0.18
475.286	0.16
475.486	0.16
475.685	0.17
475.885	0.11
476.085	0.13
476.284	0.17
476.484	0.11
476.684	0.17
476.883	0.22
477.083	0.16
477.282	0.13
477.482	0.18
477.681	0.21
477.881	0.16
478.08	0.1
478.28	0.1
478.479	0.13
478.679	0.21
478.878	0.14
479.078	0.1
479.277	0.11
479.477	0.11
479.676	0.15
479.875	0.12
480.075	0.04
480.274	0.13
480.473	0.11
480.673	0.09
480.872	0.17
481.071	0.14
481.271	0.13
481.47	0.1
481.669	0.1
481.868	0.14
482.067	0.07
482.267	0.07
482.466	0.08
482.665	0.06
482.864	0.07
483.063	0.08
483.262	0.11
483.461	0.15
483.661	0.12
483.86	0.1
484.059	0.1
484.258	0.1
484.457	0.1
484.656	0.1
484.855	0.15
485.054	0.05
485.253	0.03
485.452	0.04
485.651	0.07
485.849	0.07
486.048	0.07
486.247	0.09
486.446	0.11
486.645	0.06
486.844	0.06
487.043	0.06
487.241	0.09
487.44	0.03
487.639	0.07
487.838	0.08
488.037	0.11
488.235	0.13
488.434	0.06
488.633	0.05
488.831	0.08
489.03	0.1
489.229	0.08
489.427	0.07
489.626	0.13
489.825	0.13
490.023	0.08
490.222	0.05
490.42	0.11
490.619	0.11
490.817	0.07
491.016	0.05
491.214	0.11
491.413	0.06
491.611	0.07
491.81	0.03
492.008	0.08
492.207	0.08
492.405	0.06
492.604	0.03
492.802	0.04
493	0.06
493.199	0.05
493.397	0.07
493.595	0.08
493.794	0.07
493.992	0.09
494.19	0.06
494.388	0.06
494.587	0.05
494.785	0.07
494.983	0.02
495.181	0.1
495.379	0.04
495.578	0.02
495.776	0.07
495.974	0.05
496.172	0.04
496.37	0.04
496.568	0.03
496.766	0.04
496.964	0.09
497.162	0.06
497.36	0.03
497.558	0.08
497.756	0.08
497.954	0.03
498.152	0.03
498.35	0.05
498.548	0.03
498.746	0.04
498.944	0.03
499.142	0.04
499.34	0.04
499.538	0.03
499.736	0.03
499.933	0.08
500.131	0.08
500.329	0.05
500.527	0.09
500.725	0.07
500.922	0.08
501.12	0.05
501.318	0.07
501.516	0.02
501.713	0.08
501.911	0.04
502.109	0.03
502.306	0.05
502.504	0.05
502.701	0.01
502.899	0.06
503.097	0.12
503.294	0.05
503.492	0.04
503.689	0.05
503.887	0.08
504.084	0.1
504.282	0.05
504.479	0.02
504.677	0.08
504.874	0.02
505.072	0.04
505.269	0.05
505.466	0.07
505.664	0.06
505.861	0.01
506.059	0.03
506.256	0.07
506.453	0.04
506.651	0.1
506.848	0.06
507.045	0.05
507.242	0.03
507.44	0.04
507.637	0.05
507.834	0.03
508.031	0.07
508.229	0.02
508.426	0.03
508.623	0.08
508.82	0.03
509.017	0.02
509.214	0.04
509.411	0.05
509.608	0.01
509.805	0.04
510.003	0.02
510.2	0.04
510.397	0.06
510.594	0.01
510.791	0.03
510.988	0.02
511.184	0.05
511.381	0.05
511.578	0.04
511.775	0.06
511.972	0.04
512.169	0.03
512.366	0.02
512.563	0.05
512.76	0.02
512.956	0.04
513.153	0
513.35	0.04
513.547	0.01
513.744	0.03
513.94	-0.01
514.137	0.08
514.334	0.06
514.53	0.03
514.727	0.04
514.924	0.07
515.12	0.05
515.317	0
515.514	0.02
515.71	0.03
515.907	0.03
516.103	0.04
516.3	0.06
516.497	0.04
516.693	0.06
516.89	0.03
517.086	0
517.283	0.06
517.479	0.04
517.676	0.04
517.872	0.03
518.068	0.04
518.265	0.02
518.461	0.02
518.658	0.01
518.854	0.04
519.05	0.02
519.247	0.02
519.443	0.03
519.639	0.03
519.836	0.04
520.032	0.03
520.228	0.03
520.424	0.08
520.621	0.05
520.817	0.03
521.013	0.04
521.209	0.04
521.405	0.08
521.601	0.05
521.798	0.04
521.994	0.09
522.19	0.03
522.386	-0.01
522.582	0.03
522.778	0.02
522.974	0.02
523.17	0.04
523.366	0.04
523.562	0.07
523.758	0.04
523.954	0
524.15	0.02
524.346	0.04
524.542	0
524.738	0.02
524.934	0.04
525.129	0.04
525.325	0.03
525.521	0.03
525.717	0.06
525.913	0.02
526.109	0.04
526.304	0.04
526.5	0.04
526.696	0.04
526.892	0.06
527.087	0.05
527.283	0.01
527.479	0.04
527.674	0.02
527.87	0.02
528.066	0.01
528.261	0.04
528.457	0.06
528.653	0.01
528.848	0.02
529.044	0.04
529.239	0.02
529.435	0.05
529.63	0.04
529.826	0.07
530.021	0.04
530.217	0.04
530.412	0.02
530.608	0.02
530.803	0.04
530.999	0
531.194	-0
531.389	0.03
531.585	-0.02
531.78	0.03
531.975	0.01
532.171	0.06
532.366	0.04
532.561	0.04
532.757	0
532.952	0.03
533.147	0.06
533.342	0.03
533.538	0.01
533.733	0.05
533.928	0.02
534.123	0.02
534.318	-0.02
534.513	0.02
534.709	0.05
534.904	0.02
535.099	0.01
535.294	0.04
535.489	0.01
535.684	0.03
535.879	0.02
536.074	0.06
536.269	0.01
536.464	0.03
536.659	0.01
536.854	0.03
537.049	0.04
537.244	0.03
537.439	0.03
537.634	0.05
537.828	0.05
538.023	0.02
538.218	-0.01
538.413	0.02
538.608	0.01
538.803	0.05
538.997	-0.02
539.192	0.04
539.387	0.05
539.582	0.04
539.776	0.03
539.971	0.03
540.166	0.02
540.36	-0
540.555	0.02
540.75	0.01
540.944	0.03
541.139	-0.01
541.334	0.02
541.528	0.05
541.723	0.04
541.917	0.01
542.112	-0.01
542.306	0.01
542.501	0.02
542.695	0.03
542.89	0.01
543.084	0.05
543.279	0.01
543.473	0.03
543.668	0.02
543.862	0.02
544.056	0.05
544.251	0.03
544.445	0.01
544.64	0.02
544.834	0
545.028	0.02
545.222	0.02
545.417	0.04
545.611	0.03
545.805	0.03
546	0.03
546.194	0.01
546.388	0.01
546.582	0.04
546.776	0.05
546.97	0.03
547.165	0.04
547.359	0.04
547.553	0.01
547.747	0.01
547.941	0.03
548.135	0.02
548.329	0.04
548.523	0.01
548.717	0.02
548.911	0.02
549.105	0.04
549.299	0
549.493	0.04
549.687	0.03
549.881	0.04
550.075	0.03
550.269	-0.02
550.463	0.04
550.657	0.03
550.85	0.03
551.044	-0
551.238	0.02
551.432	0
551.626	0
551.82	0.02
552.013	0.02
552.207	0.02
552.401	0.03
552.594	0.05
552.788	0.02
552.982	0.02
553.176	-0.01
553.369	0.02
553.563	0.03
553.756	-0.04
553.95	0.01
554.144	0.04
554.337	0.06
554.531	0.03
554.724	0.03
554.918	0.01
555.111	0.07
555.305	0.02
555.498	0.05
555.692	0.03
555.885	0
556.079	0.05
556.272	-0
556.466	0.08
556.659	0.01
556.852	0.02
557.046	-0.01
557.239	0.06
557.432	-0.02
557.626	-0.01
557.819	0.01
558.012	0.05
558.206	0.03
558.399	-0.01
558.592	0.03
558.785	0.04
558.979	0.04
559.172	0.01
559.365	0.06
559.558	0.03
559.751	0.04
559.944	0.02
560.138	0
560.331	0.02
560.524	0
560.717	0.01
560.91	0.03
561.103	0.04
561.296	0.03
561.489	0.03
561.682	0.02
561.875	0.07
562.068	0.01
562.261	0.03
562.454	0.07
562.647	0.02
562.84	0.05
563.032	0.01
563.225	0.02
563.418	0.01
563.611	0.01
563.804	0.02
563.997	-0
564.19	-0.02
564.382	0.02
564.575	0
564.768	0.02
564.961	0.01
565.153	0.01
565.346	0.05
565.539	0.04
565.731	0.03
565.924	0.06
566.117	0.04
566.309	0.02
566.502	0
566.695	0.01
566.887	0.03
567.08	-0.02
567.272	0.01
567.465	-0
567.657	0.01
567.85	0.04
568.042	0.03
568.235	0.06
568.427	0.01
568.62	0.01
568.812	0.02
569.005	0.01
569.197	-0.02
569.389	0.04
569.582	0.03
569.774	0.04
569.966	-0.03
570.159	0.02
570.351	0.05
570.543	-0
570.736	0.03
570.928	-0.01
571.12	0.02
571.312	-0.02
571.505	-0.02
571.697	0.06
571.889	0
572.081	0
572.273	-0
572.465	0.07
572.658	-0
572.85	0.01
573.042	0.01
573.234	0.01
573.426	0.08
573.618	-0.02
573.81	0.01
574.002	0.03
574.194	0.07
574.386	-0.03
574.578	-0.07
574.77	-0.01
574.962	0.01
575.154	-0
575.346	0.01
575.538	0.05
575.729	-0.02
575.921	-0
576.113	0.01
576.305	0.03
576.497	-0
576.689	0.02
576.88	-0
577.072	0.03
577.264	0.03
577.456	-0
577.647	-0.08
577.839	0
578.031	0.07
578.223	-0.02
578.414	-0.01
578.606	0.02
578.798	0.02
578.989	-0
579.181	0.03
579.372	0.03
579.564	0
579.755	0
579.947	0.01
580.139	0.03
580.33	-0.03
580.522	-0.01
580.713	-0.05
580.905	0.03
581.096	0.03
581.287	-0
581.479	-0
581.67	0.04
581.862	0.01
582.053	-0
582.244	-0.06
582.436	0.01
582.627	0.01
582.818	0
583.01	-0.03
583.201	0.02
583.392	0.05
583.583	0
583.775	0.02
583.966	-0.01
584.157	0.01
584.348	0.01
584.54	-0
584.731	0.02
584.922	0.02
585.113	-0
585.304	0.04
585.495	0.06
585.686	0.01
585.877	0.02
586.068	0.02
586.259	0.02
586.45	0.02
586.641	0.02
586.832	-0.06
587.023	0.02
587.214	0.01
587.405	0.01
587.596	-0.02
587.787	0.04
587.978	0.02
588.169	-0.01
588.36	-0.01
588.551	0.01
588.742	-0.01
588.932	0.02
589.123	0.03
589.314	0.04
589.505	0.08
589.696	0.02
589.886	-0.02
590.077	-0.01
590.268	0.03
590.458	-0.04
590.649	-0.04
590.84	0.02
591.03	-0
591.221	-0.04
591.412	-0.02
591.602	0.04
591.793	0.03
591.984	-0.03
592.174	0.01
592.365	0.08
592.555	0.01
592.746	0.01
592.936	0.04
593.127	0.03
593.317	0.04
593.508	-0.02
593.698	-0.02
593.889	0
594.079	0.03
594.269	0.03
594.46	-0
594.65	0.01
594.84	-0
595.031	-0.02
595.221	-0.02
595.411	-0.04
595.602	0.03
595.792	0.01
595.982	-0.01
596.172	0.06
596.363	0
596.553	0.01
596.743	0
596.933	0.03
597.123	0.07
597.314	-0.02
597.504	0
597.694	0.04
597.884	0.02
598.074	-0.01
598.264	-0.03
598.454	0.06
598.644	0.03
598.834	0.02
599.024	-0.05
599.214	0
599.404	0.02
599.594	-0.02
599.784	-0.01
599.974	0.07
600.164	0.04
600.354	-0.02
600.544	-0.03
600.734	0.03
600.924	0.05
601.114	0
601.303	0
601.493	0.01
601.683	0.01
601.873	0.03
602.063	-0.02
602.252	0.04
602.442	-0.04
602.632	-0.04
602.821	-0.01
603.011	0.02
603.201	0
603.39	-0.03
603.58	-0.01
603.77	0.01
603.959	0.05
604.149	0.02
604.339	-0.01
604.528	0.04
604.718	0.04
604.907	0
605.097	0
605.286	-0
605.476	0.01
605.665	0.02
605.855	-0.02
606.044	0.05
606.234	0.04
606.423	-0.01
606.612	-0.02
606.802	0.03
606.991	0.06
607.181	0.05
607.37	-0.03
607.559	0
607.749	-0.04
607.938	-0.01
608.127	0.01
608.316	-0
608.506	0.03
608.695	0.01
608.884	-0.01
609.073	0.01
609.263	0.03
609.452	0.02
609.641	0.03
609.83	-0.07
610.019	-0
610.208	-0
610.397	0.01
610.586	0.06
610.775	-0.02
610.965	-0.02
611.154	-0.01
611.343	0.01
611.532	-0.01
611.721	-0.02
611.91	-0.01
612.099	0.05
612.287	0.01
612.476	-0.01
612.665	-0.01
612.854	-0.02
613.043	0.07
613.232	-0
613.421	-0
613.61	0.01
613.798	-0.01
613.987	0.04
614.176	0
614.365	0.04
614.554	0.01
614.742	0.01
614.931	-0.02
615.12	0.03
615.309	0.02
615.497	0.03
615.686	0
615.875	0
616.063	0.03
616.252	-0.02
616.44	-0.03
616.629	0.02
616.818	0.06
617.006	-0.01
617.195	0.01
617.383	0.01
617.572	0.04
617.76	-0.03
617.949	-0.03
618.137	0.01
618.326	0.08
618.514	0.01
618.703	-0.02
618.891	0.07
619.079	-0.04
619.268	0.05
619.456	0.01
619.644	0.08
619.833	-0
620.021	-0.06
620.209	-0.03
620.398	0.02
620.586	0.06
620.774	0.05
620.962	0.02
621.151	0.04
621.339	-0.01
621.527	-0.02
621.715	-0.03
621.903	-0.03
622.092	-0.03
622.28	0.03
622.468	-0
622.656	-0
622.844	0.04
623.032	-0.03
623.22	-0.08
623.408	0.03
623.596	0
623.784	0.03
623.972	-0.02
624.16	-0.03
624.348	0.09
624.536	0.01
624.724	-0.02
624.912	0.06
625.1	0.04
625.288	-0.04
625.476	-0
625.664	0.04
625.851	-0.03
626.039	0
626.227	0.01
626.415	-0.02
626.603	-0.06
626.79	0.01
626.978	-0
627.166	0.03
627.354	0
627.541	0
627.729	-0.07
627.917	0.04
628.104	0.07
628.292	0.02
628.48	0.01
628.667	0.03
628.855	0.02
629.042	-0
629.23	-0.03
629.418	0.03
629.605	-0.01
629.793	-0.02
629.98	-0.02
630.168	-0.01
630.355	-0.01
630.543	0.01
630.73	-0.04
630.917	0.02
631.105	0.08
631.292	-0.01
631.48	0
631.667	0.11
631.854	0
632.042	0.02
632.229	-0.04
632.416	0.01
632.604	0.01
632.791	-0.05
632.978	0.03
633.165	0.04
633.353	0.06
633.54	0.04
633.727	-0.05
633.914	-0.01
634.101	-0.08
634.289	0.03
634.476	-0.01
634.663	-0.04
634.85	0.02
635.037	-0.07
635.224	-0.08
635.411	0.02
635.598	0.05
635.785	0.02
635.972	0
636.159	0.03
636.346	-0.01
636.533	-0.02
636.72	0
636.907	-0
637.094	0.02
637.281	-0.04
637.468	0.03
637.655	-0.01
637.842	0
638.029	-0.02
638.215	0.03
638.402	0.02
638.589	-0.04
638.776	0.02
638.963	-0.02
639.149	0.04
639.336	0.09
639.523	-0.02
639.709	0.02
639.896	0.01
640.083	0.04
640.27	0.03
640.456	-0.03
640.643	0.03
640.829	-0.06
641.016	-0.02
641.203	-0.02
641.389	0.07
641.576	0.03
641.762	-0.03
641.949	-0.05
642.135	0.05
642.322	0.03
642.508	-0.05
642.695	0
642.881	-0.01
643.068	-0.01
643.254	-0.02
643.441	0.05
643.627	0.01
643.813	-0.03
644	0.01
644.186	-0.03
644.372	-0.04
644.559	0.04
644.745	-0.01
644.931	-0.02
645.118	-0
645.304	0.04
645.49	-0.01
645.676	-0.01
645.862	-0.01
646.049	0.07
646.235	0.01
646.421	0.04
646.607	0.07
646.793	-0.03
646.979	-0.04
647.165	0.01
647.352	0.02
647.538	0.04
647.724	0
647.91	-0.01
648.096	0.04
648.282	0.07
648.468	-0.01
648.654	0.03
648.84	0.01
649.026	0.01
649.212	-0.01
649.397	-0.02
649.583	-0.05
649.769	0.02
649.955	0
650.141	0.02
650.327	0.07
650.513	-0.02
650.698	-0
650.884	-0.04
651.07	0.01
651.256	0.03
651.442	-0.01
651.627	0
651.813	0.03
651.999	0
652.184	0.02
652.37	0.01
652.556	-0.03
652.741	0.08
652.927	-0.07
653.113	-0.01
653.298	0.01
653.484	-0.01
653.669	-0.06
653.855	-0.03
654.04	0.03
654.226	0.03
654.412	-0.01
654.597	-0.04
654.782	0.02
654.968	0.05
655.153	0
655.339	-0.01
655.524	-0.01
655.71	0.02
655.895	-0.02
656.08	-0
656.266	0.05
656.451	0.03
656.636	-0.03
656.822	0.01
657.007	-0.02
657.192	-0
657.378	-0.07
657.563	0.01
657.748	0.01
657.933	0.01
658.118	0.01
658.304	-0.01
658.489	0.03
658.674	-0.01
658.859	-0.02
659.044	-0
659.229	0.03
659.414	-0.01
659.599	0.02
659.785	-0.05
659.97	0.01
660.155	0.02
660.34	0.02
660.525	-0
660.71	-0.02
660.895	0.02
661.08	0.01
661.264	-0.04
661.449	0.05
661.634	0.04
661.819	0.02
662.004	0.04
662.189	-0.09
662.374	0
662.559	-0.04
662.743	-0.02
662.928	0.01
663.113	-0.02
663.298	-0.04
663.483	0.01
663.667	0.02
663.852	-0.05
664.037	0.01
664.221	-0.01
664.406	0.05
664.591	0.03
664.775	0.02
664.96	0
665.145	0
665.329	0.01
665.514	-0.04
665.698	0
665.883	-0.09
666.068	0.07
666.252	0.01
666.437	-0.04
666.621	-0
666.806	0.05
666.99	0.01
667.174	-0.07
667.359	0.06
667.543	0.01
667.728	-0.01
667.912	-0.08
668.096	0.03
668.281	0
668.465	-0
668.649	-0.03
668.834	0.04
669.018	-0
669.202	-0.05
669.387	-0
669.571	0.02
669.755	-0.04
669.939	-0
670.124	-0
670.308	0.07
670.492	0.01
670.676	0.02
670.86	-0.01
671.044	-0.06
671.228	0.05
671.413	-0.03
671.597	-0.03
671.781	-0.01
671.965	0
672.149	-0.02
672.333	-0.06
672.517	-0.05
672.701	0.01
672.885	-0.04
673.069	-0.07
673.253	0.06
673.437	-0
673.621	-0.07
673.804	0.02
673.988	0.02
674.172	0
674.356	-0.06
674.54	-0.03
674.724	0.1
674.908	0.02
675.091	0.04
675.275	-0.01
675.459	0.05
675.643	0.08
675.826	0.01
676.01	0.02
676.194	-0
676.377	0.07
676.561	0.05
676.745	0.02
676.928	0.03
677.112	0.05
677.296	-0.07
677.479	0.01
677.663	-0.06
677.846	0.03
678.03	0.01
678.213	-0.04
678.397	0.02
678.58	-0
678.764	-0.03
678.947	-0.06
679.131	0.01
679.314	0.03
679.498	0
679.681	0.01
679.865	0.05
680.048	0.01
680.231	-0
680.415	-0.02
680.598	-0.01
680.781	-0.03
680.965	-0.03
681.148	-0
681.331	-0.01
681.514	0.01
681.698	-0.03
681.881	0.03
682.064	0.04
682.247	-0.01
682.43	-0.07
682.614	0.02
682.797	0.07
682.98	0.06
683.163	-0.07
683.346	0.02
683.529	-0.04
683.712	-0
683.895	-0.02
684.078	-0.04
684.261	-0.02
684.444	0.04
684.627	-0.01
684.81	-0.04
684.993	-0
685.176	0.04
685.359	-0.03
685.542	-0.05
685.725	0.08
685.908	-0
686.091	0.02
686.274	0.08
686.457	-0
686.639	-0.03
686.822	0.03
687.005	0.03
687.188	0.01
687.371	0.08
687.553	-0.02
687.736	0.01
687.919	0.1
688.102	0.09
688.284	-0.04
688.467	0.01
688.65	-0.04
688.832	-0.04
689.015	0.02
689.197	-0.03
689.38	0.15
689.563	0.09
689.745	-0.07
689.928	-0.03
690.11	-0.02
690.293	0.04
690.475	-0.04
690.658	0
690.84	-0.06
691.023	-0.03
691.205	-0.08
691.388	-0.03
691.57	0.05
691.752	0.04
691.935	-0.08
692.117	-0.04
692.3	-0.05
692.482	-0.01
692.664	-0.01
692.847	0.03
693.029	0.08
693.211	0.01
693.393	-0.01
693.576	-0.05
693.758	0.01
693.94	-0.01
694.122	-0
694.304	-0.01
694.487	0
694.669	0.07
694.851	-0.05
695.033	0.01
695.215	-0.07
695.397	0
695.579	0.02
695.761	0.01
695.943	-0.09
696.125	0.05
696.308	0.04
696.49	-0.09
696.671	0.15
696.853	-0.01
697.035	0.12
697.217	0.06
697.399	0.03
697.581	-0.08
697.763	-0
697.945	-0.02
698.127	-0.06
698.309	0.06
698.491	0
698.672	0.08
698.854	0.05
699.036	0.1
699.218	-0.02
699.399	0.04
699.581	0.06
699.763	0.04
699.945	-0.03
700.126	-0.03
700.308	0.02
700.49	-0.05
700.671	-0.12
700.853	-0.01
701.035	-0.05
701.216	0.04
701.398	-0.04
701.579	0.03
701.761	0.04
701.943	-0.01
702.124	-0.04
702.306	0
702.487	0.14
702.669	0.01
702.85	-0.04
703.031	-0.07
703.213	0.09
703.394	0.07
703.576	-0.06
703.757	0.11
703.938	0.04
704.12	0.24
704.301	0.02
704.483	-0.03
704.664	0.06
704.845	0.1
705.026	0.03
705.208	-0.02
705.389	0.04
705.57	0.01
705.751	0.01
705.933	-0.02
706.114	0.06
706.295	-0.06
706.476	-0.05
706.657	0.11
706.838	0.03
707.02	0.05
707.201	-0.01
707.382	-0.02
707.563	0.05
707.744	0.02
707.925	-0.03
708.106	-0.01
708.287	0.04
708.468	0.14
708.649	0
708.83	0.06
709.011	-0.04
709.192	0.06
709.373	-0.09
709.554	-0.05
709.734	0.06
709.915	0.09
710.096	0.05
710.277	-0.08
710.458	-0.01
710.639	0.04
710.819	-0.1
711	-0.01
711.181	0.1
711.362	0.02
711.542	0.02
711.723	-0.01
711.904	0.08
712.085	0.01
712.265	-0
712.446	-0.08
712.627	-0.03
712.807	-0.02
712.988	-0.01
713.168	-0.06
713.349	0.08
713.53	-0.12
713.71	-0.07
713.891	-0.1
714.071	0.01
714.252	-0.09
714.432	-0.07
714.613	-0.13
714.793	-0.05
714.974	0.07
715.154	0.03
715.334	0.03
715.515	0.07
715.695	-0.08
715.876	-0.06
716.056	-0.05
716.236	-0.08
716.417	-0.01
716.597	-0.07
716.777	0.1
716.957	-0
717.138	0.02
717.318	0.01
717.498	-0.12
717.678	-0
717.859	0.02
718.039	-0.15
718.219	0.11
718.399	0.07
718.579	-0.06
718.759	-0.11
718.939	0.02
719.12	0.03
719.3	-0.02
719.48	-0.09
719.66	-0.07
719.84	0.08
720.02	0.03
720.2	-0.05
720.38	-0.05
720.56	0.09
720.74	-0.01
720.92	0.07
721.1	0.15
721.279	0.1
721.459	0.04
721.639	-0.06
721.819	0.09
721.999	-0.04
722.179	0.03
722.359	-0.09
722.538	-0.02
722.718	-0.01
722.898	0.01
723.078	0.03
723.257	-0.06
723.437	0.03
723.617	-0.05
723.797	-0.02
723.976	0.04
724.156	0.04
724.336	0.07
724.515	0.12
724.695	-0.21
724.874	0.01
725.054	0.05
725.234	0.01
725.413	-0.01
725.593	0
725.772	-0.1
725.952	0.02
726.131	-0.04
726.311	-0.02
726.49	0.03
726.67	-0.09
726.849	-0.07
727.028	0.04
727.208	-0.01
727.387	0.04
727.567	-0.1
727.746	-0.06
727.925	0.02
728.105	-0.14
728.284	-0.04
728.463	-0.03
728.643	0.04
728.822	-0.03
729.001	-0.04
729.18	-0.03
729.359	0.03
729.539	0.01
729.718	-0.03
729.897	0.03
730.076	0
730.255	-0.09
730.434	0.05
730.614	0.03
730.793	0.1
730.972	-0.07
731.151	-0.01
731.33	0.13
731.509	0.09
731.688	0
731.867	0.06
732.046	-0.16
732.225	0.18
732.404	-0.09
732.583	-0.03
732.762	-0.08
732.941	0.04
733.12	0.04
733.298	-0.1
733.477	0.12
733.656	-0.02
733.835	-0.11
734.014	0.06
734.193	0.04
734.371	0.11
734.55	0.09
734.729	-0.16
734.908	0.09
735.086	-0.03
735.265	0.07
735.444	-0.12
735.623	-0.18
735.801	-0.14
735.98	0.04
736.159	-0.04
736.337	0.06
736.516	0.05
736.694	0.01
736.873	-0.02
737.052	0.07
737.23	0.13
737.409	-0.05
737.587	0.22
737.766	-0.18
737.944	-0.08
738.123	0.02
738.301	0.13
738.479	-0.08
738.658	0.01
738.836	-0.25
739.015	-0.05
739.193	0.11
739.371	-0.11
739.55	0.09
739.728	-0.12
739.906	0.11
740.085	0.1
740.263	-0.01
740.441	-0.23
740.62	0.22
740.798	0.09
740.976	-0.01
741.154	-0.13
741.332	0.14
741.511	0.02
741.689	0.02
741.867	0.01
742.045	0.06
742.223	-0.01
742.401	-0.04
742.579	-0.07
742.757	0.01
742.935	-0.13
743.114	-0.06
743.292	-0.04
743.47	0.04
743.648	0
743.826	-0.11
744.004	0.02
744.181	0.05
744.359	-0.03
744.537	0
744.715	-0
744.893	0
745.071	0.01
745.249	0.07
745.427	-0.14
745.605	0.09
745.782	-0.03
745.96	0.06
746.138	0.02
746.316	0.17
746.493	-0.01
746.671	-0
746.849	-0.01
747.027	0.09
747.204	-0.07
747.382	0.07
747.56	-0.05
747.737	-0.11
747.915	-0.08
748.093	0.07
748.27	-0.1
748.448	-0.03
748.625	-0.15
748.803	-0.05
748.98	-0.03
749.158	0.01
749.335	0.09
749.513	0.03
749.69	0.01
749.868	0.01
750.045	0.04
750.223	-0.11
750.4	-0.25
750.578	0.09
750.755	0.04
750.932	-0.15
751.11	0.09
751.287	-0.08
751.464	0.15
751.642	-0.12
751.819	0.02
751.996	0.07
752.173	-0.07
752.351	-0.16
752.528	0.06
752.705	0.03
752.882	-0.1
753.06	0.03
753.237	0.04
753.414	0.18
753.591	0.04
753.768	-0
753.945	-0.01
754.122	-0.13
754.299	0.1
754.476	-0.08
754.654	-0.02
754.831	0
755.008	0.08
755.185	-0.06
755.362	-0.12
755.539	0.14
755.716	0.01
755.892	-0.06
756.069	-0
756.246	-0.07
756.423	-0.07
756.6	0.15
756.777	-0.04
756.954	0.17
757.131	0.03
757.307	0.02
757.484	-0.22
757.661	-0.05
757.838	0
758.015	-0.11
758.191	0.08
758.368	0.1
758.545	0.07
758.721	0.04
758.898	-0.07
759.075	0.04
759.251	0.01
759.428	0.12
759.605	-0.16
759.781	-0.01
759.958	0.15
760.134	-0.01
760.311	-0.13
760.488	0.09
760.664	0.16
760.841	-0
761.017	-0.09
761.194	0.08
761.37	0.28
761.547	0.08
761.723	-0.08
761.899	0.15
762.076	0.01
762.252	-0.1
762.429	0.03
762.605	0.19
762.781	-0.12
762.958	0.07
763.134	0
763.31	-0.02
763.486	0.27
763.663	-0.2
763.839	0.09
764.015	-0.22
764.191	-0.06
764.368	-0.03
764.544	-0.04
764.72	0.03
764.896	0.03
765.072	-0.01
765.248	0.05
765.425	-0.04
765.601	0.03
765.777	0.07
765.953	-0.18
766.129	-0.18
766.305	-0.2
766.481	-0.03
766.657	0.08
766.833	0.17
767.009	-0.05
767.185	-0.13
767.361	-0.12
767.537	-0.14
767.713	0.15
767.889	-0.03
768.065	-0.08
768.24	-0.17
768.416	0.14
768.592	-0.07
768.768	-0.05
768.944	0.01
769.12	-0.17
769.295	-0.11
769.471	-0.02
769.647	-0.15
769.823	0.03
769.998	-0.08
770.174	-0.13
770.35	0.39
770.525	0.15
770.701	-0.1
770.877	0.05
771.052	-0.07
771.228	0.04
771.403	0.05
771.579	0.07
771.755	0.28
771.93	-0.15
772.106	-0.03
772.281	-0.2
772.457	-0.02
772.632	0.2
772.808	-0.05
772.983	-0.17
773.159	-0.12
773.334	0.18
773.509	-0.01
773.685	-0.17
773.86	0.22
774.036	0.26
774.211	0.08
774.386	-0.15
774.562	-0.02
774.737	0.14
774.912	-0.19
775.087	-0.02
775.263	0.08
775.438	0
775.613	-0.07
775.788	0.05
775.964	0.12
776.139	0.28
776.314	-0.24
776.489	-0.02
776.664	0.13
776.839	-0.24
777.014	0.2
777.19	0.08
777.365	0.1
777.54	0.22
777.715	-0.17
777.89	0.06
778.065	-0.08
778.24	0.04
778.415	0.09
778.59	-0.2
778.765	-0.07
778.94	-0.02
779.115	-0.09
779.289	-0.06
779.464	0.03
779.639	0.05
779.814	-0.25
779.989	-0.13
780.164	0.13
780.339	-0.02
780.513	-0.15
780.688	-0.16
780.863	0.09
781.038	0.13
781.212	-0.18
781.387	0.09
781.562	0.26
781.737	-0.02
781.911	0.29
782.086	-0.07
782.261	-0.01
782.435	0.32
782.61	-0.03
782.784	-0.07
782.959	0.25
783.134	-0.13
783.308	-0.21
783.483	-0.14
783.657	0.42
783.832	0.32
784.006	-0.27
784.181	0.05
784.355	0.23
784.53	-0.18
784.704	-0.29
784.878	0.51
785.053	0.35
785.227	0.26
785.402	0.44
785.576	-0.23
785.75	-0.03
785.925	-0.06
786.099	0.05
786.273	0.14
786.448	-0.01
786.622	0.04
786.796	-0.18
786.97	-0.08
787.145	0.71
787.319	-0.06
787.493	-0.11
787.667	-0.44
787.841	0.15
788.015	0.26
788.19	-0.18
788.364	0.09
788.538	0.04
788.712	0.17
788.886	-0.01
789.06	0.21
789.234	0.08
789.408	-0.27
789.582	-0.1
789.756	0.09
789.93	-0.19
790.104	0.06
790.278	-0.21
790.452	-0.08
790.626	0.07
790.8	-0.14
790.973	0.18
791.147	0.46
791.321	0.42
791.495	0.42
791.669	0.02
791.843	-0.02
792.016	0.04
792.19	0.43
792.364	-0.26
792.538	0.58
792.711	0.29
792.885	-0.09
793.059	-0.23
793.233	-0.55
793.406	0.25
793.58	0.15
793.754	0.06
793.927	-0.11
794.101	0.13
794.274	-0.08
794.448	0.34
794.622	-0.12
794.795	0.33
794.969	-0.24
795.142	0.28
795.316	-0.24
795.489	0.15
795.663	0.43
795.836	0.07
796.009	-0.3
796.183	0.51
796.356	0.03
796.53	0.1
796.703	0.14
796.876	0.63
797.05	-0.06
797.223	-0.14
797.396	-0.13
797.57	-0.01
797.743	0.47
797.916	-0.07
798.09	0.05
798.263	0.12
798.436	-0.1
798.609	-0
798.782	-0
798.956	0.1
799.129	-0.05
799.302	-0.19
799.475	-0.32
799.648	-0.27
799.821	-0.19
799.994	0.17
800.167	-0.32
800.34	0.01
800.514	0.09
800.687	0.03
800.86	0.15
801.033	0.13
801.206	0.07
801.379	-0.13
801.551	0.23
801.724	0.31
801.897	0.6
802.07	-0.35
802.243	-0.59
802.416	-0.07
802.589	0.09
802.762	0.16
802.935	0.18
803.107	-0.22
803.28	0.34
803.453	0.4
803.626	-0.05
803.798	-0.22
803.971	-0
804.144	0.17
804.317	0.09
804.489	0.29
804.662	0.17
804.835	0.17
805.007	-0.46
805.18	0.58
805.353	0.01
805.525	-0.5
805.698	-0.25
805.87	0.4
806.043	0.42
806.215	-0.09
806.388	-0.29
806.56	0.13
806.733	0.43
806.905	0.01
807.078	0.01
807.25	0.07
807.423	0.29
807.595	-0.08
807.768	0.05
807.94	0.14
808.112	-0.01
808.285	0.01
808.457	-0.19
808.629	0.01
808.802	0.36
808.974	-0.15
809.146	-0.56
809.318	-0.33
809.491	0.22
809.663	0.3
809.835	0.28
810.007	0.07
810.18	0.25
810.352	-0.38
810.524	-0.13
810.696	0.25
810.868	0.49
811.04	-0.02
811.212	-0.4
811.384	0.37
811.556	0.07
811.728	0.15
811.901	0.77
812.073	0.02
812.245	-0.09
812.417	0.1
812.589	-0.6
812.76	0.18
812.932	0.14
813.104	0.27
813.276	-0.18
813.448	0.33
813.62	0.15
813.792	-0.02
813.964	-0.06
814.136	-0.12
814.307	-0.19
814.479	-0.33
814.651	-0.31
814.823	0.68
814.995	0.03
815.166	0.34
815.338	-0.21
815.51	-0.59
815.681	0.79
815.853	-0.09
816.025	-0.53
816.196	0.61
816.368	0.38
816.54	-0.69
816.711	-0.03
816.883	0.39
817.054	0.87
817.226	-0.67
817.398	0.12
817.569	-0.26
817.741	0.28
817.912	-0.19
818.084	0.05
818.255	0.32
818.426	-0.28
818.598	-0.31
818.769	-0.36
818.941	0.53
819.112	0.64
819.283	0.18
819.455	-0.23
819.626	0.12
819.798	0.31
819.969	0.04
820.14	-0.25
820.311	-0.11
820.483	0.07
820.654	-0.01
820.825	-0.03
820.996	-0
821.168	-0.43
821.339	-0.35
821.51	-0.47
821.681	0.01
821.852	0.16
822.023	-0.53
822.195	-0.98
822.366	0.47
822.537	-0.13
822.708	0.09
822.879	-0.23
823.05	0.57
823.221	-0.14
823.392	-0.21
823.563	-0.19
823.734	0.1
823.905	-0.27
824.076	-0.13
824.247	-0.19
824.418	-0.12
824.589	0.67
824.759	-0.57
824.93	-0.33
825.101	-0.69
825.272	0.7
825.443	0.42
825.614	0.89
825.784	-0.87
825.955	1.09
826.126	0.34
826.297	-0.56
826.467	0.5
826.638	1.01
826.809	-0.72
826.98	0.24
827.15	0.51
827.321	-0.3
827.492	0.6
827.662	0.05
827.833	0.77
828.003	0.14
828.174	0.11
828.345	-0.67
828.515	0.45
828.686	0.33
828.856	-0.45
829.027	0.3
829.197	-0.23
829.368	0.61
829.538	-0.11
829.709	-0.57
829.879	-0.13
830.049	0.34
830.22	-0.32
830.39	-0.07
830.56	0.34
830.731	0.17
830.901	-0.64
831.072	0.42
831.242	0.96
831.412	0.42
831.582	-0.56
831.753	-0.58
831.923	0.78
832.093	0.16
832.263	0.09
832.434	-0.23
832.604	0.33
832.774	-0.58
832.944	0.1
833.114	-0.6
833.284	0.47
833.454	-0.11
833.624	-0.08
833.795	0.07
833.965	1.35
834.135	1.15
834.305	-0.95
834.475	-0.89
834.645	0.53
834.815	0.48
834.985	-0.4
835.155	-0.2
835.325	0.85
835.494	0.24
835.664	-0.55
835.834	-0.32
836.004	0.47
836.174	0.38
836.344	0.35
836.514	-0.44
836.684	-0.3
836.853	0.17
837.023	0.3
837.193	-0.53
837.363	0.94
837.532	0.59
837.702	0.16
837.872	-0.38
838.041	0.24
838.211	0.91
838.381	-1.52
838.55	-0.32
838.72	1.49
838.89	1.01
839.059	-0.18
839.229	-0.71
839.398	1.33
839.568	0.05
839.738	-0.1
839.907	1.14
840.077	0.83
840.246	-0.69
840.416	-0.82
840.585	-1.07
840.755	1.75
840.924	0.63
841.093	-0.29
841.263	-0.39
841.432	-0.08
841.602	-0.69
841.771	-0.36
841.94	-0.37
842.11	1.49
842.279	1.65
842.448	-0.04
842.617	-0.33
842.787	1.07
842.956	-1.12
843.125	-0.91
843.294	0.22
843.464	0.68
843.633	-0.43
843.802	-1.32
843.971	-0.23
844.14	0.21
844.309	0.24
844.479	0.05
844.648	-0.62
844.817	-1.57
844.986	-0.36
845.155	-0.92
845.324	-0.59
845.493	-0.27
845.662	-0.76
845.831	0.87
846	0.46
846.169	0.35
846.338	1.18
846.507	0.31
846.676	0.29
846.844	-0.85
847.013	0.62
847.182	0.22
847.351	-0.23
847.52	0.12
847.689	0.82
847.858	-0.45
848.026	-0.68
848.195	-0.68
848.364	-0.83
848.533	-1.04
848.701	-0.36
848.87	-0.06
849.039	1.11
849.207	0.59
849.376	1.11
849.545	1.25
849.713	-0.24
849.882	-0.42
850.051	-0.22
850.219	-0.02
850.388	0.84
850.556	-0.98
850.725	-0.97
850.893	-0.67
851.062	-0.16
851.23	0.7
851.399	-0.67
851.567	0.08
851.736	0.32
851.904	-1.41
852.073	0.52
852.241	1.17
852.41	-0.44
852.578	0.32
852.746	-0.14
852.915	0.06
853.083	0.89
853.251	-1.41
853.42	-0.89
853.588	0.66
853.756	1.21
853.924	-0.69
854.093	0.03
854.261	-0.39
854.429	-0.73
854.597	-0.18
854.765	-1.93
854.934	0.73
855.102	1.42
855.27	-0.46
855.438	0.13
855.606	1.24
855.774	2
855.942	-1.19
856.11	-2.07
856.278	0.27
856.446	0.18
856.614	-0.06
856.782	-0.82
856.95	0.89
857.118	0.04
857.286	0.68
857.454	-1.1
857.622	1.73
857.79	0.36
857.958	-1.1
858.126	-0.71
858.294	-2.39
858.462	-0.2
858.629	-0.48
858.797	-1.23
858.965	0.66
859.133	0.08
859.301	-1.29
859.468	0.76
859.636	-0.03
859.804	1.57
859.971	1.12
860.139	-1.1
860.307	0.72
860.474	0.34
860.642	-1.6
860.81	-0.44
860.977	0.16
861.145	1.05
861.313	-1.65
861.48	0.21
861.648	1
861.815	-0.21
861.983	-0.53
862.15	0.28
862.318	0.8
862.485	0.33
862.653	-0.58
862.82	-1.72
862.988	1.75
863.155	-1.38
863.322	-0.53
863.49	-2.05
863.657	-0.54
863.824	2.17
863.992	0.92
864.159	0.34
864.326	-0.17
864.494	-0.67
864.661	2.88
864.828	-1.41
864.996	1.74
865.163	1.35
865.33	-0.84
865.497	-2.64
865.664	-0.87
865.832	-1.05
865.999	-1.16
866.166	-0.88
866.333	-1.65
866.5	0.49
866.667	0.05
866.834	-0.59
867.001	0.75
867.168	-2.61
867.335	0.35
867.502	-1.83
867.669	0.53
867.836	2.78
868.003	-0.27
868.17	0.9
868.337	-0.54
868.504	3.44
868.671	-1.05
868.838	-1.49
869.005	0.7
869.172	-0.24
869.339	-0.51
869.505	-0.97
869.672	-0.97
869.839	1.68
870.006	-0.26
870.173	-0.42
870.339	-0.81
870.506	2.06
870.673	-1.3
870.84	0.39
871.006	0.64
871.173	0.34
871.34	1.22
871.506	-2.77
871.673	2.58
871.839	-1.36
872.006	0.58
872.173	-0.85
872.339	1.81
872.506	2.06
872.672	-0.02
872.839	-2.47
873.005	1.67
873.172	3.54
873.338	2.6
873.505	0.51
873.671	1.12
873.838	0.65
874.004	-1.95
874.171	-1.12
874.337	0.47
874.503	1.61
874.67	-2.07
874.836	0.27
875.002	2.41
875.169	1.54
875.335	-0.48
875.501	-0.5
875.668	1.4
875.834	0.21
876	0.79
876.166	0.58
876.332	-0.44
876.499	3.6
876.665	-2.33
876.831	0.1
876.997	3.54
877.163	0.95
877.329	-0.45
877.495	0.12
877.662	0.85
877.828	-0.12
877.994	0.19
878.16	-2
878.326	-1.62
878.492	-0.19
878.658	-0.64
878.824	0.6
878.99	2.47
879.156	-0.34
879.322	2.14
879.487	-1.56
879.653	-0.14
879.819	-0.03
879.985	-0.57
880.151	-1.78
880.317	1.51
880.483	-1.54
880.648	-0.27
880.814	-2.43
880.98	1.34
881.146	-2.65
881.312	-0.25
881.477	-0.05
881.643	-0.5
881.809	0.12
881.974	1.63
882.14	-2.84
882.306	1.5
882.471	2.1
882.637	0.05
882.803	1.38
882.968	3.28
883.134	3.13
883.299	0.8
883.465	-0.34
883.63	2.73
883.796	0.51
883.961	0.22
884.127	-0.04
884.292	-4.67
884.458	-2.72
884.623	-2.72
