Data from Apollo_Calib_20240827__AbsoluteIrradiance__680__10-29-02-411.txt Node

Date: Wed Aug 28 10:29:02 BST 2024
User: biology
Spectrometer: FLMT08252
Trigger mode: 0
Integration Time (sec): 5.000000E-1
Scans to average: 5
Electric dark correction enabled: true
Nonlinearity correction enabled: false
Boxcar width: 0
XAxis mode: Wavelengths
Number of Pixels in Spectrum: 3648
>>>>>Begin Spectral Data<<<<<
179.588	-0
179.809	-0
180.03	-0
180.251	-0
180.473	-0
180.694	0
180.915	0
181.136	-0
181.357	0
181.578	-0
181.799	-0
182.02	0
182.241	-0
182.462	-0
182.683	0
182.904	-0
183.125	-0
183.346	0
183.567	0
183.788	-0
184.009	-0
184.23	0
184.451	0
184.672	0
184.892	-0
185.113	0
185.334	0
185.555	-0
185.776	0
185.996	0
186.217	0
186.438	0
186.659	0
186.879	0
187.1	0
187.321	-0
187.541	-0
187.762	0
187.983	0
188.203	0
188.424	0
188.644	0
188.865	0
189.086	0
189.306	0
189.527	0
189.747	0
189.968	-0
190.188	0
190.409	0
190.629	0
190.849	-0
191.07	0
191.29	0
191.511	0
191.731	-0
191.951	-0
192.172	0
192.392	-0
192.612	0
192.833	0
193.053	0
193.273	0
193.493	0
193.714	0
193.934	0
194.154	0
194.374	0
194.594	0
194.815	0
195.035	0
195.255	0
195.475	0
195.695	0
195.915	0
196.135	0
196.355	0
196.575	0
196.795	0
197.015	-0
197.235	0
197.455	-0
197.675	0
197.895	-0
198.115	-0
198.335	0
198.555	-0
198.775	0
198.995	0
199.214	0
199.434	-0
199.654	-0
199.874	0
200.094	1.37
200.313	0.72
200.533	0.21
200.753	0.19
200.973	0.82
201.192	0.72
201.412	-0.53
201.632	0.12
201.851	0.98
202.071	-0.27
202.291	-0.23
202.51	-0.22
202.73	0.35
202.95	0.21
203.169	-0.12
203.389	-0.07
203.608	0.43
203.828	-0.41
204.047	-0.09
204.267	0.35
204.486	0.1
204.706	0.12
204.925	0.48
205.145	0.42
205.364	0.82
205.583	1.15
205.803	0.33
206.022	0.16
206.242	0.09
206.461	0.2
206.68	-0.02
206.9	0.2
207.119	0.64
207.338	0.74
207.557	0.09
207.777	0.31
207.996	0.01
208.215	0.8
208.434	-0.23
208.654	-0.02
208.873	0.33
209.092	0.9
209.311	-0.1
209.53	0.17
209.749	0.1
209.968	-0.25
210.187	-0.07
210.407	-0
210.626	-0.11
210.845	0.41
211.064	0.24
211.283	-0.25
211.502	0.5
211.721	0.25
211.94	0.14
212.159	0.24
212.377	0.39
212.596	0.42
212.815	0.02
213.034	0.32
213.253	0.39
213.472	0.42
213.691	0.07
213.91	0.02
214.128	0.09
214.347	0.46
214.566	-0.09
214.785	-0.14
215.003	0.16
215.222	0.11
215.441	0.2
215.66	-0.12
215.878	0.27
216.097	0.35
216.316	0.1
216.534	0.01
216.753	0.1
216.972	-0.06
217.19	0.04
217.409	-0
217.627	0.03
217.846	0.11
218.064	0.18
218.283	-0.09
218.501	0.59
218.72	0.23
218.938	-0.11
219.157	-0.16
219.375	0.41
219.594	0.26
219.812	0.01
220.031	0.03
220.249	0.38
220.467	0.26
220.686	0.09
220.904	-0.1
221.122	-0.06
221.341	0.29
221.559	0.16
221.777	-0.05
221.995	0.18
222.214	0.29
222.432	0.07
222.65	0.17
222.868	0.21
223.086	0.19
223.305	0.29
223.523	0.03
223.741	0.4
223.959	0.02
224.177	-0.13
224.395	-0.06
224.613	0.05
224.831	0.27
225.049	-0.08
225.267	0.08
225.485	0.12
225.703	-0.02
225.921	0.04
226.139	0.03
226.357	0.11
226.575	0.09
226.793	0.13
227.011	0.58
227.229	0.07
227.447	0.16
227.665	0.09
227.883	0.06
228.1	0.13
228.318	0.22
228.536	-0.21
228.754	-0.07
228.972	-0.02
229.189	0.27
229.407	0.03
229.625	0.02
229.843	0.19
230.06	0.2
230.278	0.06
230.496	0.06
230.713	0.01
230.931	0.24
231.149	0.04
231.366	-0.08
231.584	0.03
231.801	0.44
232.019	0.05
232.236	0
232.454	-0.09
232.671	0.18
232.889	-0.02
233.106	-0.04
233.324	0.05
233.541	0.16
233.759	0.07
233.976	-0.02
234.194	0.09
234.411	0.1
234.628	0.05
234.846	-0.02
235.063	0.09
235.28	0.1
235.498	0.03
235.715	-0.01
235.932	0.21
236.149	0.08
236.367	-0.06
236.584	0.21
236.801	0.02
237.018	0.12
237.236	0.11
237.453	-0.1
237.67	0.1
237.887	-0.08
238.104	0.05
238.321	-0.05
238.538	-0.02
238.755	0.13
238.973	-0.11
239.19	0.06
239.407	0.11
239.624	0.09
239.841	-0.06
240.058	0.04
240.275	0.07
240.492	0.03
240.709	0.04
240.925	0.1
241.142	0.04
241.359	0
241.576	-0.08
241.793	-0.08
242.01	0.01
242.227	0.13
242.444	0.13
242.66	0.23
242.877	0.13
243.094	0.11
243.311	0.05
243.527	0.1
243.744	0.05
243.961	0.18
244.178	-0.06
244.394	0.11
244.611	0.12
244.828	0.21
245.044	0.01
245.261	0.07
245.477	0.13
245.694	0.01
245.911	-0.06
246.127	0.05
246.344	0.19
246.56	0.1
246.777	0.07
246.993	0.07
247.21	0.07
247.426	0.17
247.643	-0
247.859	-0.08
248.076	-0.05
248.292	0.27
248.508	-0.01
248.725	0.14
248.941	0.1
249.157	0.18
249.374	0.08
249.59	0.03
249.806	0.03
250.023	0.09
250.239	-0.03
250.455	0
250.671	0.03
250.888	0.12
251.104	0.07
251.32	0.05
251.536	0.07
251.752	0
251.969	0.01
252.185	0.05
252.401	0.19
252.617	0.08
252.833	0.05
253.049	0.07
253.265	0.01
253.481	0.1
253.697	0.05
253.913	0.04
254.129	0.06
254.345	0.02
254.561	0.05
254.777	0.1
254.993	0.08
255.209	0.14
255.425	0.03
255.641	-0.02
255.857	0.1
256.073	0.12
256.288	-0.09
256.504	-0.01
256.72	0.08
256.936	0.19
257.152	0.03
257.367	0.03
257.583	0.01
257.799	0.1
258.015	-0
258.23	0.07
258.446	0.24
258.662	0.03
258.877	0.04
259.093	0.02
259.309	0.07
259.524	0.13
259.74	-0.03
259.955	-0.1
260.171	0.04
260.387	0.1
260.602	0.12
260.818	0.08
261.033	-0.01
261.249	0.06
261.464	-0.03
261.68	-0.03
261.895	0.07
262.11	0.08
262.326	-0.03
262.541	-0.03
262.757	0.16
262.972	0.08
263.187	0.06
263.403	0.01
263.618	0.13
263.833	0.09
264.049	0.01
264.264	0.06
264.479	0.06
264.694	0.16
264.91	0.03
265.125	0.05
265.34	0.11
265.555	0.21
265.77	0.07
265.986	0.04
266.201	0.04
266.416	0.15
266.631	0.03
266.846	0.1
267.061	0.09
267.276	0.13
267.491	-0.06
267.706	0.07
267.921	0.12
268.136	0.07
268.351	0.02
268.566	0.01
268.781	0.1
268.996	0.11
269.211	0.04
269.426	-0.03
269.641	-0.03
269.856	0.07
270.071	0.05
270.285	0.01
270.5	0.09
270.715	0.1
270.93	-0.01
271.145	0.04
271.359	0.03
271.574	-0.01
271.789	0.02
272.004	0.01
272.218	0.01
272.433	0.15
272.648	-0.05
272.862	0.08
273.077	0.05
273.292	0.05
273.506	0.01
273.721	0
273.936	0.07
274.15	0.1
274.365	-0.03
274.579	0.08
274.794	0.09
275.008	0.06
275.223	-0.01
275.437	0.07
275.652	0.12
275.866	0.05
276.081	0.01
276.295	0.06
276.509	0.04
276.724	0.03
276.938	0.03
277.153	0.07
277.367	0.08
277.581	-0.02
277.796	-0.03
278.01	-0.04
278.224	0.07
278.438	0.14
278.653	-0.01
278.867	0.05
279.081	-0.11
279.295	0.02
279.51	0.06
279.724	-0.04
279.938	0.09
280.152	0.09
280.366	0.03
280.58	0.08
280.794	0.12
281.008	0.08
281.222	0.12
281.437	0.15
281.651	0.03
281.865	0.11
282.079	0.02
282.293	-0.01
282.507	0.01
282.721	0.03
282.935	0.04
283.148	-0.03
283.362	0.01
283.576	-0.05
283.79	0.06
284.004	-0
284.218	0.06
284.432	0.06
284.646	0.05
284.859	-0
285.073	-0.02
285.287	0.03
285.501	0.01
285.714	0.08
285.928	0.04
286.142	0.01
286.356	0.06
286.569	0.04
286.783	0.13
286.997	0.07
287.21	0.09
287.424	0.04
287.637	0.06
287.851	0.04
288.065	0.12
288.278	0.01
288.492	0.08
288.705	0.02
288.919	0.06
289.132	0.01
289.346	0.13
289.559	-0.01
289.773	-0.05
289.986	0.07
290.2	0.02
290.413	0.06
290.626	0.06
290.84	0.01
291.053	0.03
291.267	0.08
291.48	0.02
291.693	0.06
291.906	-0.03
292.12	0
292.333	0.06
292.546	0.01
292.76	0.07
292.973	0.07
293.186	0.07
293.399	0.01
293.612	0.11
293.826	-0
294.039	0.04
294.252	0.06
294.465	0.05
294.678	0.06
294.891	0.09
295.104	0.03
295.317	0.04
295.53	0.02
295.743	0.03
295.956	0.03
296.169	0.1
296.382	0.07
296.595	0.02
296.808	0
297.021	0.07
297.234	0.09
297.447	0.06
297.66	0.05
297.873	0.09
298.086	0.08
298.299	-0
298.511	-0.01
298.724	-0.01
298.937	0
299.15	0.03
299.363	0.05
299.575	0.08
299.788	0.07
300.001	0.03
300.213	-0.06
300.426	0.02
300.639	0.02
300.852	-0.01
301.064	0.1
301.277	0.08
301.489	0.08
301.702	0.08
301.915	0.07
302.127	0.05
302.34	0.07
302.552	0.04
302.765	-0
302.977	0.11
303.19	0.02
303.402	0.04
303.615	0.02
303.827	0.02
304.04	0.01
304.252	0.07
304.464	0.02
304.677	0.12
304.889	0.09
305.102	-0.04
305.314	0.01
305.526	0.03
305.739	0.1
305.951	-0.02
306.163	0.05
306.375	0.1
306.588	0.02
306.8	0.02
307.012	0.01
307.224	0.08
307.436	0.11
307.649	-0.02
307.861	0.03
308.073	0.09
308.285	0.04
308.497	-0.03
308.709	0.02
308.921	-0
309.133	0.1
309.346	0
309.558	0.02
309.77	0.05
309.982	0.11
310.194	0.05
310.406	0.03
310.617	0.11
310.829	0.02
311.041	0.05
311.253	-0.03
311.465	0.04
311.677	0.01
311.889	0.05
312.101	0.02
312.313	0.07
312.524	0.11
312.736	0.04
312.948	-0.01
313.16	0.13
313.372	0.06
313.583	0.03
313.795	0
314.007	-0.04
314.218	0.05
314.43	0.05
314.642	0.02
314.853	-0.08
315.065	0.03
315.277	0.03
315.488	0.04
315.7	0.08
315.912	0.07
316.123	0.03
316.335	0
316.546	0.13
316.758	0.02
316.969	0.01
317.181	0.03
317.392	0.02
317.604	0.09
317.815	0.01
318.026	0
318.238	0
318.449	0.01
318.661	-0.03
318.872	-0.04
319.083	-0
319.295	0.01
319.506	0
319.717	0.04
319.929	0.01
320.14	0.06
320.351	0.02
320.562	0.03
320.774	-0
320.985	0.05
321.196	-0.01
321.407	-0.01
321.618	0.04
321.829	0.05
322.041	0.07
322.252	0.05
322.463	0.04
322.674	0.07
322.885	-0.03
323.096	0.01
323.307	0.02
323.518	0
323.729	0.02
323.94	-0.04
324.151	0.03
324.362	0.03
324.573	0.06
324.784	-0.01
324.995	0.07
325.206	0.06
325.417	-0.01
325.628	-0.01
325.838	0.02
326.049	0.01
326.26	0.06
326.471	0
326.682	0.08
326.892	-0
327.103	-0.03
327.314	-0.06
327.525	0.1
327.735	0.03
327.946	-0.01
328.157	-0.01
328.368	0.05
328.578	0.02
328.789	0.08
328.999	0.01
329.21	0.06
329.421	0.07
329.631	0
329.842	0
330.052	0.04
330.263	0.09
330.473	0.07
330.684	0.02
330.894	0.05
331.105	0.03
331.315	0.01
331.526	-0.01
331.736	0.08
331.947	0.06
332.157	0.05
332.367	0.01
332.578	0.05
332.788	0.03
332.999	0.03
333.209	0.02
333.419	-0.05
333.629	0.08
333.84	0.02
334.05	0.03
334.26	0.05
334.47	0.07
334.681	0.1
334.891	0.01
335.101	0.07
335.311	0.11
335.521	0.04
335.732	0
335.942	0.11
336.152	0.05
336.362	0.06
336.572	0.01
336.782	0.05
336.992	0
337.202	0.02
337.412	-0.03
337.622	0.05
337.832	0.02
338.042	0.04
338.252	-0.02
338.462	0.01
338.672	0.05
338.882	0.03
339.092	-0.03
339.302	0.09
339.511	0.09
339.721	0.03
339.931	0.02
340.141	0.09
340.351	0.08
340.561	0.05
340.77	0.06
340.98	0.05
341.19	-0
341.4	0.01
341.609	-0.02
341.819	-0.03
342.029	-0.03
342.238	0.04
342.448	-0.03
342.658	0.04
342.867	0.06
343.077	0.05
343.286	0.04
343.496	0.05
343.706	0.07
343.915	-0.02
344.125	-0.01
344.334	0.05
344.544	-0.04
344.753	0.03
344.963	-0
345.172	-0
345.381	0.01
345.591	-0
345.8	0.02
346.01	0.1
346.219	0.07
346.428	-0.09
346.638	0.03
346.847	0.04
347.056	0.13
347.266	0.03
347.475	-0
347.684	0.08
347.893	0.04
348.103	0.01
348.312	0.04
348.521	0.02
348.73	0.06
348.94	0.04
349.149	-0
349.358	0.04
349.567	0.02
349.776	-0.03
349.985	0.01
350.194	0.06
350.403	0.08
350.612	-0.03
350.821	0.06
351.03	0.04
351.239	-0.02
351.448	0.01
351.657	-0.03
351.866	0.11
352.075	0.01
352.284	0.11
352.493	-0.03
352.702	0.03
352.911	0.05
353.12	0.02
353.329	-0.02
353.538	0.05
353.746	0.05
353.955	-0.02
354.164	0.05
354.373	0
354.582	0.09
354.79	0.04
354.999	0.07
355.208	0.03
355.416	0.11
355.625	-0.04
355.834	0
356.042	0.01
356.251	-0
356.46	0
356.668	0.06
356.877	0.08
357.085	0.04
357.294	-0.06
357.503	0.05
357.711	0.02
357.92	0.09
358.128	0.07
358.337	0.01
358.545	0.02
358.754	0.01
358.962	0.05
359.17	-0.01
359.379	0.05
359.587	-0.01
359.796	0.01
360.004	0.04
360.212	0.05
360.421	0.07
360.629	-0.01
360.837	0
361.046	0.09
361.254	0.11
361.462	-0.01
361.67	0
361.879	0.03
362.087	0.07
362.295	0.05
362.503	-0.01
362.711	0
362.92	0
363.128	0.02
363.336	0.02
363.544	-0.05
363.752	0.02
363.96	-0
364.168	-0.01
364.376	0.04
364.584	0.01
364.792	0.08
365	0.03
365.208	0.04
365.416	0.04
365.624	0.04
365.832	-0.02
366.04	0.07
366.248	0.02
366.456	0.07
366.664	0.04
366.872	0
367.079	0.02
367.287	0.05
367.495	0.03
367.703	0.05
367.911	0.03
368.118	0.03
368.326	-0.02
368.534	-0.02
368.742	0.1
368.949	-0.04
369.157	-0
369.365	0.06
369.572	-0
369.78	-0.01
369.988	0.06
370.195	0.08
370.403	0.06
370.61	0
370.818	0.07
371.026	0.07
371.233	0
371.441	0.04
371.648	0.05
371.856	0.02
372.063	0.05
372.271	0.01
372.478	0.01
372.685	0.01
372.893	0.04
373.1	0.02
373.308	0.01
373.515	0.06
373.722	0.09
373.93	0.04
374.137	0.05
374.344	0.09
374.552	0.02
374.759	0.07
374.966	0.01
375.173	0.05
375.381	0.12
375.588	0.02
375.795	-0.04
376.002	0.03
376.209	-0.02
376.417	0.05
376.624	0.02
376.831	0.05
377.038	-0
377.245	-0.02
377.452	0.01
377.659	0
377.866	0.01
378.073	-0.03
378.28	0.02
378.487	0.06
378.694	0.01
378.901	0.01
379.108	0.02
379.315	0.05
379.522	0.08
379.729	0.02
379.936	0.02
380.143	0.04
380.35	0.02
380.557	0.03
380.763	-0
380.97	0.05
381.177	0.06
381.384	0.02
381.591	-0.02
381.797	0.03
382.004	0.03
382.211	0.04
382.418	-0.01
382.624	0.08
382.831	0.03
383.038	0.04
383.244	0.01
383.451	-0.02
383.658	0.09
383.864	-0
384.071	0.02
384.277	0.09
384.484	-0.02
384.69	0.06
384.897	-0
385.103	0
385.31	-0.01
385.516	-0
385.723	-0.01
385.929	-0.01
386.136	-0.02
386.342	0.02
386.549	0.01
386.755	0.07
386.961	0.03
387.168	0.02
387.374	0.03
387.58	0.05
387.787	-0
387.993	0.06
388.199	0.04
388.406	0.02
388.612	-0.01
388.818	-0.02
389.024	-0.02
389.231	0.02
389.437	0.05
389.643	0.02
389.849	0.02
390.055	-0.01
390.261	0.01
390.467	0.05
390.674	0.02
390.88	0.06
391.086	0.05
391.292	0.01
391.498	0.05
391.704	0.06
391.91	0.01
392.116	-0.05
392.322	-0.05
392.528	0.05
392.734	-0.04
392.94	0.02
393.146	-0.01
393.352	0.01
393.557	0.03
393.763	0.03
393.969	0.03
394.175	0.01
394.381	0.03
394.587	0
394.792	0.02
394.998	0.08
395.204	0.09
395.41	-0.03
395.615	0.06
395.821	0.05
396.027	0.04
396.233	0.01
396.438	0.05
396.644	0.04
396.85	0.04
397.055	0.04
397.261	0.02
397.466	0.03
397.672	0.02
397.878	0.06
398.083	0.03
398.289	-0.06
398.494	0.09
398.7	0.05
398.905	-0.06
399.111	0.09
399.316	-0.02
399.522	0.03
399.727	0.03
399.932	0.04
400.138	0.04
400.343	0.05
400.549	0.06
400.754	-0.01
400.959	0.08
401.165	0
401.37	0.06
401.575	0.1
401.78	0.04
401.986	-0.02
402.191	0
402.396	0.06
402.601	0.02
402.807	0.04
403.012	0.08
403.217	0.07
403.422	0.01
403.627	0.03
403.832	0.01
404.037	0.04
404.243	0.01
404.448	0.01
404.653	-0.01
404.858	0.02
405.063	0.04
405.268	-0
405.473	-0.02
405.678	0
405.883	0.14
406.088	0.05
406.293	0.03
406.498	-0.02
406.703	0.04
406.907	0.05
407.112	-0.05
407.317	0.03
407.522	0.08
407.727	-0.03
407.932	0.05
408.136	0.09
408.341	0.05
408.546	0.05
408.751	0.04
408.956	-0.02
409.16	0.03
409.365	0.04
409.57	-0.02
409.774	-0.01
409.979	0.04
410.184	0.03
410.388	0.01
410.593	0.08
410.798	0
411.002	-0.03
411.207	0.06
411.411	0.01
411.616	0
411.82	0.02
412.025	0.04
412.229	-0.01
412.434	0.05
412.638	0.05
412.843	0.01
413.047	0.03
413.252	-0.01
413.456	0.01
413.66	0.05
413.865	-0.01
414.069	0.07
414.273	0.02
414.478	-0.01
414.682	-0.01
414.886	0
415.091	-0.05
415.295	-0.07
415.499	0.02
415.703	0.01
415.908	0.03
416.112	-0.09
416.316	0.04
416.52	0.03
416.724	-0.06
416.929	-0.01
417.133	0.11
417.337	-0.02
417.541	0.04
417.745	0.01
417.949	0.07
418.153	0.06
418.357	-0.08
418.561	0.07
418.765	0.02
418.969	0.12
419.173	0.03
419.377	0.01
419.581	0.11
419.785	0
419.989	-0.04
420.193	0.03
420.397	-0
420.601	0.05
420.804	0.07
421.008	0.05
421.212	0.02
421.416	0.07
421.62	0.03
421.823	0.05
422.027	0.1
422.231	0.04
422.435	-0.02
422.638	0.04
422.842	-0.01
423.046	-0.05
423.249	0.03
423.453	0.07
423.657	0.05
423.86	0
424.064	0.03
424.268	0.07
424.471	0
424.675	0.13
424.878	0.04
425.082	0.03
425.285	0.04
425.489	0.07
425.692	0.06
425.896	0
426.099	0.05
426.303	-0.01
426.506	-0.02
426.71	0.07
426.913	0.06
427.116	0.07
427.32	0.04
427.523	0.01
427.726	0.14
427.93	-0.02
428.133	0.04
428.336	-0.04
428.54	-0.02
428.743	0.06
428.946	0.09
429.149	-0.04
429.353	0.04
429.556	0.02
429.759	0
429.962	-0.01
430.165	0.01
430.368	0.02
430.571	-0.02
430.775	0.03
430.978	0.02
431.181	0.01
431.384	0.03
431.587	-0.01
431.79	0.02
431.993	-0.02
432.196	-0.01
432.399	-0.02
432.602	0.13
432.805	-0
433.008	-0.03
433.211	-0.08
433.414	0.05
433.616	0.02
433.819	0.02
434.022	-0.1
434.225	0.03
434.428	0.05
434.631	0.08
434.833	0.02
435.036	0.01
435.239	0.08
435.442	-0
435.645	-0.01
435.847	0.04
436.05	0.03
436.253	0.05
436.455	-0.02
436.658	-0
436.861	0.07
437.063	-0.02
437.266	-0.01
437.468	0.04
437.671	0.14
437.874	0.06
438.076	-0.06
438.279	-0.05
438.481	0
438.684	-0.05
438.886	0.06
439.089	-0.08
439.291	-0.01
439.494	0.05
439.696	-0.01
439.899	0
440.101	0.02
440.303	-0.1
440.506	0.08
440.708	0.01
440.91	0.05
441.113	-0.02
441.315	0.06
441.517	-0.07
441.72	-0
441.922	-0.03
442.124	-0.05
442.326	0.04
442.529	0.09
442.731	-0.01
442.933	0.11
443.135	0.02
443.337	-0
443.539	0.01
443.742	0.02
443.944	0.03
444.146	-0
444.348	-0
444.55	0
444.752	-0.02
444.954	-0.01
445.156	0.03
445.358	-0.02
445.56	0.02
445.762	-0.01
445.964	0.01
446.166	-0.04
446.368	0.02
446.57	0.04
446.772	-0.01
446.974	0.01
447.175	0.05
447.377	-0.03
447.579	-0.06
447.781	-0.08
447.983	0.11
448.184	0.02
448.386	0.02
448.588	-0.03
448.79	0.03
448.991	-0.01
449.193	0.04
449.395	-0.01
449.597	0.04
449.798	0.04
450	0.05
450.202	0.02
450.403	0.03
450.605	0.04
450.806	-0.02
451.008	-0.06
451.21	0.02
451.411	-0
451.613	-0
451.814	-0
452.016	-0
452.217	0.05
452.419	0.01
452.62	0.05
452.821	0.03
453.023	0.06
453.224	0.04
453.426	0.03
453.627	0.03
453.828	0.03
454.03	0.03
454.231	0.01
454.432	-0.03
454.634	0.09
454.835	-0.05
455.036	-0.04
455.238	0.04
455.439	0.14
455.64	-0.03
455.841	0.01
456.042	0.08
456.244	0.06
456.445	-0
456.646	-0.03
456.847	0.01
457.048	0.11
457.249	0.05
457.45	0.2
457.651	-0.02
457.852	0.09
458.054	0.03
458.255	0.03
458.456	0.02
458.657	0
458.858	-0.01
459.058	-0.02
459.259	0.05
459.46	-0.03
459.661	-0.03
459.862	0.12
460.063	-0.03
460.264	0.08
460.465	-0.03
460.666	0.12
460.866	-0.01
461.067	-0.02
461.268	0.03
461.469	-0.06
461.67	-0
461.87	-0.02
462.071	-0
462.272	0.05
462.473	-0
462.673	0.05
462.874	-0.03
463.075	0.03
463.275	0.01
463.476	0.01
463.676	0.04
463.877	0.04
464.078	0
464.278	0.01
464.479	-0.01
464.679	0
464.88	0.06
465.08	0.1
465.281	-0.02
465.481	0
465.682	0.01
465.882	0.05
466.083	0.08
466.283	0.03
466.483	-0.01
466.684	-0
466.884	-0.05
467.085	-0.03
467.285	0.09
467.485	0
467.686	0.01
467.886	-0
468.086	0.01
468.286	0.01
468.487	0.05
468.687	-0.01
468.887	-0.01
469.087	0.07
469.287	0.01
469.488	-0.03
469.688	0.01
469.888	0.03
470.088	0.05
470.288	0.04
470.488	0.07
470.688	-0.04
470.888	-0.03
471.088	-0.02
471.288	0.07
471.488	0.05
471.688	0.04
471.888	-0.04
472.088	0.02
472.288	0.06
472.488	-0.02
472.688	-0.01
472.888	-0.03
473.088	0.01
473.288	0.04
473.488	-0.02
473.688	0.12
473.887	0
474.087	-0.02
474.287	0.01
474.487	-0.02
474.687	0.04
474.886	-0.04
475.086	0.03
475.286	0.03
475.486	0.03
475.685	0.03
475.885	-0.04
476.085	0
476.284	0.05
476.484	0.02
476.684	0.05
476.883	0.07
477.083	0.01
477.282	-0
477.482	0.07
477.681	0.06
477.881	0.04
478.08	-0.02
478.28	-0
478.479	0.07
478.679	0.09
478.878	-0.02
479.078	0.01
479.277	0.02
479.477	0.03
479.676	0.06
479.875	0.02
480.075	-0.03
480.274	0
480.473	0.03
480.673	-0.02
480.872	0.02
481.071	0.02
481.271	0.03
481.47	-0.01
481.669	-0
481.868	-0.03
482.067	0
482.267	-0.02
482.466	-0.02
482.665	0
482.864	-0.01
483.063	-0.03
483.262	0.04
483.461	0.07
483.661	0.04
483.86	0.04
484.059	0.01
484.258	-0.02
484.457	0
484.656	-0.01
484.855	0.07
485.054	-0.04
485.253	-0.02
485.452	-0.04
485.651	-0.03
485.849	0.03
486.048	-0.01
486.247	0.01
486.446	0.02
486.645	-0
486.844	-0.01
487.043	-0.01
487.241	0.01
487.44	-0.01
487.639	-0.01
487.838	0.03
488.037	0.01
488.235	0.06
488.434	0.01
488.633	-0.03
488.831	0.03
489.03	0.05
489.229	0.01
489.427	0.01
489.626	0.05
489.825	0.05
490.023	-0.01
490.222	-0
490.42	0.03
490.619	0.03
490.817	0.01
491.016	-0.01
491.214	0.03
491.413	-0
491.611	-0.01
491.81	0.03
492.008	0.03
492.207	0.02
492.405	0.02
492.604	-0.01
492.802	0
493	0.01
493.199	-0.02
493.397	0.02
493.595	0.01
493.794	-0.01
493.992	0.05
494.19	0.01
494.388	0.01
494.587	0.01
494.785	0
494.983	-0.03
495.181	0
495.379	0.02
495.578	-0.01
495.776	0.04
495.974	0.01
496.172	-0.01
496.37	-0.01
496.568	-0
496.766	-0.01
496.964	0.04
497.162	0.02
497.36	-0
497.558	0.04
497.756	0.02
497.954	0
498.152	-0.02
498.35	0.01
498.548	0
498.746	0.01
498.944	-0.03
499.142	0
499.34	-0.01
499.538	0
499.736	0.01
499.933	0.03
500.131	0.05
500.329	0
500.527	0.04
500.725	0.04
500.922	0
501.12	0.02
501.318	0.02
501.516	-0.01
501.713	0
501.911	-0
502.109	-0.03
502.306	0.03
502.504	0
502.701	-0.02
502.899	-0
503.097	0.05
503.294	-0.01
503.492	0.02
503.689	0
503.887	0.04
504.084	0.03
504.282	0.04
504.479	-0.04
504.677	0.01
504.874	-0.03
505.072	0.01
505.269	0.01
505.466	0.02
505.664	-0
505.861	-0.04
506.059	-0.03
506.256	0.04
506.453	-0
506.651	0.06
506.848	0.01
507.045	0.02
507.242	-0.01
507.44	0.01
507.637	-0.01
507.834	0.02
508.031	0.04
508.229	-0.01
508.426	-0
508.623	0.01
508.82	-0.03
509.017	-0.03
509.214	-0.01
509.411	-0
509.608	-0.04
509.805	-0
510.003	0.02
510.2	-0.02
510.397	0.03
510.594	-0.01
510.791	-0.02
510.988	-0
511.184	0.03
511.381	0.02
511.578	-0
511.775	0.02
511.972	-0.02
512.169	0.02
512.366	-0
512.563	0.03
512.76	-0.01
512.956	0.02
513.153	0
513.35	0.03
513.547	0
513.744	-0.01
513.94	-0.03
514.137	0.01
514.334	0.01
514.53	-0.02
514.727	-0.01
514.924	0.03
515.12	-0.01
515.317	-0.01
515.514	0.02
515.71	0
515.907	0
516.103	0.01
516.3	0
516.497	0.04
516.693	0.03
516.89	0
517.086	-0.04
517.283	0.05
517.479	0.01
517.676	0.02
517.872	0.01
518.068	-0.01
518.265	-0
518.461	-0.01
518.658	-0.03
518.854	0.01
519.05	-0
519.247	-0
519.443	0.02
519.639	0.02
519.836	0.02
520.032	0.01
520.228	0
520.424	0.03
520.621	0.01
520.817	0.01
521.013	-0
521.209	0.02
521.405	0.02
521.601	-0.01
521.798	0.01
521.994	0.05
522.19	-0.01
522.386	-0.01
522.582	-0
522.778	0.01
522.974	0.01
523.17	0.01
523.366	-0.01
523.562	0.03
523.758	0.02
523.954	-0
524.15	-0
524.346	0.03
524.542	-0.01
524.738	-0
524.934	-0.01
525.129	-0.01
525.325	0.02
525.521	0.01
525.717	0.03
525.913	0.02
526.109	0.03
526.304	-0
526.5	0.02
526.696	0.03
526.892	-0.01
527.087	0.03
527.283	-0.01
527.479	0.02
527.674	0.01
527.87	0.01
528.066	-0
528.261	0.03
528.457	0
528.653	-0
528.848	-0.01
529.044	0.02
529.239	-0.01
529.435	0.04
529.63	0.01
529.826	0.04
530.021	0.01
530.217	0.01
530.412	-0.01
530.608	-0.01
530.803	0.02
530.999	-0.02
531.194	-0.04
531.389	0.01
531.585	-0.04
531.78	-0
531.975	-0.01
532.171	0.01
532.366	-0.01
532.561	0
532.757	-0.01
532.952	-0
533.147	0.02
533.342	0.01
533.538	0.01
533.733	0.02
533.928	0
534.123	-0.01
534.318	-0.03
534.513	-0.01
534.709	0.03
534.904	-0.02
535.099	-0
535.294	-0
535.489	0.01
535.684	-0
535.879	-0.02
536.074	-0
536.269	0.01
536.464	0
536.659	0.01
536.854	0.01
537.049	0.02
537.244	0.01
537.439	-0
537.634	0.03
537.828	-0.01
538.023	0
538.218	-0.03
538.413	0.02
538.608	-0.03
538.803	0.02
538.997	-0.04
539.192	0.02
539.387	0.01
539.582	0.02
539.776	0.01
539.971	0.01
540.166	0
540.36	-0.02
540.555	-0.02
540.75	-0.01
540.944	0.01
541.139	-0.04
541.334	-0.01
541.528	0.02
541.723	0.03
541.917	-0.02
542.112	-0.05
542.306	0.01
542.501	0
542.695	0.03
542.89	-0.03
543.084	0
543.279	0
543.473	0.01
543.668	0.01
543.862	-0
544.056	0.02
544.251	-0.02
544.445	-0
544.64	0
544.834	-0.03
545.028	0.01
545.222	0.01
545.417	0.02
545.611	0
545.805	0
546	-0.02
546.194	-0
546.388	-0.01
546.582	-0.01
546.776	0
546.97	-0.01
547.165	0.01
547.359	0.02
547.553	-0.01
547.747	0
547.941	-0.01
548.135	-0
548.329	0.02
548.523	-0
548.717	-0.02
548.911	0
549.105	-0
549.299	-0
549.493	0.02
549.687	0
549.881	0.02
550.075	-0.01
550.269	-0.03
550.463	0.02
550.657	-0
550.85	0
551.044	-0.01
551.238	-0
551.432	-0.02
551.626	-0.02
551.82	-0
552.013	0.01
552.207	0.01
552.401	0.01
552.594	0.02
552.788	0.01
552.982	0.01
553.176	-0.01
553.369	0
553.563	-0
553.756	-0.04
553.95	-0.03
554.144	-0.01
554.337	0.03
554.531	0.01
554.724	-0
554.918	-0.02
555.111	0.02
555.305	-0
555.498	0.05
555.692	0.01
555.885	0.01
556.079	0.01
556.272	-0.01
556.466	0.03
556.659	-0
556.852	0.01
557.046	-0.03
557.239	0.03
557.432	-0.02
557.626	-0.01
557.819	-0
558.012	-0
558.206	0.04
558.399	-0.01
558.592	-0.01
558.785	-0.01
558.979	0.04
559.172	0.02
559.365	0.01
559.558	0.01
559.751	0.02
559.944	0.04
560.138	0.02
560.331	-0.01
560.524	-0
560.717	-0
560.91	0.01
561.103	0.02
561.296	0.01
561.489	0.01
561.682	0.01
561.875	0.03
562.068	0.02
562.261	0.01
562.454	0.03
562.647	0
562.84	0
563.032	-0
563.225	0
563.418	0.01
563.611	-0.04
563.804	0
563.997	-0.02
564.19	-0.04
564.382	-0.07
564.575	-0
564.768	-0
564.961	0
565.153	-0.01
565.346	0.04
565.539	0.03
565.731	0.03
565.924	0.01
566.117	0.03
566.309	0.01
566.502	-0
566.695	0
566.887	0.02
567.08	-0.04
567.272	-0.01
567.465	-0.01
567.657	0.01
567.85	0.01
568.042	0.01
568.235	0.03
568.427	0.01
568.62	0.02
568.812	0.03
569.005	0.03
569.197	-0.02
569.389	0.01
569.582	0.03
569.774	0.02
569.966	-0
570.159	-0.01
570.351	0.01
570.543	-0.03
570.736	-0.01
570.928	-0.01
571.12	0
571.312	-0.01
571.505	-0.02
571.697	0.01
571.889	-0.01
572.081	0
572.273	-0.01
572.465	0.04
572.658	0
572.85	0.01
573.042	-0.01
573.234	-0.02
573.426	0.03
573.618	-0.04
573.81	0.02
574.002	0.03
574.194	0.02
574.386	-0.04
574.578	-0.06
574.77	-0.01
574.962	-0.01
575.154	-0.03
575.346	-0
575.538	-0.02
575.729	-0.02
575.921	-0.02
576.113	-0.01
576.305	0.02
576.497	-0.03
576.689	0.02
576.88	-0
577.072	0.01
577.264	0
577.456	-0
577.647	-0.05
577.839	0
578.031	0.02
578.223	-0.01
578.414	-0.02
578.606	0.03
578.798	0.01
578.989	-0.03
579.181	0.01
579.372	-0.02
579.564	0
579.755	-0.01
579.947	0.01
580.139	0.02
580.33	-0.04
580.522	-0
580.713	-0.07
580.905	0
581.096	0.02
581.287	-0
581.479	-0
581.67	0.01
581.862	0.02
582.053	-0.03
582.244	-0.03
582.436	-0.01
582.627	0.01
582.818	-0.02
583.01	-0.03
583.201	0.02
583.392	0.01
583.583	0
583.775	-0.03
583.966	-0.01
584.157	-0.01
584.348	-0.03
584.54	-0.03
584.731	0.02
584.922	0.02
585.113	-0.01
585.304	0.03
585.495	0.02
585.686	0.01
585.877	0.02
586.068	0.01
586.259	0.01
586.45	0.02
586.641	0.01
586.832	-0.06
587.023	0.01
587.214	-0.02
587.405	-0.01
587.596	-0
587.787	0.05
587.978	0.02
588.169	-0.01
588.36	-0.02
588.551	0.02
588.742	-0.02
588.932	0.01
589.123	0
589.314	0.03
589.505	0.02
589.696	0.05
589.886	-0.02
590.077	-0.03
590.268	0
590.458	-0.02
590.649	-0.04
590.84	0.03
591.03	-0.03
591.221	-0.03
591.412	-0.04
591.602	0.01
591.793	0.04
591.984	-0.01
592.174	-0.01
592.365	0.06
592.555	-0
592.746	0.02
592.936	0.03
593.127	0.02
593.317	0.04
593.508	-0.01
593.698	-0.01
593.889	0
594.079	-0
594.269	-0.01
594.46	0.01
594.65	0.01
594.84	-0.01
595.031	-0.04
595.221	-0.03
595.411	-0.03
595.602	0
595.792	0.01
595.982	-0.01
596.172	0.06
596.363	0.02
596.553	0
596.743	0.02
596.933	-0.01
597.123	0.04
597.314	-0.02
597.504	-0.02
597.694	0.03
597.884	0.02
598.074	-0
598.264	-0.01
598.454	0.01
598.644	0
598.834	-0.01
599.024	-0.04
599.214	-0.03
599.404	0.04
599.594	0.01
599.784	-0.02
599.974	0.06
600.164	0.06
600.354	-0.04
600.544	-0.05
600.734	-0
600.924	0.02
601.114	-0.03
601.303	-0.01
601.493	-0
601.683	0.01
601.873	0.03
602.063	-0.05
602.252	0.05
602.442	-0.02
602.632	-0.02
602.821	-0.03
603.011	0.02
603.201	-0.02
603.39	-0.03
603.58	-0.01
603.77	0.02
603.959	0.03
604.149	-0.01
604.339	-0
604.528	0.01
604.718	0.03
604.907	-0.02
605.097	0.01
605.286	-0.01
605.476	0.01
605.665	0.01
605.855	-0
606.044	0.07
606.234	0.01
606.423	0.02
606.612	-0.03
606.802	0.02
606.991	0.03
607.181	0
607.37	-0.01
607.559	0
607.749	-0.03
607.938	0.01
608.127	-0.01
608.316	-0.03
608.506	0.03
608.695	0.01
608.884	-0
609.073	-0.01
609.263	0.03
609.452	0.04
609.641	0.03
609.83	-0.02
610.019	-0
610.208	-0.01
610.397	0.01
610.586	0.04
610.775	-0.02
610.965	-0.02
611.154	-0.03
611.343	-0.01
611.532	0.03
611.721	-0.01
611.91	-0
612.099	-0.01
612.287	-0.01
612.476	-0.02
612.665	0.01
612.854	-0
613.043	0.03
613.232	0
613.421	-0.02
613.61	0.02
613.798	-0.01
613.987	0.01
614.176	0
614.365	0.04
614.554	0.03
614.742	0.02
614.931	-0
615.12	0.01
615.309	-0.01
615.497	0
615.686	-0.03
615.875	-0.01
616.063	-0.02
616.252	0.01
616.44	-0
616.629	0.01
616.818	0.03
617.006	-0
617.195	-0.01
617.383	0.02
617.572	-0.01
617.76	-0.02
617.949	0.01
618.137	0.03
618.326	0.08
618.514	-0.01
618.703	0.02
618.891	0.04
619.079	-0.04
619.268	0
619.456	-0.01
619.644	0.03
619.833	0
620.021	-0.03
620.209	-0.05
620.398	0
620.586	0.02
620.774	0.02
620.962	-0.01
621.151	0.04
621.339	-0.01
621.527	-0.04
621.715	-0.01
621.903	-0.02
622.092	-0.04
622.28	0.03
622.468	0.01
622.656	-0.02
622.844	0.02
623.032	0
623.22	-0.06
623.408	0.02
623.596	-0.01
623.784	0.02
623.972	-0.02
624.16	-0.01
624.348	0.04
624.536	0.01
624.724	-0.02
624.912	0.06
625.1	0.04
625.288	-0.02
625.476	-0.03
625.664	0.03
625.851	-0.02
626.039	-0.01
626.227	0.02
626.415	-0
626.603	-0.02
626.79	0
626.978	0.02
627.166	0.05
627.354	0
627.541	-0.02
627.729	-0.05
627.917	0.04
628.104	0.03
628.292	0.06
628.48	0.01
628.667	0
628.855	0.01
629.042	0.03
629.23	-0.04
629.418	0
629.605	-0.02
629.793	-0.02
629.98	-0.02
630.168	-0.01
630.355	0.02
630.543	0.02
630.73	-0.05
630.917	0.04
631.105	0.06
631.292	-0.03
631.48	-0.01
631.667	0.06
631.854	0.02
632.042	0.02
632.229	-0.01
632.416	0.03
632.604	0.01
632.791	-0
632.978	0.01
633.165	0.05
633.353	0.05
633.54	-0.01
633.727	-0.03
633.914	-0.01
634.101	-0.06
634.289	0.05
634.476	-0.02
634.663	-0.01
634.85	0.04
635.037	-0.03
635.224	-0.03
635.411	0.03
635.598	0.04
635.785	0.02
635.972	-0.02
636.159	0.01
636.346	-0.03
636.533	0.03
636.72	-0.02
636.907	-0
637.094	0.03
637.281	0.01
637.468	0.01
637.655	-0
637.842	-0.01
638.029	-0.02
638.215	0.01
638.402	0
638.589	-0.03
638.776	0.03
638.963	-0.04
639.149	0.06
639.336	0.05
639.523	-0.03
639.709	-0.01
639.896	0.01
640.083	0.05
640.27	0
640.456	0.05
640.643	0.01
640.829	-0.05
641.016	0.01
641.203	-0.02
641.389	0.01
641.576	0.04
641.762	0.04
641.949	-0.02
642.135	-0.01
642.322	0.04
642.508	-0.03
642.695	0.01
642.881	0.03
643.068	0
643.254	0.02
643.441	0.04
643.627	-0.02
643.813	-0.01
644	0.05
644.186	-0.03
644.372	-0.03
644.559	0.05
644.745	0
644.931	-0.04
645.118	-0.01
645.304	-0
645.49	0
645.676	-0.02
645.862	0.03
646.049	0.06
646.235	0.03
646.421	0.08
646.607	0.08
646.793	0
646.979	0
647.165	0.04
647.352	0.03
647.538	0.03
647.724	0.02
647.91	0
648.096	0.06
648.282	0.02
648.468	-0
648.654	0
648.84	0.05
649.026	-0.02
649.212	0.02
649.397	0.01
649.583	-0.01
649.769	0.05
649.955	0.02
650.141	0.05
650.327	0.04
650.513	-0.03
650.698	0.04
650.884	-0.09
651.07	0.02
651.256	0.01
651.442	0.04
651.627	-0.01
651.813	0.07
651.999	0.06
652.184	0.04
652.37	0.02
652.556	-0.01
652.741	0.09
652.927	-0.04
653.113	0.02
653.298	0.01
653.484	0.02
653.669	-0.03
653.855	0
654.04	0.03
654.226	0.02
654.412	0.02
654.597	-0.02
654.782	0.01
654.968	0.08
655.153	0.02
655.339	0.01
655.524	0.01
655.71	0.03
655.895	0.04
656.08	0.02
656.266	0.06
656.451	0.04
656.636	-0.02
656.822	0.04
657.007	0.01
657.192	0.01
657.378	-0.01
657.563	0.05
657.748	0.04
657.933	0.03
658.118	0.02
658.304	-0
658.489	0.05
658.674	0.03
658.859	-0
659.044	0.06
659.229	0.01
659.414	0.01
659.599	0.05
659.785	-0.05
659.97	0
660.155	0.07
660.34	0.07
660.525	0.08
660.71	0.05
660.895	0.05
661.08	0.01
661.264	0.01
661.449	0.12
661.634	0.07
661.819	0.07
662.004	0.09
662.189	-0.03
662.374	-0
662.559	-0.01
662.743	-0.01
662.928	0.02
663.113	0.03
663.298	-0.03
663.483	0.05
663.667	0.06
663.852	-0.01
664.037	0.08
664.221	0.03
664.406	0.11
664.591	0.08
664.775	0.05
664.96	-0.01
665.145	0.05
665.329	0.07
665.514	0.02
665.698	0.04
665.883	-0.01
666.068	0.09
666.252	0.03
666.437	0.04
666.621	0.04
666.806	0.07
666.99	0.06
667.174	0.04
667.359	0.12
667.543	0.07
667.728	0.07
667.912	-0.01
668.096	0.12
668.281	0.05
668.465	0.07
668.649	0.07
668.834	0.06
669.018	0.04
669.202	0.04
669.387	0.03
669.571	0.11
669.755	0.04
669.939	0.09
670.124	0.08
670.308	0.12
670.492	0.14
670.676	0.09
670.86	0.09
671.044	0.02
671.228	0.11
671.413	0.03
671.597	0.03
671.781	0.06
671.965	0.11
672.149	0.09
672.333	0.09
672.517	0.09
672.701	0.1
672.885	0.07
673.069	-0.01
673.253	0.12
673.437	0.09
673.621	0.06
673.804	0.11
673.988	0.1
674.172	0.07
674.356	0.03
674.54	0.13
674.724	0.17
674.908	0.07
675.091	0.13
675.275	0.1
675.459	0.15
675.643	0.14
675.826	0.11
676.01	0.14
676.194	0.13
676.377	0.14
676.561	0.14
676.745	0.1
676.928	0.13
677.112	0.18
677.296	0.11
677.479	0.14
677.663	0.09
677.846	0.16
678.03	0.14
678.213	0.11
678.397	0.17
678.58	0.17
678.764	0.09
678.947	0.13
679.131	0.14
679.314	0.21
679.498	0.14
679.681	0.14
679.865	0.2
680.048	0.18
680.231	0.12
680.415	0.16
680.598	0.15
680.781	0.15
680.965	0.16
681.148	0.25
681.331	0.12
681.514	0.22
681.698	0.18
681.881	0.25
682.064	0.2
682.247	0.2
682.43	0.14
682.614	0.2
682.797	0.22
682.98	0.24
683.163	0.19
683.346	0.23
683.529	0.13
683.712	0.18
683.895	0.22
684.078	0.17
684.261	0.18
684.444	0.26
684.627	0.25
684.81	0.22
684.993	0.19
685.176	0.26
685.359	0.19
685.542	0.23
685.725	0.32
685.908	0.26
686.091	0.28
686.274	0.35
686.457	0.3
686.639	0.27
686.822	0.32
687.005	0.3
687.188	0.29
687.371	0.37
687.553	0.35
687.736	0.33
687.919	0.35
688.102	0.39
688.284	0.29
688.467	0.33
688.65	0.31
688.832	0.29
689.015	0.32
689.197	0.33
689.38	0.45
689.563	0.43
689.745	0.33
689.928	0.38
690.11	0.32
690.293	0.42
690.475	0.33
690.658	0.47
690.84	0.42
691.023	0.35
691.205	0.37
691.388	0.46
691.57	0.5
691.752	0.51
691.935	0.37
692.117	0.48
692.3	0.43
692.482	0.46
692.664	0.42
692.847	0.51
693.029	0.5
693.211	0.55
693.393	0.51
693.576	0.46
693.758	0.53
693.94	0.54
694.122	0.47
694.304	0.51
694.487	0.53
694.669	0.62
694.851	0.5
695.033	0.59
695.215	0.57
695.397	0.59
695.579	0.62
695.761	0.55
695.943	0.57
696.125	0.69
696.308	0.63
696.49	0.54
696.671	0.8
696.853	0.62
697.035	0.86
697.217	0.73
697.399	0.76
697.581	0.63
697.763	0.69
697.945	0.67
698.127	0.74
698.309	0.85
698.491	0.83
698.672	0.87
698.854	0.87
699.036	0.93
699.218	0.83
699.399	0.92
699.581	0.9
699.763	0.86
699.945	0.84
700.126	0.88
700.308	0.92
700.49	0.89
700.671	0.89
700.853	0.9
701.035	1.01
701.216	1.01
701.398	0.96
701.579	1.04
701.761	1.07
701.943	1.02
702.124	1.04
702.306	1.13
702.487	1.24
702.669	1.18
702.85	1.13
703.031	1.07
703.213	1.37
703.394	1.24
703.576	1.27
703.757	1.42
703.938	1.3
704.12	1.42
704.301	1.26
704.483	1.34
704.664	1.36
704.845	1.51
705.026	1.43
705.208	1.43
705.389	1.52
705.57	1.47
705.751	1.53
705.933	1.56
706.114	1.74
706.295	1.6
706.476	1.51
706.657	1.69
706.838	1.64
707.02	1.72
707.201	1.7
707.382	1.68
707.563	1.86
707.744	1.77
707.925	1.76
708.106	1.85
708.287	1.88
708.468	1.95
708.649	1.95
708.83	2
709.011	2.02
709.192	2.05
709.373	2
709.554	2.08
709.734	2.2
709.915	2.25
710.096	2.2
710.277	2.01
710.458	2.3
710.639	2.35
710.819	2.16
711	2.29
711.181	2.44
711.362	2.39
711.542	2.5
711.723	2.51
711.904	2.65
712.085	2.63
712.265	2.64
712.446	2.58
712.627	2.73
712.807	2.82
712.988	2.8
713.168	2.76
713.349	2.94
713.53	2.74
713.71	2.88
713.891	2.98
714.071	3.11
714.252	3.08
714.432	3.16
714.613	3.06
714.793	3.25
714.974	3.44
715.154	3.51
715.334	3.5
715.515	3.47
715.695	3.4
715.876	3.54
716.056	3.61
716.236	3.68
716.417	3.8
716.597	3.64
716.777	4.08
716.957	3.79
717.138	4.02
717.318	3.99
717.498	4.11
717.678	4.25
717.859	4.25
718.039	4.22
718.219	4.36
718.399	4.4
718.579	4.38
718.759	4.61
718.939	4.68
719.12	4.65
719.3	4.82
719.48	4.73
719.66	4.82
719.84	4.97
720.02	5.08
720.2	5.04
720.38	5.3
720.56	5.5
720.74	5.27
720.92	5.37
721.1	5.72
721.279	5.84
721.459	5.7
721.639	5.65
721.819	5.75
721.999	5.94
722.179	5.98
722.359	6.03
722.538	6.21
722.718	6.33
722.898	6.45
723.078	6.61
723.257	6.66
723.437	6.72
723.617	6.91
723.797	6.98
723.976	6.98
724.156	7.21
724.336	7.18
724.515	7.41
724.695	7.35
724.874	7.47
725.054	7.72
725.234	7.66
725.413	7.88
725.593	7.84
725.772	7.94
725.952	8.11
726.131	8.15
726.311	8.28
726.49	8.42
726.67	8.5
726.849	8.55
727.028	8.78
727.208	8.72
727.387	8.88
727.567	8.91
727.746	8.92
727.925	9.25
728.105	9.32
728.284	9.3
728.463	9.25
728.643	9.67
728.822	9.61
729.001	9.71
729.18	10.06
729.359	10.13
729.539	10.29
729.718	10.27
729.897	10.27
730.076	10.66
730.255	10.47
730.434	10.83
730.614	10.87
730.793	11.13
730.972	11.03
731.151	11.27
731.33	11.24
731.509	11.2
731.688	11.26
731.867	11.66
732.046	11.59
732.225	12.09
732.404	11.73
732.583	11.99
732.762	12.16
732.941	12.31
733.12	12.6
733.298	12.5
733.477	12.72
733.656	12.77
733.835	12.93
734.014	13.09
734.193	13.04
734.371	13.24
734.55	13.28
734.729	13.27
734.908	13.38
735.086	13.81
735.265	13.74
735.444	13.55
735.623	14
735.801	14.06
735.98	14.26
736.159	14.17
736.337	14.11
736.516	14.35
736.694	14.41
736.873	14.13
737.052	14.9
737.23	14.25
737.409	14.26
737.587	14.9
737.766	14.47
737.944	14.54
738.123	14.88
738.301	14.79
738.479	14.51
738.658	14.26
738.836	14.35
739.015	14.29
739.193	14.59
739.371	14.08
739.55	13.96
739.728	13.94
739.906	13.96
740.085	14.04
740.263	13.76
740.441	13.39
740.62	13.67
740.798	13.33
740.976	12.8
741.154	12.81
741.332	13.1
741.511	12.31
741.689	12.28
741.867	12.25
742.045	11.88
742.223	11.41
742.401	11.18
742.579	11.07
742.757	10.89
742.935	10.54
743.114	10.39
743.292	10.23
743.47	9.83
743.648	9.82
743.826	9.7
744.004	9.51
744.181	9.09
744.359	8.63
744.537	8.44
744.715	8.19
744.893	8.17
745.071	7.8
745.249	7.65
745.427	7.39
745.605	7.26
745.782	6.75
745.96	6.88
746.138	6.81
746.316	6.45
746.493	6.1
746.671	5.88
746.849	5.73
747.027	5.91
747.204	5.42
747.382	5.4
747.56	4.85
747.737	4.94
747.915	4.79
748.093	4.99
748.27	4.36
748.448	4.44
748.625	4.06
748.803	3.96
748.98	3.97
749.158	3.94
749.335	3.71
749.513	3.75
749.69	3.53
749.868	3.35
750.045	3.51
750.223	3.18
750.4	2.91
750.578	3.16
750.755	3.19
750.932	2.63
751.11	2.93
751.287	2.62
751.464	2.75
751.642	2.43
751.819	2.53
751.996	2.43
752.173	2.32
752.351	2.14
752.528	2.22
752.705	2.16
752.882	2.03
753.06	2.01
753.237	1.94
753.414	2.08
753.591	1.97
753.768	1.77
753.945	1.67
754.122	1.59
754.299	1.55
754.476	1.56
754.654	1.6
754.831	1.59
755.008	1.49
755.185	1.38
755.362	1.35
755.539	1.35
755.716	1.21
755.892	1.33
756.069	1.26
756.246	1.13
756.423	1.22
756.6	1.2
756.777	1.07
756.954	1.21
757.131	1.03
757.307	0.86
757.484	0.87
757.661	1.01
757.838	0.92
758.015	0.76
758.191	0.82
758.368	0.87
758.545	1.01
758.721	0.92
758.898	0.66
759.075	0.75
759.251	0.91
759.428	0.75
759.605	0.6
759.781	0.66
759.958	0.72
760.134	0.72
760.311	0.67
760.488	0.68
760.664	0.69
760.841	0.6
761.017	0.44
761.194	0.67
761.37	0.61
761.547	0.6
761.723	0.45
761.899	0.68
762.076	0.43
762.252	0.47
762.429	0.46
762.605	0.63
762.781	0.52
762.958	0.54
763.134	0.38
763.31	0.39
763.486	0.5
763.663	0.25
763.839	0.55
764.015	0.28
764.191	0.23
764.368	0.3
764.544	0.29
764.72	0.44
764.896	0.38
765.072	0.32
765.248	0.37
765.425	0.24
765.601	0.25
765.777	0.27
765.953	0.07
766.129	0.29
766.305	0.28
766.481	0.39
766.657	0.33
766.833	0.43
767.009	0.16
767.185	0.27
767.361	0.37
767.537	0.11
767.713	0.36
767.889	0.17
768.065	0.19
768.24	0.23
768.416	0.34
768.592	0.21
768.768	0.34
768.944	0.19
769.12	0.19
769.295	0.23
769.471	0.28
769.647	0.15
769.823	0.32
769.998	0.12
770.174	0.08
770.35	0.54
770.525	0.5
770.701	0.32
770.877	0.11
771.052	0.12
771.228	0.15
771.403	0.28
771.579	0.22
771.755	0.41
771.93	0.18
772.106	0.12
772.281	-0.03
772.457	0.24
772.632	0.19
772.808	-0.03
772.983	0.17
773.159	-0.01
773.334	0.32
773.509	0.1
773.685	0.13
773.86	0.48
774.036	0.3
774.211	0.07
774.386	0.23
774.562	0.14
774.737	0.09
774.912	0.01
775.087	0.19
775.263	0.08
775.438	0.02
775.613	0.05
775.788	0.15
775.964	0.3
776.139	0.55
776.314	-0.06
776.489	0.17
776.664	0.13
776.839	-0.05
777.014	0.33
777.19	0.17
777.365	0.25
777.54	0.4
777.715	-0.03
777.89	0.15
778.065	-0.02
778.24	0.14
778.415	0.2
778.59	-0.02
778.765	0.11
778.94	0.08
779.115	0.11
779.289	0.02
779.464	0.07
779.639	0.21
779.814	-0.04
779.989	-0.12
780.164	0.33
780.339	0.19
780.513	-0.02
780.688	0.04
780.863	0.14
781.038	0.16
781.212	0.02
781.387	0.15
781.562	0.28
781.737	0.07
781.911	0.24
782.086	0.01
782.261	-0.04
782.435	0.31
782.61	-0.03
782.784	0.03
782.959	0.33
783.134	-0.01
783.308	0.04
783.483	-0.03
783.657	0.48
783.832	0.2
784.006	-0.02
784.181	0.05
784.355	0.15
784.53	-0.15
784.704	-0.07
784.878	0.28
785.053	0.19
785.227	0.14
785.402	0.44
785.576	-0.1
785.75	-0.01
785.925	-0.13
786.099	0.23
786.273	0.21
786.448	0.22
786.622	0.32
786.796	0.2
786.97	-0.03
787.145	0.69
787.319	-0.27
787.493	0.03
787.667	-0.22
787.841	0.1
788.015	0.32
788.19	0.04
788.364	0.21
788.538	0.23
788.712	0.29
788.886	-0
789.06	0.22
789.234	0.18
789.408	-0.22
789.582	0.11
789.756	0.17
789.93	-0.15
790.104	0.09
790.278	0.16
790.452	-0.11
790.626	0.4
790.8	-0.23
790.973	0.28
791.147	0.31
791.321	0.18
791.495	0.32
791.669	0.12
791.843	0.19
792.016	0.19
792.19	0.52
792.364	-0.02
792.538	0.71
792.711	0.14
792.885	-0
793.059	-0
793.233	-0.59
793.406	0.11
793.58	-0.19
793.754	0.06
793.927	0.15
794.101	0.42
794.274	0.13
794.448	0.35
794.622	0
794.795	0.33
794.969	-0.21
795.142	0.57
795.316	-0.09
795.489	-0.01
795.663	0.21
795.836	-0.13
796.009	-0.27
796.183	0.25
796.356	0.2
796.53	0.12
796.703	0.09
796.876	0.81
797.05	-0
797.223	0.01
797.396	0.24
797.57	0.23
797.743	0.3
797.916	0.04
798.09	-0.02
798.263	0.49
798.436	0.17
798.609	0.06
798.782	0.18
798.956	-0.03
799.129	0.3
799.302	0.12
799.475	0.03
799.648	-0.04
799.821	0.02
799.994	0.4
800.167	-0.14
800.34	0.26
800.514	0.22
800.687	-0.07
800.86	-0.06
801.033	0.2
801.206	0.05
801.379	-0.13
801.551	0.46
801.724	0.16
801.897	0.36
802.07	-0.07
802.243	-0.25
802.416	0.1
802.589	0.14
802.762	0.25
802.935	0.48
803.107	0.18
803.28	0.29
803.453	0.34
803.626	0.09
803.798	-0.08
803.971	0.14
804.144	-0.02
804.317	0.42
804.489	0.27
804.662	0.14
804.835	0.38
805.007	0.19
805.18	0.62
805.353	0.28
805.525	-0.33
805.698	-0.22
805.87	0.03
806.043	0.47
806.215	-0.15
806.388	0.11
806.56	0.35
806.733	0.57
806.905	0.07
807.078	-0.31
807.25	-0.12
807.423	0.44
807.595	0.19
807.768	0.33
807.94	0.36
808.112	0.17
808.285	0.23
808.457	0.45
808.629	0.03
808.802	0.22
808.974	0.46
809.146	-0.06
809.318	0.22
809.491	-0.14
809.663	0.55
809.835	-0.4
810.007	0.1
810.18	0.04
810.352	0.03
810.524	0.08
810.696	0.53
810.868	0.7
811.04	0.04
811.212	0.2
811.384	0.06
811.556	0.35
811.728	0.18
811.901	0.7
812.073	0.09
812.245	0.59
812.417	0.06
812.589	-0.38
812.76	0.15
812.932	0.51
813.104	0.38
813.276	-0.02
813.448	0.62
813.62	0.25
813.792	0.46
813.964	-0.16
814.136	0.4
814.307	-0.01
814.479	-0.45
814.651	0.15
814.823	1.11
814.995	0.12
815.166	0.22
815.338	-0.02
815.51	-0.23
815.681	1
815.853	0.27
816.025	-0.18
816.196	0.54
816.368	0.62
816.54	-0.36
816.711	-0.12
816.883	0.46
817.054	1.02
817.226	-0.18
817.398	0.27
817.569	-0.22
817.741	0.45
817.912	0.58
818.084	0.31
818.255	0.12
818.426	-0.24
818.598	0.02
818.769	-0.26
818.941	-0.01
819.112	0.53
819.283	0.51
819.455	-0.29
819.626	-0.11
819.798	0.14
819.969	0.16
820.14	0.13
820.311	0.37
820.483	0.7
820.654	0.03
820.825	0.33
820.996	-0.12
821.168	-0.33
821.339	0.2
821.51	-0.23
821.681	1.22
821.852	0.26
822.023	-0.62
822.195	0.24
822.366	0.45
822.537	0.22
822.708	0.09
822.879	-0.07
823.05	0.43
823.221	-0.15
823.392	0.29
823.563	0.12
823.734	0.21
823.905	0.33
824.076	-0.11
824.247	-0.09
824.418	-0.13
824.589	0.35
824.759	0.07
824.93	0.05
825.101	-0.33
825.272	0.81
825.443	1.05
825.614	0.49
825.784	-0.34
825.955	1.15
826.126	0.77
826.297	0.67
826.467	0.95
826.638	0.74
826.809	-0.62
826.98	-0.18
827.15	0.43
827.321	0.38
827.492	1.17
827.662	0.14
827.833	1.2
828.003	0.57
828.174	-0.5
828.345	-0.13
828.515	1.15
828.686	0.39
828.856	-0.3
829.027	0.08
829.197	0.71
829.368	0.66
829.538	-0.14
829.709	-0.34
829.879	0.51
830.049	-0.01
830.22	0.13
830.39	0.02
830.56	0.71
830.731	0.22
830.901	-0.36
831.072	0.43
831.242	-0.17
831.412	0.12
831.582	0.04
831.753	-0.29
831.923	1.15
832.093	-0.24
832.263	-0.1
832.434	0.21
832.604	-0.03
832.774	0.65
832.944	-0.07
833.114	-0.52
833.284	-0.12
833.454	-0.18
833.624	-1.13
833.795	-0.13
833.965	0.82
834.135	0.68
834.305	-0.7
834.475	-0.26
834.645	0.12
834.815	-0.32
834.985	0.13
835.155	-0.1
835.325	-0.06
835.494	-0.09
835.664	0.14
835.834	-0.57
836.004	-0.02
836.174	0.17
836.344	-0.03
836.514	-0.79
836.684	0.01
836.853	0.21
837.023	0.14
837.193	-0.23
837.363	0.62
837.532	0.79
837.702	0.71
837.872	-0.31
838.041	0.88
838.211	1.68
838.381	-0.66
838.55	0.43
838.72	1.72
838.89	1.17
839.059	0.62
839.229	-0.01
839.398	0.91
839.568	0.17
839.738	-0.39
839.907	1.39
840.077	0.89
840.246	-0.15
840.416	-0.29
840.585	-0.7
840.755	1.3
840.924	0.9
841.093	-0.09
841.263	-0.61
841.432	0.46
841.602	-0.7
841.771	-0.39
841.94	0.64
842.11	1.47
842.279	1.48
842.448	0
842.617	-0.82
842.787	1.67
842.956	-0.25
843.125	0.36
843.294	0.1
843.464	0.49
843.633	0.63
843.802	-0.79
843.971	0.23
844.14	0.82
844.309	0.95
844.479	-1.19
844.648	-0.55
844.817	0.49
844.986	-0.01
845.155	-0.09
845.324	-0.29
845.493	0.35
845.662	-0.75
845.831	0.92
846	0.54
846.169	-0.06
846.338	1.46
846.507	0.76
846.676	0.34
846.844	-0.26
847.013	1.97
847.182	-0.01
847.351	0.29
847.52	0.26
847.689	0.57
847.858	0.12
848.026	-0.04
848.195	0.2
848.364	0.08
848.533	0.08
848.701	-0.14
848.87	0.43
849.039	1.27
849.207	1.31
849.376	1.72
849.545	1.38
849.713	-0.55
849.882	-0.04
850.051	-0.04
850.219	0.91
850.388	1.27
850.556	-0.3
850.725	-0.58
850.893	-0.42
851.062	-0.05
851.23	0.83
851.399	-0.73
851.567	-0.47
851.736	0.23
851.904	0.11
852.073	0.39
852.241	1.01
852.41	0.82
852.578	-0.31
852.746	-0.79
852.915	0.75
853.083	0.07
853.251	-0.82
853.42	0.12
853.588	0.25
853.756	0.83
853.924	-0.48
854.093	0.03
854.261	-0.37
854.429	-0.47
854.597	1.01
854.765	0.4
854.934	0.77
855.102	1.76
855.27	0.3
855.438	1.23
855.606	1.36
855.774	1.51
855.942	-0.26
856.11	-1.32
856.278	0.53
856.446	1.75
856.614	0.61
856.782	-0.74
856.95	1.51
857.118	1.06
857.286	0.06
857.454	-0.27
857.622	0.56
857.79	-0.33
857.958	-0.57
858.126	0.46
858.294	-1.58
858.462	0.46
858.629	0.42
858.797	-0.8
858.965	0.33
859.133	1.5
859.301	-0.32
859.468	0.86
859.636	0.22
859.804	2.45
859.971	1.54
860.139	-0.86
860.307	0.57
860.474	-0.46
860.642	-0.73
860.81	-0.1
860.977	0.34
861.145	2.07
861.313	-0.16
861.48	0.25
861.648	2.02
861.815	1.35
861.983	-0.53
862.15	0.5
862.318	1.72
862.485	2.05
862.653	-0.78
862.82	-0.06
862.988	2.53
863.155	0.27
863.322	-0.12
863.49	-1.01
863.657	0.59
863.824	2
863.992	1.47
864.159	0.46
864.326	2.29
864.494	0.22
864.661	3.83
864.828	-0.05
864.996	1.08
865.163	2.3
865.33	-0.35
865.497	-1.37
865.664	1.01
865.832	-0.55
865.999	-0.04
866.166	-0.91
866.333	0.62
866.5	-0.82
866.667	0.63
866.834	1.59
867.001	2.45
867.168	0.26
867.335	-0.01
867.502	-0.8
867.669	1
867.836	3.15
868.003	1.63
868.17	1.82
868.337	-1.34
868.504	4.98
868.671	0.17
868.838	-0.03
869.005	1.26
869.172	1.64
869.339	0.99
869.505	0.56
869.672	2.14
869.839	2.27
870.006	2.29
870.173	-1.45
870.339	0.57
870.506	3.02
870.673	-2.03
870.84	1.66
871.006	1.73
871.173	-0.19
871.34	1.41
871.506	-1.04
871.673	1.76
871.839	0.02
872.006	2.46
872.173	0.68
872.339	1.87
872.506	3.55
872.672	0.94
872.839	-0.86
873.005	1.72
873.172	3.71
873.338	3.27
873.505	1.19
873.671	0.24
873.838	0.97
874.004	-0.74
874.171	-0.34
874.337	0.23
874.503	1.71
874.67	2.41
874.836	-0.7
875.002	3.34
875.169	0.87
875.335	0.53
875.501	-1.31
875.668	3.05
875.834	2.11
876	1.11
876.166	2.19
876.332	2.57
876.499	3.38
876.665	0.46
876.831	1.72
876.997	5.09
877.163	0.81
877.329	0.33
877.495	1.56
877.662	0.98
877.828	2.39
877.994	1.92
878.16	-1.01
878.326	0.63
878.492	1.3
878.658	0.67
878.824	1.56
878.99	2.44
879.156	-0.59
879.322	2.19
879.487	0.77
879.653	0.06
879.819	2
879.985	0.3
880.151	2.19
880.317	0.66
880.483	1.63
880.648	3.05
880.814	-2.66
880.98	2.25
881.146	1.37
881.312	-0.46
881.477	0.27
881.643	0.78
881.809	2.98
881.974	2.98
882.14	-1.39
882.306	-0.16
882.471	3.85
882.637	-0.39
882.803	1.43
882.968	2.79
883.134	3.33
883.299	0.81
883.465	0.94
883.63	2.67
883.796	2.95
883.961	2.94
884.127	2.44
884.292	-3.86
884.458	0.34
884.623	0.34
