Data from Apollo_Calib_20240827__AbsoluteIrradiance__278__03-47-01-229.txt Node

Date: Wed Aug 28 03:47:01 BST 2024
User: biology
Spectrometer: FLMT08252
Trigger mode: 0
Integration Time (sec): 5.000000E-1
Scans to average: 5
Electric dark correction enabled: true
Nonlinearity correction enabled: false
Boxcar width: 0
XAxis mode: Wavelengths
Number of Pixels in Spectrum: 3648
>>>>>Begin Spectral Data<<<<<
179.588	-0
179.809	-0
180.03	-0
180.251	-0
180.473	-0
180.694	0
180.915	0
181.136	-0
181.357	0
181.578	0
181.799	-0
182.02	-0
182.241	-0
182.462	-0
182.683	0
182.904	-0
183.125	-0
183.346	-0
183.567	0
183.788	-0
184.009	-0
184.23	0
184.451	0
184.672	-0
184.892	-0
185.113	0
185.334	0
185.555	-0
185.776	-0
185.996	0
186.217	0
186.438	0
186.659	-0
186.879	0
187.1	0
187.321	-0
187.541	0
187.762	0
187.983	0
188.203	0
188.424	0
188.644	0
188.865	0
189.086	0
189.306	0
189.527	0
189.747	0
189.968	-0
190.188	0
190.409	0
190.629	0
190.849	0
191.07	-0
191.29	0
191.511	0
191.731	-0
191.951	-0
192.172	0
192.392	0
192.612	-0
192.833	0
193.053	0
193.273	0
193.493	-0
193.714	-0
193.934	0
194.154	0
194.374	0
194.594	0
194.815	0
195.035	0
195.255	0
195.475	0
195.695	0
195.915	0
196.135	0
196.355	0
196.575	0
196.795	0
197.015	-0
197.235	-0
197.455	0
197.675	0
197.895	0
198.115	0
198.335	0
198.555	-0
198.775	0
198.995	0
199.214	0
199.434	0
199.654	-0
199.874	0
200.094	1.39
200.313	0.3
200.533	-0.2
200.753	0.01
200.973	1.48
201.192	1.03
201.412	-0.6
201.632	0.19
201.851	1.63
202.071	0
202.291	0.32
202.51	-0.25
202.73	0.62
202.95	0.19
203.169	-0.22
203.389	0.58
203.608	0.71
203.828	-0.16
204.047	0.18
204.267	0.6
204.486	0.54
204.706	0.38
204.925	0.51
205.145	0.12
205.364	0.63
205.583	1.12
205.803	-0
206.022	0.06
206.242	-0.1
206.461	0.08
206.68	0.07
206.9	0.31
207.119	0.86
207.338	1.04
207.557	-0.01
207.777	0.09
207.996	0.13
208.215	1.06
208.434	-0.04
208.654	-0.26
208.873	0.32
209.092	0.77
209.311	0.17
209.53	0.09
209.749	0.26
209.968	0.21
210.187	0.21
210.407	-0.35
210.626	0.06
210.845	0.53
211.064	0.26
211.283	-0.13
211.502	0.43
211.721	0.27
211.94	0.1
212.159	0.34
212.377	0.47
212.596	0.68
212.815	0.24
213.034	0.37
213.253	0.21
213.472	0.17
213.691	-0.11
213.91	-0.05
214.128	0.04
214.347	0.34
214.566	-0.13
214.785	-0.35
215.003	0.26
215.222	0.21
215.441	-0.01
215.66	0.08
215.878	0.18
216.097	0.53
216.316	-0.14
216.534	-0.06
216.753	0.09
216.972	0.35
217.19	0.14
217.409	-0.01
217.627	0.14
217.846	0.01
218.064	0.12
218.283	0
218.501	0.65
218.72	0.29
218.938	-0.04
219.157	-0.07
219.375	0.44
219.594	0.29
219.812	0.01
220.031	-0.07
220.249	0.7
220.467	0.42
220.686	-0.04
220.904	-0.07
221.122	0.04
221.341	0.47
221.559	0.31
221.777	-0.16
221.995	0.18
222.214	0.29
222.432	0.02
222.65	0.15
222.868	0.16
223.086	0.26
223.305	0.32
223.523	0.04
223.741	0.36
223.959	0.01
224.177	-0.12
224.395	-0.05
224.613	0.4
224.831	0.3
225.049	-0.08
225.267	0.07
225.485	0.22
225.703	0.22
225.921	0.08
226.139	-0.03
226.357	0.29
226.575	0.24
226.793	0
227.011	0.63
227.229	0.24
227.447	0.31
227.665	-0.04
227.883	-0.05
228.1	0.06
228.318	0.27
228.536	-0.17
228.754	-0.11
228.972	0.25
229.189	0.26
229.407	0.01
229.625	0.14
229.843	0.37
230.06	0.2
230.278	0.05
230.496	0.03
230.713	0.1
230.931	0.21
231.149	0.05
231.366	-0.07
231.584	0.11
231.801	0.38
232.019	0.03
232.236	0.02
232.454	0.05
232.671	0.08
232.889	0.09
233.106	-0.03
233.324	0.13
233.541	0.08
233.759	0.09
233.976	0.03
234.194	0.12
234.411	0.07
234.628	-0.04
234.846	0.02
235.063	0.09
235.28	0.1
235.498	0.02
235.715	-0.02
235.932	0.18
236.149	0.1
236.367	0.1
236.584	0.04
236.801	0.02
237.018	0.23
237.236	0.06
237.453	-0.12
237.67	0.32
237.887	0.12
238.104	-0.02
238.321	-0.12
238.538	0.02
238.755	0.34
238.973	-0.18
239.19	0.02
239.407	0.17
239.624	0.14
239.841	-0.01
240.058	0.04
240.275	0.15
240.492	0.1
240.709	0.04
240.925	0.06
241.142	0.12
241.359	-0.05
241.576	-0.05
241.793	-0.01
242.01	0.13
242.227	0.24
242.444	0.18
242.66	0.09
242.877	0.11
243.094	0.05
243.311	0.02
243.527	0.02
243.744	0.15
243.961	0.15
244.178	0.06
244.394	0.03
244.611	0.24
244.828	0.23
245.044	0
245.261	0.04
245.477	0.18
245.694	0.2
245.911	-0.03
246.127	0.1
246.344	0.27
246.56	0.15
246.777	-0.01
246.993	0.06
247.21	0.15
247.426	0.1
247.643	0.08
247.859	0.03
248.076	0.08
248.292	0.24
248.508	0.02
248.725	0.06
248.941	0.13
249.157	0.19
249.374	-0.01
249.59	0.04
249.806	0.1
250.023	0.05
250.239	-0.01
250.455	-0.04
250.671	0.12
250.888	0.04
251.104	0.17
251.32	0.11
251.536	0.14
251.752	0.06
251.969	0.06
252.185	0.09
252.401	0.28
252.617	0.07
252.833	0.08
253.049	0.03
253.265	0.1
253.481	0.09
253.697	0.09
253.913	0.03
254.129	0.08
254.345	0.04
254.561	0
254.777	0.04
254.993	0.2
255.209	0.05
255.425	0.02
255.641	-0.09
255.857	0.15
256.073	0.1
256.288	-0.07
256.504	0.02
256.72	0.03
256.936	0.26
257.152	0.12
257.367	0.06
257.583	0.08
257.799	0.15
258.015	0.03
258.23	-0.01
258.446	0.21
258.662	0.1
258.877	0.03
259.093	0.04
259.309	0.07
259.524	0.11
259.74	-0.01
259.955	0
260.171	0.12
260.387	0.05
260.602	0.09
260.818	0.08
261.033	0.03
261.249	0.09
261.464	-0.04
261.68	0.01
261.895	0.07
262.11	0.1
262.326	0.04
262.541	-0.07
262.757	0.1
262.972	0.14
263.187	0.1
263.403	0.07
263.618	0.14
263.833	0.09
264.049	0.02
264.264	0.08
264.479	0.13
264.694	0.17
264.91	-0.04
265.125	-0.01
265.34	0.17
265.555	0.23
265.77	0.09
265.986	-0.05
266.201	0.14
266.416	0.2
266.631	0.04
266.846	0.03
267.061	0.11
267.276	0.1
267.491	-0.06
267.706	0.14
267.921	0.07
268.136	0.03
268.351	0.05
268.566	-0.04
268.781	0.16
268.996	0.14
269.211	0.04
269.426	-0
269.641	0.03
269.856	0.16
270.071	0.07
270.285	-0
270.5	0.13
270.715	0.12
270.93	0.05
271.145	-0.01
271.359	0.13
271.574	-0.05
271.789	0.05
272.004	0.03
272.218	0.04
272.433	0.1
272.648	-0.03
272.862	0.14
273.077	0.05
273.292	0.06
273.506	0.04
273.721	0.01
273.936	0.1
274.15	0.14
274.365	-0.02
274.579	0.15
274.794	0.06
275.008	0.16
275.223	-0.07
275.437	0.06
275.652	0.17
275.866	0.09
276.081	0.1
276.295	0.13
276.509	0.14
276.724	0.07
276.938	0.09
277.153	0.08
277.367	0.13
277.581	0.03
277.796	0.03
278.01	0.03
278.224	0.15
278.438	0.23
278.653	-0.02
278.867	0.02
279.081	-0.06
279.295	0.09
279.51	0.12
279.724	-0.03
279.938	0.08
280.152	0.12
280.366	-0.01
280.58	0.03
280.794	0.19
281.008	0.11
281.222	0.16
281.437	0.18
281.651	0.09
281.865	0.13
282.079	0.03
282.293	-0.01
282.507	0.04
282.721	0.03
282.935	0.03
283.148	-0.05
283.362	0.07
283.576	0
283.79	0.07
284.004	0.06
284.218	0.15
284.432	0.06
284.646	0.03
284.859	-0.04
285.073	0.04
285.287	0.03
285.501	0.07
285.714	0.05
285.928	0.1
286.142	0.06
286.356	0.01
286.569	0.04
286.783	0.18
286.997	0.15
287.21	0.05
287.424	0.08
287.637	0.04
287.851	0.01
288.065	0.06
288.278	0.05
288.492	0.09
288.705	0.06
288.919	0.13
289.132	0.02
289.346	0.14
289.559	0.05
289.773	-0.08
289.986	0
290.2	0.07
290.413	0.12
290.626	-0
290.84	0.08
291.053	0
291.267	0.1
291.48	0.06
291.693	0.02
291.906	0.03
292.12	0.05
292.333	-0.02
292.546	0.04
292.76	0.14
292.973	0.06
293.186	0.1
293.399	0.01
293.612	0.1
293.826	0.04
294.039	0.05
294.252	0.06
294.465	0.1
294.678	0.08
294.891	0.11
295.104	-0.01
295.317	0.06
295.53	0.07
295.743	0.06
295.956	0.04
296.169	0.08
296.382	0.11
296.595	0.04
296.808	-0.02
297.021	0.14
297.234	0.12
297.447	0.04
297.66	0.11
297.873	0.08
298.086	0.03
298.299	0.05
298.511	-0.03
298.724	0.06
298.937	-0.01
299.15	0.03
299.363	0.05
299.575	0.11
299.788	0.06
300.001	0.03
300.213	-0.03
300.426	0.04
300.639	0.01
300.852	0.01
301.064	0.08
301.277	0.12
301.489	0.1
301.702	0.08
301.915	-0
302.127	0.07
302.34	0.09
302.552	0.08
302.765	0.06
302.977	0.11
303.19	0.03
303.402	0.1
303.615	0.03
303.827	0.04
304.04	0.01
304.252	0.08
304.464	0.03
304.677	0.15
304.889	0.13
305.102	-0.02
305.314	-0
305.526	0.08
305.739	0.14
305.951	0.01
306.163	0.02
306.375	0.13
306.588	0.05
306.8	0.01
307.012	0.02
307.224	0.07
307.436	0.13
307.649	-0.02
307.861	0.09
308.073	0.09
308.285	0.04
308.497	-0.01
308.709	0.05
308.921	0.08
309.133	0.09
309.346	0.07
309.558	0.04
309.77	0.06
309.982	0.13
310.194	0.07
310.406	0
310.617	0.14
310.829	0.07
311.041	0.07
311.253	0.01
311.465	0.07
311.677	0.07
311.889	0.02
312.101	-0
312.313	0.1
312.524	0.15
312.736	0
312.948	0.03
313.16	0.11
313.372	0.11
313.583	0.09
313.795	0.03
314.007	0.03
314.218	0.12
314.43	0.04
314.642	0.04
314.853	-0.02
315.065	0.1
315.277	0.05
315.488	0.09
315.7	0.09
315.912	0.09
316.123	0.02
316.335	0.04
316.546	0.16
316.758	0.06
316.969	0.05
317.181	0.04
317.392	0.05
317.604	0.11
317.815	0.02
318.026	0.02
318.238	0.02
318.449	0.04
318.661	-0.01
318.872	0.01
319.083	0.03
319.295	0.07
319.506	0.03
319.717	0.07
319.929	0.07
320.14	0.04
320.351	0.08
320.562	0
320.774	0.1
320.985	0.07
321.196	0.01
321.407	0
321.618	0.11
321.829	0.08
322.041	0.1
322.252	0.08
322.463	0.08
322.674	0.08
322.885	0.01
323.096	0.01
323.307	0.08
323.518	0.08
323.729	-0.01
323.94	0.03
324.151	0.07
324.362	0.08
324.573	0.05
324.784	0.03
324.995	0.15
325.206	0.1
325.417	0.05
325.628	0.05
325.838	0.08
326.049	0.08
326.26	0.09
326.471	0.04
326.682	0.09
326.892	0.07
327.103	-0.02
327.314	0.04
327.525	0.14
327.735	0.06
327.946	-0.01
328.157	0.04
328.368	0.09
328.578	0.03
328.789	0.11
328.999	0.08
329.21	0.08
329.421	0.11
329.631	0.05
329.842	0.02
330.052	0.1
330.263	0.07
330.473	0.1
330.684	0.04
330.894	0.05
331.105	0.09
331.315	0.04
331.526	0
331.736	0.16
331.947	0.1
332.157	0.07
332.367	0
332.578	0.1
332.788	0.14
332.999	0.11
333.209	0.07
333.419	0.01
333.629	0.08
333.84	0.07
334.05	0.1
334.26	0.14
334.47	0.04
334.681	0.1
334.891	0.02
335.101	0.07
335.311	0.11
335.521	0.08
335.732	-0.01
335.942	0.14
336.152	0.09
336.362	0.1
336.572	0.08
336.782	0.07
336.992	0.03
337.202	0.06
337.412	0
337.622	0.05
337.832	0.02
338.042	0.09
338.252	0.05
338.462	0.07
338.672	0.05
338.882	-0.01
339.092	0.05
339.302	0.11
339.511	0.05
339.721	0.02
339.931	0.03
340.141	0.09
340.351	0.13
340.561	0.08
340.77	0.1
340.98	0.09
341.19	0.08
341.4	0.08
341.609	0
341.819	0.04
342.029	0.05
342.238	0.08
342.448	0.01
342.658	0.07
342.867	0.06
343.077	0.06
343.286	0.09
343.496	0.05
343.706	0.12
343.915	0.01
344.125	0.09
344.334	0.07
344.544	0.05
344.753	0.06
344.963	0.04
345.172	0.03
345.381	0.06
345.591	0.02
345.8	0.07
346.01	0.12
346.219	0.12
346.428	-0.09
346.638	0.04
346.847	0.04
347.056	0.13
347.266	0.03
347.475	0.1
347.684	0.05
347.893	0.11
348.103	0.1
348.312	0.02
348.521	0.05
348.73	0.07
348.94	0.06
349.149	0.03
349.358	0.04
349.567	0.04
349.776	-0.01
349.985	0.02
350.194	0.12
350.403	0.11
350.612	0.03
350.821	0.03
351.03	0.06
351.239	0.05
351.448	0.07
351.657	0.04
351.866	0.15
352.075	0.05
352.284	0.08
352.493	0
352.702	0.1
352.911	0.11
353.12	0.07
353.329	0.09
353.538	0.11
353.746	0.04
353.955	0.05
354.164	0.09
354.373	0.07
354.582	0.12
354.79	0.08
354.999	0.09
355.208	0.07
355.416	0.11
355.625	0.01
355.834	0.06
356.042	0.09
356.251	0.03
356.46	0.02
356.668	0.09
356.877	0.17
357.085	0.08
357.294	-0.02
357.503	0.08
357.711	0.07
357.92	0.22
358.128	0.06
358.337	0.04
358.545	0.09
358.754	0.03
358.962	0.08
359.17	0.05
359.379	0.08
359.587	0.11
359.796	0.07
360.004	0.13
360.212	0.07
360.421	0.13
360.629	0.05
360.837	0.07
361.046	0.13
361.254	0.15
361.462	0.06
361.67	0.05
361.879	0.06
362.087	0.13
362.295	0.12
362.503	0.06
362.711	-0.02
362.92	0.05
363.128	0.03
363.336	0.02
363.544	0.04
363.752	0.06
363.96	0.06
364.168	0.05
364.376	0.07
364.584	0.07
364.792	0.13
365	0.08
365.208	0.07
365.416	0.1
365.624	0.13
365.832	0.03
366.04	0.13
366.248	0.1
366.456	0.08
366.664	0.07
366.872	0.08
367.079	0.13
367.287	0.07
367.495	0.11
367.703	0.05
367.911	0.08
368.118	0.09
368.326	0.09
368.534	0.06
368.742	0.15
368.949	0.06
369.157	0.07
369.365	0.07
369.572	0.06
369.78	0.03
369.988	0.12
370.195	0.14
370.403	0.1
370.61	0.04
370.818	0.1
371.026	0.13
371.233	0.06
371.441	0.13
371.648	0.04
371.856	0.1
372.063	0.12
372.271	0.05
372.478	0.03
372.685	0.06
372.893	0.15
373.1	0.05
373.308	0.07
373.515	0.15
373.722	0.13
373.93	0.06
374.137	0.13
374.344	0.11
374.552	0.1
374.759	0.12
374.966	0.09
375.173	0.06
375.381	0.16
375.588	0.07
375.795	0.04
376.002	0.09
376.209	0.03
376.417	0.06
376.624	0.06
376.831	0.11
377.038	0.07
377.245	-0.02
377.452	0.06
377.659	0.09
377.866	0.05
378.073	0.09
378.28	0.03
378.487	0.13
378.694	0.15
378.901	0.07
379.108	0.06
379.315	0.09
379.522	0.17
379.729	0.09
379.936	0.09
380.143	0.12
380.35	0.06
380.557	0.07
380.763	0.08
380.97	0.1
381.177	0.13
381.384	0.11
381.591	0.12
381.797	0.1
382.004	0.12
382.211	0.07
382.418	0.1
382.624	0.15
382.831	0.14
383.038	0.05
383.244	0.11
383.451	0.06
383.658	0.1
383.864	0.08
384.071	0.09
384.277	0.14
384.484	0.08
384.69	0.15
384.897	0.06
385.103	0.05
385.31	0.07
385.516	0.06
385.723	0.07
385.929	0.09
386.136	0.05
386.342	0.13
386.549	0.09
386.755	0.15
386.961	0.11
387.168	0.14
387.374	0.1
387.58	0.13
387.787	0.12
387.993	0.16
388.199	0.14
388.406	0.1
388.612	0.12
388.818	0.08
389.024	0.11
389.231	0.13
389.437	0.22
389.643	0.16
389.849	0.11
390.055	0.11
390.261	0.13
390.467	0.16
390.674	0.11
390.88	0.15
391.086	0.2
391.292	0.12
391.498	0.2
391.704	0.2
391.91	0.14
392.116	0.13
392.322	0.11
392.528	0.18
392.734	0.2
392.94	0.22
393.146	0.16
393.352	0.2
393.557	0.19
393.763	0.23
393.969	0.24
394.175	0.23
394.381	0.21
394.587	0.16
394.792	0.25
394.998	0.21
395.204	0.26
395.41	0.25
395.615	0.27
395.821	0.32
396.027	0.31
396.233	0.26
396.438	0.29
396.644	0.39
396.85	0.36
397.055	0.33
397.261	0.31
397.466	0.42
397.672	0.38
397.878	0.42
398.083	0.4
398.289	0.29
398.494	0.47
398.7	0.46
398.905	0.35
399.111	0.49
399.316	0.4
399.522	0.45
399.727	0.48
399.932	0.49
400.138	0.53
400.343	0.61
400.549	0.56
400.754	0.62
400.959	0.63
401.165	0.66
401.37	0.68
401.575	0.83
401.78	0.74
401.986	0.76
402.191	0.78
402.396	0.88
402.601	0.89
402.807	0.96
403.012	0.96
403.217	1.08
403.422	1.04
403.627	1.11
403.832	1.19
404.037	1.27
404.243	1.27
404.448	1.32
404.653	1.44
404.858	1.46
405.063	1.51
405.268	1.56
405.473	1.56
405.678	1.68
405.883	1.89
406.088	1.89
406.293	1.85
406.498	1.99
406.703	2.02
406.907	2.12
407.112	2.23
407.317	2.43
407.522	2.5
407.727	2.59
407.932	2.74
408.136	3.02
408.341	3.01
408.546	3.13
408.751	3.27
408.956	3.3
409.16	3.56
409.365	3.66
409.57	3.7
409.774	3.83
409.979	4.03
410.184	4.24
410.388	4.32
410.593	4.63
410.798	4.75
411.002	5.04
411.207	5.16
411.411	5.37
411.616	5.44
411.82	5.86
412.025	5.99
412.229	6.21
412.434	6.43
412.638	6.55
412.843	6.72
413.047	7.03
413.252	7.16
413.456	7.64
413.66	7.69
413.865	7.99
414.069	8.18
414.273	8.42
414.478	8.75
414.682	9.02
414.886	9.18
415.091	9.42
415.295	9.84
415.499	10.17
415.703	10.3
415.908	10.79
416.112	10.99
416.316	11.44
416.52	11.76
416.724	11.94
416.929	12.25
417.133	12.88
417.337	12.89
417.541	13.3
417.745	13.53
417.949	13.81
418.153	14.3
418.357	14.78
418.561	15.23
418.765	15.35
418.969	15.58
419.173	16.54
419.377	16.52
419.581	17.18
419.785	17.46
419.989	17.63
420.193	18.3
420.397	18.41
420.601	18.63
420.804	18.99
421.008	19.03
421.212	19.43
421.416	19.11
421.62	19.21
421.823	19.19
422.027	19.19
422.231	19.23
422.435	18.92
422.638	18.72
422.842	18.74
423.046	19.21
423.249	19.41
423.453	18.98
423.657	19.15
423.86	19.2
424.064	19.32
424.268	19.2
424.471	18.88
424.675	19.13
424.878	18.87
425.082	19.02
425.285	19.41
425.489	18.54
425.692	18.37
425.896	17.94
426.099	17.85
426.303	17.98
426.506	17.78
426.71	17.88
426.913	17.68
427.116	17.54
427.32	16.76
427.523	16.43
427.726	16.54
427.93	16.4
428.133	16.44
428.336	16.2
428.54	15.74
428.743	15.78
428.946	15.58
429.149	14.99
429.353	14.47
429.556	14.03
429.759	13.57
429.962	13.21
430.165	12.86
430.368	11.89
430.571	11.58
430.775	11.18
430.978	10.74
431.181	10.39
431.384	10.05
431.587	9.82
431.79	9.87
431.993	9.48
432.196	9.48
432.399	9.5
432.602	9.2
432.805	8.97
433.008	9.23
433.211	8.77
433.414	8.68
433.616	8.44
433.819	8.05
434.022	7.92
434.225	7.74
434.428	7.53
434.631	7.57
434.833	7.1
435.036	7.18
435.239	7.02
435.442	6.79
435.645	6.61
435.847	6.42
436.05	6.44
436.253	6.38
436.455	6.19
436.658	5.86
436.861	5.85
437.063	5.75
437.266	5.48
437.468	5.45
437.671	5.48
437.874	5.26
438.076	4.94
438.279	4.98
438.481	4.78
438.684	4.99
438.886	4.61
439.089	4.57
439.291	4.49
439.494	4.45
439.696	4.26
439.899	4.32
440.101	4.27
440.303	4.1
440.506	4.2
440.708	4.04
440.91	3.94
441.113	3.77
441.315	3.77
441.517	3.6
441.72	3.66
441.922	3.28
442.124	3.18
442.326	3.23
442.529	3.19
442.731	3.01
442.933	3.11
443.135	2.93
443.337	2.72
443.539	2.73
443.742	2.55
443.944	2.65
444.146	2.44
444.348	2.48
444.55	2.29
444.752	2.26
444.954	2.12
445.156	2.15
445.358	2.13
445.56	2.15
445.762	2.03
445.964	1.97
446.166	1.87
446.368	1.9
446.57	1.86
446.772	1.76
446.974	1.69
447.175	1.72
447.377	1.58
447.579	1.71
447.781	1.5
447.983	1.62
448.184	1.47
448.386	1.54
448.588	1.29
448.79	1.4
448.991	1.35
449.193	1.36
449.395	1.29
449.597	1.33
449.798	1.24
450	1.16
450.202	1.15
450.403	1.21
450.605	1.23
450.806	1.1
451.008	1.03
451.21	1.07
451.411	1.02
451.613	0.95
451.814	1
452.016	1.04
452.217	0.93
452.419	0.98
452.62	0.91
452.821	0.96
453.023	1
453.224	0.91
453.426	0.79
453.627	0.77
453.828	0.8
454.03	0.78
454.231	0.81
454.432	0.76
454.634	0.87
454.835	0.71
455.036	0.7
455.238	0.79
455.439	0.79
455.64	0.63
455.841	0.68
456.042	0.79
456.244	0.67
456.445	0.64
456.646	0.58
456.847	0.64
457.048	0.66
457.249	0.67
457.45	0.86
457.651	0.56
457.852	0.57
458.054	0.57
458.255	0.57
458.456	0.58
458.657	0.55
458.858	0.45
459.058	0.51
459.259	0.59
459.46	0.5
459.661	0.44
459.862	0.61
460.063	0.46
460.264	0.5
460.465	0.37
460.666	0.56
460.866	0.39
461.067	0.41
461.268	0.4
461.469	0.36
461.67	0.42
461.87	0.32
462.071	0.41
462.272	0.34
462.473	0.38
462.673	0.45
462.874	0.3
463.075	0.42
463.275	0.31
463.476	0.39
463.676	0.36
463.877	0.36
464.078	0.39
464.278	0.41
464.479	0.35
464.679	0.31
464.88	0.33
465.08	0.41
465.281	0.31
465.481	0.31
465.682	0.29
465.882	0.32
466.083	0.26
466.283	0.29
466.483	0.28
466.684	0.23
466.884	0.22
467.085	0.27
467.285	0.28
467.485	0.23
467.686	0.3
467.886	0.18
468.086	0.24
468.286	0.24
468.487	0.31
468.687	0.18
468.887	0.25
469.087	0.28
469.287	0.25
469.488	0.15
469.688	0.22
469.888	0.29
470.088	0.24
470.288	0.26
470.488	0.26
470.688	0.17
470.888	0.18
471.088	0.18
471.288	0.27
471.488	0.24
471.688	0.24
471.888	0.17
472.088	0.28
472.288	0.19
472.488	0.2
472.688	0.14
472.888	0.2
473.088	0.22
473.288	0.19
473.488	0.2
473.688	0.26
473.887	0.18
474.087	0.15
474.287	0.22
474.487	0.14
474.687	0.2
474.886	0.14
475.086	0.16
475.286	0.15
475.486	0.19
475.685	0.16
475.885	0.13
476.085	0.11
476.284	0.16
476.484	0.15
476.684	0.15
476.883	0.22
477.083	0.14
477.282	0.1
477.482	0.21
477.681	0.19
477.881	0.17
478.08	0.07
478.28	0.11
478.479	0.14
478.679	0.22
478.878	0.11
479.078	0.11
479.277	0.13
479.477	0.14
479.676	0.15
479.875	0.13
480.075	0.07
480.274	0.13
480.473	0.13
480.673	0.12
480.872	0.19
481.071	0.16
481.271	0.12
481.47	0.09
481.669	0.11
481.868	0.1
482.067	0.08
482.267	0.08
482.466	0.1
482.665	0.07
482.864	0.07
483.063	0.06
483.262	0.12
483.461	0.15
483.661	0.11
483.86	0.09
484.059	0.11
484.258	0.09
484.457	0.09
484.656	0.09
484.855	0.17
485.054	0.05
485.253	0.06
485.452	0.06
485.651	0.09
485.849	0.09
486.048	0.09
486.247	0.05
486.446	0.09
486.645	0.05
486.844	0.07
487.043	0.07
487.241	0.11
487.44	0.08
487.639	0.08
487.838	0.13
488.037	0.06
488.235	0.13
488.434	0.06
488.633	0.06
488.831	0.09
489.03	0.12
489.229	0.08
489.427	0.05
489.626	0.12
489.825	0.11
490.023	0.07
490.222	0.06
490.42	0.08
490.619	0.1
490.817	0.08
491.016	0.06
491.214	0.1
491.413	0.08
491.611	0.07
491.81	0.06
492.008	0.09
492.207	0.11
492.405	0.07
492.604	0.03
492.802	0.06
493	0.09
493.199	0.05
493.397	0.06
493.595	0.05
493.794	0.06
493.992	0.1
494.19	0.08
494.388	0.07
494.587	0.05
494.785	0.06
494.983	0.03
495.181	0.08
495.379	0.06
495.578	0.04
495.776	0.07
495.974	0.07
496.172	0.05
496.37	0.04
496.568	0.04
496.766	0.05
496.964	0.09
497.162	0.06
497.36	0.03
497.558	0.05
497.756	0.07
497.954	0.04
498.152	0.03
498.35	0.04
498.548	0.04
498.746	0.06
498.944	0.04
499.142	0.05
499.34	0.02
499.538	0.04
499.736	0.03
499.933	0.07
500.131	0.08
500.329	0.06
500.527	0.08
500.725	0.08
500.922	0.07
501.12	0.07
501.318	0.06
501.516	0.03
501.713	0.07
501.911	0.04
502.109	0.05
502.306	0.07
502.504	0.06
502.701	0.02
502.899	0.03
503.097	0.08
503.294	0.06
503.492	0.05
503.689	0.05
503.887	0.04
504.084	0.12
504.282	0.06
504.479	-0
504.677	0.04
504.874	0.02
505.072	0.05
505.269	0.05
505.466	0.06
505.664	0.07
505.861	0.04
506.059	0.02
506.256	0.07
506.453	0.02
506.651	0.09
506.848	0.04
507.045	0.06
507.242	0.05
507.44	0.05
507.637	0.05
507.834	0.04
508.031	0.08
508.229	0.02
508.426	0.05
508.623	0.08
508.82	0.02
509.017	0.01
509.214	0.04
509.411	0.06
509.608	0.03
509.805	0.04
510.003	0.03
510.2	0.03
510.397	0.07
510.594	0.03
510.791	0.01
510.988	0.05
511.184	0.07
511.381	0.06
511.578	0.02
511.775	0.08
511.972	0.03
512.169	0.04
512.366	0.02
512.563	0.07
512.76	0.01
512.956	0.05
513.153	0.02
513.35	0.03
513.547	0.01
513.744	0.04
513.94	0.01
514.137	0.06
514.334	0.05
514.53	0.04
514.727	0.03
514.924	0.11
515.12	-0.01
515.317	0.02
515.514	0.02
515.71	0.01
515.907	0.02
516.103	0.05
516.3	0.02
516.497	0.05
516.693	0.06
516.89	0.03
517.086	0.02
517.283	0.04
517.479	0.03
517.676	0.04
517.872	0.04
518.068	0.01
518.265	0.01
518.461	0
518.658	0.02
518.854	0.04
519.05	0.03
519.247	0.02
519.443	0.03
519.639	0.04
519.836	0.04
520.032	0.05
520.228	0.03
520.424	0.08
520.621	0.06
520.817	0.03
521.013	0.02
521.209	0.06
521.405	0.09
521.601	0.04
521.798	0.06
521.994	0.07
522.19	0.04
522.386	0
522.582	0.02
522.778	0.02
522.974	0.01
523.17	0.02
523.366	0.05
523.562	0.09
523.758	0.03
523.954	0.01
524.15	0.03
524.346	0.06
524.542	0.02
524.738	0
524.934	0.03
525.129	0.01
525.325	0.05
525.521	0.04
525.717	0.07
525.913	0.03
526.109	0.04
526.304	0.03
526.5	0.04
526.696	0.06
526.892	0.04
527.087	0.03
527.283	-0.01
527.479	0.05
527.674	0.03
527.87	0.04
528.066	0.03
528.261	0.07
528.457	0.06
528.653	0.02
528.848	0.03
529.044	0.05
529.239	0.03
529.435	0.04
529.63	0.05
529.826	0.07
530.021	0.02
530.217	0.06
530.412	0.02
530.608	0.03
530.803	0.04
530.999	0.01
531.194	-0
531.389	0.04
531.585	-0.02
531.78	0.04
531.975	0.02
532.171	0.05
532.366	0.01
532.561	0.03
532.757	0
532.952	0.02
533.147	0.05
533.342	0.02
533.538	0.03
533.733	0.05
533.928	0.03
534.123	0.01
534.318	-0.01
534.513	0.02
534.709	0.03
534.904	0.02
535.099	0.02
535.294	0.02
535.489	0.06
535.684	0.03
535.879	-0
536.074	0.05
536.269	0.01
536.464	0.05
536.659	0.03
536.854	0.01
537.049	0.05
537.244	0.03
537.439	0.01
537.634	0.05
537.828	0.03
538.023	0.02
538.218	-0.02
538.413	0.01
538.608	-0.01
538.803	0.05
538.997	0
539.192	0.05
539.387	0.05
539.582	0.01
539.776	0.04
539.971	-0.01
540.166	0.03
540.36	-0
540.555	0.04
540.75	0.01
540.944	0.02
541.139	-0
541.334	0
541.528	0.05
541.723	0.05
541.917	0.01
542.112	-0.02
542.306	0.01
542.501	0.03
542.695	0.03
542.89	0
543.084	0.03
543.279	0.01
543.473	0.03
543.668	0.02
543.862	0.03
544.056	0.06
544.251	0.02
544.445	0.02
544.64	0.03
544.834	0.01
545.028	0.03
545.222	0.03
545.417	0.05
545.611	0.03
545.805	0.01
546	0.02
546.194	-0.01
546.388	0.02
546.582	0.02
546.776	0.01
546.97	0.03
547.165	0.06
547.359	0.06
547.553	-0.01
547.747	0.06
547.941	0.05
548.135	0.01
548.329	0.04
548.523	0.03
548.717	0.01
548.911	-0.01
549.105	0.01
549.299	0.03
549.493	0.03
549.687	0.04
549.881	0.03
550.075	0.02
550.269	-0.01
550.463	0.05
550.657	-0
550.85	0.04
551.044	0
551.238	0.03
551.432	0
551.626	0
551.82	0.03
552.013	0.01
552.207	0.02
552.401	0.05
552.594	0.03
552.788	0.03
552.982	0.02
553.176	0.02
553.369	0.03
553.563	0.02
553.756	-0.01
553.95	0.02
554.144	0.03
554.337	0.05
554.531	0.04
554.724	0.03
554.918	0.02
555.111	0.04
555.305	0.03
555.498	0.08
555.692	0.07
555.885	0.02
556.079	0.01
556.272	0.01
556.466	0.09
556.659	0.03
556.852	0
557.046	0.02
557.239	0.04
557.432	0
557.626	-0
557.819	0.03
558.012	0.04
558.206	0.03
558.399	0.03
558.592	0.04
558.785	0.03
558.979	0.03
559.172	0.04
559.365	0.05
559.558	0.03
559.751	0.02
559.944	-0.01
560.138	-0.03
560.331	0.01
560.524	0.01
560.717	0.02
560.91	0.03
561.103	0.03
561.296	0.01
561.489	0.05
561.682	0.02
561.875	0.05
562.068	0.04
562.261	0.02
562.454	0.06
562.647	0.03
562.84	0.05
563.032	0.02
563.225	0.01
563.418	0.04
563.611	0.01
563.804	0.04
563.997	-0.02
564.19	-0.01
564.382	0.04
564.575	0.02
564.768	0.01
564.961	0.03
565.153	0.01
565.346	0.04
565.539	0.04
565.731	0.04
565.924	0.05
566.117	0.01
566.309	0.02
566.502	0.01
566.695	0.03
566.887	0.01
567.08	0.01
567.272	0.01
567.465	0.01
567.657	0.02
567.85	0.01
568.042	0.05
568.235	0.07
568.427	0.01
568.62	0.02
568.812	0.02
569.005	0.04
569.197	-0.02
569.389	0.04
569.582	0.03
569.774	0.03
569.966	-0.01
570.159	-0
570.351	0.03
570.543	0.02
570.736	0.02
570.928	-0.01
571.12	0.02
571.312	-0
571.505	-0.01
571.697	0.04
571.889	-0.02
572.081	0.02
572.273	-0.05
572.465	0.07
572.658	0.01
572.85	0.02
573.042	0
573.234	0.01
573.426	0.07
573.618	-0.01
573.81	0.03
574.002	0.06
574.194	0.07
574.386	-0.01
574.578	-0.05
574.77	0.01
574.962	0.01
575.154	0.01
575.346	0
575.538	0.04
575.729	-0
575.921	-0
576.113	-0.01
576.305	0.06
576.497	0
576.689	0.01
576.88	-0.02
577.072	0.05
577.264	0.03
577.456	0.02
577.647	-0.06
577.839	0.02
578.031	0.06
578.223	-0.01
578.414	-0.01
578.606	0.04
578.798	0.01
578.989	-0.01
579.181	0.01
579.372	-0
579.564	0
579.755	0.04
579.947	0.04
580.139	0.03
580.33	-0.03
580.522	-0.01
580.713	-0.05
580.905	-0.01
581.096	0.05
581.287	0
581.479	-0
581.67	0.03
581.862	0.03
582.053	0.01
582.244	-0.04
582.436	-0.01
582.627	0.03
582.818	-0.01
583.01	-0.01
583.201	0.04
583.392	0.05
583.583	0.04
583.775	0.03
583.966	-0.02
584.157	0
584.348	0
584.54	-0.05
584.731	0.04
584.922	-0
585.113	-0.02
585.304	0.03
585.495	0.04
585.686	0.04
585.877	0.04
586.068	0.05
586.259	0.01
586.45	0.03
586.641	0.01
586.832	-0.02
587.023	0.02
587.214	0.01
587.405	0.03
587.596	-0.01
587.787	0.05
587.978	0.03
588.169	-0.04
588.36	-0.01
588.551	-0.01
588.742	0.01
588.932	0.03
589.123	0.01
589.314	0.03
589.505	0.03
589.696	0.03
589.886	0.01
590.077	-0
590.268	0.04
590.458	-0.02
590.649	-0.01
590.84	0.05
591.03	0
591.221	-0.02
591.412	-0.04
591.602	0.03
591.793	0.05
591.984	-0.02
592.174	0
592.365	0.09
592.555	-0.03
592.746	0.04
592.936	0.02
593.127	0.04
593.317	0.06
593.508	-0.01
593.698	-0.01
593.889	0.01
594.079	0.02
594.269	-0
594.46	0.01
594.65	0.01
594.84	0.02
595.031	-0.02
595.221	-0.02
595.411	-0.03
595.602	0.04
595.792	0.03
595.982	-0.02
596.172	0.06
596.363	0.01
596.553	0.02
596.743	-0.01
596.933	0
597.123	0.06
597.314	-0
597.504	0.01
597.694	0.05
597.884	0.03
598.074	-0
598.264	-0.02
598.454	0.01
598.644	0.01
598.834	-0.01
599.024	-0.04
599.214	0.02
599.404	-0
599.594	-0.01
599.784	-0.02
599.974	0.06
600.164	0.05
600.354	-0.02
600.544	-0.01
600.734	0.02
600.924	0.06
601.114	-0
601.303	0.04
601.493	0.02
601.683	0.01
601.873	0.03
602.063	-0.04
602.252	0.03
602.442	-0.06
602.632	-0
602.821	-0.03
603.011	0.06
603.201	0
603.39	-0.01
603.58	-0
603.77	0.03
603.959	0.05
604.149	0.01
604.339	0.02
604.528	0.03
604.718	0.03
604.907	0
605.097	0.01
605.286	-0.01
605.476	0.06
605.665	0.01
605.855	-0
606.044	0.07
606.234	0.02
606.423	-0
606.612	-0.02
606.802	0.02
606.991	0.03
607.181	0.03
607.37	-0.04
607.559	0
607.749	-0.01
607.938	-0.01
608.127	0.01
608.316	-0
608.506	0.01
608.695	0.01
608.884	-0.01
609.073	0.02
609.263	0.02
609.452	0.03
609.641	0.03
609.83	0
610.019	0.04
610.208	-0.02
610.397	0.01
610.586	0.07
610.775	-0.01
610.965	-0.02
611.154	0
611.343	0.02
611.532	0.01
611.721	-0.04
611.91	-0.01
612.099	0.04
612.287	0
612.476	-0
612.665	0.01
612.854	-0.03
613.043	0.05
613.232	0.01
613.421	-0.02
613.61	0
613.798	-0.01
613.987	0.05
614.176	0.02
614.365	0.05
614.554	0.02
614.742	0.03
614.931	-0.03
615.12	0.06
615.309	-0.01
615.497	0.03
615.686	-0.01
615.875	0
616.063	0.01
616.252	-0.01
616.44	-0
616.629	0.03
616.818	0.05
617.006	0.01
617.195	0.01
617.383	0.03
617.572	-0.01
617.76	-0
617.949	-0.01
618.137	0.04
618.326	0.04
618.514	-0.01
618.703	-0.03
618.891	0.07
619.079	-0.03
619.268	0.05
619.456	-0.02
619.644	0.05
619.833	0.01
620.021	0.01
620.209	-0.04
620.398	0.04
620.586	0.02
620.774	0.03
620.962	0
621.151	0.03
621.339	0.03
621.527	-0.03
621.715	-0.02
621.903	-0.07
622.092	-0.02
622.28	0.04
622.468	-0.01
622.656	-0.02
622.844	0.03
623.032	-0.02
623.22	-0.06
623.408	0.02
623.596	-0
623.784	0.06
623.972	-0.01
624.16	-0.01
624.348	0.05
624.536	0
624.724	0
624.912	0.05
625.1	0.03
625.288	-0.06
625.476	-0.03
625.664	0.02
625.851	-0.03
626.039	-0
626.227	0.04
626.415	0
626.603	-0.05
626.79	0.02
626.978	0.01
627.166	0.03
627.354	0.02
627.541	0.01
627.729	-0.06
627.917	0.06
628.104	0.06
628.292	0.02
628.48	0.01
628.667	0.02
628.855	0.03
629.042	0.02
629.23	-0.03
629.418	0.01
629.605	0.01
629.793	0.01
629.98	-0
630.168	-0.01
630.355	0.03
630.543	0.04
630.73	-0.01
630.917	0.04
631.105	0.01
631.292	-0.01
631.48	-0.01
631.667	0.1
631.854	0.03
632.042	0.01
632.229	-0.04
632.416	0.01
632.604	-0
632.791	-0.01
632.978	0.04
633.165	0.05
633.353	0.05
633.54	0.03
633.727	-0.06
633.914	-0.01
634.101	-0.06
634.289	0.08
634.476	-0.04
634.663	-0.02
634.85	0.06
635.037	-0.01
635.224	-0.04
635.411	0.03
635.598	0.06
635.785	-0.01
635.972	-0.03
636.159	0.03
636.346	-0.03
636.533	0
636.72	0
636.907	-0.01
637.094	0.03
637.281	-0.02
637.468	0.04
637.655	-0.01
637.842	0
638.029	-0.02
638.215	0.04
638.402	0.02
638.589	-0.08
638.776	0
638.963	-0.03
639.149	0.02
639.336	0.1
639.523	-0
639.709	-0.02
639.896	-0.01
640.083	0.08
640.27	0.02
640.456	-0.03
640.643	0.01
640.829	-0.07
641.016	-0
641.203	-0.03
641.389	0.03
641.576	0.05
641.762	0
641.949	-0.01
642.135	0.05
642.322	0.04
642.508	-0.02
642.695	0
642.881	-0.04
643.068	-0.02
643.254	0.01
643.441	0.06
643.627	-0.01
643.813	0
644	0.04
644.186	-0.06
644.372	-0.02
644.559	0.05
644.745	0.01
644.931	-0.04
645.118	-0
645.304	-0.02
645.49	-0
645.676	-0.01
645.862	0
646.049	0.05
646.235	0.02
646.421	0.1
646.607	0.05
646.793	-0
646.979	-0.03
647.165	0.01
647.352	0.01
647.538	0.07
647.724	-0.01
647.91	0.03
648.096	0.06
648.282	0.04
648.468	-0.01
648.654	0.01
648.84	-0.01
649.026	0.01
649.212	-0.03
649.397	-0.03
649.583	-0.05
649.769	0.05
649.955	-0
650.141	0
650.327	0.06
650.513	-0
650.698	0.03
650.884	-0.07
651.07	-0
651.256	0.05
651.442	-0.01
651.627	0.01
651.813	0.02
651.999	-0.03
652.184	0.04
652.37	-0.01
652.556	-0.02
652.741	0.1
652.927	-0.09
653.113	-0.01
653.298	0.03
653.484	-0.02
653.669	-0.05
653.855	0.01
654.04	0.03
654.226	0.01
654.412	-0.04
654.597	-0.01
654.782	0.01
654.968	0.05
655.153	0
655.339	-0.04
655.524	-0.02
655.71	0.06
655.895	-0.02
656.08	-0.01
656.266	0.04
656.451	0.01
656.636	-0.04
656.822	0.02
657.007	-0.02
657.192	-0.03
657.378	-0.06
657.563	-0.01
657.748	0.02
657.933	0.06
658.118	-0.01
658.304	-0.06
658.489	0.02
658.674	0.03
658.859	-0.06
659.044	0.01
659.229	0.01
659.414	-0.02
659.599	-0
659.785	-0.03
659.97	-0.01
660.155	0.03
660.34	0
660.525	-0.01
660.71	-0.01
660.895	0.03
661.08	-0.01
661.264	0
661.449	0.08
661.634	0.04
661.819	0.06
662.004	-0
662.189	-0.07
662.374	0.01
662.559	-0.05
662.743	-0
662.928	-0.05
663.113	0
663.298	-0.04
663.483	-0.04
663.667	0.02
663.852	-0.05
664.037	0.04
664.221	-0.03
664.406	0
664.591	0.05
664.775	0.03
664.96	0
665.145	0.01
665.329	0.07
665.514	-0
665.698	-0.01
665.883	-0.05
666.068	0.05
666.252	0.01
666.437	-0.04
666.621	0.03
666.806	0.07
666.99	0
667.174	0
667.359	0.08
667.543	-0.02
667.728	-0.01
667.912	-0.02
668.096	0.04
668.281	-0.03
668.465	-0
668.649	-0.01
668.834	-0.04
669.018	0
669.202	-0
669.387	-0.02
669.571	0.06
669.755	-0.03
669.939	-0.02
670.124	-0
670.308	0.04
670.492	0.03
670.676	-0.01
670.86	0.01
671.044	-0.01
671.228	0.04
671.413	-0.06
671.597	-0.02
671.781	-0.02
671.965	0.06
672.149	-0.01
672.333	-0.01
672.517	-0.05
672.701	0.02
672.885	-0.01
673.069	-0.05
673.253	0.04
673.437	-0.01
673.621	-0.06
673.804	-0.01
673.988	-0.02
674.172	0.03
674.356	-0.07
674.54	-0.02
674.724	0.09
674.908	0.03
675.091	0.04
675.275	-0.01
675.459	0
675.643	0.06
675.826	0.04
676.01	-0.01
676.194	-0.01
676.377	0.02
676.561	0.06
676.745	0.03
676.928	0
677.112	0.06
677.296	-0.05
677.479	-0.03
677.663	-0.01
677.846	0.06
678.03	-0.02
678.213	-0.03
678.397	0.04
678.58	-0.03
678.764	-0.04
678.947	-0.06
679.131	-0.02
679.314	0.02
679.498	-0.03
679.681	0.03
679.865	0.07
680.048	-0.01
680.231	-0.05
680.415	-0.02
680.598	0.01
680.781	0
680.965	-0.04
681.148	0.04
681.331	-0.02
681.514	0.02
681.698	-0.01
681.881	0.03
682.064	0.01
682.247	-0.01
682.43	-0.03
682.614	0.02
682.797	0.02
682.98	0.03
683.163	-0.06
683.346	0.05
683.529	-0.02
683.712	-0.04
683.895	0.02
684.078	-0.04
684.261	0
684.444	0.05
684.627	0
684.81	-0
684.993	-0.03
685.176	-0.02
685.359	0
685.542	-0.02
685.725	0.08
685.908	0.01
686.091	-0.01
686.274	0.08
686.457	0.04
686.639	-0.01
686.822	0.03
687.005	-0.01
687.188	0.05
687.371	0.06
687.553	0.04
687.736	0.03
687.919	0.09
688.102	0.05
688.284	-0.04
688.467	-0.03
688.65	0
688.832	-0
689.015	-0.03
689.197	-0.08
689.38	0.1
689.563	0.1
689.745	-0.03
689.928	-0.06
690.11	0.01
690.293	0.04
690.475	-0.05
690.658	-0.02
690.84	-0.03
691.023	-0.03
691.205	-0.04
691.388	-0.01
691.57	0.1
691.752	0.07
691.935	-0.07
692.117	-0.05
692.3	0.01
692.482	0.01
692.664	0.05
692.847	-0.02
693.029	0.12
693.211	0.01
693.393	0.02
693.576	-0
693.758	0.09
693.94	-0
694.122	-0
694.304	-0.01
694.487	-0.03
694.669	0.1
694.851	-0.06
695.033	0.01
695.215	-0.01
695.397	-0.02
695.579	0.03
695.761	-0.07
695.943	-0.02
696.125	0.06
696.308	0.02
696.49	-0.07
696.671	0.11
696.853	-0.03
697.035	0.17
697.217	0.01
697.399	0.05
697.581	-0.01
697.763	0.01
697.945	-0.04
698.127	-0
698.309	0.1
698.491	0.01
698.672	0.03
698.854	0.05
699.036	0.06
699.218	-0.07
699.399	0.06
699.581	0.03
699.763	-0
699.945	-0.02
700.126	-0.05
700.308	-0
700.49	0.01
700.671	-0.05
700.853	-0
701.035	-0.01
701.216	0.01
701.398	0.03
701.579	0.01
701.761	0.08
701.943	-0.02
702.124	-0.11
702.306	0
702.487	0.08
702.669	-0.03
702.85	-0.01
703.031	-0.04
703.213	0.1
703.394	0.1
703.576	-0.01
703.757	0.06
703.938	0.06
704.12	0.18
704.301	0.04
704.483	-0.01
704.664	-0
704.845	0.1
705.026	0.06
705.208	-0
705.389	-0.02
705.57	-0.03
705.751	-0.01
705.933	0
706.114	0.08
706.295	-0
706.476	-0.02
706.657	0.09
706.838	0.02
707.02	0.04
707.201	-0.08
707.382	-0.03
707.563	0.02
707.744	-0.06
707.925	0.01
708.106	-0.02
708.287	0.06
708.468	0.14
708.649	0.08
708.83	0.09
709.011	0.01
709.192	0.04
709.373	-0.05
709.554	0.03
709.734	0.04
709.915	0.03
710.096	-0
710.277	-0.07
710.458	0.03
710.639	0.02
710.819	-0.13
711	-0
711.181	0.05
711.362	0.06
711.542	0.02
711.723	0.01
711.904	0.09
712.085	0.08
712.265	0.01
712.446	-0.06
712.627	0.02
712.807	-0.03
712.988	0.01
713.168	-0.08
713.349	0.05
713.53	-0.12
713.71	-0.03
713.891	0.01
714.071	0.01
714.252	-0.05
714.432	-0.03
714.613	-0.09
714.793	0.03
714.974	0.1
715.154	0.01
715.334	0.01
715.515	0.05
715.695	0.01
715.876	0.01
716.056	0.04
716.236	-0.03
716.417	-0.05
716.597	-0.06
716.777	0.23
716.957	0.06
717.138	0.02
717.318	0.02
717.498	-0.07
717.678	-0.02
717.859	-0
718.039	-0.14
718.219	-0.03
718.399	0.07
718.579	-0.08
718.759	-0.11
718.939	0.03
719.12	0.07
719.3	-0.04
719.48	-0.14
719.66	-0.15
719.84	0.08
720.02	-0
720.2	0.01
720.38	-0.02
720.56	0.14
720.74	-0.03
720.92	0.05
721.1	0.07
721.279	0.05
721.459	0.11
721.639	-0.11
721.819	0.1
721.999	-0.03
722.179	0.06
722.359	-0.02
722.538	0.02
722.718	-0.01
722.898	0.02
723.078	-0
723.257	-0
723.437	0.02
723.617	-0.02
723.797	-0.04
723.976	0.04
724.156	0.07
724.336	0.11
724.515	0.15
724.695	-0.07
724.874	-0.03
725.054	0.08
725.234	-0.04
725.413	0.01
725.593	0.02
725.772	-0.01
725.952	0
726.131	0
726.311	-0.05
726.49	-0.02
726.67	0.01
726.849	-0.04
727.028	-0.05
727.208	-0.07
727.387	0.03
727.567	-0.13
727.746	0.05
727.925	-0.07
728.105	-0.08
728.284	-0.01
728.463	-0.04
728.643	0.08
728.822	-0.1
729.001	-0.05
729.18	-0.06
729.359	0.04
729.539	-0
729.718	-0.03
729.897	0.05
730.076	-0.04
730.255	-0.1
730.434	0.02
730.614	0.02
730.793	0.13
730.972	-0.06
731.151	-0.05
731.33	0.14
731.509	0.01
731.688	0.03
731.867	0.01
732.046	-0.11
732.225	0.13
732.404	-0.01
732.583	-0.05
732.762	-0.01
732.941	0.08
733.12	0.02
733.298	-0.1
733.477	0.11
733.656	-0.02
733.835	-0.14
734.014	0.02
734.193	0.02
734.371	0.14
734.55	0.08
734.729	-0.02
734.908	0.11
735.086	-0.01
735.265	0.12
735.444	-0.16
735.623	-0.01
735.801	-0.12
735.98	-0.01
736.159	-0.04
736.337	0.03
736.516	-0.02
736.694	0.06
736.873	-0.12
737.052	0.24
737.23	0.13
737.409	-0.06
737.587	0.18
737.766	-0.16
737.944	-0.06
738.123	0.13
738.301	0.08
738.479	0.09
738.658	0.01
738.836	-0.19
739.015	0.01
739.193	0.13
739.371	-0.1
739.55	-0.04
739.728	-0.06
739.906	0.07
740.085	0.22
740.263	-0.01
740.441	-0.2
740.62	0.13
740.798	0.09
740.976	-0.08
741.154	-0.14
741.332	0.11
741.511	-0.07
741.689	-0.06
741.867	0.03
742.045	-0.05
742.223	0.01
742.401	-0.06
742.579	-0.08
742.757	0.01
742.935	-0.11
743.114	-0.14
743.292	-0.04
743.47	0.02
743.648	0.06
743.826	-0.12
744.004	0.07
744.181	0.17
744.359	0.08
744.537	0.03
744.715	-0.01
744.893	0.06
745.071	-0
745.249	-0.04
745.427	-0.07
745.605	0.11
745.782	-0.05
745.96	0.16
746.138	0.08
746.316	0.13
746.493	-0.1
746.671	-0.05
746.849	-0.1
747.027	0.11
747.204	0
747.382	0.09
747.56	-0.1
747.737	-0.04
747.915	-0.09
748.093	0.08
748.27	-0.02
748.448	0.1
748.625	-0.1
748.803	-0.07
748.98	0.03
749.158	-0.03
749.335	0.06
749.513	-0.04
749.69	-0.02
749.868	0
750.045	0.08
750.223	-0.06
750.4	-0.11
750.578	0.2
750.755	0.01
750.932	-0.1
751.11	0.11
751.287	-0.07
751.464	0.1
751.642	-0.14
751.819	-0
751.996	0
752.173	-0.03
752.351	-0.2
752.528	-0.08
752.705	-0.04
752.882	-0.09
753.06	0.04
753.237	0.09
753.414	0.12
753.591	0.1
753.768	-0
753.945	0.05
754.122	-0.04
754.299	0.04
754.476	-0.13
754.654	-0.05
754.831	0.16
755.008	-0.02
755.185	-0.04
755.362	-0.09
755.539	0.05
755.716	-0.07
755.892	0.13
756.069	0.02
756.246	0.04
756.423	-0.02
756.6	0.09
756.777	-0.02
756.954	0.09
757.131	0.02
757.307	-0.06
757.484	-0.12
757.661	0
757.838	0.07
758.015	-0.15
758.191	0.09
758.368	0.01
758.545	0.18
758.721	-0.05
758.898	-0.17
759.075	0.11
759.251	-0.05
759.428	0.06
759.605	-0.06
759.781	0.04
759.958	0.07
760.134	0.09
760.311	-0.13
760.488	0.09
760.664	0.23
760.841	-0.05
761.017	-0.16
761.194	0.05
761.37	0.12
761.547	-0.02
761.723	-0.1
761.899	0.17
762.076	-0.03
762.252	-0.11
762.429	-0.01
762.605	0.11
762.781	-0.15
762.958	0.14
763.134	-0.05
763.31	-0.04
763.486	0.15
763.663	-0.13
763.839	0.06
764.015	-0.21
764.191	-0.08
764.368	0.02
764.544	-0.15
764.72	0.08
764.896	0.16
765.072	-0.03
765.248	-0.05
765.425	-0.06
765.601	0.09
765.777	-0.02
765.953	-0.27
766.129	-0.05
766.305	-0.09
766.481	-0.02
766.657	0.05
766.833	0.26
767.009	-0.07
767.185	-0.14
767.361	0.08
767.537	-0.09
767.713	0.1
767.889	-0.02
768.065	0.05
768.24	0.05
768.416	0.17
768.592	-0.02
768.768	0.12
768.944	0.01
769.12	-0.11
769.295	0.03
769.471	0.05
769.647	-0.02
769.823	0.07
769.998	-0.11
770.174	-0.22
770.35	0.47
770.525	0.27
770.701	0.13
770.877	-0.03
771.052	-0.07
771.228	0.12
771.403	0.16
771.579	0.09
771.755	0.39
771.93	-0.07
772.106	0.02
772.281	-0.23
772.457	-0.05
772.632	0.09
772.808	-0.24
772.983	0
773.159	-0.03
773.334	0.16
773.509	0.01
773.685	-0.08
773.86	0.43
774.036	0.28
774.211	-0.01
774.386	-0.2
774.562	0.04
774.737	0.15
774.912	-0.13
775.087	0.09
775.263	0.08
775.438	0.01
775.613	-0.09
775.788	-0.09
775.964	0.23
776.139	0.36
776.314	-0.18
776.489	0.09
776.664	0.12
776.839	-0.21
777.014	0.21
777.19	0.08
777.365	0.24
777.54	0.27
777.715	-0.03
777.89	-0.02
778.065	-0.09
778.24	0.01
778.415	0.15
778.59	-0.26
778.765	-0.1
778.94	-0.03
779.115	-0.21
779.289	0.06
779.464	-0.03
779.639	-0.03
779.814	-0.13
779.989	-0.16
780.164	0.16
780.339	0.11
780.513	-0.01
780.688	0.04
780.863	0.18
781.038	0.24
781.212	-0.05
781.387	-0.01
781.562	0.34
781.737	0.07
781.911	0.18
782.086	-0.13
782.261	0.05
782.435	0.39
782.61	-0.1
782.784	0.08
782.959	0.26
783.134	-0.02
783.308	-0.27
783.483	-0.09
783.657	0.36
783.832	0.01
784.006	-0.24
784.181	-0.02
784.355	0.18
784.53	-0.09
784.704	-0.15
784.878	0.22
785.053	-0.02
785.227	-0.03
785.402	0.37
785.576	-0.14
785.75	0.02
785.925	0.02
786.099	0.11
786.273	-0.02
786.448	0.16
786.622	0.32
786.796	0.01
786.97	-0.01
787.145	0.54
787.319	-0.29
787.493	0.05
787.667	-0.44
787.841	0.1
788.015	0.19
788.19	-0.13
788.364	-0.07
788.538	0.18
788.712	0.1
788.886	0.04
789.06	0.26
789.234	0.28
789.408	-0.19
789.582	-0.08
789.756	-0.04
789.93	-0.29
790.104	-0.09
790.278	-0.11
790.452	-0.08
790.626	0.12
790.8	-0.23
790.973	0.22
791.147	0.39
791.321	0.2
791.495	0.05
791.669	-0.1
791.843	0.07
792.016	0.13
792.19	0.55
792.364	-0.21
792.538	0.69
792.711	0.43
792.885	-0.02
793.059	-0.35
793.233	-0.64
793.406	0.23
793.58	0.05
793.754	0.02
793.927	0.07
794.101	0.12
794.274	-0.07
794.448	0.19
794.622	-0.14
794.795	0.37
794.969	-0.04
795.142	0.55
795.316	0.2
795.489	0.13
795.663	0.37
795.836	0.11
796.009	-0.3
796.183	0.39
796.356	-0
796.53	0.41
796.703	-0.1
796.876	0.7
797.05	-0.08
797.223	-0.12
797.396	0.18
797.57	0
797.743	0.46
797.916	0.24
798.09	-0.02
798.263	0.12
798.436	0.26
798.609	0.06
798.782	0.15
798.956	0.1
799.129	0.25
799.302	-0.07
799.475	-0.07
799.648	-0.1
799.821	-0.1
799.994	-0.1
800.167	-0.35
800.34	-0.02
800.514	0.06
800.687	-0.08
800.86	0.17
801.033	-0.07
801.206	-0
801.379	-0.38
801.551	0.47
801.724	0.36
801.897	0.51
802.07	0.01
802.243	-0.32
802.416	0.14
802.589	-0.21
802.762	0.01
802.935	0.19
803.107	0.33
803.28	0.09
803.453	0.07
803.626	-0.27
803.798	0.11
803.971	0.04
804.144	0.04
804.317	0.2
804.489	0.31
804.662	-0.09
804.835	0.26
805.007	-0.2
805.18	0.43
805.353	0.2
805.525	-0.17
805.698	-0.22
805.87	0.48
806.043	0.44
806.215	-0.37
806.388	-0.13
806.56	0.05
806.733	0.37
806.905	0.09
807.078	-0.27
807.25	0.06
807.423	-0.12
807.595	0.27
807.768	-0.11
807.94	0.3
808.112	0.21
808.285	-0.06
808.457	-0.02
808.629	0.15
808.802	0.28
808.974	-0.02
809.146	-0.13
809.318	-0.36
809.491	0.18
809.663	0
809.835	-0.42
810.007	0.32
810.18	0.25
810.352	-0.42
810.524	0.1
810.696	0.27
810.868	0.2
811.04	-0.23
811.212	-0.13
811.384	0.33
811.556	0.36
811.728	-0.24
811.901	0.69
812.073	-0.16
812.245	0.32
812.417	0.13
812.589	-0.69
812.76	0.4
812.932	0.2
813.104	0.42
813.276	-0.06
813.448	0.5
813.62	-0.18
813.792	0.05
813.964	0
814.136	0.34
814.307	-0.13
814.479	-0.08
814.651	-0.18
814.823	0.97
814.995	-0.12
815.166	0.28
815.338	-0.41
815.51	-0.37
815.681	0.86
815.853	0.15
816.025	-0.38
816.196	0.78
816.368	0.28
816.54	-0.02
816.711	-0.19
816.883	0.26
817.054	0.99
817.226	-0.49
817.398	0.32
817.569	-0.15
817.741	0.2
817.912	-0.17
818.084	-0.08
818.255	0.42
818.426	-0.16
818.598	-0.1
818.769	-0.32
818.941	0.93
819.112	0.58
819.283	-0.03
819.455	-0.63
819.626	0.28
819.798	-0.04
819.969	-0.14
820.14	0.2
820.311	-0.26
820.483	-0
820.654	0.12
820.825	0.09
820.996	-0.15
821.168	-0.05
821.339	0.06
821.51	-0.3
821.681	0.03
821.852	0.16
822.023	-0.64
822.195	-1.16
822.366	0.6
822.537	0.12
822.708	-0.04
822.879	-0.3
823.05	0.69
823.221	-0.07
823.392	0.21
823.563	0.03
823.734	-0.09
823.905	0.06
824.076	-0.07
824.247	-0.02
824.418	-0.1
824.589	1.01
824.759	0.08
824.93	-0.13
825.101	-0.95
825.272	1.13
825.443	0.4
825.614	0.92
825.784	-0.56
825.955	0.84
826.126	0.67
826.297	0.22
826.467	0.46
826.638	0.93
826.809	-0.39
826.98	0.04
827.15	0.56
827.321	-0.6
827.492	0.65
827.662	0.73
827.833	0.96
828.003	0.09
828.174	-0.53
828.345	-0.58
828.515	0.98
828.686	-0.03
828.856	-0.22
829.027	-0.19
829.197	-0.13
829.368	0.36
829.538	-0.3
829.709	-0.09
829.879	0.13
830.049	0.04
830.22	0.24
830.39	-0.47
830.56	0.22
830.731	0.04
830.901	-0.59
831.072	0.08
831.242	0.09
831.412	0.14
831.582	-0.26
831.753	-0.74
831.923	0.45
832.093	0.21
832.263	-0.36
832.434	-0.62
832.604	-0.24
832.774	0.31
832.944	-0.04
833.114	-0.27
833.284	0.73
833.454	-0.78
833.624	-0.37
833.795	-0.4
833.965	0.66
834.135	0.66
834.305	-1.33
834.475	-0.63
834.645	0.37
834.815	0.04
834.985	-0.42
835.155	-0
835.325	0.5
835.494	0.06
835.664	-0.45
835.834	-0.61
836.004	-0.05
836.174	0.26
836.344	0.02
836.514	-0.24
836.684	-0.62
836.853	0.15
837.023	0.85
837.193	-0.88
837.363	1.43
837.532	1.13
837.702	-0.05
837.872	-0.9
838.041	0.81
838.211	1.26
838.381	-0.96
838.55	0.24
838.72	1.83
838.89	0.87
839.059	0.25
839.229	-0.36
839.398	0.4
839.568	0.29
839.738	-0.34
839.907	0.61
840.077	-0.07
840.246	-0.54
840.416	-0.82
840.585	-0.23
840.755	1.77
840.924	0.34
841.093	-0.47
841.263	0.71
841.432	0.5
841.602	-0.67
841.771	-0.57
841.94	0.19
842.11	2.11
842.279	1.82
842.448	-0.33
842.617	-0.7
842.787	1.07
842.956	-1.43
843.125	-0.89
843.294	-0.29
843.464	1.4
843.633	0.22
843.802	-1.1
843.971	-0.03
844.14	0.49
844.309	1.09
844.479	-0.27
844.648	-0.5
844.817	0.08
844.986	-0.78
845.155	-0.28
845.324	0.11
845.493	0.18
845.662	-0.61
845.831	0.21
846	0.25
846.169	-0.94
846.338	0.92
846.507	0.09
846.676	0.92
846.844	-1.19
847.013	0.25
847.182	0.04
847.351	-0.6
847.52	0.16
847.689	0.12
847.858	0.67
848.026	-0.72
848.195	-0.23
848.364	-0.39
848.533	-0.78
848.701	-0.76
848.87	0.04
849.039	1.64
849.207	0.2
849.376	1.95
849.545	1.87
849.713	-0.34
849.882	0.37
850.051	-0.43
850.219	-0.01
850.388	1.49
850.556	-0.4
850.725	-0.33
850.893	0.51
851.062	-0.66
851.23	-0.01
851.399	-0.63
851.567	-0.69
851.736	0.18
851.904	-1.71
852.073	0.41
852.241	1.35
852.41	0.21
852.578	-0.34
852.746	-0.86
852.915	0.3
853.083	-0.17
853.251	-0.61
853.42	0.11
853.588	0.14
853.756	1.79
853.924	0.95
854.093	0.71
854.261	-0.32
854.429	-1.35
854.597	0.19
854.765	-0.46
854.934	0.45
855.102	1.3
855.27	-0.54
855.438	0.18
855.606	1.68
855.774	2.31
855.942	-1.1
856.11	-1.92
856.278	0.21
856.446	1.52
856.614	-0.67
856.782	-1.48
856.95	0.99
857.118	1.26
857.286	0.73
857.454	-0.94
857.622	1.06
857.79	0.28
857.958	-1.07
858.126	0.17
858.294	-3.4
858.462	-0.15
858.629	-0.24
858.797	-0.71
858.965	0.44
859.133	0.59
859.301	-0.18
859.468	1.18
859.636	-1.1
859.804	3.8
859.971	-0.31
860.139	-0.73
860.307	0.96
860.474	0.16
860.642	-0.52
860.81	-0.97
860.977	-0.19
861.145	0.86
861.313	-0.18
861.48	-0.37
861.648	1.18
861.815	0.53
861.983	-0.72
862.15	-0.16
862.318	1.79
862.485	0.6
862.653	-0.79
862.82	-1.24
862.988	1.28
863.155	-1.53
863.322	-0.9
863.49	-0.85
863.657	0.06
863.824	1.7
863.992	1.37
864.159	0.72
864.326	1.28
864.494	-0.49
864.661	2.69
864.828	-1.68
864.996	2.87
865.163	1.8
865.33	-0.28
865.497	-2.48
865.664	-0.94
865.832	-2.02
865.999	0.3
866.166	-2
866.333	-0.46
866.5	-0.26
866.667	0.26
866.834	-0.04
867.001	1.41
867.168	-2.17
867.335	-0.97
867.502	-1.61
867.669	1
867.836	2.72
868.003	-1.95
868.17	1.46
868.337	-0.31
868.504	2.08
868.671	-0.21
868.838	-0.21
869.005	1.86
869.172	-0.9
869.339	0.6
869.505	-0.36
869.672	1.41
869.839	2.1
870.006	0.29
870.173	-2.34
870.339	0.04
870.506	2.45
870.673	-0.55
870.84	1.02
871.006	0.04
871.173	0.64
871.34	0.96
871.506	-0.28
871.673	-0.12
871.839	-1.01
872.006	-1.61
872.173	0.12
872.339	-0.37
872.506	2.06
872.672	-0.28
872.839	-2.44
873.005	0.46
873.172	5.31
873.338	2.71
873.505	0.14
873.671	1.55
873.838	0.84
874.004	-1.66
874.171	-1.87
874.337	1.98
874.503	1.29
874.67	0.18
874.836	0.04
875.002	1.13
875.169	0.02
875.335	-0.33
875.501	-1.34
875.668	1.06
875.834	1.53
876	0.01
876.166	0.61
876.332	0.78
876.499	2.73
876.665	-1.37
876.831	0.12
876.997	3.3
877.163	1.22
877.329	-1.59
877.495	1.14
877.662	2.62
877.828	0.98
877.994	-0.68
878.16	-2.91
878.326	-2.34
878.492	1.89
878.658	-0.35
878.824	1.64
878.99	1.42
879.156	0.7
879.322	2.13
879.487	0.53
879.653	0.98
879.819	1.25
879.985	-2.52
880.151	-0.33
880.317	0.17
880.483	1.84
880.648	0.79
880.814	-2.36
880.98	1.69
881.146	-3.88
881.312	-1.42
881.477	-0.09
881.643	-0.26
881.809	1.06
881.974	1.98
882.14	-1.98
882.306	-1.27
882.471	2.94
882.637	0.03
882.803	1.41
882.968	2.9
883.134	4.63
883.299	0.42
883.465	0.04
883.63	0.66
883.796	1.78
883.961	0.67
884.127	0.32
884.292	-2.94
884.458	-3
884.623	-3
