Data from Apollo_Calib_20240827__AbsoluteIrradiance__100__00-49-00-041.txt Node

Date: Wed Aug 28 00:49:00 BST 2024
User: biology
Spectrometer: FLMT08252
Trigger mode: 0
Integration Time (sec): 5.000000E-1
Scans to average: 5
Electric dark correction enabled: true
Nonlinearity correction enabled: false
Boxcar width: 0
XAxis mode: Wavelengths
Number of Pixels in Spectrum: 3648
>>>>>Begin Spectral Data<<<<<
179.588	-0
179.809	-0
180.03	-0
180.251	-0
180.473	-0
180.694	0
180.915	0
181.136	-0
181.357	0
181.578	-0
181.799	0
182.02	-0
182.241	0
182.462	0
182.683	0
182.904	-0
183.125	-0
183.346	0
183.567	0
183.788	-0
184.009	-0
184.23	-0
184.451	0
184.672	-0
184.892	-0
185.113	0
185.334	0
185.555	-0
185.776	-0
185.996	0
186.217	0
186.438	-0
186.659	-0
186.879	0
187.1	-0
187.321	-0
187.541	-0
187.762	-0
187.983	0
188.203	0
188.424	-0
188.644	-0
188.865	0
189.086	-0
189.306	0
189.527	-0
189.747	0
189.968	-0
190.188	0
190.409	0
190.629	0
190.849	-0
191.07	-0
191.29	0
191.511	0
191.731	-0
191.951	-0
192.172	0
192.392	-0
192.612	-0
192.833	-0
193.053	-0
193.273	0
193.493	0
193.714	-0
193.934	0
194.154	0
194.374	-0
194.594	-0
194.815	-0
195.035	-0
195.255	-0
195.475	-0
195.695	0
195.915	0
196.135	-0
196.355	0
196.575	0
196.795	-0
197.015	-0
197.235	-0
197.455	-0
197.675	0
197.895	-0
198.115	-0
198.335	0
198.555	-0
198.775	-0
198.995	0
199.214	0
199.434	0
199.654	-0
199.874	-0
200.094	0.67
200.313	-0.02
200.533	-0.45
200.753	-0.68
200.973	0.87
201.192	0.41
201.412	-0.89
201.632	-0.67
201.851	0.79
202.071	-0.35
202.291	-0.31
202.51	-0.52
202.73	0.24
202.95	-0.39
203.169	-0.61
203.389	-0.23
203.608	0.14
203.828	-0.54
204.047	-0.23
204.267	0.37
204.486	-0.29
204.706	-0.01
204.925	-0.33
205.145	0.07
205.364	0.5
205.583	0.4
205.803	-0.45
206.022	-0.21
206.242	-0.1
206.461	-0.16
206.68	-0.28
206.9	-0.16
207.119	0.33
207.338	0.54
207.557	-0.36
207.777	-0.18
207.996	0.21
208.215	0.03
208.434	-0.32
208.654	-0.49
208.873	-0.05
209.092	0.48
209.311	-0.42
209.53	-0.04
209.749	-0.14
209.968	-0.19
210.187	-0.13
210.407	-0.46
210.626	-0.11
210.845	0.48
211.064	-0.16
211.283	-0.37
211.502	0.24
211.721	0.12
211.94	-0.04
212.159	0.11
212.377	0.27
212.596	0.33
212.815	-0.22
213.034	0.13
213.253	0.24
213.472	0.3
213.691	-0.21
213.91	-0.27
214.128	-0.05
214.347	0.42
214.566	-0.26
214.785	-0.38
215.003	0.13
215.222	-0.05
215.441	-0.03
215.66	-0.35
215.878	-0.11
216.097	0.13
216.316	-0.18
216.534	-0.08
216.753	-0.01
216.972	0.03
217.19	-0.06
217.409	-0.14
217.627	-0.19
217.846	-0.02
218.064	0.03
218.283	-0.16
218.501	0.34
218.72	0.18
218.938	-0.23
219.157	-0.13
219.375	0.25
219.594	0.12
219.812	-0.23
220.031	-0.21
220.249	0.21
220.467	0.28
220.686	-0
220.904	-0.07
221.122	-0.06
221.341	0.39
221.559	-0.1
221.777	-0.21
221.995	0.06
222.214	-0.02
222.432	-0.19
222.65	0.15
222.868	-0.03
223.086	0.08
223.305	0.14
223.523	0.01
223.741	0.18
223.959	-0.28
224.177	-0.22
224.395	-0.14
224.613	0.1
224.831	0.14
225.049	-0.14
225.267	-0
225.485	0.04
225.703	-0.17
225.921	0.04
226.139	-0
226.357	0.17
226.575	0.02
226.793	-0.11
227.011	0.44
227.229	-0
227.447	0.16
227.665	-0.07
227.883	-0.26
228.1	-0.05
228.318	0.12
228.536	-0.2
228.754	-0.12
228.972	-0
229.189	0.04
229.407	-0.12
229.625	-0.04
229.843	0.08
230.06	0.07
230.278	-0.14
230.496	0.11
230.713	0.02
230.931	0.18
231.149	0.05
231.366	-0.16
231.584	-0.03
231.801	0.29
232.019	-0.02
232.236	-0.2
232.454	-0.08
232.671	0.05
232.889	-0.01
233.106	-0.14
233.324	0.01
233.541	-0.06
233.759	-0.1
233.976	-0.1
234.194	-0.02
234.411	-0.03
234.628	-0.1
234.846	-0.02
235.063	-0.01
235.28	0.1
235.498	-0.06
235.715	-0.07
235.932	0.01
236.149	0.03
236.367	-0.02
236.584	0.01
236.801	0.05
237.018	0.05
237.236	-0.03
237.453	-0.17
237.67	0.06
237.887	-0.02
238.104	-0.15
238.321	-0.19
238.538	0
238.755	0.15
238.973	-0.08
239.19	0.02
239.407	0.04
239.624	0.1
239.841	-0.13
240.058	-0.14
240.275	-0.06
240.492	-0.1
240.709	0.04
240.925	-0.04
241.142	0.07
241.359	-0.2
241.576	-0.06
241.793	-0.09
242.01	-0.01
242.227	0.04
242.444	-0.02
242.66	0.05
242.877	-0.03
243.094	-0.02
243.311	0.07
243.527	0.02
243.744	0.02
243.961	0.07
244.178	0.01
244.394	-0
244.611	0.15
244.828	0.28
245.044	-0.13
245.261	-0.05
245.477	-0.01
245.694	0.05
245.911	-0
246.127	0.03
246.344	0.06
246.56	0.09
246.777	-0.01
246.993	0.06
247.21	-0.06
247.426	0.09
247.643	-0.09
247.859	-0.11
248.076	-0
248.292	0.26
248.508	-0.09
248.725	-0.04
248.941	-0.01
249.157	0.08
249.374	-0.06
249.59	-0.01
249.806	0.08
250.023	0.04
250.239	-0.06
250.455	-0.07
250.671	0.05
250.888	0.02
251.104	0.04
251.32	-0.05
251.536	-0.05
251.752	-0
251.969	-0.02
252.185	-0.03
252.401	0.18
252.617	-0.07
252.833	-0.06
253.049	-0.03
253.265	0.02
253.481	0
253.697	-0.04
253.913	-0.1
254.129	0.06
254.345	-0.04
254.561	-0.11
254.777	-0.04
254.993	0.09
255.209	-0.01
255.425	0.05
255.641	-0.1
255.857	0.06
256.073	-0.01
256.288	-0.1
256.504	-0.04
256.72	-0
256.936	0.07
257.152	0.02
257.367	-0.02
257.583	0.02
257.799	0.04
258.015	-0.14
258.23	-0.1
258.446	0.12
258.662	-0
258.877	-0.04
259.093	-0.01
259.309	-0.06
259.524	0.01
259.74	-0.03
259.955	-0.07
260.171	0
260.387	-0.02
260.602	0.06
260.818	0.05
261.033	-0.04
261.249	0.04
261.464	-0.03
261.68	-0.1
261.895	0.04
262.11	0.07
262.326	-0.05
262.541	-0.07
262.757	0
262.972	0.03
263.187	-0.01
263.403	-0.05
263.618	0.04
263.833	-0.04
264.049	-0.08
264.264	-0.04
264.479	0.11
264.694	0.1
264.91	-0.09
265.125	-0.06
265.34	0.05
265.555	0.14
265.77	0.07
265.986	-0.08
266.201	0.07
266.416	0.11
266.631	-0.06
266.846	0.02
267.061	0.02
267.276	0.02
267.491	-0.14
267.706	0.02
267.921	-0
268.136	0
268.351	0.01
268.566	-0.05
268.781	0.17
268.996	0.08
269.211	-0.02
269.426	-0.08
269.641	-0.04
269.856	0.03
270.071	-0.02
270.285	-0.12
270.5	0.09
270.715	0.04
270.93	0.03
271.145	0.05
271.359	0.03
271.574	-0.05
271.789	-0.05
272.004	-0.06
272.218	-0.05
272.433	0.02
272.648	-0.03
272.862	0.04
273.077	0.02
273.292	0.05
273.506	-0.04
273.721	-0.04
273.936	0.06
274.15	0.05
274.365	-0.04
274.579	0.01
274.794	0.01
275.008	0.07
275.223	-0.11
275.437	-0.05
275.652	0.02
275.866	0.03
276.081	-0
276.295	0.05
276.509	-0.01
276.724	-0.01
276.938	-0.03
277.153	0.07
277.367	0.03
277.581	-0.1
277.796	-0
278.01	-0.07
278.224	0.01
278.438	0.09
278.653	-0.02
278.867	-0.01
279.081	-0.14
279.295	-0.05
279.51	0.04
279.724	-0.08
279.938	0.04
280.152	0
280.366	-0.05
280.58	-0.02
280.794	0.08
281.008	0.08
281.222	0.07
281.437	0.1
281.651	0.03
281.865	0.05
282.079	0.01
282.293	-0.1
282.507	-0.04
282.721	-0.01
282.935	-0
283.148	-0.09
283.362	0
283.576	-0.04
283.79	-0.03
284.004	-0.06
284.218	0.03
284.432	-0.04
284.646	0
284.859	-0.04
285.073	-0.03
285.287	0.06
285.501	-0.05
285.714	0.03
285.928	0.08
286.142	0.05
286.356	-0.04
286.569	-0.04
286.783	0.02
286.997	-0
287.21	0.06
287.424	-0
287.637	0.02
287.851	-0
288.065	0.02
288.278	-0.03
288.492	0.04
288.705	0.03
288.919	-0
289.132	-0.07
289.346	0.06
289.559	-0.1
289.773	-0.04
289.986	0.01
290.2	-0.02
290.413	0.07
290.626	-0.07
290.84	-0.02
291.053	-0
291.267	0.09
291.48	0.04
291.693	0.06
291.906	-0.02
292.12	-0.06
292.333	-0.03
292.546	-0.01
292.76	0.09
292.973	0.05
293.186	0.04
293.399	-0
293.612	0.03
293.826	-0.03
294.039	0.03
294.252	0.01
294.465	0.01
294.678	0.01
294.891	-0.04
295.104	-0.04
295.317	-0.05
295.53	0.03
295.743	-0.01
295.956	-0.01
296.169	0.07
296.382	0.04
296.595	-0
296.808	-0.04
297.021	0.04
297.234	-0.01
297.447	-0.02
297.66	0.04
297.873	0.07
298.086	0.01
298.299	-0.06
298.511	-0.01
298.724	-0.05
298.937	-0.06
299.15	-0.01
299.363	-0.01
299.575	0.02
299.788	0.03
300.001	0.01
300.213	0.01
300.426	-0.02
300.639	-0.01
300.852	-0.03
301.064	0.05
301.277	0.09
301.489	0.1
301.702	0.02
301.915	0.01
302.127	0.02
302.34	-0.01
302.552	0.05
302.765	-0.02
302.977	0.01
303.19	-0.03
303.402	-0.02
303.615	-0
303.827	-0.02
304.04	0.01
304.252	0.04
304.464	-0.03
304.677	0.11
304.889	0.05
305.102	-0.02
305.314	-0.02
305.526	0.04
305.739	0.06
305.951	-0
306.163	0
306.375	0.07
306.588	-0.02
306.8	0.01
307.012	-0.06
307.224	-0
307.436	0.05
307.649	-0.06
307.861	0.03
308.073	0.02
308.285	-0.01
308.497	-0.05
308.709	0.01
308.921	0.02
309.133	0.05
309.346	-0
309.558	0
309.77	0.07
309.982	0.06
310.194	0.05
310.406	-0.04
310.617	0.07
310.829	0.03
311.041	0.03
311.253	-0.05
311.465	-0.03
311.677	-0.01
311.889	0.02
312.101	-0.01
312.313	0.05
312.524	0.03
312.736	-0.04
312.948	-0.01
313.16	0.06
313.372	0.01
313.583	0.04
313.795	0.03
314.007	-0.04
314.218	0.04
314.43	-0
314.642	-0.04
314.853	-0.07
315.065	0.04
315.277	0.02
315.488	-0.04
315.7	0.03
315.912	0.01
316.123	0.02
316.335	0.02
316.546	0.03
316.758	-0.01
316.969	0.02
317.181	0.03
317.392	0.04
317.604	0.02
317.815	-0.03
318.026	-0.01
318.238	-0.04
318.449	0.04
318.661	-0.03
318.872	-0.02
319.083	-0.04
319.295	0.02
319.506	-0.04
319.717	0.03
319.929	0.03
320.14	0.04
320.351	0.03
320.562	-0
320.774	-0
320.985	-0.01
321.196	-0.02
321.407	-0.02
321.618	0.06
321.829	0.04
322.041	0.02
322.252	-0
322.463	0.02
322.674	0.03
322.885	-0.01
323.096	0
323.307	0
323.518	0.04
323.729	-0.01
323.94	0
324.151	-0.01
324.362	-0.03
324.573	-0
324.784	-0.01
324.995	0.04
325.206	0.02
325.417	-0.07
325.628	-0.01
325.838	0.03
326.049	-0.02
326.26	0.02
326.471	0.02
326.682	0.02
326.892	0.01
327.103	-0.03
327.314	-0.06
327.525	0.04
327.735	-0.01
327.946	-0.02
328.157	-0
328.368	0.06
328.578	-0.01
328.789	0.04
328.999	0
329.21	0.02
329.421	0.06
329.631	-0.03
329.842	-0.01
330.052	0.01
330.263	0.03
330.473	0.05
330.684	-0.02
330.894	-0.06
331.105	0
331.315	-0.01
331.526	-0.06
331.736	0.02
331.947	0.02
332.157	0.02
332.367	-0.05
332.578	0.01
332.788	0.06
332.999	0.06
333.209	0.01
333.419	-0.03
333.629	0
333.84	0.06
334.05	0.01
334.26	0.06
334.47	-0.02
334.681	0.04
334.891	-0.02
335.101	0.08
335.311	0.07
335.521	-0.01
335.732	-0.05
335.942	0.05
336.152	0.06
336.362	0.01
336.572	-0.02
336.782	0.01
336.992	-0.04
337.202	-0.04
337.412	-0.04
337.622	0.05
337.832	-0.01
338.042	-0.04
338.252	-0.01
338.462	0.01
338.672	0
338.882	-0.08
339.092	-0.03
339.302	0.05
339.511	0.02
339.721	0.02
339.931	0.01
340.141	0.04
340.351	0.05
340.561	-0.02
340.77	0.02
340.98	0.01
341.19	0.05
341.4	-0.03
341.609	-0.03
341.819	0.03
342.029	-0.02
342.238	0.04
342.448	-0.04
342.658	0.06
342.867	-0.03
343.077	-0.02
343.286	0.06
343.496	0.03
343.706	0.06
343.915	-0.06
344.125	0.02
344.334	0.04
344.544	-0.04
344.753	-0.05
344.963	-0.02
345.172	-0.05
345.381	-0.02
345.591	-0.01
345.8	0.02
346.01	0.06
346.219	0.02
346.428	-0.15
346.638	-0.01
346.847	0.05
347.056	0.12
347.266	-0
347.475	0.02
347.684	0.03
347.893	0.01
348.103	0.01
348.312	0.03
348.521	-0.02
348.73	0.01
348.94	0.02
349.149	-0.02
349.358	-0.03
349.567	-0.04
349.776	-0.05
349.985	-0.01
350.194	-0
350.403	0.04
350.612	-0.03
350.821	-0.03
351.03	0.03
351.239	-0.05
351.448	-0.01
351.657	0.02
351.866	0.06
352.075	-0
352.284	0.04
352.493	-0.01
352.702	0.05
352.911	0.04
353.12	0.02
353.329	0.01
353.538	0.02
353.746	-0.01
353.955	-0.03
354.164	0.05
354.373	-0.02
354.582	0.01
354.79	0.01
354.999	0.04
355.208	-0.01
355.416	0.05
355.625	-0.02
355.834	0
356.042	0.02
356.251	0.05
356.46	-0.02
356.668	0.02
356.877	0.11
357.085	0.09
357.294	-0.05
357.503	0.03
357.711	-0.01
357.92	0.12
358.128	0.03
358.337	-0.02
358.545	0.03
358.754	0.02
358.962	0.04
359.17	0.01
359.379	0.04
359.587	-0.01
359.796	0
360.004	0.08
360.212	0.05
360.421	0.05
360.629	0
360.837	0.04
361.046	0.03
361.254	0.09
361.462	0.05
361.67	0.01
361.879	0.01
362.087	0.09
362.295	0.02
362.503	-0.01
362.711	-0.01
362.92	-0.03
363.128	-0.02
363.336	-0.01
363.544	-0.03
363.752	0
363.96	0.04
364.168	0.01
364.376	0.03
364.584	0.02
364.792	0.03
365	0.05
365.208	0.03
365.416	0.01
365.624	0.06
365.832	-0.02
366.04	0.08
366.248	0.06
366.456	0.05
366.664	0.06
366.872	0.05
367.079	0.03
367.287	0.07
367.495	0.07
367.703	0.05
367.911	0.04
368.118	0.05
368.326	0.06
368.534	0.06
368.742	0.13
368.949	0.02
369.157	0.04
369.365	0.12
369.572	0.08
369.78	0.12
369.988	0.15
370.195	0.15
370.403	0.17
370.61	0.14
370.818	0.18
371.026	0.25
371.233	0.16
371.441	0.22
371.648	0.2
371.856	0.28
372.063	0.25
372.271	0.28
372.478	0.28
372.685	0.27
372.893	0.35
373.1	0.36
373.308	0.35
373.515	0.5
373.722	0.48
373.93	0.48
374.137	0.53
374.344	0.6
374.552	0.6
374.759	0.58
374.966	0.59
375.173	0.63
375.381	0.77
375.588	0.72
375.795	0.72
376.002	0.73
376.209	0.81
376.417	0.87
376.624	0.91
376.831	1.01
377.038	0.99
377.245	0.99
377.452	1.17
377.659	1.16
377.866	1.2
378.073	1.29
378.28	1.36
378.487	1.52
378.694	1.48
378.901	1.61
379.108	1.64
379.315	1.7
379.522	1.84
379.729	1.9
379.936	1.93
380.143	1.99
380.35	2.08
380.557	2.21
380.763	2.26
380.97	2.33
381.177	2.39
381.384	2.49
381.591	2.55
381.797	2.57
382.004	2.71
382.211	2.8
382.418	2.73
382.624	2.88
382.831	2.81
383.038	2.88
383.244	2.89
383.451	2.77
383.658	2.76
383.864	2.8
384.071	2.71
384.277	2.73
384.484	2.62
384.69	2.63
384.897	2.53
385.103	2.47
385.31	2.36
385.516	2.26
385.723	2.23
385.929	2.11
386.136	1.94
386.342	1.94
386.549	1.86
386.755	1.87
386.961	1.78
387.168	1.7
387.374	1.57
387.58	1.57
387.787	1.47
387.993	1.44
388.199	1.34
388.406	1.24
388.612	1.26
388.818	1.2
389.024	1.08
389.231	1.09
389.437	1.13
389.643	1.08
389.849	1.02
390.055	0.95
390.261	0.96
390.467	0.96
390.674	0.87
390.88	0.85
391.086	0.91
391.292	0.82
391.498	0.86
391.704	0.83
391.91	0.77
392.116	0.7
392.322	0.61
392.528	0.68
392.734	0.59
392.94	0.66
393.146	0.63
393.352	0.61
393.557	0.57
393.763	0.55
393.969	0.53
394.175	0.53
394.381	0.57
394.587	0.41
394.792	0.46
394.998	0.45
395.204	0.52
395.41	0.38
395.615	0.4
395.821	0.41
396.027	0.4
396.233	0.33
396.438	0.3
396.644	0.43
396.85	0.43
397.055	0.27
397.261	0.3
397.466	0.36
397.672	0.27
397.878	0.31
398.083	0.27
398.289	0.25
398.494	0.25
398.7	0.26
398.905	0.17
399.111	0.27
399.316	0.17
399.522	0.27
399.727	0.23
399.932	0.17
400.138	0.18
400.343	0.21
400.549	0.2
400.754	0.19
400.959	0.16
401.165	0.18
401.37	0.19
401.575	0.24
401.78	0.18
401.986	0.11
402.191	0.14
402.396	0.17
402.601	0.18
402.807	0.16
403.012	0.14
403.217	0.16
403.422	0.11
403.627	0.14
403.832	0.1
404.037	0.18
404.243	0.13
404.448	0.09
404.653	0.13
404.858	0.17
405.063	0.13
405.268	0.05
405.473	0.12
405.678	0.1
405.883	0.22
406.088	0.11
406.293	0.07
406.498	0.07
406.703	0.12
406.907	0.07
407.112	0.05
407.317	0.11
407.522	0.13
407.727	0.03
407.932	0.07
408.136	0.14
408.341	0.08
408.546	0.08
408.751	0.08
408.956	0.09
409.16	0.11
409.365	0.09
409.57	0.08
409.774	0.07
409.979	0.09
410.184	0.04
410.388	0.03
410.593	0.12
410.798	0.08
411.002	0.05
411.207	0.06
411.411	0.06
411.616	0.05
411.82	0.03
412.025	0.04
412.229	0.01
412.434	0.12
412.638	0.09
412.843	0.04
413.047	0.1
413.252	0.01
413.456	0.05
413.66	0.06
413.865	-0
414.069	0.12
414.273	0.06
414.478	0.06
414.682	0.03
414.886	0.02
415.091	0.04
415.295	-0.02
415.499	0.04
415.703	0.07
415.908	0.07
416.112	-0.11
416.316	0.08
416.52	0.06
416.724	-0.04
416.929	0
417.133	0.12
417.337	0.05
417.541	0.01
417.745	0.06
417.949	0.07
418.153	0.03
418.357	0.02
418.561	0.14
418.765	0.01
418.969	0.12
419.173	0.06
419.377	0
419.581	0.13
419.785	0.01
419.989	0.02
420.193	0.01
420.397	-0
420.601	0.12
420.804	0.05
421.008	0.07
421.212	0.06
421.416	0.07
421.62	-0
421.823	0.05
422.027	0.09
422.231	0.08
422.435	0.01
422.638	0.07
422.842	0
423.046	-0.01
423.249	0.06
423.453	0.07
423.657	0.06
423.86	0.03
424.064	0.01
424.268	0.1
424.471	0.06
424.675	0.1
424.878	0.12
425.082	0.05
425.285	0.04
425.489	0.02
425.692	-0.01
425.896	0
426.099	0.08
426.303	0.01
426.506	-0.02
426.71	0.05
426.913	0.06
427.116	0.07
427.32	0.04
427.523	0.03
427.726	0.13
427.93	0.01
428.133	0.05
428.336	0
428.54	-0.01
428.743	0.06
428.946	0.07
429.149	-0
429.353	0.03
429.556	-0.02
429.759	0.02
429.962	0
430.165	0.06
430.368	0.04
430.571	0.02
430.775	0.08
430.978	0.05
431.181	0.08
431.384	0.04
431.587	0.03
431.79	0.06
431.993	0.03
432.196	0.01
432.399	0.08
432.602	0.08
432.805	-0.02
433.008	0.03
433.211	-0.03
433.414	0.06
433.616	0.07
433.819	0.06
434.022	-0.07
434.225	0.09
434.428	0.05
434.631	0.14
434.833	0.07
435.036	0.03
435.239	0.07
435.442	0.07
435.645	0.03
435.847	0.03
436.05	0.14
436.253	0.08
436.455	0.04
436.658	0.04
436.861	0.11
437.063	0.07
437.266	0.06
437.468	0.04
437.671	0.19
437.874	0.06
438.076	-0.05
438.279	0.02
438.481	0.06
438.684	0.01
438.886	0.08
439.089	-0.03
439.291	-0.03
439.494	0.11
439.696	0.01
439.899	-0.01
440.101	0.11
440.303	0
440.506	0.05
440.708	0.03
440.91	0.08
441.113	0.02
441.315	0.08
441.517	-0.01
441.72	0.11
441.922	0.04
442.124	0.01
442.326	0.09
442.529	0.08
442.731	0.02
442.933	0.14
443.135	0.02
443.337	0.01
443.539	0.06
443.742	0.04
443.944	0.05
444.146	0.05
444.348	-0
444.55	0.05
444.752	0.09
444.954	-0.02
445.156	0.06
445.358	0.03
445.56	0.15
445.762	0.03
445.964	0.12
446.166	0.07
446.368	0.04
446.57	0.11
446.772	0.09
446.974	0.03
447.175	0.07
447.377	0.02
447.579	0.05
447.781	0.01
447.983	0.12
448.184	0.08
448.386	0.14
448.588	-0.01
448.79	0.06
448.991	0.08
449.193	0.05
449.395	0.08
449.597	0.1
449.798	0.12
450	0.08
450.202	0.05
450.403	0.1
450.605	0.11
450.806	0.1
451.008	-0.02
451.21	0.04
451.411	0.06
451.613	0.11
451.814	0.07
452.016	0.1
452.217	0.09
452.419	0.12
452.62	0.08
452.821	0.1
453.023	0.14
453.224	0.1
453.426	0.04
453.627	0.06
453.828	0.12
454.03	0.07
454.231	0.06
454.432	-0
454.634	0.1
454.835	0.02
455.036	-0.02
455.238	0.11
455.439	0.1
455.64	0.02
455.841	0.03
456.042	0.15
456.244	0.11
456.445	0.04
456.646	-0.01
456.847	0.03
457.048	0.09
457.249	0.07
457.45	0.2
457.651	0.02
457.852	0.07
458.054	0.11
458.255	0.04
458.456	0.08
458.657	0.03
458.858	0.02
459.058	0.02
459.259	0.1
459.46	0.05
459.661	0.02
459.862	0.14
460.063	-0.01
460.264	0.08
460.465	0.03
460.666	0.11
460.866	0.04
461.067	0.06
461.268	0.05
461.469	-0
461.67	0.04
461.87	0.05
462.071	0.03
462.272	0.01
462.473	0.05
462.673	0.05
462.874	-0.02
463.075	0.06
463.275	-0.03
463.476	0.01
463.676	0.1
463.877	0.04
464.078	0.01
464.278	0.1
464.479	0.02
464.679	0.02
464.88	0.06
465.08	0.12
465.281	0.01
465.481	-0.02
465.682	0.03
465.882	0.08
466.083	0.06
466.283	0
466.483	-0
466.684	-0.05
466.884	-0.01
467.085	-0.01
467.285	0.05
467.485	0.01
467.686	0.03
467.886	0.01
468.086	-0
468.286	0.07
468.487	0.03
468.687	-0.01
468.887	-0
469.087	0.05
469.287	0.03
469.488	-0
469.688	0.04
469.888	0.03
470.088	0.04
470.288	0.06
470.488	0.06
470.688	0.04
470.888	-0
471.088	0.01
471.288	0.08
471.488	0.02
471.688	0.03
471.888	0.01
472.088	0.09
472.288	0.02
472.488	-0.03
472.688	-0.02
472.888	0.03
473.088	0.05
473.288	0.04
473.488	0.03
473.688	0.1
473.887	0
474.087	-0
474.287	0.04
474.487	-0
474.687	0.06
474.886	-0.02
475.086	0.03
475.286	0.03
475.486	0.02
475.685	0.02
475.885	-0.03
476.085	0.02
476.284	0.03
476.484	0.03
476.684	0.04
476.883	0.08
477.083	0.03
477.282	0
477.482	0.06
477.681	0.06
477.881	0
478.08	-0.03
478.28	-0.03
478.479	0.01
478.679	0.09
478.878	-0
479.078	-0.01
479.277	-0.02
479.477	0.01
479.676	0.02
479.875	0
480.075	-0.04
480.274	-0
480.473	0.04
480.673	-0.02
480.872	0.06
481.071	-0.01
481.271	0
481.47	-0.01
481.669	0.02
481.868	-0.03
482.067	-0.03
482.267	0.02
482.466	0.01
482.665	-0.03
482.864	-0.01
483.063	-0.01
483.262	0.03
483.461	0.04
483.661	0.06
483.86	0.02
484.059	0.02
484.258	-0
484.457	0.01
484.656	0.03
484.855	0.02
485.054	-0.02
485.253	-0.03
485.452	-0.03
485.651	0.03
485.849	0.01
486.048	-0.01
486.247	-0.02
486.446	-0.01
486.645	-0.03
486.844	0
487.043	-0.01
487.241	-0
487.44	0.01
487.639	0.02
487.838	0.02
488.037	-0.01
488.235	0.06
488.434	0
488.633	-0
488.831	0.03
489.03	0.02
489.229	0.02
489.427	0.02
489.626	0.03
489.825	0.05
490.023	-0.01
490.222	0.02
490.42	0.03
490.619	0.02
490.817	0.01
491.016	0
491.214	0.04
491.413	0.01
491.611	0.01
491.81	0.01
492.008	0.01
492.207	0.02
492.405	0.01
492.604	-0.04
492.802	-0.01
493	0.01
493.199	-0.01
493.397	-0.02
493.595	0.01
493.794	-0.01
493.992	0.06
494.19	-0.02
494.388	0.02
494.587	-0.01
494.785	0.02
494.983	-0.02
495.181	0.01
495.379	0.01
495.578	-0.01
495.776	0.02
495.974	0.03
496.172	-0.01
496.37	-0
496.568	-0.02
496.766	-0
496.964	0.03
497.162	0.01
497.36	-0.03
497.558	0.04
497.756	0.02
497.954	0.02
498.152	-0.01
498.35	-0.01
498.548	0
498.746	0.01
498.944	-0.01
499.142	-0.03
499.34	-0.02
499.538	-0.02
499.736	-0.01
499.933	0.04
500.131	0.04
500.329	-0.03
500.527	0.04
500.725	0.03
500.922	0.02
501.12	0
501.318	-0
501.516	-0.02
501.713	0.01
501.911	0
502.109	-0.02
502.306	0.02
502.504	-0
502.701	-0
502.899	-0.02
503.097	0.02
503.294	0.02
503.492	0
503.689	0.02
503.887	0.05
504.084	0.04
504.282	0.01
504.479	-0.03
504.677	0.01
504.874	-0.03
505.072	0.01
505.269	-0.01
505.466	0.03
505.664	0.01
505.861	-0.03
506.059	-0.02
506.256	0.03
506.453	-0.01
506.651	0.04
506.848	0.02
507.045	0.01
507.242	-0
507.44	-0.01
507.637	0.01
507.834	-0
508.031	0.02
508.229	-0.02
508.426	0.01
508.623	0.02
508.82	0.01
509.017	-0.03
509.214	-0.01
509.411	-0
509.608	-0.03
509.805	-0.01
510.003	-0.01
510.2	-0
510.397	0.02
510.594	-0.01
510.791	-0
510.988	-0
511.184	0.03
511.381	0
511.578	-0.02
511.775	0.03
511.972	-0.03
512.169	-0.01
512.366	-0.01
512.563	-0.01
512.76	-0.02
512.956	-0.02
513.153	-0.01
513.35	0.01
513.547	-0.01
513.744	-0.01
513.94	-0.03
514.137	0.01
514.334	0.02
514.53	0.01
514.727	0.01
514.924	0.05
515.12	-0
515.317	-0.03
515.514	-0.02
515.71	-0.01
515.907	-0.01
516.103	0.02
516.3	0.02
516.497	0.01
516.693	0.03
516.89	-0
517.086	-0.02
517.283	0.03
517.479	0
517.676	0.01
517.872	0
518.068	-0.03
518.265	-0.01
518.461	-0.02
518.658	-0.01
518.854	0.01
519.05	-0
519.247	-0.02
519.443	0.01
519.639	0.02
519.836	-0
520.032	-0.01
520.228	-0.02
520.424	0.04
520.621	0
520.817	0.01
521.013	0.01
521.209	0
521.405	0.04
521.601	0
521.798	0.01
521.994	0.01
522.19	0
522.386	-0.03
522.582	-0
522.778	-0.01
522.974	0
523.17	-0.01
523.366	0
523.562	0.02
523.758	0.02
523.954	-0.03
524.15	-0.01
524.346	0
524.542	-0.01
524.738	-0.02
524.934	-0.01
525.129	-0
525.325	0.02
525.521	0.01
525.717	0.01
525.913	-0
526.109	0.02
526.304	-0
526.5	0.02
526.696	0.01
526.892	-0.01
527.087	0.02
527.283	-0.01
527.479	0
527.674	0
527.87	-0.01
528.066	-0.02
528.261	0.02
528.457	0.01
528.653	-0.01
528.848	-0.02
529.044	0
529.239	0
529.435	0.03
529.63	0.01
529.826	0.03
530.021	0.03
530.217	0.02
530.412	-0.01
530.608	-0.01
530.803	-0
530.999	-0
531.194	-0.05
531.389	0.01
531.585	-0.03
531.78	0.01
531.975	0.01
532.171	0.03
532.366	0.01
532.561	0.01
532.757	-0
532.952	-0.01
533.147	0.01
533.342	-0.01
533.538	-0.01
533.733	0.02
533.928	0
534.123	0
534.318	-0.03
534.513	0
534.709	-0.01
534.904	0
535.099	-0.02
535.294	0
535.489	0.01
535.684	-0.01
535.879	-0.03
536.074	0
536.269	-0.03
536.464	0.01
536.659	0.01
536.854	0
537.049	0.01
537.244	-0.01
537.439	-0.01
537.634	0.05
537.828	-0
538.023	-0.01
538.218	-0.05
538.413	-0
538.608	-0.03
538.803	0.01
538.997	-0.02
539.192	0.03
539.387	0.01
539.582	-0.01
539.776	0.02
539.971	-0.02
540.166	0.01
540.36	-0.02
540.555	0.01
540.75	-0
540.944	-0.01
541.139	-0.03
541.334	-0.01
541.528	0.04
541.723	0.02
541.917	-0.01
542.112	-0.02
542.306	-0.01
542.501	-0.03
542.695	0
542.89	-0.03
543.084	0.04
543.279	-0.01
543.473	-0.02
543.668	0
543.862	0.01
544.056	0.03
544.251	-0.01
544.445	-0
544.64	0.01
544.834	-0.01
545.028	-0.01
545.222	0
545.417	0
545.611	0.01
545.805	0.02
546	-0.02
546.194	0.01
546.388	-0.01
546.582	0.02
546.776	0
546.97	0
547.165	0.02
547.359	0.01
547.553	-0.01
547.747	-0
547.941	-0.01
548.135	-0.01
548.329	0
548.523	0.03
548.717	-0
548.911	-0.01
549.105	0.01
549.299	-0.01
549.493	0.03
549.687	0.02
549.881	0.01
550.075	0.01
550.269	-0.03
550.463	0.03
550.657	-0.03
550.85	0.01
551.044	-0
551.238	0.01
551.432	-0.01
551.626	0
551.82	0.01
552.013	-0.02
552.207	-0.02
552.401	0.03
552.594	0.02
552.788	-0
552.982	0.03
553.176	-0.01
553.369	0.04
553.563	0.02
553.756	-0.03
553.95	-0.03
554.144	-0.02
554.337	0.03
554.531	-0.01
554.724	-0
554.918	0
555.111	0.02
555.305	-0.01
555.498	0.03
555.692	0.03
555.885	-0.01
556.079	0
556.272	-0.02
556.466	0.02
556.659	0.01
556.852	-0.01
557.046	-0.01
557.239	0.02
557.432	-0.01
557.626	-0
557.819	-0
558.012	0.03
558.206	0.03
558.399	0.01
558.592	0
558.785	-0.01
558.979	0.01
559.172	0.01
559.365	0
559.558	0.02
559.751	0
559.944	-0.01
560.138	-0
560.331	-0.01
560.524	0.02
560.717	-0.01
560.91	-0
561.103	0.03
561.296	-0
561.489	0
561.682	-0
561.875	0.04
562.068	0.02
562.261	0
562.454	0.05
562.647	-0.01
562.84	-0.01
563.032	-0.02
563.225	0
563.418	-0.02
563.611	-0.01
563.804	-0.01
563.997	-0.01
564.19	-0.05
564.382	-0
564.575	-0.01
564.768	-0
564.961	0
565.153	-0.02
565.346	0.02
565.539	0.02
565.731	0.01
565.924	0.04
566.117	0.02
566.309	0.01
566.502	-0.01
566.695	-0
566.887	0.01
567.08	-0.03
567.272	-0.01
567.465	0.01
567.657	0.01
567.85	0.04
568.042	0.02
568.235	0.05
568.427	0.02
568.62	0.01
568.812	0.03
569.005	0.01
569.197	-0.04
569.389	0.02
569.582	0.03
569.774	0.01
569.966	-0.01
570.159	-0.05
570.351	0.01
570.543	-0.01
570.736	-0
570.928	-0.03
571.12	-0.02
571.312	-0.02
571.505	-0.02
571.697	0.03
571.889	-0.03
572.081	0.01
572.273	-0.04
572.465	0.05
572.658	-0
572.85	0.02
573.042	-0.02
573.234	-0
573.426	0.03
573.618	-0.03
573.81	0.02
574.002	0.03
574.194	0.04
574.386	-0.03
574.578	-0.07
574.77	-0.02
574.962	-0.01
575.154	-0.02
575.346	0
575.538	0.01
575.729	-0.01
575.921	-0.01
576.113	-0.01
576.305	0.01
576.497	-0.02
576.689	0.02
576.88	-0.02
577.072	0.04
577.264	-0.02
577.456	-0
577.647	-0.05
577.839	-0.01
578.031	0.03
578.223	-0.04
578.414	-0.04
578.606	0.01
578.798	0.02
578.989	-0.01
579.181	0.01
579.372	-0.01
579.564	-0.01
579.755	0.01
579.947	-0
580.139	0.03
580.33	-0.05
580.522	-0.02
580.713	-0.06
580.905	0.02
581.096	0.02
581.287	-0
581.479	0.01
581.67	0.03
581.862	-0.01
582.053	-0.04
582.244	-0.06
582.436	-0
582.627	-0
582.818	-0.03
583.01	-0.04
583.201	0.02
583.392	0.02
583.583	0
583.775	-0
583.966	-0.02
584.157	-0.04
584.348	-0.01
584.54	-0.02
584.731	0.01
584.922	0.02
585.113	-0.02
585.304	0.03
585.495	0.04
585.686	-0.01
585.877	0.02
586.068	0.03
586.259	0.01
586.45	-0.03
586.641	-0.01
586.832	-0.04
587.023	0.01
587.214	-0.01
587.405	0.01
587.596	-0.03
587.787	0.03
587.978	0
588.169	-0.01
588.36	-0.02
588.551	0.03
588.742	-0.01
588.932	0
589.123	0
589.314	0.02
589.505	0.02
589.696	0.02
589.886	-0.02
590.077	-0.04
590.268	-0.02
590.458	-0.04
590.649	-0.05
590.84	0.03
591.03	-0.03
591.221	-0.06
591.412	-0.01
591.602	-0.01
591.793	0.03
591.984	-0.02
592.174	0
592.365	0.05
592.555	-0.02
592.746	0.01
592.936	0.02
593.127	0.01
593.317	0.02
593.508	-0.04
593.698	-0.01
593.889	-0
594.079	-0.03
594.269	-0.01
594.46	0
594.65	-0.01
594.84	0
595.031	-0.03
595.221	-0.02
595.411	-0.06
595.602	0.03
595.792	0.01
595.982	-0.02
596.172	0.05
596.363	0.01
596.553	0
596.743	0.01
596.933	0
597.123	0.02
597.314	-0.02
597.504	-0.03
597.694	0.02
597.884	0
598.074	0
598.264	-0.03
598.454	0.01
598.644	0.01
598.834	0
599.024	-0.07
599.214	0.02
599.404	0.01
599.594	-0.02
599.784	-0.03
599.974	-0.01
600.164	0.03
600.354	-0.04
600.544	-0.05
600.734	0.02
600.924	0.01
601.114	-0.02
601.303	-0.02
601.493	0.03
601.683	-0.01
601.873	0.01
602.063	-0.05
602.252	0.05
602.442	-0.06
602.632	-0.03
602.821	-0.04
603.011	0.02
603.201	0.01
603.39	-0.03
603.58	-0.02
603.77	-0
603.959	0.01
604.149	-0.01
604.339	0.02
604.528	0.02
604.718	0.01
604.907	-0.01
605.097	-0.03
605.286	-0
605.476	0
605.665	0.01
605.855	-0.02
606.044	0.04
606.234	-0
606.423	-0
606.612	-0.05
606.802	0.02
606.991	0.01
607.181	-0
607.37	-0.04
607.559	-0.01
607.749	-0.05
607.938	0
608.127	-0.01
608.316	-0.02
608.506	0.01
608.695	-0.01
608.884	-0.01
609.073	-0.01
609.263	-0
609.452	-0
609.641	0.02
609.83	-0.03
610.019	0.02
610.208	-0.02
610.397	-0.01
610.586	0.01
610.775	-0.03
610.965	-0.01
611.154	-0.01
611.343	-0.02
611.532	-0.02
611.721	-0.02
611.91	-0.04
612.099	-0
612.287	-0.01
612.476	-0.04
612.665	0.05
612.854	-0.02
613.043	0.02
613.232	0.01
613.421	-0.04
613.61	0.01
613.798	-0.03
613.987	0.04
614.176	-0.04
614.365	0.02
614.554	0.02
614.742	0.01
614.931	-0.01
615.12	0.03
615.309	-0
615.497	0.01
615.686	-0.02
615.875	-0.01
616.063	0.03
616.252	-0.02
616.44	-0.02
616.629	0.01
616.818	0.03
617.006	0
617.195	0.02
617.383	0.01
617.572	-0.02
617.76	-0.03
617.949	-0.03
618.137	0.05
618.326	0.01
618.514	0.01
618.703	-0.02
618.891	0.05
619.079	-0.07
619.268	0.01
619.456	0
619.644	0.04
619.833	-0.02
620.021	-0.02
620.209	-0.05
620.398	0.02
620.586	0.01
620.774	-0.02
620.962	-0.02
621.151	0.07
621.339	-0.04
621.527	-0.05
621.715	-0.04
621.903	-0.01
622.092	-0.03
622.28	0.02
622.468	-0.01
622.656	0
622.844	0.03
623.032	-0.04
623.22	-0.03
623.408	0
623.596	-0.01
623.784	0.01
623.972	-0.04
624.16	-0.04
624.348	0.04
624.536	0
624.724	-0.01
624.912	0.03
625.1	0.01
625.288	-0.03
625.476	-0.05
625.664	0.03
625.851	-0.02
626.039	0.01
626.227	0.02
626.415	0.01
626.603	-0.04
626.79	0.01
626.978	-0.04
627.166	0.04
627.354	0.03
627.541	-0.01
627.729	-0.05
627.917	0.01
628.104	0.04
628.292	0.02
628.48	0.01
628.667	0.01
628.855	0.04
629.042	-0.01
629.23	-0.02
629.418	0.02
629.605	0
629.793	-0.05
629.98	0.01
630.168	-0.02
630.355	0.01
630.543	0
630.73	-0.03
630.917	0.04
631.105	0.1
631.292	-0.02
631.48	0.03
631.667	0.07
631.854	0.03
632.042	-0.01
632.229	-0.03
632.416	0.03
632.604	0
632.791	-0.04
632.978	0.03
633.165	0.03
633.353	0.09
633.54	0.01
633.727	-0.06
633.914	-0.01
634.101	-0.06
634.289	0.02
634.476	-0.01
634.663	-0.01
634.85	0.01
635.037	-0.02
635.224	-0.04
635.411	0.05
635.598	0.05
635.785	0.02
635.972	-0
636.159	0.05
636.346	-0.02
636.533	0
636.72	0.02
636.907	0.01
637.094	0.04
637.281	0.02
637.468	0.03
637.655	0.02
637.842	0.01
638.029	-0.04
638.215	0.03
638.402	0.01
638.589	0.01
638.776	0.02
638.963	0.02
639.149	0.06
639.336	0.1
639.523	0.03
639.709	-0.02
639.896	0.02
640.083	0.08
640.27	0.03
640.456	0.01
640.643	0.04
640.829	-0.02
641.016	-0.01
641.203	-0.01
641.389	0.03
641.576	0.04
641.762	0.01
641.949	-0.02
642.135	0.03
642.322	0.01
642.508	-0
642.695	0
642.881	-0.02
643.068	0.03
643.254	0.04
643.441	0.06
643.627	0.03
643.813	0
644	0.1
644.186	0
644.372	0.05
644.559	0.07
644.745	0.02
644.931	0.01
645.118	0.03
645.304	0.03
645.49	-0.03
645.676	0.02
645.862	0.04
646.049	0.12
646.235	0.04
646.421	0.12
646.607	0.08
646.793	0.04
646.979	0.03
647.165	0.06
647.352	0.04
647.538	0.09
647.724	0.04
647.91	0.06
648.096	0.09
648.282	0.09
648.468	0.04
648.654	0.03
648.84	0.05
649.026	0.09
649.212	0.08
649.397	0.04
649.583	0
649.769	0.09
649.955	0.08
650.141	0.08
650.327	0.11
650.513	0.05
650.698	0.09
650.884	0
651.07	0.08
651.256	0.07
651.442	0.09
651.627	0.07
651.813	0.08
651.999	0.06
652.184	0.06
652.37	0.09
652.556	0.07
652.741	0.1
652.927	-0
653.113	0.06
653.298	0.1
653.484	0.07
653.669	0.02
653.855	0.07
654.04	0.12
654.226	0.06
654.412	0.09
654.597	0.03
654.782	0.08
654.968	0.1
655.153	0.09
655.339	0.1
655.524	0.08
655.71	0.12
655.895	0.1
656.08	0.1
656.266	0.11
656.451	0.1
656.636	0.09
656.822	0.12
657.007	0.08
657.192	0.09
657.378	0.06
657.563	0.1
657.748	0.11
657.933	0.11
658.118	0.07
658.304	0.11
658.489	0.12
658.674	0.11
658.859	0.08
659.044	0.14
659.229	0.19
659.414	0.09
659.599	0.11
659.785	0.05
659.97	0.09
660.155	0.13
660.34	0.11
660.525	0.08
660.71	0.09
660.895	0.14
661.08	0.1
661.264	0.11
661.449	0.13
661.634	0.16
661.819	0.09
662.004	0.11
662.189	0.03
662.374	0.06
662.559	0.06
662.743	0.03
662.928	0.04
663.113	0.02
663.298	0.01
663.483	0.08
663.667	0.08
663.852	0
664.037	0.12
664.221	0.04
664.406	0.06
664.591	0.06
664.775	0.08
664.96	0.05
665.145	0.08
665.329	0.09
665.514	0.02
665.698	0.04
665.883	-0.01
666.068	0.1
666.252	0.03
666.437	-0.01
666.621	0.02
666.806	0.04
666.99	0.03
667.174	-0.04
667.359	0.11
667.543	-0.02
667.728	0.02
667.912	-0.05
668.096	0.03
668.281	-0.01
668.465	-0.01
668.649	-0
668.834	0
669.018	0.03
669.202	0.01
669.387	-0.02
669.571	0.04
669.755	-0
669.939	0.01
670.124	-0.01
670.308	0.08
670.492	0.08
670.676	0.05
670.86	0.02
671.044	-0.04
671.228	0.03
671.413	-0.03
671.597	-0.02
671.781	-0.04
671.965	0.03
672.149	0.01
672.333	-0
672.517	-0.05
672.701	0.02
672.885	0.02
673.069	-0.05
673.253	0.05
673.437	0.01
673.621	-0.06
673.804	-0.01
673.988	0.02
674.172	0.01
674.356	-0.05
674.54	-0.05
674.724	0.07
674.908	-0.03
675.091	0
675.275	-0.02
675.459	0.04
675.643	0.01
675.826	-0
676.01	-0.01
676.194	-0.04
676.377	0.03
676.561	0.01
676.745	-0.02
676.928	0.02
677.112	0.03
677.296	-0.03
677.479	-0.04
677.663	-0.01
677.846	0.03
678.03	-0.03
678.213	-0.03
678.397	0.02
678.58	-0.07
678.764	-0.01
678.947	-0.03
679.131	-0.06
679.314	0.06
679.498	-0
679.681	0.02
679.865	0.05
680.048	-0
680.231	0.02
680.415	-0.03
680.598	-0.01
680.781	-0.01
680.965	-0.02
681.148	0.01
681.331	0
681.514	0.01
681.698	-0.02
681.881	0.05
682.064	-0
682.247	-0.01
682.43	-0.06
682.614	0.02
682.797	0.06
682.98	0.01
683.163	-0.01
683.346	0.01
683.529	-0
683.712	-0.02
683.895	0
684.078	-0.06
684.261	-0
684.444	-0.04
684.627	-0.03
684.81	-0.02
684.993	-0.02
685.176	0.01
685.359	-0.03
685.542	-0.01
685.725	0.05
685.908	-0.01
686.091	-0.03
686.274	0.01
686.457	0.02
686.639	-0.01
686.822	0.07
687.005	0.02
687.188	0.05
687.371	0.12
687.553	-0.01
687.736	0.02
687.919	0.04
688.102	0.02
688.284	-0.01
688.467	-0.05
688.65	-0.03
688.832	-0.03
689.015	0.01
689.197	-0.04
689.38	0.06
689.563	0.03
689.745	-0.02
689.928	-0.02
690.11	-0.03
690.293	0.01
690.475	-0.1
690.658	-0.02
690.84	-0.01
691.023	-0
691.205	-0.05
691.388	0.04
691.57	-0.02
691.752	0.01
691.935	-0.12
692.117	-0.02
692.3	0.03
692.482	0
692.664	0.03
692.847	-0.01
693.029	0.04
693.211	0
693.393	-0.02
693.576	-0.06
693.758	-0.03
693.94	0.01
694.122	-0.01
694.304	-0.04
694.487	-0.02
694.669	0.07
694.851	-0.03
695.033	0.03
695.215	-0.05
695.397	-0.05
695.579	0.09
695.761	-0.01
695.943	-0.09
696.125	0.06
696.308	0.01
696.49	-0.11
696.671	0.12
696.853	-0.03
697.035	0.05
697.217	-0.05
697.399	0.05
697.581	-0.02
697.763	0.01
697.945	-0.01
698.127	0
698.309	0.04
698.491	0.02
698.672	0.03
698.854	-0
699.036	0.05
699.218	-0.02
699.399	-0
699.581	0.01
699.763	0.01
699.945	-0.03
700.126	-0.06
700.308	0
700.49	0.03
700.671	-0.11
700.853	-0.02
701.035	-0.04
701.216	0.01
701.398	-0.07
701.579	-0.03
701.761	0
701.943	-0.03
702.124	0.03
702.306	-0.04
702.487	0.1
702.669	0.01
702.85	-0.05
703.031	-0.02
703.213	0.1
703.394	0.06
703.576	-0.02
703.757	0.09
703.938	0.04
704.12	0.16
704.301	0.02
704.483	-0.06
704.664	0.01
704.845	0.12
705.026	0.02
705.208	-0.04
705.389	0.09
705.57	0.02
705.751	-0.03
705.933	-0.02
706.114	0.11
706.295	0.03
706.476	-0.07
706.657	0.08
706.838	0.01
707.02	0.13
707.201	-0.04
707.382	-0.06
707.563	-0
707.744	-0.05
707.925	0.03
708.106	-0.01
708.287	0.07
708.468	0.08
708.649	0.03
708.83	0.1
709.011	-0.01
709.192	0.08
709.373	-0.06
709.554	0.02
709.734	0.08
709.915	0.1
710.096	-0.03
710.277	-0.07
710.458	-0.02
710.639	0.07
710.819	-0.09
711	0
711.181	0.05
711.362	0.06
711.542	0.01
711.723	-0.02
711.904	0.03
712.085	0.11
712.265	0.01
712.446	-0.06
712.627	0
712.807	0.05
712.988	0.06
713.168	-0.03
713.349	0.01
713.53	-0.12
713.71	-0.01
713.891	-0.03
714.071	0.02
714.252	0.01
714.432	-0.01
714.613	-0.09
714.793	0.08
714.974	0.07
715.154	0.1
715.334	0.08
715.515	0.11
715.695	-0.09
715.876	-0.04
716.056	-0.03
716.236	0.03
716.417	-0.04
716.597	-0.03
716.777	0.12
716.957	0.04
717.138	-0
717.318	0.03
717.498	-0.01
717.678	0.03
717.859	0.01
718.039	-0.06
718.219	0.03
718.399	0.05
718.579	-0.04
718.759	-0
718.939	0.04
719.12	-0
719.3	-0.04
719.48	-0.09
719.66	-0.05
719.84	0.11
720.02	-0.02
720.2	0.03
720.38	0.11
720.56	0.1
720.74	-0.01
720.92	0.02
721.1	0.08
721.279	0.06
721.459	0.05
721.639	-0.02
721.819	0.05
721.999	-0.03
722.179	0.07
722.359	-0.06
722.538	0.01
722.718	0.02
722.898	0.02
723.078	0.02
723.257	-0.01
723.437	-0.01
723.617	0.06
723.797	0.09
723.976	0.04
724.156	0.05
724.336	0.12
724.515	0.22
724.695	-0.01
724.874	0.07
725.054	0.09
725.234	-0.05
725.413	0.15
725.593	-0.01
725.772	0
725.952	-0.09
726.131	0.03
726.311	0.04
726.49	0.05
726.67	-0.08
726.849	0.01
727.028	0.09
727.208	-0.03
727.387	0.08
727.567	-0.06
727.746	0.12
727.925	0
728.105	-0.01
728.284	0.01
728.463	-0.02
728.643	0.1
728.822	0.01
729.001	0.07
729.18	0.07
729.359	0.11
729.539	0.08
729.718	0.08
729.897	0.07
730.076	0.06
730.255	-0.07
730.434	0.09
730.614	0.13
730.793	0.14
730.972	-0.01
731.151	0.03
731.33	0.16
731.509	0.16
731.688	0.01
731.867	0.04
732.046	-0.07
732.225	0.34
732.404	0.07
732.583	-0.01
732.762	0.12
732.941	0.22
733.12	0.1
733.298	0.05
733.477	0.11
733.656	0.03
733.835	-0.01
734.014	0.16
734.193	0.13
734.371	0.17
734.55	0.14
734.729	0
734.908	0.16
735.086	0.16
735.265	0.11
735.444	0
735.623	0
735.801	0.01
735.98	0.17
736.159	0.08
736.337	0.07
736.516	0.12
736.694	0.15
736.873	0.15
737.052	0.24
737.23	0.22
737.409	0.09
737.587	0.32
737.766	-0.05
737.944	0.1
738.123	0.22
738.301	0.1
738.479	-0.02
738.658	0.16
738.836	-0.12
739.015	0.12
739.193	0.17
739.371	-0.02
739.55	0.05
739.728	-0.03
739.906	0.21
740.085	0.13
740.263	0.17
740.441	-0.09
740.62	0.18
740.798	0.12
740.976	0.06
741.154	0.07
741.332	0.23
741.511	0.05
741.689	0.17
741.867	-0.05
742.045	0.07
742.223	0.05
742.401	0.02
742.579	0
742.757	0.05
742.935	-0.11
743.114	-0.01
743.292	0.04
743.47	0.01
743.648	-0.05
743.826	0.08
744.004	0.08
744.181	-0.02
744.359	-0.05
744.537	0.07
744.715	0.13
744.893	-0.03
745.071	0.05
745.249	-0.05
745.427	-0
745.605	0.11
745.782	0.09
745.96	-0.01
746.138	0.07
746.316	0.08
746.493	0.04
746.671	0.01
746.849	0.01
747.027	0.1
747.204	-0.06
747.382	0.03
747.56	-0.15
747.737	-0.05
747.915	-0.03
748.093	0.11
748.27	-0.06
748.448	0.01
748.625	-0.04
748.803	-0.07
748.98	-0.13
749.158	0.05
749.335	0.05
749.513	-0.02
749.69	-0.02
749.868	-0.01
750.045	0.12
750.223	-0.03
750.4	-0.24
750.578	0.15
750.755	0.03
750.932	-0.18
751.11	0.12
751.287	-0.23
751.464	0.03
751.642	-0.02
751.819	0.09
751.996	0.03
752.173	-0.03
752.351	-0.03
752.528	0.02
752.705	-0.02
752.882	-0.03
753.06	0.01
753.237	0.09
753.414	0.22
753.591	0.13
753.768	0.03
753.945	0.07
754.122	-0.01
754.299	0.01
754.476	-0.14
754.654	-0.04
754.831	0.16
755.008	0.01
755.185	-0.04
755.362	-0.2
755.539	0
755.716	0.04
755.892	0.03
756.069	-0.03
756.246	-0.03
756.423	0.03
756.6	0.27
756.777	-0.05
756.954	0.11
757.131	0.06
757.307	-0.05
757.484	-0.12
757.661	-0.03
757.838	-0.03
758.015	-0.15
758.191	0.07
758.368	0.05
758.545	0.18
758.721	0.05
758.898	-0.03
759.075	0.07
759.251	0.04
759.428	0.05
759.605	-0.19
759.781	-0.05
759.958	0.03
760.134	0.07
760.311	-0.05
760.488	0.09
760.664	0.15
760.841	0.01
761.017	-0.14
761.194	-0.04
761.37	0.03
761.547	0.03
761.723	-0.1
761.899	0.1
762.076	-0.13
762.252	-0.13
762.429	-0.04
762.605	0.02
762.781	-0.05
762.958	0.03
763.134	-0.09
763.31	-0.16
763.486	0.05
763.663	-0.11
763.839	-0.06
764.015	-0.12
764.191	-0.19
764.368	0.03
764.544	-0.15
764.72	0.06
764.896	0.12
765.072	-0.09
765.248	-0.03
765.425	-0.08
765.601	-0.06
765.777	0.05
765.953	-0.27
766.129	-0.05
766.305	-0.12
766.481	0.1
766.657	0.07
766.833	0.2
767.009	-0.07
767.185	-0.12
767.361	0.07
767.537	-0.15
767.713	0.05
767.889	-0.03
768.065	-0.01
768.24	-0.08
768.416	0.14
768.592	-0.05
768.768	-0.01
768.944	0.11
769.12	-0.11
769.295	0
769.471	-0
769.647	0.06
769.823	0.11
769.998	-0.1
770.174	-0.25
770.35	0.23
770.525	0.18
770.701	-0.09
770.877	0.01
771.052	-0.05
771.228	0.08
771.403	-0.04
771.579	0.02
771.755	0.26
771.93	-0.08
772.106	-0.11
772.281	-0.14
772.457	-0.08
772.632	0.07
772.808	-0.18
772.983	-0.06
773.159	-0.16
773.334	0.11
773.509	0
773.685	-0.2
773.86	0.36
774.036	0.28
774.211	-0.03
774.386	-0.08
774.562	-0.05
774.737	-0.02
774.912	-0.23
775.087	0.12
775.263	-0.06
775.438	-0
775.613	-0.15
775.788	-0.11
775.964	0.03
776.139	0.35
776.314	-0.2
776.489	0.07
776.664	-0.01
776.839	-0.03
777.014	0.05
777.19	-0.01
777.365	0.11
777.54	0.1
777.715	0.01
777.89	0.06
778.065	-0.05
778.24	0.06
778.415	0.13
778.59	-0.08
778.765	-0.05
778.94	-0.02
779.115	0.13
779.289	-0.06
779.464	0.13
779.639	-0.13
779.814	-0.14
779.989	-0.24
780.164	0.26
780.339	0.02
780.513	-0.19
780.688	-0.19
780.863	-0.07
781.038	0.04
781.212	-0.05
781.387	0.02
781.562	0.16
781.737	0.02
781.911	0.2
782.086	-0.06
782.261	-0.02
782.435	0.29
782.61	-0.09
782.784	-0.08
782.959	0.3
783.134	-0.02
783.308	-0.22
783.483	-0.12
783.657	0.33
783.832	0.1
784.006	-0.39
784.181	0.08
784.355	0.22
784.53	-0.08
784.704	-0.2
784.878	0.27
785.053	0.02
785.227	0.31
785.402	0.28
785.576	-0.3
785.75	0.18
785.925	0.01
786.099	-0.09
786.273	0.04
786.448	0.22
786.622	0.11
786.796	-0.02
786.97	-0.07
787.145	0.34
787.319	-0.07
787.493	0.07
787.667	-0.34
787.841	-0.06
788.015	0.29
788.19	-0.12
788.364	-0.04
788.538	0.4
788.712	0.1
788.886	-0.06
789.06	0.13
789.234	0.24
789.408	-0.05
789.582	-0.15
789.756	-0.01
789.93	-0.18
790.104	-0.05
790.278	0.03
790.452	0.02
790.626	0.21
790.8	-0.25
790.973	0.14
791.147	-0.08
791.321	0.18
791.495	0.12
791.669	0.18
791.843	0.1
792.016	0.1
792.19	0.26
792.364	-0.15
792.538	0.45
792.711	0.26
792.885	0.03
793.059	-0.24
793.233	-0.46
793.406	0.14
793.58	0.19
793.754	-0.06
793.927	-0.09
794.101	0.22
794.274	0.06
794.448	0.1
794.622	-0.27
794.795	0.16
794.969	-0.28
795.142	0.2
795.316	-0.08
795.489	-0.31
795.663	0.46
795.836	-0.03
796.009	-0.09
796.183	0.27
796.356	0.27
796.53	0.14
796.703	-0
796.876	0.54
797.05	-0.22
797.223	-0.41
797.396	0.16
797.57	-0.13
797.743	0.19
797.916	-0.03
798.09	-0.12
798.263	0.1
798.436	0.21
798.609	-0.21
798.782	-0.29
798.956	0.16
799.129	-0.13
799.302	-0.17
799.475	-0.16
799.648	-0.27
799.821	-0.16
799.994	0.12
800.167	-0.34
800.34	-0.1
800.514	-0.09
800.687	-0.07
800.86	-0.06
801.033	0.13
801.206	-0.09
801.379	-0.37
801.551	0.27
801.724	0.19
801.897	0.3
802.07	0.07
802.243	-0.44
802.416	0.07
802.589	-0.41
802.762	0.12
802.935	-0.09
803.107	0.1
803.28	0.46
803.453	0.39
803.626	-0.34
803.798	-0
803.971	-0.1
804.144	0.09
804.317	0.39
804.489	0.53
804.662	0.01
804.835	0.22
805.007	-0.14
805.18	0.56
805.353	0.21
805.525	-0.19
805.698	-0.53
805.87	0.35
806.043	0.42
806.215	-0.43
806.388	-0.07
806.56	-0.09
806.733	0.15
806.905	0.26
807.078	-0.26
807.25	-0.2
807.423	0.11
807.595	-0.05
807.768	0.24
807.94	0.37
808.112	0.57
808.285	0.05
808.457	-0.2
808.629	-0
808.802	0.07
808.974	0.23
809.146	0.15
809.318	-0.32
809.491	0.13
809.663	0.13
809.835	-0.35
810.007	0.06
810.18	-0.09
810.352	-0.16
810.524	-0.17
810.696	0.21
810.868	0.38
811.04	-0.32
811.212	0.04
811.384	0.06
811.556	0.13
811.728	-0.04
811.901	0.42
812.073	-0.27
812.245	0.2
812.417	-0.13
812.589	-0.41
812.76	-0.12
812.932	0.35
813.104	0.42
813.276	-0.08
813.448	0.54
813.62	-0.18
813.792	0.24
813.964	-0.07
814.136	0.17
814.307	-0.5
814.479	-0
814.651	-0.11
814.823	0.57
814.995	-0.11
815.166	0.12
815.338	-0.46
815.51	-0.71
815.681	0.9
815.853	-0.05
816.025	0.14
816.196	0.47
816.368	0.27
816.54	-0.5
816.711	-0.18
816.883	0.17
817.054	0.87
817.226	-0.67
817.398	-0.09
817.569	-0.6
817.741	0.16
817.912	-0.12
818.084	0.04
818.255	-0.18
818.426	-0.28
818.598	-0.14
818.769	0
818.941	0.06
819.112	0.83
819.283	0.28
819.455	-0.43
819.626	-0.19
819.798	-0.07
819.969	0.41
820.14	-0.18
820.311	-0.05
820.483	-0.15
820.654	0.34
820.825	0.18
820.996	-0.28
821.168	-0.83
821.339	-0.17
821.51	-0.57
821.681	-0.18
821.852	0.06
822.023	-0.46
822.195	-0.27
822.366	0.53
822.537	-0.39
822.708	0.4
822.879	-0.85
823.05	0.73
823.221	0
823.392	0.6
823.563	-0
823.734	-0.13
823.905	0.32
824.076	-0.37
824.247	-0.49
824.418	0
824.589	0.48
824.759	-0.06
824.93	-0.21
825.101	-0.62
825.272	0.31
825.443	0.79
825.614	-0.19
825.784	-1.11
825.955	0.68
826.126	0.34
826.297	-0.65
826.467	0.87
826.638	0.1
826.809	-0.87
826.98	0.07
827.15	0.26
827.321	-0.61
827.492	0.81
827.662	0.03
827.833	0.56
828.003	0.41
828.174	0.14
828.345	-0.11
828.515	0.23
828.686	0.38
828.856	-0.69
829.027	-0.2
829.197	-0.16
829.368	0.03
829.538	-0.34
829.709	-0.06
829.879	0.45
830.049	-0.3
830.22	-0.11
830.39	0.24
830.56	0.23
830.731	0.04
830.901	-0.39
831.072	0.12
831.242	-0.22
831.412	0.15
831.582	-0.4
831.753	-0.7
831.923	0.03
832.093	-0.18
832.263	-0.02
832.434	-1.13
832.604	-0.45
832.774	0.55
832.944	-0.52
833.114	-0.49
833.284	0.24
833.454	-0.85
833.624	-0.53
833.795	-0.62
833.965	0.47
834.135	0.65
834.305	-0.66
834.475	-0.58
834.645	-0.03
834.815	-0.39
834.985	-0.54
835.155	-0.2
835.325	-0.18
835.494	0.56
835.664	-0.12
835.834	-1.01
836.004	0.14
836.174	0.4
836.344	0.22
836.514	-0.82
836.684	-0.05
836.853	0.42
837.023	0.05
837.193	-0.03
837.363	0.16
837.532	0.56
837.702	0.62
837.872	-0.4
838.041	0.17
838.211	1.28
838.381	0.62
838.55	-0.1
838.72	1.38
838.89	0.7
839.059	-0.53
839.229	-0.31
839.398	1.69
839.568	-0.08
839.738	0.07
839.907	1.32
840.077	0.55
840.246	-0.24
840.416	-0.96
840.585	-1.02
840.755	1.31
840.924	0.77
841.093	-0.67
841.263	0.12
841.432	-0.23
841.602	-0.62
841.771	0.1
841.94	-0.74
842.11	1.72
842.279	1.48
842.448	-0.94
842.617	-0.62
842.787	0.97
842.956	-0.45
843.125	-0.2
843.294	0.92
843.464	0.09
843.633	0.31
843.802	-1.18
843.971	0.01
844.14	0.13
844.309	0.92
844.479	-0.12
844.648	-0.78
844.817	-1.26
844.986	0.75
845.155	-0.29
845.324	0.05
845.493	0.1
845.662	-0.68
845.831	0.53
846	0.34
846.169	-0.38
846.338	1.24
846.507	0.27
846.676	0.35
846.844	-0.39
847.013	0.67
847.182	-0
847.351	-0.95
847.52	0.37
847.689	0.28
847.858	-0.37
848.026	0.22
848.195	-0.37
848.364	-1.2
848.533	-0.59
848.701	-0.63
848.87	0.16
849.039	0.5
849.207	1.58
849.376	0.59
849.545	0.9
849.713	-0.4
849.882	0.11
850.051	-0.54
850.219	-0.27
850.388	0.65
850.556	-0.52
850.725	-1.11
850.893	0.38
851.062	-0.99
851.23	0.37
851.399	-1.14
851.567	-0.17
851.736	-0.44
851.904	-0.27
852.073	-0.6
852.241	0.75
852.41	0.05
852.578	-0.71
852.746	0.18
852.915	0.71
853.083	0.89
853.251	0.05
853.42	-0.87
853.588	-0.14
853.756	1.7
853.924	-1.46
854.093	0.6
854.261	-0.03
854.429	-1.04
854.597	0.28
854.765	-0.76
854.934	-0.22
855.102	0.56
855.27	-0.32
855.438	1.31
855.606	1.63
855.774	1.53
855.942	-1.13
856.11	-1.91
856.278	0.04
856.446	0.82
856.614	0.3
856.782	-0.17
856.95	1.92
857.118	0.69
857.286	1.1
857.454	-1.69
857.622	0.29
857.79	-0.31
857.958	-0.66
858.126	-0.55
858.294	-1.71
858.462	1.16
858.629	0.16
858.797	-0.41
858.965	0.07
859.133	-0.53
859.301	-0.94
859.468	0.03
859.636	0.04
859.804	1.83
859.971	1.68
860.139	-0.56
860.307	0.03
860.474	-0.48
860.642	0.29
860.81	-1.67
860.977	-0.04
861.145	2.2
861.313	-0.3
861.48	-0.94
861.648	1.63
861.815	0.43
861.983	-0.88
862.15	0.52
862.318	0.84
862.485	0.89
862.653	-0.7
862.82	-0.2
862.988	1.91
863.155	0.33
863.322	-1.28
863.49	-1.15
863.657	-1.15
863.824	1.01
863.992	0.48
864.159	0.74
864.326	1.66
864.494	-0.67
864.661	2.71
864.828	-1.88
864.996	1.63
865.163	1.97
865.33	-1.69
865.497	-2.23
865.664	-0.78
865.832	-1.73
865.999	-0.62
866.166	-0.3
866.333	0.21
866.5	-1.04
866.667	-0.74
866.834	-1.02
867.001	1.01
867.168	-1.57
867.335	-0.52
867.502	-1
867.669	0.11
867.836	1.92
868.003	-0.24
868.17	0.9
868.337	1.67
868.504	1.61
868.671	-1.81
868.838	-1.04
869.005	0.46
869.172	0.82
869.339	-1.32
869.505	-0.22
869.672	-0.57
869.839	0.97
870.006	-0.11
870.173	-1.44
870.339	0.96
870.506	2.49
870.673	-0.05
870.84	1.1
871.006	0.11
871.173	-0.21
871.34	0.4
871.506	-1.08
871.673	-0.05
871.839	-0.84
872.006	-0.89
872.173	-0.88
872.339	-1.46
872.506	0.56
872.672	0.01
872.839	-0.47
873.005	-0.14
873.172	2.9
873.338	1.98
873.505	0.26
873.671	-0.59
873.838	1.13
874.004	-1.55
874.171	-1.59
874.337	1.3
874.503	0.18
874.67	-0.61
874.836	-1.14
875.002	1.19
875.169	0.62
875.335	1.29
875.501	0.1
875.668	0.22
875.834	0.21
876	0.83
876.166	0.39
876.332	0.61
876.499	2.88
876.665	-0.66
876.831	0.89
876.997	0.97
877.163	0.03
877.329	1.84
877.495	0.4
877.662	1.33
877.828	0.29
877.994	-2.67
878.16	-1.56
878.326	-1.22
878.492	0.96
878.658	0.14
878.824	-1.25
878.99	-0.04
879.156	-2.33
879.322	2.14
879.487	0.56
879.653	0.2
879.819	1.36
879.985	-0.15
880.151	1.54
880.317	-0.98
880.483	-0.66
880.648	1.84
880.814	-1.8
880.98	-0.87
881.146	-2.05
881.312	-0.32
881.477	-1.53
881.643	0.69
881.809	1.86
881.974	-0.04
882.14	-0.85
882.306	1.16
882.471	1.52
882.637	-0.94
882.803	1.74
882.968	2.09
883.134	2.65
883.299	-0.53
883.465	-0.12
883.63	1.38
883.796	1.67
883.961	0.5
884.127	0.13
884.292	-2.12
884.458	-2.74
884.623	-2.73
