Data from Apollo_Calib_20240827__AbsoluteIrradiance__320__04-29-00-033.txt Node

Date: Wed Aug 28 04:29:00 BST 2024
User: biology
Spectrometer: FLMT08252
Trigger mode: 0
Integration Time (sec): 5.000000E-1
Scans to average: 5
Electric dark correction enabled: true
Nonlinearity correction enabled: false
Boxcar width: 0
XAxis mode: Wavelengths
Number of Pixels in Spectrum: 3648
>>>>>Begin Spectral Data<<<<<
179.588	-0
179.809	-0
180.03	-0
180.251	-0
180.473	-0
180.694	0
180.915	0
181.136	-0
181.357	-0
181.578	0
181.799	-0
182.02	-0
182.241	0
182.462	-0
182.683	0
182.904	0
183.125	-0
183.346	0
183.567	0
183.788	-0
184.009	-0
184.23	0
184.451	0
184.672	-0
184.892	-0
185.113	0
185.334	0
185.555	-0
185.776	-0
185.996	0
186.217	0
186.438	0
186.659	-0
186.879	0
187.1	-0
187.321	-0
187.541	-0
187.762	0
187.983	0
188.203	-0
188.424	-0
188.644	-0
188.865	0
189.086	-0
189.306	-0
189.527	0
189.747	-0
189.968	-0
190.188	0
190.409	-0
190.629	0
190.849	-0
191.07	-0
191.29	0
191.511	-0
191.731	-0
191.951	-0
192.172	-0
192.392	-0
192.612	0
192.833	-0
193.053	-0
193.273	0
193.493	-0
193.714	-0
193.934	0
194.154	0
194.374	0
194.594	-0
194.815	0
195.035	0
195.255	0
195.475	-0
195.695	0
195.915	0
196.135	-0
196.355	0
196.575	0
196.795	0
197.015	-0
197.235	-0
197.455	-0
197.675	0
197.895	-0
198.115	-0
198.335	0
198.555	-0
198.775	-0
198.995	0
199.214	0
199.434	-0
199.654	-0
199.874	-0
200.094	0.33
200.313	-0.12
200.533	-0.92
200.753	-1.28
200.973	0.95
201.192	0.71
201.412	-0.61
201.632	-0.27
201.851	0.16
202.071	-0.94
202.291	-0.29
202.51	-0.52
202.73	0.38
202.95	-0.66
203.169	-0.66
203.389	-0.48
203.608	0.22
203.828	-0.42
204.047	-0.12
204.267	0.36
204.486	0.47
204.706	-0.01
204.925	-0.19
205.145	-0.08
205.364	0.59
205.583	0.31
205.803	-0.45
206.022	-0.49
206.242	-0.26
206.461	-0.19
206.68	-0.32
206.9	-0.06
207.119	0.36
207.338	0.49
207.557	-0.28
207.777	-0.08
207.996	-0
208.215	0.42
208.434	-0.3
208.654	-0.3
208.873	-0.15
209.092	0.63
209.311	-0.23
209.53	-0.53
209.749	-0.24
209.968	-0.09
210.187	-0.18
210.407	-0.52
210.626	-0.14
210.845	0.2
211.064	-0.09
211.283	-0.38
211.502	0.21
211.721	0.02
211.94	-0.35
212.159	-0.03
212.377	0.12
212.596	0.02
212.815	-0.01
213.034	0.18
213.253	0.14
213.472	0.28
213.691	-0.29
213.91	-0.22
214.128	-0.27
214.347	0.39
214.566	-0.41
214.785	-0.46
215.003	0.31
215.222	0.07
215.441	-0.03
215.66	-0.34
215.878	0.02
216.097	0.26
216.316	-0.23
216.534	-0.15
216.753	-0.11
216.972	-0.08
217.19	-0.18
217.409	-0.29
217.627	-0.26
217.846	-0.13
218.064	-0
218.283	-0.2
218.501	0.5
218.72	0.19
218.938	-0.22
219.157	-0.07
219.375	0.19
219.594	0.11
219.812	-0.28
220.031	-0.36
220.249	0.38
220.467	0.23
220.686	-0.09
220.904	-0.25
221.122	-0.28
221.341	0.28
221.559	0.04
221.777	-0.18
221.995	0.02
222.214	0.01
222.432	-0.08
222.65	0.01
222.868	0.08
223.086	0
223.305	0.01
223.523	-0.18
223.741	0.24
223.959	-0.25
224.177	-0.28
224.395	-0.28
224.613	0.08
224.831	0.13
225.049	0.02
225.267	-0.2
225.485	-0.04
225.703	-0.15
225.921	-0.07
226.139	-0.04
226.357	0.22
226.575	-0.04
226.793	-0.13
227.011	0.41
227.229	-0
227.447	0.13
227.665	-0.12
227.883	-0.35
228.1	0
228.318	0.06
228.536	-0.33
228.754	-0.23
228.972	0.02
229.189	0.16
229.407	-0.1
229.625	-0.06
229.843	0.26
230.06	-0.02
230.278	-0.09
230.496	-0.11
230.713	0.14
230.931	0.06
231.149	-0.18
231.366	-0.25
231.584	-0.02
231.801	0.38
232.019	-0.16
232.236	-0.19
232.454	-0.13
232.671	-0
232.889	-0.07
233.106	-0.19
233.324	-0.06
233.541	-0.05
233.759	-0.12
233.976	-0.17
234.194	-0.03
234.411	-0.05
234.628	-0.1
234.846	-0.15
235.063	-0.09
235.28	-0.06
235.498	-0.08
235.715	-0.14
235.932	0.09
236.149	-0.04
236.367	-0.1
236.584	0.07
236.801	-0.07
237.018	-0.02
237.236	-0.05
237.453	-0.2
237.67	-0.01
237.887	-0.03
238.104	-0.03
238.321	-0.15
238.538	-0.1
238.755	0.12
238.973	-0.23
239.19	-0.09
239.407	-0.01
239.624	0.07
239.841	-0.2
240.058	-0.14
240.275	0.1
240.492	-0.08
240.709	-0.05
240.925	-0.12
241.142	-0.1
241.359	-0.22
241.576	-0.2
241.793	-0.13
242.01	0
242.227	0.03
242.444	0
242.66	0.13
242.877	0.03
243.094	-0.13
243.311	0.02
243.527	-0.04
243.744	-0.05
243.961	0.05
244.178	-0.05
244.394	0.02
244.611	0.07
244.828	0.11
245.044	-0.08
245.261	-0.09
245.477	0.02
245.694	0.2
245.911	-0.06
246.127	-0
246.344	0.12
246.56	0
246.777	-0.07
246.993	0.02
247.21	0.05
247.426	0.03
247.643	-0.08
247.859	-0
248.076	-0.1
248.292	0.12
248.508	-0.03
248.725	-0.02
248.941	0.11
249.157	0.11
249.374	-0.1
249.59	-0.09
249.806	0.02
250.023	0.07
250.239	-0.07
250.455	-0.08
250.671	-0.06
250.888	0.02
251.104	0.02
251.32	-0.07
251.536	-0.03
251.752	-0.08
251.969	0
252.185	0.04
252.401	0.16
252.617	-0.01
252.833	-0.05
253.049	0
253.265	0.04
253.481	0.03
253.697	-0.09
253.913	-0.08
254.129	-0.08
254.345	0.04
254.561	-0.1
254.777	-0.07
254.993	0.02
255.209	0.04
255.425	-0.12
255.641	-0.07
255.857	0.08
256.073	-0
256.288	-0.09
256.504	-0.07
256.72	-0.02
256.936	0.14
257.152	-0.1
257.367	-0.13
257.583	0.03
257.799	0.1
258.015	-0.07
258.23	-0.09
258.446	0.15
258.662	0.01
258.877	-0.08
259.093	-0.14
259.309	-0
259.524	0.04
259.74	-0.01
259.955	-0.06
260.171	0.01
260.387	0.04
260.602	0.03
260.818	0.03
261.033	-0.11
261.249	-0.06
261.464	-0.09
261.68	-0.12
261.895	-0.04
262.11	0.06
262.326	-0.09
262.541	-0.11
262.757	0.13
262.972	-0.01
263.187	-0.01
263.403	-0.01
263.618	0.11
263.833	0.01
264.049	-0.05
264.264	-0.02
264.479	0.01
264.694	0.07
264.91	-0.12
265.125	-0.05
265.34	0.02
265.555	0.22
265.77	0.08
265.986	-0.08
266.201	0.03
266.416	0.14
266.631	-0.01
266.846	-0.03
267.061	0.01
267.276	0.09
267.491	-0.11
267.706	-0.02
267.921	0.07
268.136	0.03
268.351	-0.04
268.566	-0.08
268.781	0.03
268.996	0.05
269.211	0.02
269.426	-0.08
269.641	0.01
269.856	0.08
270.071	-0.06
270.285	-0.15
270.5	0.1
270.715	0.05
270.93	0.01
271.145	-0.03
271.359	0.09
271.574	-0.1
271.789	-0.03
272.004	-0.03
272.218	-0.01
272.433	0.01
272.648	-0.05
272.862	0.04
273.077	0.02
273.292	0.02
273.506	-0.12
273.721	-0.04
273.936	0
274.15	0.05
274.365	0.02
274.579	0.04
274.794	0.03
275.008	0.05
275.223	-0.09
275.437	-0.01
275.652	0.07
275.866	0.05
276.081	-0.03
276.295	-0.01
276.509	0.09
276.724	0.02
276.938	-0.02
277.153	0.02
277.367	0.08
277.581	-0.07
277.796	-0.07
278.01	-0.08
278.224	0.08
278.438	0.12
278.653	-0.1
278.867	-0.05
279.081	0.06
279.295	-0.03
279.51	-0.03
279.724	-0.1
279.938	0.03
280.152	0.03
280.366	-0.05
280.58	-0.02
280.794	0.05
281.008	0.06
281.222	0.04
281.437	0.16
281.651	-0.03
281.865	0.1
282.079	-0.08
282.293	-0.11
282.507	-0.03
282.721	0.01
282.935	-0.02
283.148	-0.08
283.362	-0.03
283.576	-0.08
283.79	0
284.004	-0.08
284.218	0.01
284.432	0.01
284.646	-0.04
284.859	-0.07
285.073	-0.04
285.287	-0
285.501	-0.03
285.714	-0.02
285.928	0.05
286.142	0.03
286.356	-0.02
286.569	-0.05
286.783	0.07
286.997	0.04
287.21	0.01
287.424	-0.02
287.637	-0.02
287.851	0.03
288.065	0.07
288.278	-0.04
288.492	-0.02
288.705	0
288.919	0.04
289.132	-0.11
289.346	0.07
289.559	-0.03
289.773	-0.05
289.986	-0
290.2	-0.01
290.413	0.06
290.626	-0.02
290.84	-0.03
291.053	-0.01
291.267	0.09
291.48	0.02
291.693	-0.01
291.906	0.01
292.12	0.03
292.333	-0.04
292.546	-0.02
292.76	0.06
292.973	0.03
293.186	0.07
293.399	-0.02
293.612	0.07
293.826	0.01
294.039	-0.04
294.252	-0.03
294.465	0.06
294.678	0.04
294.891	-0.02
295.104	-0.05
295.317	-0.01
295.53	0
295.743	-0.02
295.956	-0.01
296.169	0.13
296.382	0.07
296.595	-0.01
296.808	-0.01
297.021	0.05
297.234	0.05
297.447	-0.06
297.66	0
297.873	0.04
298.086	-0
298.299	-0.05
298.511	-0.04
298.724	-0
298.937	-0.03
299.15	-0.02
299.363	-0.03
299.575	0.06
299.788	0.02
300.001	-0.03
300.213	-0.06
300.426	-0.05
300.639	-0.03
300.852	-0.03
301.064	0.06
301.277	0.09
301.489	0.05
301.702	0.07
301.915	0.02
302.127	-0.01
302.34	-0
302.552	0.03
302.765	0.02
302.977	0.05
303.19	-0.02
303.402	-0.01
303.615	0
303.827	-0.03
304.04	0.03
304.252	0.04
304.464	0.02
304.677	0.15
304.889	0.06
305.102	-0.02
305.314	-0.04
305.526	0.06
305.739	0.08
305.951	-0.03
306.163	-0.02
306.375	0.1
306.588	-0.01
306.8	-0.01
307.012	-0.04
307.224	0.05
307.436	0.08
307.649	-0.04
307.861	0.01
308.073	0.02
308.285	-0.03
308.497	-0.05
308.709	-0.06
308.921	0.05
309.133	0.08
309.346	-0
309.558	-0.04
309.77	0.07
309.982	0.06
310.194	0.04
310.406	-0.01
310.617	0.09
310.829	0.02
311.041	0.03
311.253	-0.07
311.465	-0.02
311.677	0.04
311.889	0.01
312.101	-0.01
312.313	0.06
312.524	0.04
312.736	-0.03
312.948	-0.02
313.16	0.07
313.372	0.05
313.583	0
313.795	-0.03
314.007	-0
314.218	0.05
314.43	0.02
314.642	-0.02
314.853	-0.08
315.065	-0.02
315.277	-0
315.488	0.02
315.7	0.03
315.912	0
316.123	0
316.335	-0.03
316.546	0.12
316.758	0
316.969	-0.04
317.181	0
317.392	0.01
317.604	0.07
317.815	0.01
318.026	-0.06
318.238	-0
318.449	0.06
318.661	-0.06
318.872	-0.03
319.083	-0.05
319.295	0.1
319.506	-0.02
319.717	0.01
319.929	0.03
320.14	0.01
320.351	0.02
320.562	-0.03
320.774	0.06
320.985	0
321.196	-0.08
321.407	-0.08
321.618	0.06
321.829	0.02
322.041	0.02
322.252	0.02
322.463	0.02
322.674	0.09
322.885	-0.03
323.096	-0.02
323.307	0.02
323.518	0.03
323.729	-0.04
323.94	-0.05
324.151	-0.01
324.362	-0.01
324.573	-0.03
324.784	-0.03
324.995	0.08
325.206	0.05
325.417	-0
325.628	-0.01
325.838	0.01
326.049	0.04
326.26	0.04
326.471	0
326.682	0.03
326.892	0.04
327.103	-0.1
327.314	-0.03
327.525	0.08
327.735	0.05
327.946	0.02
328.157	-0.03
328.368	0.03
328.578	-0.02
328.789	0.01
328.999	-0.02
329.21	-0.02
329.421	0.05
329.631	-0.04
329.842	-0.03
330.052	0.04
330.263	0.03
330.473	0.06
330.684	-0.01
330.894	-0
331.105	-0.01
331.315	-0.03
331.526	-0.07
331.736	0.07
331.947	-0.04
332.157	0
332.367	-0.03
332.578	0.03
332.788	0.07
332.999	0.02
333.209	0.03
333.419	-0.06
333.629	0
333.84	-0.01
334.05	-0.01
334.26	0.12
334.47	0.03
334.681	0.04
334.891	-0.04
335.101	0.05
335.311	0.09
335.521	-0.03
335.732	-0.04
335.942	0.02
336.152	0.01
336.362	-0.01
336.572	0.03
336.782	0.04
336.992	-0.01
337.202	0.02
337.412	-0.03
337.622	0.03
337.832	-0.01
338.042	-0.01
338.252	-0.02
338.462	0
338.672	0.01
338.882	-0.04
339.092	0.01
339.302	0.05
339.511	0.03
339.721	-0.02
339.931	-0.04
340.141	0.06
340.351	0.05
340.561	0.03
340.77	0.03
340.98	0.03
341.19	-0.01
341.4	-0.02
341.609	-0.06
341.819	-0.05
342.029	-0.03
342.238	0.02
342.448	-0.03
342.658	0
342.867	-0.01
343.077	0.02
343.286	0.02
343.496	0.01
343.706	0.05
343.915	-0.01
344.125	-0.04
344.334	0.03
344.544	-0.02
344.753	-0.04
344.963	-0.05
345.172	-0.02
345.381	-0.02
345.591	-0.02
345.8	0.05
346.01	0.04
346.219	0.09
346.428	-0.11
346.638	-0.04
346.847	0.03
347.056	0.05
347.266	-0.03
347.475	-0
347.684	-0.03
347.893	0.02
348.103	0.03
348.312	-0.01
348.521	-0.03
348.73	0.03
348.94	0
349.149	0.03
349.358	-0.01
349.567	0.01
349.776	-0.02
349.985	-0.05
350.194	0.03
350.403	0.05
350.612	-0.05
350.821	-0.02
351.03	0.02
351.239	-0.05
351.448	-0.01
351.657	-0.05
351.866	0.1
352.075	0.01
352.284	0.04
352.493	-0.05
352.702	0.09
352.911	0.01
353.12	0.02
353.329	-0.02
353.538	0.03
353.746	-0
353.955	-0.02
354.164	0.02
354.373	0.04
354.582	0.07
354.79	0.03
354.999	0.04
355.208	0.01
355.416	0.12
355.625	-0.06
355.834	-0.04
356.042	-0
356.251	-0.01
356.46	-0.04
356.668	0.04
356.877	0.11
357.085	0.05
357.294	-0.1
357.503	0.02
357.711	0.02
357.92	0.13
358.128	0.02
358.337	-0.02
358.545	0.03
358.754	-0.02
358.962	0.05
359.17	0.02
359.379	0.04
359.587	0.03
359.796	-0.01
360.004	0.05
360.212	0.08
360.421	0.06
360.629	-0.02
360.837	-0
361.046	0.05
361.254	0.07
361.462	-0.03
361.67	0.03
361.879	0.02
362.087	0.08
362.295	0.02
362.503	-0.03
362.711	-0.06
362.92	0.02
363.128	-0.03
363.336	-0.03
363.544	-0.07
363.752	-0.04
363.96	-0.02
364.168	-0.03
364.376	0.04
364.584	0.02
364.792	0.05
365	0.02
365.208	0.02
365.416	0.03
365.624	0.02
365.832	-0.01
366.04	0.03
366.248	0.04
366.456	0.03
366.664	-0
366.872	0.01
367.079	0.02
367.287	0.01
367.495	0.01
367.703	0.01
367.911	0.02
368.118	-0.01
368.326	-0
368.534	-0.07
368.742	0.09
368.949	-0.04
369.157	-0.02
369.365	0.03
369.572	0.04
369.78	-0.06
369.988	0.06
370.195	0.03
370.403	0.03
370.61	-0.04
370.818	0.02
371.026	0.07
371.233	0.02
371.441	0.01
371.648	-0.04
371.856	0.02
372.063	0.04
372.271	0.01
372.478	0
372.685	0.02
372.893	0.02
373.1	-0.02
373.308	-0
373.515	0.09
373.722	0.03
373.93	-0
374.137	0.01
374.344	0.08
374.552	0.06
374.759	0.03
374.966	0.07
375.173	-0.01
375.381	0.04
375.588	-0.03
375.795	-0.09
376.002	-0.04
376.209	-0.03
376.417	0.03
376.624	0.03
376.831	0.05
377.038	0.01
377.245	-0.06
377.452	-0.02
377.659	0.02
377.866	-0.02
378.073	-0.01
378.28	-0.04
378.487	0.02
378.694	0.03
378.901	-0.01
379.108	-0.02
379.315	0.02
379.522	0.12
379.729	0.02
379.936	-0.01
380.143	-0.02
380.35	0.04
380.557	-0.04
380.763	0.02
380.97	0.02
381.177	0.07
381.384	-0.02
381.591	-0.05
381.797	0
382.004	0.07
382.211	0.01
382.418	0.02
382.624	0.05
382.831	0.08
383.038	0
383.244	-0.01
383.451	-0
383.658	0.04
383.864	-0.02
384.071	0.02
384.277	0.08
384.484	-0.03
384.69	0.03
384.897	0.02
385.103	0.01
385.31	-0.04
385.516	-0.02
385.723	-0.02
385.929	0.02
386.136	0.02
386.342	-0.01
386.549	0
386.755	0.03
386.961	0.03
387.168	-0.01
387.374	-0.01
387.58	0.05
387.787	0
387.993	0.02
388.199	0.01
388.406	-0.04
388.612	-0.01
388.818	-0.04
389.024	-0.06
389.231	0.02
389.437	0.05
389.643	0.05
389.849	0.01
390.055	0.01
390.261	0.01
390.467	-0.01
390.674	0
390.88	-0.04
391.086	0.03
391.292	-0.01
391.498	0.06
391.704	0.02
391.91	-0.03
392.116	-0.06
392.322	-0.06
392.528	0.03
392.734	-0
392.94	0.02
393.146	-0.02
393.352	0.01
393.557	0.02
393.763	0.02
393.969	0.08
394.175	-0.03
394.381	0.02
394.587	-0.03
394.792	-0
394.998	0.12
395.204	0.07
395.41	-0.04
395.615	0.03
395.821	0.03
396.027	0.03
396.233	-0.03
396.438	0.04
396.644	0.08
396.85	0.02
397.055	-0.02
397.261	0.05
397.466	0.1
397.672	0.01
397.878	0.04
398.083	0.03
398.289	-0.04
398.494	0.06
398.7	0.06
398.905	-0.08
399.111	0.1
399.316	0.01
399.522	-0.03
399.727	0.01
399.932	0
400.138	-0.01
400.343	0.06
400.549	0.04
400.754	0.03
400.959	0.03
401.165	-0.05
401.37	0.04
401.575	0.09
401.78	-0.02
401.986	0.01
402.191	-0
402.396	0.05
402.601	0.04
402.807	0.03
403.012	0.05
403.217	0.07
403.422	0.03
403.627	0.03
403.832	0.02
404.037	0.05
404.243	0.05
404.448	-0
404.653	-0.01
404.858	0.04
405.063	0.08
405.268	-0.01
405.473	-0.05
405.678	-0.01
405.883	0.17
406.088	0.02
406.293	-0.02
406.498	-0.01
406.703	0.06
406.907	0.04
407.112	-0
407.317	0.03
407.522	0.03
407.727	-0.04
407.932	0
408.136	0.11
408.341	0.01
408.546	0.01
408.751	0.02
408.956	0.03
409.16	0.05
409.365	0.04
409.57	0.01
409.774	0.04
409.979	0.08
410.184	0.04
410.388	-0.01
410.593	0.07
410.798	0.06
411.002	0.06
411.207	0.05
411.411	0.01
411.616	0.01
411.82	0.03
412.025	0.07
412.229	0.04
412.434	0.1
412.638	0.07
412.843	0.07
413.047	0.08
413.252	0.04
413.456	-0.03
413.66	0.12
413.865	0.02
414.069	0.1
414.273	0.01
414.478	0.04
414.682	0.04
414.886	0.05
415.091	-0.02
415.295	0
415.499	0.1
415.703	0.09
415.908	0.14
416.112	-0
416.316	0.09
416.52	0.09
416.724	0.02
416.929	0.03
417.133	0.18
417.337	0.06
417.541	0.13
417.745	0.13
417.949	0.12
418.153	0.14
418.357	0.03
418.561	0.24
418.765	0.14
418.969	0.25
419.173	0.18
419.377	0.1
419.581	0.24
419.785	0.11
419.989	0.13
420.193	0.18
420.397	0.18
420.601	0.24
420.804	0.22
421.008	0.17
421.212	0.24
421.416	0.33
421.62	0.2
421.823	0.25
422.027	0.42
422.231	0.3
422.435	0.25
422.638	0.29
422.842	0.27
423.046	0.26
423.249	0.33
423.453	0.33
423.657	0.35
423.86	0.35
424.064	0.38
424.268	0.48
424.471	0.35
424.675	0.51
424.878	0.44
425.082	0.45
425.285	0.53
425.489	0.47
425.692	0.49
425.896	0.45
426.099	0.57
426.303	0.53
426.506	0.51
426.71	0.61
426.913	0.63
427.116	0.7
427.32	0.62
427.523	0.67
427.726	0.79
427.93	0.68
428.133	0.76
428.336	0.73
428.54	0.71
428.743	0.79
428.946	0.86
429.149	0.83
429.353	0.85
429.556	0.87
429.759	0.91
429.962	0.85
430.165	0.92
430.368	0.93
430.571	0.88
430.775	0.95
430.978	0.96
431.181	0.95
431.384	0.93
431.587	0.94
431.79	1.04
431.993	0.98
432.196	1.04
432.399	1.1
432.602	1.16
432.805	1.09
433.008	1.25
433.211	1.13
433.414	1.29
433.616	1.35
433.819	1.27
434.022	1.26
434.225	1.39
434.428	1.4
434.631	1.6
434.833	1.44
435.036	1.47
435.239	1.53
435.442	1.57
435.645	1.59
435.847	1.56
436.05	1.65
436.253	1.7
436.455	1.63
436.658	1.73
436.861	1.87
437.063	1.78
437.266	1.83
437.468	1.91
437.671	2.12
437.874	2.05
438.076	1.91
438.279	2.01
438.481	2.11
438.684	2.25
438.886	2.25
439.089	2.27
439.291	2.32
439.494	2.48
439.696	2.43
439.899	2.63
440.101	2.73
440.303	2.78
440.506	2.99
440.708	2.98
440.91	3.09
441.113	3.16
441.315	3.24
441.517	3.16
441.72	3.48
441.922	3.35
442.124	3.46
442.326	3.58
442.529	3.69
442.731	3.67
442.933	3.88
443.135	3.89
443.337	3.8
443.539	3.99
443.742	3.96
443.944	4.32
444.146	4.24
444.348	4.33
444.55	4.31
444.752	4.45
444.954	4.49
445.156	4.59
445.358	4.66
445.56	4.94
445.762	4.82
445.964	5.03
446.166	4.96
446.368	5.05
446.57	5.08
446.772	5.08
446.974	5.07
447.175	5.26
447.377	5.15
447.579	5.33
447.781	5.17
447.983	5.35
448.184	5.18
448.386	5.41
448.588	5.2
448.79	5.28
448.991	5.41
449.193	5.43
449.395	5.25
449.597	5.2
449.798	5.12
450	5.03
450.202	5
450.403	5.05
450.605	5.02
450.806	4.83
451.008	4.81
451.21	4.81
451.411	4.65
451.613	4.35
451.814	4.47
452.016	4.51
452.217	4.19
452.419	4.3
452.62	4.1
452.821	4.04
453.023	4.03
453.224	3.85
453.426	3.65
453.627	3.42
453.828	3.47
454.03	3.44
454.231	3.52
454.432	3.33
454.634	3.36
454.835	3.13
455.036	2.99
455.238	3.03
455.439	2.98
455.64	2.81
455.841	2.7
456.042	2.85
456.244	2.65
456.445	2.55
456.646	2.42
456.847	2.31
457.048	2.44
457.249	2.39
457.45	2.44
457.651	2.04
457.852	2.12
458.054	1.99
458.255	1.97
458.456	1.98
458.657	1.94
458.858	1.77
459.058	1.77
459.259	1.88
459.46	1.71
459.661	1.66
459.862	1.86
460.063	1.66
460.264	1.66
460.465	1.48
460.666	1.66
460.866	1.49
461.067	1.39
461.268	1.44
461.469	1.42
461.67	1.37
461.87	1.33
462.071	1.33
462.272	1.28
462.473	1.33
462.673	1.36
462.874	1.3
463.075	1.26
463.275	1.2
463.476	1.27
463.676	1.3
463.877	1.22
464.078	1.15
464.278	1.16
464.479	1.18
464.679	1.11
464.88	1.05
465.08	1.13
465.281	1.01
465.481	0.96
465.682	0.95
465.882	0.95
466.083	0.93
466.283	0.89
466.483	0.87
466.684	0.76
466.884	0.75
467.085	0.75
467.285	0.85
467.485	0.74
467.686	0.72
467.886	0.64
468.086	0.63
468.286	0.7
468.487	0.67
468.687	0.59
468.887	0.6
469.087	0.69
469.287	0.58
469.488	0.51
469.688	0.6
469.888	0.62
470.088	0.53
470.288	0.58
470.488	0.54
470.688	0.42
470.888	0.45
471.088	0.42
471.288	0.47
471.488	0.46
471.688	0.46
471.888	0.36
472.088	0.48
472.288	0.41
472.488	0.33
472.688	0.34
472.888	0.35
473.088	0.37
473.288	0.38
473.488	0.31
473.688	0.44
473.887	0.34
474.087	0.3
474.287	0.32
474.487	0.28
474.687	0.35
474.886	0.25
475.086	0.29
475.286	0.31
475.486	0.24
475.685	0.24
475.885	0.19
476.085	0.23
476.284	0.27
476.484	0.26
476.684	0.28
476.883	0.32
477.083	0.23
477.282	0.15
477.482	0.29
477.681	0.24
477.881	0.23
478.08	0.18
478.28	0.17
478.479	0.27
478.679	0.26
478.878	0.15
479.078	0.19
479.277	0.15
479.477	0.16
479.676	0.19
479.875	0.15
480.075	0.09
480.274	0.19
480.473	0.19
480.673	0.12
480.872	0.19
481.071	0.18
481.271	0.15
481.47	0.11
481.669	0.13
481.868	0.11
482.067	0.1
482.267	0.1
482.466	0.07
482.665	0.11
482.864	0.08
483.063	0.1
483.262	0.15
483.461	0.15
483.661	0.12
483.86	0.1
484.059	0.12
484.258	0.13
484.457	0.09
484.656	0.1
484.855	0.12
485.054	0.05
485.253	0.06
485.452	0.07
485.651	0.09
485.849	0.09
486.048	0.05
486.247	0.05
486.446	0.09
486.645	0.04
486.844	0.06
487.043	0.04
487.241	0.07
487.44	0.06
487.639	0.05
487.838	0.1
488.037	0.07
488.235	0.14
488.434	0.06
488.633	0.02
488.831	0.06
489.03	0.09
489.229	0.07
489.427	0.04
489.626	0.11
489.825	0.11
490.023	0.04
490.222	0.03
490.42	0.07
490.619	0.08
490.817	0.04
491.016	0.04
491.214	0.07
491.413	0.04
491.611	0.03
491.81	0.02
492.008	0.06
492.207	0.06
492.405	0.06
492.604	-0
492.802	0.01
493	0.03
493.199	0.01
493.397	0.01
493.595	0.03
493.794	0.05
493.992	0.08
494.19	0.02
494.388	0.05
494.587	0.04
494.785	0.04
494.983	0.01
495.181	0.04
495.379	0.02
495.578	0
495.776	0.05
495.974	0.03
496.172	0.04
496.37	0.02
496.568	-0.02
496.766	-0.01
496.964	0.04
497.162	0.03
497.36	-0
497.558	0.04
497.756	0.05
497.954	0.01
498.152	-0.01
498.35	0.01
498.548	0.02
498.746	0.03
498.944	-0.02
499.142	0.01
499.34	-0.02
499.538	0.02
499.736	0
499.933	0.04
500.131	0.04
500.329	0.03
500.527	0.04
500.725	0.06
500.922	0.05
501.12	0.02
501.318	0.02
501.516	-0.01
501.713	0.03
501.911	0.01
502.109	-0.01
502.306	0.02
502.504	0.02
502.701	-0.01
502.899	-0
503.097	0.04
503.294	0.02
503.492	0.01
503.689	0.02
503.887	0.02
504.084	0.07
504.282	0.02
504.479	-0.04
504.677	0.03
504.874	0.01
505.072	0.01
505.269	-0.02
505.466	0.04
505.664	0.03
505.861	-0.03
506.059	-0.02
506.256	0.04
506.453	0.01
506.651	0.03
506.848	0.03
507.045	0.02
507.242	0.03
507.44	-0
507.637	0.01
507.834	-0
508.031	0.04
508.229	-0
508.426	0
508.623	0.02
508.82	0.01
509.017	-0.02
509.214	0.02
509.411	0.01
509.608	-0
509.805	-0.01
510.003	-0
510.2	-0.02
510.397	0.03
510.594	-0.01
510.791	-0.01
510.988	0
511.184	0.02
511.381	0.02
511.578	-0.02
511.775	0.03
511.972	0
512.169	-0.01
512.366	0.01
512.563	0.02
512.76	-0.01
512.956	0.02
513.153	-0.02
513.35	0.02
513.547	-0.01
513.744	-0.02
513.94	-0.02
514.137	0.04
514.334	-0.01
514.53	0.02
514.727	-0
514.924	0.03
515.12	-0.01
515.317	-0.03
515.514	-0.03
515.71	-0.02
515.907	-0.01
516.103	0.01
516.3	-0
516.497	0.01
516.693	0.04
516.89	0
517.086	-0.01
517.283	0.04
517.479	0.02
517.676	0
517.872	0.01
518.068	-0.02
518.265	-0.01
518.461	-0.01
518.658	-0.04
518.854	0.02
519.05	-0
519.247	-0.01
519.443	0.04
519.639	0.01
519.836	0.01
520.032	0.01
520.228	-0
520.424	0.04
520.621	0.04
520.817	-0.01
521.013	0.01
521.209	0.01
521.405	0.04
521.601	0.01
521.798	-0.01
521.994	0.03
522.19	-0.01
522.386	-0.05
522.582	-0.01
522.778	0.01
522.974	-0.01
523.17	0.01
523.366	-0
523.562	0.02
523.758	-0
523.954	-0
524.15	-0.01
524.346	0.05
524.542	-0
524.738	-0.02
524.934	0.01
525.129	0.01
525.325	0.02
525.521	-0.02
525.717	0.05
525.913	-0
526.109	0.03
526.304	0
526.5	0.01
526.696	0.02
526.892	0.01
527.087	0.02
527.283	-0
527.479	0.02
527.674	-0.02
527.87	-0.03
528.066	-0.01
528.261	0.04
528.457	0.02
528.653	-0
528.848	0.01
529.044	0.02
529.239	0.01
529.435	0.02
529.63	0.02
529.826	0.03
530.021	0.02
530.217	-0.01
530.412	0
530.608	-0.02
530.803	-0
530.999	0.02
531.194	-0.08
531.389	-0.01
531.585	-0.03
531.78	-0
531.975	0
532.171	0.02
532.366	0
532.561	-0.01
532.757	-0.01
532.952	0
533.147	0.03
533.342	0.01
533.538	-0.02
533.733	0.02
533.928	0
534.123	0
534.318	-0.02
534.513	-0
534.709	-0
534.904	-0.01
535.099	-0.01
535.294	-0
535.489	0.01
535.684	-0.01
535.879	-0.01
536.074	0.01
536.269	-0.02
536.464	-0.01
536.659	-0
536.854	0
537.049	0.02
537.244	-0
537.439	-0.02
537.634	0.04
537.828	0.01
538.023	0.01
538.218	-0.04
538.413	-0.01
538.608	-0.03
538.803	0.03
538.997	-0.06
539.192	-0
539.387	0.01
539.582	0.01
539.776	-0
539.971	-0.01
540.166	-0.01
540.36	-0.04
540.555	-0.01
540.75	-0.01
540.944	-0
541.139	-0.04
541.334	-0.01
541.528	0
541.723	0.01
541.917	-0.03
542.112	-0.04
542.306	-0.04
542.501	-0.02
542.695	-0
542.89	-0.01
543.084	0.01
543.279	-0
543.473	-0
543.668	0.01
543.862	0.01
544.056	0.03
544.251	0.02
544.445	0.01
544.64	-0.02
544.834	-0.02
545.028	0.01
545.222	-0.01
545.417	0.02
545.611	0
545.805	-0
546	-0.03
546.194	-0.01
546.388	0.01
546.582	0.02
546.776	0.01
546.97	-0.01
547.165	0.02
547.359	0.01
547.553	-0
547.747	0.01
547.941	-0
548.135	-0.01
548.329	0.03
548.523	0.03
548.717	-0.01
548.911	-0.01
549.105	-0
549.299	-0.01
549.493	0.02
549.687	0.03
549.881	-0.01
550.075	0.01
550.269	-0.03
550.463	0.02
550.657	-0.02
550.85	0
551.044	-0.02
551.238	0
551.432	-0.03
551.626	-0.03
551.82	0.01
552.013	-0.02
552.207	-0.01
552.401	0.02
552.594	0
552.788	-0.01
552.982	0
553.176	-0.02
553.369	0.01
553.563	0.03
553.756	-0.05
553.95	-0.03
554.144	-0
554.337	0.03
554.531	-0
554.724	-0.01
554.918	-0.01
555.111	0.02
555.305	0
555.498	0.04
555.692	0.01
555.885	-0.02
556.079	0.03
556.272	-0.02
556.466	0.03
556.659	0.01
556.852	0.01
557.046	-0
557.239	0.03
557.432	-0.03
557.626	-0.02
557.819	0.01
558.012	0.02
558.206	0.02
558.399	-0.01
558.592	0
558.785	-0.03
558.979	0.02
559.172	0
559.365	0.01
559.558	0.03
559.751	0
559.944	0.03
560.138	-0.01
560.331	-0.01
560.524	-0.02
560.717	-0.01
560.91	-0.01
561.103	-0.01
561.296	-0
561.489	-0
561.682	-0.01
561.875	0.01
562.068	-0
562.261	0
562.454	0.05
562.647	0.02
562.84	0.03
563.032	-0.02
563.225	0.01
563.418	0.01
563.611	-0.02
563.804	0
563.997	-0.02
564.19	-0.01
564.382	-0
564.575	0.01
564.768	-0.02
564.961	0.02
565.153	-0.02
565.346	0.02
565.539	0.02
565.731	0.03
565.924	0.02
566.117	0.03
566.309	-0.01
566.502	-0.01
566.695	-0.01
566.887	-0.01
567.08	-0.03
567.272	-0.03
567.465	-0.03
567.657	-0
567.85	0.01
568.042	-0
568.235	0.02
568.427	0.02
568.62	-0
568.812	0
569.005	0.02
569.197	-0.06
569.389	0.01
569.582	0.01
569.774	0.02
569.966	-0.03
570.159	0
570.351	0.04
570.543	-0.02
570.736	-0.01
570.928	-0.04
571.12	0
571.312	-0.03
571.505	-0.04
571.697	0.03
571.889	-0.02
572.081	-0
572.273	-0.03
572.465	0.03
572.658	0
572.85	0.01
573.042	-0.02
573.234	0
573.426	0.03
573.618	-0.03
573.81	-0.01
574.002	0.04
574.194	0.05
574.386	-0.04
574.578	-0.08
574.77	-0.04
574.962	-0
575.154	-0.02
575.346	-0.02
575.538	-0
575.729	-0.01
575.921	-0.04
576.113	-0.02
576.305	0.03
576.497	-0.01
576.689	0.01
576.88	-0.03
577.072	0.03
577.264	-0.01
577.456	-0.02
577.647	-0.1
577.839	0
578.031	0.02
578.223	-0.03
578.414	-0.04
578.606	0.04
578.798	0.01
578.989	-0.05
579.181	-0.02
579.372	0.02
579.564	-0.01
579.755	-0.01
579.947	-0.01
580.139	0.02
580.33	-0.05
580.522	-0.04
580.713	-0.07
580.905	0
581.096	0
581.287	-0.02
581.479	-0
581.67	0.02
581.862	-0.01
582.053	-0.03
582.244	-0.06
582.436	-0.04
582.627	0
582.818	-0.03
583.01	-0.04
583.201	0.03
583.392	0.01
583.583	0.01
583.775	0.01
583.966	-0.03
584.157	-0.02
584.348	0
584.54	-0.05
584.731	0.01
584.922	-0.01
585.113	-0.04
585.304	0.02
585.495	0.03
585.686	-0.01
585.877	0.03
586.068	0.01
586.259	-0.01
586.45	0
586.641	-0.02
586.832	-0.07
587.023	0
587.214	-0.01
587.405	0
587.596	-0.05
587.787	0.03
587.978	-0.01
588.169	-0.03
588.36	-0.03
588.551	0
588.742	-0.05
588.932	0.02
589.123	-0
589.314	0.04
589.505	0
589.696	0
589.886	-0.02
590.077	-0.05
590.268	-0.01
590.458	-0.06
590.649	-0.06
590.84	0.05
591.03	0
591.221	-0.03
591.412	-0.05
591.602	0.03
591.793	0.02
591.984	-0.03
592.174	-0.03
592.365	0.07
592.555	-0.03
592.746	0.01
592.936	-0
593.127	0.01
593.317	0.05
593.508	-0.02
593.698	-0.03
593.889	0.01
594.079	0.02
594.269	-0.02
594.46	-0.01
594.65	-0
594.84	0.01
595.031	-0.03
595.221	-0.01
595.411	-0.03
595.602	0.02
595.792	-0.02
595.982	0
596.172	0.05
596.363	-0.01
596.553	0.01
596.743	-0.03
596.933	0.02
597.123	0.05
597.314	-0.04
597.504	-0.03
597.694	0.03
597.884	0.03
598.074	-0.04
598.264	-0.04
598.454	0.01
598.644	-0.01
598.834	-0
599.024	-0.05
599.214	-0.02
599.404	0
599.594	-0.02
599.784	-0.04
599.974	0.04
600.164	0.01
600.354	-0.05
600.544	-0.08
600.734	0.02
600.924	0.06
601.114	-0.05
601.303	0
601.493	0
601.683	-0.02
601.873	0.01
602.063	-0.06
602.252	0.03
602.442	-0.07
602.632	-0.04
602.821	-0.04
603.011	0.03
603.201	-0.03
603.39	-0.04
603.58	-0.05
603.77	0.02
603.959	0.04
604.149	-0.01
604.339	-0.03
604.528	0.02
604.718	0.02
604.907	-0
605.097	-0.04
605.286	-0.03
605.476	-0.02
605.665	0.01
605.855	-0.01
606.044	0.02
606.234	0.01
606.423	-0.03
606.612	-0.05
606.802	0.01
606.991	0.01
607.181	0.01
607.37	-0.03
607.559	0.01
607.749	-0.04
607.938	-0.04
608.127	-0.02
608.316	-0.03
608.506	0
608.695	-0.03
608.884	-0.03
609.073	0
609.263	-0.01
609.452	-0
609.641	-0
609.83	-0.05
610.019	-0.02
610.208	-0.05
610.397	-0.02
610.586	0.07
610.775	-0.04
610.965	-0.03
611.154	-0
611.343	-0
611.532	0
611.721	-0.03
611.91	-0.03
612.099	0.01
612.287	-0.01
612.476	-0.05
612.665	0.02
612.854	-0.01
613.043	0
613.232	-0.03
613.421	-0.07
613.61	-0
613.798	-0.03
613.987	0.04
614.176	-0.02
614.365	0.01
614.554	-0
614.742	0.05
614.931	-0.02
615.12	0.02
615.309	-0.02
615.497	0.01
615.686	-0.02
615.875	-0.04
616.063	0.01
616.252	-0.05
616.44	-0.04
616.629	-0
616.818	0.04
617.006	-0.01
617.195	-0
617.383	0.04
617.572	-0.03
617.76	-0.01
617.949	-0.02
618.137	0.01
618.326	-0
618.514	-0.02
618.703	-0.03
618.891	0.04
619.079	-0.08
619.268	0.02
619.456	-0.05
619.644	0.04
619.833	-0.01
620.021	-0.02
620.209	-0.04
620.398	0.02
620.586	-0.01
620.774	0
620.962	-0.01
621.151	0.04
621.339	0
621.527	-0.05
621.715	-0.05
621.903	-0.05
622.092	-0.07
622.28	-0.01
622.468	-0.02
622.656	-0.02
622.844	-0
623.032	-0.02
623.22	-0.1
623.408	0.03
623.596	0.01
623.784	0.01
623.972	-0.05
624.16	-0.02
624.348	0.06
624.536	-0.03
624.724	-0.04
624.912	0.05
625.1	0.03
625.288	-0.01
625.476	-0.04
625.664	-0
625.851	-0.01
626.039	-0.03
626.227	-0.01
626.415	-0.03
626.603	-0.08
626.79	-0.03
626.978	-0.05
627.166	0
627.354	-0.02
627.541	-0.05
627.729	-0.07
627.917	0.03
628.104	0.04
628.292	0.01
628.48	-0.02
628.667	-0
628.855	0.01
629.042	-0.02
629.23	-0.02
629.418	-0.05
629.605	-0.02
629.793	-0.05
629.98	-0.05
630.168	0
630.355	-0.03
630.543	0
630.73	-0.06
630.917	0.03
631.105	0.08
631.292	-0.03
631.48	0
631.667	0.07
631.854	-0.04
632.042	-0.02
632.229	-0.06
632.416	0
632.604	-0.02
632.791	-0.04
632.978	0.01
633.165	-0.02
633.353	0.03
633.54	0.06
633.727	-0.09
633.914	-0.03
634.101	-0.08
634.289	0.02
634.476	-0.06
634.663	-0.06
634.85	0
635.037	-0.03
635.224	-0.07
635.411	0.02
635.598	0.04
635.785	-0
635.972	-0.01
636.159	0.05
636.346	-0.07
636.533	0
636.72	-0.04
636.907	-0.03
637.094	-0
637.281	-0.03
637.468	-0.01
637.655	-0.03
637.842	-0.01
638.029	-0.04
638.215	0.02
638.402	-0.01
638.589	-0.05
638.776	-0.02
638.963	-0.06
639.149	0.04
639.336	0.06
639.523	-0.02
639.709	-0.01
639.896	-0.03
640.083	0.02
640.27	-0.01
640.456	-0.03
640.643	0.03
640.829	-0.04
641.016	-0.03
641.203	-0.05
641.389	0.01
641.576	-0
641.762	-0.02
641.949	-0.03
642.135	-0.01
642.322	-0
642.508	-0.06
642.695	-0.01
642.881	-0.04
643.068	-0.02
643.254	0
643.441	0.02
643.627	-0.02
643.813	-0.02
644	0.01
644.186	-0.03
644.372	0.02
644.559	0.02
644.745	-0.02
644.931	-0.02
645.118	-0.04
645.304	-0.01
645.49	-0.04
645.676	-0.04
645.862	-0
646.049	0.04
646.235	0
646.421	0.03
646.607	0.07
646.793	-0.01
646.979	-0.04
647.165	-0
647.352	0.02
647.538	0.03
647.724	0.01
647.91	-0.02
648.096	0.03
648.282	0.05
648.468	-0.03
648.654	0.01
648.84	0.01
649.026	-0.01
649.212	-0.03
649.397	-0.08
649.583	-0.04
649.769	0.04
649.955	-0.02
650.141	-0.02
650.327	0.05
650.513	-0.04
650.698	-0.02
650.884	-0.1
651.07	0.02
651.256	0.01
651.442	-0.04
651.627	-0.01
651.813	0.01
651.999	-0.04
652.184	-0.01
652.37	-0.05
652.556	-0.02
652.741	0.05
652.927	-0.09
653.113	-0.03
653.298	-0.01
653.484	-0
653.669	-0.07
653.855	0
654.04	-0
654.226	-0.02
654.412	-0.07
654.597	-0.06
654.782	0.01
654.968	0.01
655.153	-0.01
655.339	-0.02
655.524	-0.06
655.71	0
655.895	-0.03
656.08	-0.03
656.266	0.02
656.451	0.04
656.636	-0.02
656.822	-0.02
657.007	-0.02
657.192	-0.03
657.378	-0.06
657.563	-0.02
657.748	-0.04
657.933	-0
658.118	-0.01
658.304	-0.02
658.489	0.03
658.674	-0.01
658.859	-0.05
659.044	0.02
659.229	0.02
659.414	-0.02
659.599	0.01
659.785	-0.09
659.97	-0.01
660.155	-0.01
660.34	-0.01
660.525	-0.01
660.71	-0.03
660.895	0.01
661.08	-0.03
661.264	-0.02
661.449	0.01
661.634	0
661.819	-0.04
662.004	0.02
662.189	-0.12
662.374	-0.02
662.559	-0.08
662.743	-0.07
662.928	0.01
663.113	-0.04
663.298	-0.09
663.483	-0.06
663.667	0.01
663.852	-0.06
664.037	0.07
664.221	-0.03
664.406	-0.02
664.591	0.01
664.775	-0.01
664.96	-0
665.145	0.02
665.329	0.01
665.514	-0.04
665.698	-0.05
665.883	-0.07
666.068	-0
666.252	-0.01
666.437	-0.05
666.621	-0.02
666.806	0.03
666.99	-0.02
667.174	-0.07
667.359	0.03
667.543	-0.04
667.728	-0.02
667.912	-0.08
668.096	0.01
668.281	-0.04
668.465	-0.01
668.649	-0.02
668.834	-0.05
669.018	-0.03
669.202	-0.02
669.387	-0.07
669.571	0.05
669.755	-0.05
669.939	-0.02
670.124	-0.02
670.308	0.01
670.492	0.02
670.676	-0.02
670.86	-0.02
671.044	-0.04
671.228	0.03
671.413	-0.06
671.597	-0.05
671.781	-0.01
671.965	0.02
672.149	-0.03
672.333	0.01
672.517	-0.05
672.701	0.02
672.885	-0.01
673.069	-0.1
673.253	0.07
673.437	-0.04
673.621	-0.04
673.804	-0.02
673.988	0.03
674.172	-0.03
674.356	-0.08
674.54	-0.04
674.724	0.08
674.908	-0.02
675.091	-0.03
675.275	-0.02
675.459	-0.01
675.643	-0.01
675.826	0.01
676.01	0.01
676.194	-0.05
676.377	0.07
676.561	0.02
676.745	-0.02
676.928	-0.02
677.112	0.06
677.296	-0.05
677.479	-0.06
677.663	-0.05
677.846	0
678.03	0.01
678.213	-0.02
678.397	-0.01
678.58	-0.06
678.764	-0.07
678.947	-0.07
679.131	0
679.314	0.01
679.498	-0.02
679.681	-0.01
679.865	0.04
680.048	-0.03
680.231	-0
680.415	-0.01
680.598	-0.04
680.781	-0.05
680.965	-0.05
681.148	-0.04
681.331	-0.05
681.514	-0
681.698	-0
681.881	0.02
682.064	0.04
682.247	-0.01
682.43	-0.05
682.614	-0.01
682.797	0.07
682.98	0.02
683.163	-0.07
683.346	-0
683.529	-0.04
683.712	-0.08
683.895	-0.01
684.078	-0.07
684.261	-0.03
684.444	0.04
684.627	-0.02
684.81	-0.07
684.993	-0.02
685.176	-0.03
685.359	-0.07
685.542	-0.01
685.725	0.06
685.908	-0.04
686.091	-0.04
686.274	0.06
686.457	-0.02
686.639	-0.03
686.822	0.05
687.005	0.01
687.188	0.01
687.371	0.12
687.553	0.02
687.736	0
687.919	0.08
688.102	0.07
688.284	-0.01
688.467	-0.01
688.65	-0.03
688.832	-0.05
689.015	-0.03
689.197	-0.1
689.38	0.11
689.563	0.08
689.745	-0.07
689.928	-0.02
690.11	-0.03
690.293	-0.04
690.475	-0.09
690.658	-0.01
690.84	-0.02
691.023	-0.01
691.205	-0.05
691.388	0.04
691.57	0.01
691.752	0.01
691.935	-0.08
692.117	-0.08
692.3	0
692.482	-0.02
692.664	-0.01
692.847	-0.01
693.029	0.04
693.211	0.01
693.393	-0.03
693.576	-0.04
693.758	-0.02
693.94	-0.04
694.122	-0.06
694.304	-0.05
694.487	-0
694.669	0.08
694.851	-0.06
695.033	-0.01
695.215	-0.03
695.397	-0.03
695.579	0.04
695.761	-0.04
695.943	-0.1
696.125	0.03
696.308	0.02
696.49	-0.13
696.671	0.08
696.853	-0.05
697.035	0.16
697.217	-0.02
697.399	-0.01
697.581	-0.03
697.763	-0.03
697.945	-0.03
698.127	0
698.309	0.02
698.491	-0.04
698.672	-0
698.854	0.01
699.036	0.09
699.218	-0.08
699.399	0.01
699.581	0.02
699.763	-0.03
699.945	-0.11
700.126	-0.11
700.308	0.01
700.49	0.05
700.671	-0.16
700.853	-0.06
701.035	-0.03
701.216	-0.02
701.398	-0.1
701.579	-0.02
701.761	0.07
701.943	-0.02
702.124	-0.13
702.306	-0.05
702.487	0.06
702.669	0.04
702.85	0.01
703.031	-0.12
703.213	0.12
703.394	0.03
703.576	-0.07
703.757	0.02
703.938	-0.01
704.12	0.13
704.301	-0.03
704.483	-0.07
704.664	0
704.845	0.05
705.026	-0.02
705.208	-0.02
705.389	0.04
705.57	0.03
705.751	-0.09
705.933	-0
706.114	0.09
706.295	-0.03
706.476	-0.09
706.657	0.11
706.838	0.03
707.02	0.01
707.201	-0.04
707.382	-0.05
707.563	0.02
707.744	0.01
707.925	-0.09
708.106	-0.07
708.287	-0.01
708.468	0.1
708.649	-0.02
708.83	0.03
709.011	-0.03
709.192	0.03
709.373	-0.04
709.554	-0.05
709.734	0.02
709.915	-0.01
710.096	-0.02
710.277	-0.13
710.458	0.01
710.639	0
710.819	-0.05
711	-0.11
711.181	0.02
711.362	0.03
711.542	-0.04
711.723	-0.01
711.904	0.03
712.085	0.09
712.265	0.02
712.446	-0.07
712.627	-0.01
712.807	-0.03
712.988	-0.02
713.168	-0.11
713.349	0.04
713.53	-0.13
713.71	-0.04
713.891	-0.13
714.071	-0.05
714.252	-0.05
714.432	-0.08
714.613	-0.08
714.793	-0.1
714.974	0.07
715.154	0.09
715.334	0.04
715.515	0.14
715.695	-0.05
715.876	-0.01
716.056	-0.06
716.236	-0.03
716.417	-0.07
716.597	-0.1
716.777	0.14
716.957	-0.03
717.138	0
717.318	-0.04
717.498	-0.07
717.678	0.02
717.859	0.04
718.039	-0.1
718.219	-0.06
718.399	0.01
718.579	-0.06
718.759	-0.15
718.939	0.03
719.12	-0.01
719.3	-0.07
719.48	-0.12
719.66	-0.17
719.84	0.06
720.02	-0.02
720.2	-0.05
720.38	-0.09
720.56	0.06
720.74	-0.07
720.92	0
721.1	0.06
721.279	0.09
721.459	0.02
721.639	-0.08
721.819	-0.03
721.999	-0.01
722.179	0.05
722.359	-0.06
722.538	-0
722.718	-0
722.898	-0.09
723.078	0
723.257	-0.07
723.437	-0.02
723.617	0.02
723.797	-0.06
723.976	0.02
724.156	0.01
724.336	0.02
724.515	0.08
724.695	-0.12
724.874	-0.01
725.054	0.07
725.234	-0.05
725.413	-0.05
725.593	0.05
725.772	-0.07
725.952	0.04
726.131	-0.02
726.311	-0.11
726.49	-0
726.67	-0.1
726.849	-0.07
727.028	-0.03
727.208	0.01
727.387	0.04
727.567	-0.1
727.746	-0.04
727.925	-0.04
728.105	-0.09
728.284	-0.05
728.463	-0.14
728.643	0.03
728.822	-0.08
729.001	-0.14
729.18	0.04
729.359	0.02
729.539	-0.01
729.718	-0.01
729.897	0.01
730.076	-0.11
730.255	-0.16
730.434	0
730.614	0.05
730.793	0.05
730.972	-0.1
731.151	-0.09
731.33	0.1
731.509	0.01
731.688	-0.03
731.867	-0.05
732.046	-0.16
732.225	0.17
732.404	-0.08
732.583	-0.17
732.762	-0.02
732.941	0.06
733.12	0.01
733.298	-0.05
733.477	0.03
733.656	-0.08
733.835	-0.22
734.014	0
734.193	-0.07
734.371	0.02
734.55	0.05
734.729	-0.05
734.908	0.09
735.086	0.01
735.265	0.11
735.444	-0.15
735.623	-0.11
735.801	-0.11
735.98	-0.05
736.159	-0.14
736.337	0.09
736.516	0.03
736.694	0.05
736.873	-0.16
737.052	0.06
737.23	0.2
737.409	-0.04
737.587	0.06
737.766	-0.17
737.944	-0.08
738.123	-0.1
738.301	0.05
738.479	-0.13
738.658	0.06
738.836	-0.23
739.015	-0.06
739.193	0.08
739.371	-0.11
739.55	-0.05
739.728	-0.2
739.906	0.07
740.085	0.05
740.263	-0.08
740.441	-0.13
740.62	0.11
740.798	0.01
740.976	-0.09
741.154	-0.14
741.332	0.14
741.511	-0.06
741.689	-0.01
741.867	0.03
742.045	-0
742.223	-0.09
742.401	0.02
742.579	-0.1
742.757	0.06
742.935	-0.15
743.114	-0.01
743.292	-0.07
743.47	-0.13
743.648	-0.03
743.826	0.04
744.004	0.01
744.181	0.11
744.359	0.01
744.537	0.04
744.715	-0.1
744.893	-0.06
745.071	0.08
745.249	-0.04
745.427	-0.06
745.605	0.02
745.782	-0.05
745.96	0.03
746.138	0.01
746.316	-0
746.493	-0.06
746.671	0.06
746.849	-0.08
747.027	0.02
747.204	-0.12
747.382	-0.05
747.56	-0.19
747.737	-0.07
747.915	-0
748.093	0.08
748.27	-0.23
748.448	-0.12
748.625	-0.24
748.803	-0.14
748.98	-0.09
749.158	-0.02
749.335	0.06
749.513	-0.08
749.69	-0.06
749.868	-0.16
750.045	-0.01
750.223	-0.14
750.4	-0.28
750.578	0.18
750.755	-0.1
750.932	-0.18
751.11	0.08
751.287	-0.13
751.464	0.17
751.642	-0.14
751.819	-0.04
751.996	0.02
752.173	-0.24
752.351	-0.11
752.528	-0.04
752.705	0.02
752.882	-0.22
753.06	-0.09
753.237	-0
753.414	0.17
753.591	0.22
753.768	-0.1
753.945	-0.03
754.122	0.01
754.299	-0.05
754.476	-0.11
754.654	0.01
754.831	0.03
755.008	-0.05
755.185	-0.11
755.362	-0.23
755.539	-0.06
755.716	-0.04
755.892	-0.1
756.069	-0.08
756.246	-0.07
756.423	-0.06
756.6	0.08
756.777	-0.14
756.954	0.1
757.131	-0.09
757.307	-0.19
757.484	-0.19
757.661	-0.02
757.838	0.04
758.015	-0.24
758.191	0.05
758.368	-0
758.545	0.16
758.721	-0.04
758.898	-0.15
759.075	0.03
759.251	0.17
759.428	0.08
759.605	-0.12
759.781	-0.07
759.958	-0.05
760.134	0.05
760.311	-0.05
760.488	0.15
760.664	0.19
760.841	-0.14
761.017	-0.1
761.194	0.12
761.37	0.02
761.547	0.01
761.723	-0.15
761.899	0.07
762.076	-0.13
762.252	-0.17
762.429	-0.13
762.605	0.1
762.781	-0.04
762.958	0.04
763.134	-0.13
763.31	-0.13
763.486	0.03
763.663	-0.22
763.839	0.01
764.015	-0.12
764.191	-0.05
764.368	-0.12
764.544	-0.23
764.72	-0.07
764.896	-0.01
765.072	0.05
765.248	-0.01
765.425	-0.02
765.601	-0.07
765.777	0.05
765.953	-0.25
766.129	-0.07
766.305	-0.06
766.481	0.02
766.657	-0.03
766.833	0.1
767.009	-0.21
767.185	-0.14
767.361	0.01
767.537	-0.11
767.713	0.15
767.889	-0.18
768.065	-0
768.24	0.11
768.416	0.14
768.592	-0.08
768.768	0.02
768.944	-0.02
769.12	-0.13
769.295	-0.11
769.471	-0.16
769.647	-0.06
769.823	0.03
769.998	-0.15
770.174	-0.12
770.35	0.35
770.525	0.12
770.701	-0.03
770.877	-0.2
771.052	-0.2
771.228	0.01
771.403	-0.05
771.579	0.04
771.755	0.07
771.93	-0.16
772.106	-0.15
772.281	-0.26
772.457	-0.05
772.632	0.02
772.808	-0.24
772.983	-0.05
773.159	-0.15
773.334	0.08
773.509	-0.04
773.685	-0.11
773.86	0.28
774.036	0.09
774.211	-0
774.386	-0.14
774.562	-0.08
774.737	0.07
774.912	-0.16
775.087	0.1
775.263	0.07
775.438	-0.08
775.613	-0.25
775.788	-0.11
775.964	0.23
776.139	0.35
776.314	-0.29
776.489	-0.01
776.664	0
776.839	-0.25
777.014	0.25
777.19	0
777.365	0.2
777.54	0.24
777.715	-0.04
777.89	-0.06
778.065	-0.18
778.24	-0.16
778.415	0.19
778.59	-0.24
778.765	0.01
778.94	-0.01
779.115	0.06
779.289	-0.1
779.464	-0.01
779.639	-0.02
779.814	-0.36
779.989	-0.19
780.164	0.12
780.339	-0.08
780.513	-0.19
780.688	-0.12
780.863	-0.06
781.038	0.35
781.212	-0.11
781.387	-0.06
781.562	0.35
781.737	-0.18
781.911	-0.02
782.086	-0.26
782.261	-0.05
782.435	0.21
782.61	-0.2
782.784	-0.12
782.959	0.14
783.134	-0.11
783.308	-0.33
783.483	-0.13
783.657	0.41
783.832	0.09
784.006	-0.4
784.181	-0.13
784.355	0.05
784.53	-0.28
784.704	-0.23
784.878	0.1
785.053	0.08
785.227	0.11
785.402	0.12
785.576	-0.08
785.75	-0.04
785.925	-0.13
786.099	-0.05
786.273	-0.25
786.448	-0.06
786.622	0.09
786.796	-0.17
786.97	-0.35
787.145	0.39
787.319	-0.26
787.493	-0.05
787.667	-0.38
787.841	-0.09
788.015	0.17
788.19	-0.32
788.364	-0.09
788.538	0.01
788.712	0.12
788.886	-0.05
789.06	0.19
789.234	0.21
789.408	-0.4
789.582	0.08
789.756	0.03
789.93	-0.22
790.104	0.13
790.278	-0.15
790.452	-0.2
790.626	0.06
790.8	-0.41
790.973	0.15
791.147	0.2
791.321	0.33
791.495	0.18
791.669	0.13
791.843	0.1
792.016	-0.05
792.19	0.5
792.364	-0.21
792.538	0.29
792.711	0.21
792.885	-0.22
793.059	-0.34
793.233	-0.53
793.406	0.25
793.58	0.03
793.754	0.05
793.927	-0.1
794.101	0.34
794.274	-0.36
794.448	0.34
794.622	-0.06
794.795	0.08
794.969	-0.15
795.142	0.4
795.316	-0.27
795.489	-0.23
795.663	0.27
795.836	-0.1
796.009	-0.29
796.183	0.44
796.356	0.06
796.53	0.05
796.703	-0.2
796.876	0.6
797.05	-0.3
797.223	-0.24
797.396	-0.16
797.57	-0.35
797.743	0.31
797.916	-0.34
798.09	0.06
798.263	0.06
798.436	-0.14
798.609	-0.16
798.782	-0.31
798.956	0.47
799.129	-0.15
799.302	-0.14
799.475	-0.33
799.648	-0.28
799.821	-0.45
799.994	-0.14
800.167	-0.34
800.34	-0.04
800.514	0.3
800.687	-0.25
800.86	-0.18
801.033	-0.03
801.206	-0.03
801.379	-0.31
801.551	0.28
801.724	0.16
801.897	0.26
802.07	-0.33
802.243	-0.45
802.416	-0.32
802.589	-0.38
802.762	-0.02
802.935	-0.44
803.107	0.38
803.28	-0
803.453	0.13
803.626	-0.36
803.798	-0.23
803.971	-0.21
804.144	-0.18
804.317	-0.11
804.489	0.37
804.662	-0.27
804.835	-0.22
805.007	-0.32
805.18	0.33
805.353	-0.17
805.525	-0.19
805.698	-0.33
805.87	0.14
806.043	0.25
806.215	-0.54
806.388	-0.24
806.56	0.29
806.733	0.25
806.905	0.07
807.078	-0.19
807.25	-0.37
807.423	0.19
807.595	-0.13
807.768	0.07
807.94	0.07
808.112	-0.07
808.285	-0.07
808.457	-0.08
808.629	0.13
808.802	-0.14
808.974	0.1
809.146	-0.24
809.318	-0.32
809.491	0.07
809.663	0.34
809.835	-0.41
810.007	-0.03
810.18	-0.05
810.352	-0.37
810.524	-0.12
810.696	0.26
810.868	0.55
811.04	-0.19
811.212	0.04
811.384	0.35
811.556	-0.08
811.728	-0.27
811.901	0.69
812.073	0.15
812.245	0.18
812.417	0.1
812.589	-0.7
812.76	0.33
812.932	0.47
813.104	0.12
813.276	-0.13
813.448	0.39
813.62	-0.11
813.792	-0.12
813.964	-0.05
814.136	-0.02
814.307	0.1
814.479	-0.34
814.651	-0.01
814.823	0.93
814.995	-0.19
815.166	-0.01
815.338	-0.41
815.51	-0.66
815.681	0.82
815.853	0.29
816.025	-0.07
816.196	0.62
816.368	0.22
816.54	-0.57
816.711	-0.33
816.883	0.02
817.054	0.48
817.226	-1.01
817.398	0
817.569	-0.33
817.741	0.26
817.912	0.07
818.084	-0.16
818.255	0.29
818.426	-0.04
818.598	-0.11
818.769	-0.51
818.941	-0.08
819.112	0.24
819.283	-0.25
819.455	-0.39
819.626	0.05
819.798	-0.06
819.969	-0.13
820.14	-0.15
820.311	-0.32
820.483	0.06
820.654	-0.08
820.825	0.01
820.996	-0.23
821.168	-0.64
821.339	-0.1
821.51	-0.92
821.681	-0.31
821.852	0.16
822.023	-0.61
822.195	-0.59
822.366	0.59
822.537	0.02
822.708	0
822.879	-0.64
823.05	0.47
823.221	-0.24
823.392	0.1
823.563	-0.14
823.734	0.2
823.905	-0.46
824.076	-0.17
824.247	-0.24
824.418	-0.77
824.589	0.73
824.759	-0.44
824.93	0.09
825.101	-1.2
825.272	0.36
825.443	0.42
825.614	0.46
825.784	-0.75
825.955	0.61
826.126	0.87
826.297	-0.42
826.467	0.88
826.638	0.84
826.809	-0.82
826.98	0.04
827.15	0.18
827.321	0.33
827.492	0.36
827.662	-0.02
827.833	0.88
828.003	0.06
828.174	-1.13
828.345	-0.75
828.515	0.5
828.686	0.05
828.856	-0.34
829.027	-0.17
829.197	0.66
829.368	0.46
829.538	-0.46
829.709	-0.13
829.879	-0.25
830.049	-0.54
830.22	-0.52
830.39	0
830.56	-0.12
830.731	-0.08
830.901	-0.5
831.072	-0.33
831.242	-0.2
831.412	0.26
831.582	-0.65
831.753	-1.44
831.923	-0.17
832.093	-0.48
832.263	0
832.434	-0.45
832.604	-0.51
832.774	0.64
832.944	-0.34
833.114	-0.62
833.284	0.21
833.454	-0.91
833.624	-0.21
833.795	-0.76
833.965	-0.03
834.135	1.04
834.305	-1.3
834.475	-1.01
834.645	0.03
834.815	-0.39
834.985	-0.17
835.155	-0.66
835.325	-0.32
835.494	0.38
835.664	-0.82
835.834	-1.23
836.004	0.41
836.174	0.43
836.344	-0.19
836.514	-0.98
836.684	-1.27
836.853	0.36
837.023	-0.26
837.193	-0.78
837.363	0.65
837.532	0.43
837.702	-0.05
837.872	-0.67
838.041	0.97
838.211	1.16
838.381	-0.98
838.55	-0.32
838.72	1.75
838.89	0.99
839.059	-0.65
839.229	-0.77
839.398	1.73
839.568	0.32
839.738	-0.43
839.907	0.61
840.077	-0.4
840.246	-0.41
840.416	-0.17
840.585	-1.14
840.755	1.51
840.924	0.45
841.093	-0.71
841.263	-0.59
841.432	-0.08
841.602	-0.5
841.771	0.7
841.94	-0.03
842.11	1.52
842.279	0.99
842.448	-0.89
842.617	-1.05
842.787	1.02
842.956	-0.63
843.125	0.25
843.294	-0.05
843.464	0.78
843.633	0.45
843.802	-0.75
843.971	-0.29
844.14	-0.43
844.309	0.36
844.479	-0.83
844.648	-0.28
844.817	-0.74
844.986	-0.95
845.155	-1.07
845.324	-0.49
845.493	-0.22
845.662	-0.14
845.831	0.02
846	0.46
846.169	0.32
846.338	1.29
846.507	0.47
846.676	0.63
846.844	-0.07
847.013	0.89
847.182	-0.42
847.351	-0.71
847.52	0.69
847.689	-0.03
847.858	0.01
848.026	-0.05
848.195	-0.13
848.364	-0.86
848.533	-1.03
848.701	-1.18
848.87	0.42
849.039	1.58
849.207	0.04
849.376	0.05
849.545	1.46
849.713	-1.14
849.882	0.34
850.051	-0.88
850.219	-0.24
850.388	1.03
850.556	-1.26
850.725	-1.13
850.893	0.45
851.062	-1.03
851.23	1.27
851.399	-0.86
851.567	-0.64
851.736	-1.62
851.904	-1.61
852.073	0.36
852.241	0.13
852.41	0.63
852.578	-0.06
852.746	-0.94
852.915	-0.67
853.083	-0.49
853.251	-1.84
853.42	-0.62
853.588	-1.09
853.756	0.58
853.924	0.09
854.093	0.31
854.261	0.55
854.429	-1.22
854.597	0.19
854.765	-1.64
854.934	0.21
855.102	0.88
855.27	0.33
855.438	0.28
855.606	-0.05
855.774	1.45
855.942	-1
856.11	-2.46
856.278	0.37
856.446	0.79
856.614	-1.39
856.782	-1.09
856.95	0.26
857.118	0.3
857.286	0.66
857.454	-0.85
857.622	1.15
857.79	0.35
857.958	-1.8
858.126	-1.22
858.294	-3.55
858.462	-0.6
858.629	-1.19
858.797	-1.27
858.965	0.35
859.133	-0.44
859.301	-0.08
859.468	0.08
859.636	-2.09
859.804	1.32
859.971	0.51
860.139	-1.5
860.307	1
860.474	-0.41
860.642	-2.09
860.81	0.45
860.977	-1.48
861.145	-0.16
861.313	-0.15
861.48	-1.54
861.648	0.71
861.815	-0.51
861.983	-1.69
862.15	-1.46
862.318	0.86
862.485	1.88
862.653	-1.85
862.82	-1.28
862.988	1.34
863.155	0.83
863.322	-1.64
863.49	-2.15
863.657	-2.51
863.824	1.7
863.992	0.99
864.159	1.02
864.326	1.74
864.494	-0.31
864.661	2.39
864.828	-1.03
864.996	0.67
865.163	1.62
865.33	-1.1
865.497	-3.22
865.664	-0.73
865.832	-2.26
865.999	-0.79
866.166	-2.2
866.333	-0.63
866.5	-2.18
866.667	0.43
866.834	-0.54
867.001	0.92
867.168	-2.13
867.335	-0.05
867.502	-1.68
867.669	1.78
867.836	1.58
868.003	-0.49
868.17	1.92
868.337	2.39
868.504	2.9
868.671	-1.5
868.838	-1.18
869.005	0.83
869.172	0.71
869.339	1.2
869.505	-1.04
869.672	1.04
869.839	1.52
870.006	-1.59
870.173	-1.3
870.339	-1.31
870.506	3.64
870.673	-1.96
870.84	0.17
871.006	-0.7
871.173	0.32
871.34	-1.95
871.506	-0.98
871.673	-0.02
871.839	-2.26
872.006	0.23
872.173	-1.5
872.339	0.74
872.506	1.42
872.672	-1.4
872.839	-4.43
873.005	-0.42
873.172	4.92
873.338	0.18
873.505	0.08
873.671	-0.31
873.838	-0.46
874.004	-1.86
874.171	-1.05
874.337	0.66
874.503	2.04
874.67	-0.97
874.836	-0.26
875.002	0.97
875.169	0.69
875.335	0.17
875.501	-1.46
875.668	1.02
875.834	0.23
876	-0.96
876.166	-0.81
876.332	2.9
876.499	1.91
876.665	-0.29
876.831	-1.17
876.997	3
877.163	1.15
877.329	-1.17
877.495	-0.79
877.662	1.37
877.828	0.22
877.994	-1.42
878.16	-3.2
878.326	-2.18
878.492	-0.39
878.658	-0.41
878.824	0.57
878.99	-0
879.156	0.29
879.322	2.03
879.487	-0.64
879.653	0.93
879.819	-0.82
879.985	-1.08
880.151	0.54
880.317	-0.26
880.483	-0.51
880.648	0.5
880.814	-2.32
880.98	0.47
881.146	-2.86
881.312	-0.7
881.477	-2.13
881.643	0.81
881.809	0.13
881.974	0.54
882.14	-1.79
882.306	-0.94
882.471	3.58
882.637	-1.66
882.803	1.51
882.968	-0.02
883.134	4.92
883.299	-0.17
883.465	-1.12
883.63	0.8
883.796	0.78
883.961	0.02
884.127	1.15
884.292	-5.59
884.458	-2.68
884.623	-2.68
