Data from Apollo_Calib_20240827__AbsoluteIrradiance__390__05-39-01-472.txt Node

Date: Wed Aug 28 05:39:01 BST 2024
User: biology
Spectrometer: FLMT08252
Trigger mode: 0
Integration Time (sec): 5.000000E-1
Scans to average: 5
Electric dark correction enabled: true
Nonlinearity correction enabled: false
Boxcar width: 0
XAxis mode: Wavelengths
Number of Pixels in Spectrum: 3648
>>>>>Begin Spectral Data<<<<<
179.588	-0
179.809	-0
180.03	-0
180.251	-0
180.473	-0
180.694	0
180.915	0
181.136	-0
181.357	0
181.578	-0
181.799	0
182.02	-0
182.241	0
182.462	-0
182.683	0
182.904	-0
183.125	-0
183.346	0
183.567	0
183.788	-0
184.009	-0
184.23	0
184.451	0
184.672	-0
184.892	-0
185.113	0
185.334	0
185.555	-0
185.776	-0
185.996	0
186.217	-0
186.438	-0
186.659	-0
186.879	0
187.1	-0
187.321	-0
187.541	0
187.762	-0
187.983	0
188.203	-0
188.424	-0
188.644	-0
188.865	0
189.086	-0
189.306	-0
189.527	0
189.747	0
189.968	-0
190.188	0
190.409	0
190.629	-0
190.849	-0
191.07	-0
191.29	0
191.511	-0
191.731	-0
191.951	-0
192.172	-0
192.392	-0
192.612	-0
192.833	0
193.053	0
193.273	0
193.493	0
193.714	-0
193.934	0
194.154	0
194.374	0
194.594	-0
194.815	0
195.035	-0
195.255	-0
195.475	-0
195.695	0
195.915	0
196.135	0
196.355	0
196.575	0
196.795	0
197.015	-0
197.235	-0
197.455	-0
197.675	0
197.895	-0
198.115	-0
198.335	0
198.555	-0
198.775	0
198.995	-0
199.214	0
199.434	0
199.654	-0
199.874	-0
200.094	0.86
200.313	0.17
200.533	-0.51
200.753	-0.46
200.973	0.94
201.192	0.38
201.412	-1
201.632	-0.51
201.851	0.69
202.071	-0.08
202.291	-0.27
202.51	-0.7
202.73	0.5
202.95	-0.29
203.169	-0.97
203.389	0.06
203.608	0.18
203.828	-0.26
204.047	-0.13
204.267	0.51
204.486	0.05
204.706	0.37
204.925	-0.2
205.145	-0.06
205.364	0.52
205.583	0.86
205.803	-0.36
206.022	-0.42
206.242	0.13
206.461	-0.06
206.68	-0.28
206.9	0.18
207.119	0.4
207.338	0.74
207.557	-0.46
207.777	-0.1
207.996	0.03
208.215	0.5
208.434	-0.29
208.654	-0.54
208.873	0.03
209.092	0.44
209.311	-0.31
209.53	-0.11
209.749	-0.14
209.968	-0.22
210.187	-0.05
210.407	-0.52
210.626	-0.25
210.845	0.24
211.064	0.26
211.283	-0.07
211.502	0.21
211.721	-0.02
211.94	-0.18
212.159	-0.16
212.377	0.37
212.596	0.39
212.815	0.14
213.034	-0.01
213.253	0.19
213.472	0.23
213.691	-0.12
213.91	-0.45
214.128	-0.24
214.347	0.27
214.566	-0.44
214.785	-0.41
215.003	0.19
215.222	0.05
215.441	-0.03
215.66	-0.26
215.878	0.11
216.097	0.22
216.316	-0.2
216.534	-0.14
216.753	0
216.972	0.05
217.19	-0.09
217.409	-0.22
217.627	-0.15
217.846	-0.11
218.064	-0.09
218.283	-0.23
218.501	0.41
218.72	0.36
218.938	-0.2
219.157	-0.21
219.375	0.28
219.594	0.21
219.812	-0.32
220.031	-0.2
220.249	0.36
220.467	0.26
220.686	-0.01
220.904	-0.15
221.122	-0.18
221.341	0.28
221.559	-0.03
221.777	-0.12
221.995	-0.01
222.214	0.1
222.432	-0.15
222.65	0.11
222.868	-0
223.086	0.06
223.305	0.09
223.523	0.05
223.741	0.3
223.959	-0.11
224.177	-0.21
224.395	-0.05
224.613	0.03
224.831	0.15
225.049	-0.25
225.267	-0.19
225.485	0.07
225.703	0.03
225.921	-0.1
226.139	-0.08
226.357	0.11
226.575	0.08
226.793	-0.12
227.011	0.57
227.229	0.01
227.447	0.21
227.665	-0.1
227.883	-0.13
228.1	-0.03
228.318	-0.02
228.536	-0.3
228.754	-0.12
228.972	0.07
229.189	0.23
229.407	-0.07
229.625	0.07
229.843	0.12
230.06	0.1
230.278	-0.07
230.496	0.08
230.713	0.06
230.931	0.24
231.149	-0.15
231.366	-0.16
231.584	-0.09
231.801	0.32
232.019	-0.02
232.236	-0.27
232.454	-0.04
232.671	-0.07
232.889	-0.07
233.106	-0.07
233.324	0.02
233.541	0.02
233.759	0.04
233.976	-0.06
234.194	0.01
234.411	-0.02
234.628	-0.08
234.846	-0.1
235.063	0.09
235.28	0.07
235.498	-0.04
235.715	-0.15
235.932	0.18
236.149	-0.03
236.367	-0.07
236.584	0.03
236.801	-0.08
237.018	0.06
237.236	0.01
237.453	-0.22
237.67	0.15
237.887	0
238.104	-0.05
238.321	-0.21
238.538	-0.09
238.755	0.08
238.973	-0.16
239.19	0.05
239.407	0.07
239.624	0.11
239.841	-0.16
240.058	-0.03
240.275	0.09
240.492	-0.04
240.709	-0.09
240.925	-0.04
241.142	-0.06
241.359	-0.15
241.576	-0.19
241.793	-0.19
242.01	-0.01
242.227	0.14
242.444	0.08
242.66	0.02
242.877	0.04
243.094	-0.04
243.311	0.06
243.527	-0.08
243.744	-0
243.961	0.01
244.178	-0.1
244.394	-0
244.611	0.22
244.828	0.18
245.044	-0.09
245.261	-0.01
245.477	0.04
245.694	0.14
245.911	-0.05
246.127	0.04
246.344	0.13
246.56	0.02
246.777	-0.04
246.993	-0.08
247.21	0.08
247.426	0.13
247.643	-0.02
247.859	-0.06
248.076	-0.05
248.292	0.16
248.508	-0.02
248.725	0.06
248.941	0.05
249.157	0.19
249.374	-0.05
249.59	0
249.806	0.01
250.023	0.04
250.239	-0.06
250.455	-0.1
250.671	-0.01
250.888	0.06
251.104	0.07
251.32	-0.06
251.536	-0.04
251.752	0.1
251.969	-0.04
252.185	-0.02
252.401	0.14
252.617	0.01
252.833	-0.09
253.049	0.01
253.265	0
253.481	0.05
253.697	-0.05
253.913	-0.08
254.129	0.09
254.345	-0
254.561	-0.09
254.777	-0.04
254.993	0.14
255.209	-0.05
255.425	0.01
255.641	-0.1
255.857	0.09
256.073	0.08
256.288	-0.1
256.504	-0.07
256.72	0
256.936	0.14
257.152	-0.04
257.367	0.02
257.583	-0.01
257.799	0.06
258.015	-0
258.23	-0.03
258.446	0.12
258.662	0.01
258.877	-0.09
259.093	-0.06
259.309	0.01
259.524	0.04
259.74	-0.04
259.955	-0.14
260.171	0
260.387	0.07
260.602	0.08
260.818	0.01
261.033	-0.1
261.249	-0.06
261.464	-0.07
261.68	-0.11
261.895	0.02
262.11	0.08
262.326	-0.03
262.541	-0.14
262.757	0.09
262.972	-0.03
263.187	0.03
263.403	0.01
263.618	0.03
263.833	-0.02
264.049	-0.05
264.264	-0.03
264.479	-0
264.694	0.1
264.91	-0.15
265.125	-0.04
265.34	0.06
265.555	0.15
265.77	0
265.986	-0.1
266.201	0.04
266.416	0.1
266.631	-0.06
266.846	0.03
267.061	0.1
267.276	0.06
267.491	-0.17
267.706	0.02
267.921	0.06
268.136	0.05
268.351	-0.01
268.566	-0.03
268.781	0.08
268.996	0.06
269.211	-0.02
269.426	-0.06
269.641	-0.01
269.856	0.01
270.071	-0.05
270.285	-0.07
270.5	0.06
270.715	0.1
270.93	-0.04
271.145	0.03
271.359	0.07
271.574	-0.03
271.789	0.03
272.004	-0.11
272.218	0.02
272.433	0.06
272.648	-0.04
272.862	0.04
273.077	0
273.292	0.03
273.506	-0.03
273.721	-0.11
273.936	-0
274.15	0.07
274.365	0.03
274.579	0.03
274.794	0.06
275.008	0.04
275.223	-0.14
275.437	-0.01
275.652	0.04
275.866	0.03
276.081	0.01
276.295	0.03
276.509	-0.04
276.724	-0
276.938	0.03
277.153	0.01
277.367	0.05
277.581	-0.02
277.796	-0.05
278.01	-0.05
278.224	0.09
278.438	0.16
278.653	0
278.867	-0.05
279.081	-0.13
279.295	-0.07
279.51	0.04
279.724	-0.07
279.938	0.04
280.152	0.06
280.366	-0.06
280.58	-0.07
280.794	0.08
281.008	0.05
281.222	0.04
281.437	0.09
281.651	0.04
281.865	0.12
282.079	0.03
282.293	-0.06
282.507	-0.01
282.721	-0.02
282.935	-0.02
283.148	-0.06
283.362	-0.09
283.576	-0.08
283.79	0.01
284.004	-0.05
284.218	0.02
284.432	-0.05
284.646	-0.02
284.859	-0.07
285.073	-0.06
285.287	-0.02
285.501	-0.04
285.714	0.01
285.928	0.05
286.142	0
286.356	0
286.569	-0.03
286.783	0.09
286.997	0.02
287.21	0.02
287.424	-0.03
287.637	0.01
287.851	-0.04
288.065	0
288.278	0.02
288.492	-0.01
288.705	-0.03
288.919	0.01
289.132	-0
289.346	0.08
289.559	-0.03
289.773	-0.1
289.986	0
290.2	0.03
290.413	0.04
290.626	-0.03
290.84	-0
291.053	-0
291.267	0.07
291.48	0.04
291.693	0.02
291.906	-0.04
292.12	0
292.333	-0.05
292.546	-0.03
292.76	0.08
292.973	0.01
293.186	0.06
293.399	-0.05
293.612	0.07
293.826	0.02
294.039	-0
294.252	0
294.465	0.07
294.678	0.03
294.891	0.03
295.104	-0.06
295.317	-0.01
295.53	0.06
295.743	0.02
295.956	-0.02
296.169	0.13
296.382	0.12
296.595	-0.02
296.808	-0.04
297.021	0.08
297.234	0.02
297.447	0.03
297.66	0.05
297.873	0.1
298.086	0.01
298.299	-0.07
298.511	-0.04
298.724	-0.02
298.937	-0.01
299.15	-0.03
299.363	0.01
299.575	0.06
299.788	0.07
300.001	-0.04
300.213	-0.05
300.426	0.02
300.639	-0.04
300.852	-0.02
301.064	-0.01
301.277	0.08
301.489	0.05
301.702	-0.01
301.915	0.01
302.127	0.01
302.34	0.07
302.552	0.03
302.765	-0.09
302.977	0.04
303.19	0.01
303.402	-0
303.615	0
303.827	-0.02
304.04	-0
304.252	0.05
304.464	-0.02
304.677	0.08
304.889	0.06
305.102	-0.02
305.314	-0.03
305.526	0.02
305.739	0.02
305.951	0.03
306.163	-0.01
306.375	0.07
306.588	-0
306.8	-0.03
307.012	-0.06
307.224	0.02
307.436	0.04
307.649	-0.03
307.861	-0.01
308.073	0.06
308.285	0
308.497	-0.06
308.709	0.03
308.921	0.04
309.133	0.08
309.346	-0.02
309.558	0.05
309.77	0.03
309.982	0.09
310.194	0.07
310.406	-0
310.617	0.06
310.829	0.02
311.041	0.03
311.253	-0.01
311.465	-0.04
311.677	0.03
311.889	0.03
312.101	-0.05
312.313	0.05
312.524	0.07
312.736	-0.06
312.948	0.01
313.16	0.1
313.372	0.05
313.583	0.01
313.795	-0.03
314.007	-0.01
314.218	0.01
314.43	0.02
314.642	0
314.853	-0.04
315.065	0.04
315.277	-0.02
315.488	0.04
315.7	0.03
315.912	0.05
316.123	0.01
316.335	-0.03
316.546	0.1
316.758	0.04
316.969	-0.04
317.181	0.01
317.392	0.01
317.604	0.04
317.815	-0.04
318.026	-0.05
318.238	-0.02
318.449	0.02
318.661	-0.06
318.872	-0.05
319.083	-0.02
319.295	0.02
319.506	-0.02
319.717	0.01
319.929	0.05
320.14	0.02
320.351	0.02
320.562	-0.01
320.774	0
320.985	0.01
321.196	-0.06
321.407	-0.07
321.618	0.06
321.829	-0.01
322.041	0.03
322.252	0
322.463	0.03
322.674	0.03
322.885	-0.02
323.096	-0.01
323.307	0.02
323.518	0.03
323.729	-0.06
323.94	-0.03
324.151	-0.01
324.362	0.02
324.573	0.01
324.784	-0.05
324.995	0.03
325.206	0.02
325.417	-0.02
325.628	0
325.838	0.01
326.049	0.03
326.26	0.07
326.471	-0.02
326.682	0.01
326.892	0.01
327.103	-0.03
327.314	-0.09
327.525	0.04
327.735	0.04
327.946	-0.02
328.157	-0.03
328.368	0.01
328.578	-0.06
328.789	0.05
328.999	-0.02
329.21	-0.02
329.421	0.01
329.631	-0.06
329.842	-0.04
330.052	0.06
330.263	0.01
330.473	-0
330.684	0.02
330.894	-0.02
331.105	0.03
331.315	0.04
331.526	-0.04
331.736	0.07
331.947	0.05
332.157	0.02
332.367	-0.05
332.578	0.06
332.788	0.07
332.999	0.03
333.209	0.02
333.419	-0.1
333.629	-0.02
333.84	0.07
334.05	-0
334.26	0.08
334.47	-0.01
334.681	0.01
334.891	0.01
335.101	0.05
335.311	0.09
335.521	0.04
335.732	-0.03
335.942	0.06
336.152	0.07
336.362	0.04
336.572	-0
336.782	0.04
336.992	0
337.202	0
337.412	-0.01
337.622	0.07
337.832	0.01
338.042	0.03
338.252	-0.04
338.462	-0.02
338.672	0.01
338.882	0.05
339.092	-0.04
339.302	0.05
339.511	0.03
339.721	-0.01
339.931	-0.02
340.141	0.09
340.351	0.04
340.561	0.01
340.77	0.04
340.98	-0
341.19	0.02
341.4	-0.03
341.609	-0.03
341.819	-0.04
342.029	-0.05
342.238	0.01
342.448	-0
342.658	0.03
342.867	-0.01
343.077	0.02
343.286	0.02
343.496	0.05
343.706	0.05
343.915	-0.07
344.125	-0.01
344.334	0.02
344.544	-0.06
344.753	-0.04
344.963	0
345.172	-0.03
345.381	-0.02
345.591	-0
345.8	-0
346.01	0.06
346.219	0.05
346.428	-0.1
346.638	0.02
346.847	0.05
347.056	0.03
347.266	-0
347.475	-0.04
347.684	0.09
347.893	0.01
348.103	-0.01
348.312	0.02
348.521	0.03
348.73	0.01
348.94	-0.01
349.149	-0.04
349.358	-0.01
349.567	-0.02
349.776	-0.04
349.985	-0
350.194	0.05
350.403	0.03
350.612	-0.05
350.821	-0.01
351.03	0.04
351.239	-0.04
351.448	-0.02
351.657	-0.05
351.866	0.08
352.075	-0.02
352.284	0.06
352.493	-0.05
352.702	0.06
352.911	0.02
353.12	0.02
353.329	0.02
353.538	0.02
353.746	-0.01
353.955	-0.03
354.164	0.05
354.373	-0.02
354.582	0.02
354.79	0.01
354.999	0.04
355.208	-0
355.416	0.1
355.625	-0.03
355.834	0
356.042	-0.01
356.251	-0.06
356.46	-0.04
356.668	0
356.877	0.14
357.085	0.06
357.294	-0.09
357.503	0.03
357.711	0.02
357.92	0.13
358.128	0.02
358.337	-0.01
358.545	0.01
358.754	-0.04
358.962	0.06
359.17	-0.01
359.379	0.03
359.587	0.05
359.796	-0.02
360.004	0.08
360.212	0.01
360.421	0.06
360.629	-0.01
360.837	0
361.046	0.03
361.254	0.07
361.462	0.03
361.67	-0.04
361.879	0.01
362.087	0.11
362.295	0.06
362.503	-0.01
362.711	-0.06
362.92	-0.04
363.128	-0
363.336	-0.05
363.544	-0.02
363.752	-0
363.96	-0.02
364.168	0.01
364.376	-0.01
364.584	0.03
364.792	0.05
365	0.01
365.208	0.04
365.416	0
365.624	0.05
365.832	0.01
366.04	0.06
366.248	0.05
366.456	0.01
366.664	0.02
366.872	-0.01
367.079	-0.03
367.287	0.03
367.495	0.05
367.703	0.02
367.911	0.01
368.118	0.02
368.326	-0.01
368.534	-0.06
368.742	0.07
368.949	-0.04
369.157	-0.02
369.365	0.04
369.572	0
369.78	0.01
369.988	0.04
370.195	0.06
370.403	0.06
370.61	-0.04
370.818	-0
371.026	0.05
371.233	-0.03
371.441	0.03
371.648	0.02
371.856	0.02
372.063	0.03
372.271	-0.01
372.478	-0.03
372.685	-0.03
372.893	0.04
373.1	-0.02
373.308	-0.01
373.515	0.11
373.722	0.03
373.93	-0.04
374.137	0.03
374.344	0.06
374.552	0.04
374.759	0.05
374.966	0.01
375.173	-0.07
375.381	0.07
375.588	-0.02
375.795	-0.06
376.002	-0.02
376.209	-0.02
376.417	-0.01
376.624	-0.05
376.831	0.03
377.038	0.02
377.245	-0.09
377.452	-0.01
377.659	0.02
377.866	-0.01
378.073	-0.01
378.28	-0.01
378.487	0.03
378.694	0.03
378.901	-0.01
379.108	0.02
379.315	0.02
379.522	0.08
379.729	0.01
379.936	0.02
380.143	0.01
380.35	0.01
380.557	0
380.763	0.02
380.97	-0
381.177	-0.01
381.384	0.05
381.591	-0.05
381.797	0.06
382.004	0.02
382.211	0.03
382.418	0.03
382.624	0.09
382.831	0.07
383.038	-0.02
383.244	0.01
383.451	0
383.658	0
383.864	-0.01
384.071	-0.05
384.277	0.04
384.484	-0.03
384.69	0.05
384.897	-0.02
385.103	0
385.31	-0.05
385.516	-0.05
385.723	-0.04
385.929	-0
386.136	-0.04
386.342	0.03
386.549	-0.02
386.755	0.07
386.961	0.01
387.168	0.01
387.374	0
387.58	0.02
387.787	0.04
387.993	0.01
388.199	-0
388.406	-0.03
388.612	-0.04
388.818	-0.03
389.024	-0.02
389.231	0.01
389.437	0.04
389.643	0.01
389.849	-0.01
390.055	0
390.261	0.02
390.467	0.03
390.674	-0.02
390.88	-0
391.086	0.05
391.292	-0.05
391.498	0.05
391.704	-0.03
391.91	-0.01
392.116	-0.01
392.322	-0.08
392.528	0.03
392.734	-0.01
392.94	0.03
393.146	-0.01
393.352	0.06
393.557	0.02
393.763	-0
393.969	0.03
394.175	0.02
394.381	-0.02
394.587	-0.02
394.792	-0.02
394.998	0.02
395.204	0.05
395.41	-0.02
395.615	0.02
395.821	0.01
396.027	0
396.233	-0.04
396.438	0.05
396.644	0.07
396.85	0.01
397.055	-0.03
397.261	0.02
397.466	0.12
397.672	-0.02
397.878	0.07
398.083	0.02
398.289	-0.03
398.494	0.07
398.7	0.07
398.905	-0.04
399.111	0.1
399.316	-0.05
399.522	0.01
399.727	0.01
399.932	-0.02
400.138	0
400.343	0.04
400.549	0.05
400.754	-0
400.959	0.04
401.165	-0.02
401.37	0.04
401.575	0.09
401.78	-0.03
401.986	-0.06
402.191	-0.02
402.396	-0.01
402.601	0.01
402.807	0.03
403.012	-0.03
403.217	0.04
403.422	0
403.627	0.01
403.832	-0.02
404.037	0.02
404.243	0.07
404.448	-0.02
404.653	0.02
404.858	0.04
405.063	0.08
405.268	-0.03
405.473	-0.03
405.678	-0.01
405.883	0.15
406.088	0.05
406.293	-0.02
406.498	-0.05
406.703	0.06
406.907	-0.02
407.112	-0.01
407.317	0.02
407.522	0.03
407.727	-0.05
407.932	0.01
408.136	0.13
408.341	0.04
408.546	0
408.751	0.04
408.956	0.01
409.16	0.08
409.365	0.03
409.57	-0.02
409.774	-0.02
409.979	0.04
410.184	0.02
410.388	-0.06
410.593	0.08
410.798	0.05
411.002	-0.01
411.207	0.01
411.411	0.06
411.616	-0.06
411.82	-0.03
412.025	0.06
412.229	-0.04
412.434	0.12
412.638	0.03
412.843	-0.03
413.047	0.02
413.252	-0.08
413.456	-0.03
413.66	0.01
413.865	-0.06
414.069	0.07
414.273	0.04
414.478	0.01
414.682	-0.02
414.886	-0
415.091	-0.06
415.295	-0.08
415.499	0.02
415.703	-0.01
415.908	-0
416.112	-0.08
416.316	0.05
416.52	-0.04
416.724	-0.06
416.929	-0
417.133	0.1
417.337	0
417.541	-0.03
417.745	-0.02
417.949	0.09
418.153	0.06
418.357	-0.07
418.561	0.08
418.765	0.05
418.969	0.1
419.173	0.01
419.377	-0.04
419.581	0.1
419.785	-0.01
419.989	0
420.193	-0.02
420.397	-0.01
420.601	0.09
420.804	0.03
421.008	-0.06
421.212	0
421.416	-0.02
421.62	-0.05
421.823	0.02
422.027	0.1
422.231	0.03
422.435	-0.01
422.638	0
422.842	0.03
423.046	-0.02
423.249	0.03
423.453	0.03
423.657	0.02
423.86	-0.01
424.064	-0.02
424.268	0.03
424.471	-0
424.675	0.04
424.878	0.11
425.082	0.01
425.285	0.07
425.489	0.02
425.692	0.05
425.896	-0.05
426.099	0.04
426.303	-0.02
426.506	-0.07
426.71	0.03
426.913	0.06
427.116	0.04
427.32	0.01
427.523	-0.01
427.726	0.08
427.93	-0.08
428.133	-0.04
428.336	-0.05
428.54	0.01
428.743	0.03
428.946	0.04
429.149	-0.06
429.353	-0
429.556	-0.02
429.759	-0.03
429.962	-0.03
430.165	-0.02
430.368	0.02
430.571	-0.06
430.775	0.03
430.978	0.01
431.181	-0
431.384	0.01
431.587	-0.04
431.79	-0.01
431.993	0.02
432.196	-0
432.399	0.02
432.602	0.08
432.805	-0.04
433.008	-0.01
433.211	-0.08
433.414	0
433.616	0.01
433.819	-0.02
434.022	-0.05
434.225	0.08
434.428	0.04
434.631	0.14
434.833	0.02
435.036	-0.01
435.239	0.04
435.442	0.01
435.645	-0.05
435.847	0.01
436.05	0.11
436.253	0.01
436.455	-0.06
436.658	-0.03
436.861	0.09
437.063	-0.04
437.266	-0.03
437.468	0.06
437.671	0.12
437.874	-0
438.076	-0.06
438.279	-0.08
438.481	0.04
438.684	-0.02
438.886	0.08
439.089	-0.02
439.291	0.06
439.494	0
439.696	-0.03
439.899	-0.03
440.101	0.05
440.303	-0.04
440.506	0.01
440.708	0.01
440.91	0.01
441.113	-0.03
441.315	0.05
441.517	0
441.72	0.02
441.922	-0.07
442.124	-0.04
442.326	0.02
442.529	0.07
442.731	-0.04
442.933	0.04
443.135	-0.05
443.337	0
443.539	0.01
443.742	0.03
443.944	0.01
444.146	-0.03
444.348	-0.01
444.55	-0.02
444.752	-0.06
444.954	-0.11
445.156	0.03
445.358	-0.05
445.56	0.05
445.762	0.02
445.964	0.01
446.166	-0.03
446.368	-0.05
446.57	0.02
446.772	0.02
446.974	-0.01
447.175	0.03
447.377	-0.05
447.579	0.03
447.781	-0.11
447.983	0.07
448.184	-0.02
448.386	0.01
448.588	-0.06
448.79	0.05
448.991	-0.06
449.193	-0.06
449.395	-0.01
449.597	0
449.798	0.01
450	0.04
450.202	-0
450.403	0.01
450.605	0.03
450.806	-0.02
451.008	-0.04
451.21	0.01
451.411	0.03
451.613	0.01
451.814	-0.01
452.016	0.03
452.217	0.02
452.419	0.05
452.62	-0
452.821	0.03
453.023	0.07
453.224	0.01
453.426	0.01
453.627	0.01
453.828	0.05
454.03	0.03
454.231	0.02
454.432	-0.08
454.634	0.14
454.835	-0.01
455.036	-0.02
455.238	0.03
455.439	0.07
455.64	-0.07
455.841	-0.02
456.042	0.11
456.244	0.05
456.445	-0.03
456.646	-0.08
456.847	-0.02
457.048	0.03
457.249	0.06
457.45	0.2
457.651	-0.08
457.852	0.08
458.054	0.03
458.255	-0.01
458.456	0.05
458.657	-0.01
458.858	-0
459.058	0.02
459.259	0.06
459.46	-0.01
459.661	-0.01
459.862	0.11
460.063	0.04
460.264	0.06
460.465	-0.04
460.666	0.09
460.866	-0.03
461.067	-0.02
461.268	0.02
461.469	-0.03
461.67	0.02
461.87	-0
462.071	0.02
462.272	-0.04
462.473	0.01
462.673	0.02
462.874	0
463.075	0
463.275	-0.01
463.476	0.03
463.676	0.05
463.877	0
464.078	-0
464.278	0.11
464.479	-0.02
464.679	0.01
464.88	-0.01
465.08	0.1
465.281	0
465.481	0
465.682	-0
465.882	0.05
466.083	0.06
466.283	0.02
466.483	0.03
466.684	-0.05
466.884	0.03
467.085	-0.02
467.285	0.03
467.485	-0.04
467.686	-0
467.886	-0.04
468.086	-0
468.286	0.01
468.487	0.05
468.687	-0.04
468.887	-0.04
469.087	0.02
469.287	-0
469.488	-0.05
469.688	0.01
469.888	0.06
470.088	0.05
470.288	0.08
470.488	0.04
470.688	-0.05
470.888	-0.02
471.088	-0.04
471.288	0.04
471.488	0.07
471.688	0.03
471.888	-0.03
472.088	0.02
472.288	0.09
472.488	-0.01
472.688	-0.02
472.888	0.01
473.088	0.01
473.288	0.04
473.488	-0.05
473.688	0.07
473.887	0
474.087	-0.02
474.287	0.05
474.487	0.02
474.687	0.03
474.886	-0.04
475.086	-0.01
475.286	0.01
475.486	-0.02
475.685	-0.01
475.885	-0.01
476.085	-0.01
476.284	0.07
476.484	0.01
476.684	0.04
476.883	0.06
477.083	0.03
477.282	-0.02
477.482	0.06
477.681	0.06
477.881	0.02
478.08	0.02
478.28	-0.03
478.479	0.03
478.679	0.08
478.878	-0.01
479.078	0.02
479.277	0
479.477	0.01
479.676	0.04
479.875	0.01
480.075	-0.05
480.274	0.03
480.473	0.02
480.673	-0.02
480.872	0.05
481.071	0.02
481.271	0.05
481.47	0
481.669	0.01
481.868	0.01
482.067	-0.05
482.267	-0.03
482.466	0.02
482.665	0
482.864	-0
483.063	-0.02
483.262	0.05
483.461	0.07
483.661	0.06
483.86	0.02
484.059	0.03
484.258	0.01
484.457	0.02
484.656	0.02
484.855	0.08
485.054	-0.05
485.253	-0.01
485.452	-0.02
485.651	-0
485.849	0.02
486.048	0.02
486.247	0.01
486.446	-0
486.645	0
486.844	0.01
487.043	0.03
487.241	0.06
487.44	-0.03
487.639	0.01
487.838	0.04
488.037	0.02
488.235	0.07
488.434	0.01
488.633	0.01
488.831	0.04
489.03	0.04
489.229	0.03
489.427	0.02
489.626	0.07
489.825	0.09
490.023	0.04
490.222	0.04
490.42	0.09
490.619	0.1
490.817	0.07
491.016	0.03
491.214	0.06
491.413	0.04
491.611	0.04
491.81	0.06
492.008	0.05
492.207	0.07
492.405	0.07
492.604	0.02
492.802	0.03
493	0.06
493.199	0.02
493.397	0.07
493.595	0.08
493.794	0.06
493.992	0.09
494.19	0.03
494.388	0.08
494.587	0.03
494.785	0.05
494.983	0.03
495.181	0.07
495.379	0.07
495.578	0.06
495.776	0.11
495.974	0.08
496.172	0.04
496.37	0.06
496.568	0.06
496.766	0.05
496.964	0.11
497.162	0.1
497.36	0.06
497.558	0.1
497.756	0.1
497.954	0.1
498.152	0.06
498.35	0.09
498.548	0.09
498.746	0.09
498.944	0.07
499.142	0.09
499.34	0.05
499.538	0.1
499.736	0.08
499.933	0.16
500.131	0.13
500.329	0.13
500.527	0.15
500.725	0.16
500.922	0.14
501.12	0.16
501.318	0.15
501.516	0.12
501.713	0.14
501.911	0.13
502.109	0.1
502.306	0.15
502.504	0.16
502.701	0.14
502.899	0.14
503.097	0.19
503.294	0.2
503.492	0.16
503.689	0.19
503.887	0.19
504.084	0.23
504.282	0.18
504.479	0.17
504.677	0.21
504.874	0.16
505.072	0.21
505.269	0.2
505.466	0.23
505.664	0.25
505.861	0.18
506.059	0.22
506.256	0.26
506.453	0.23
506.651	0.32
506.848	0.27
507.045	0.27
507.242	0.28
507.44	0.25
507.637	0.27
507.834	0.28
508.031	0.32
508.229	0.25
508.426	0.3
508.623	0.32
508.82	0.29
509.017	0.29
509.214	0.32
509.411	0.34
509.608	0.31
509.805	0.35
510.003	0.34
510.2	0.34
510.397	0.4
510.594	0.35
510.791	0.37
510.988	0.37
511.184	0.41
511.381	0.38
511.578	0.38
511.775	0.45
511.972	0.4
512.169	0.44
512.366	0.44
512.563	0.47
512.76	0.43
512.956	0.48
513.153	0.43
513.35	0.49
513.547	0.47
513.744	0.47
513.94	0.46
514.137	0.5
514.334	0.5
514.53	0.51
514.727	0.52
514.924	0.6
515.12	0.54
515.317	0.53
515.514	0.52
515.71	0.53
515.907	0.56
516.103	0.57
516.3	0.59
516.497	0.6
516.693	0.62
516.89	0.6
517.086	0.57
517.283	0.7
517.479	0.59
517.676	0.62
517.872	0.63
518.068	0.62
518.265	0.61
518.461	0.63
518.658	0.65
518.854	0.67
519.05	0.63
519.247	0.66
519.443	0.69
519.639	0.69
519.836	0.68
520.032	0.68
520.228	0.68
520.424	0.73
520.621	0.73
520.817	0.68
521.013	0.69
521.209	0.72
521.405	0.74
521.601	0.72
521.798	0.71
521.994	0.78
522.19	0.67
522.386	0.69
522.582	0.71
522.778	0.71
522.974	0.71
523.17	0.73
523.366	0.71
523.562	0.73
523.758	0.74
523.954	0.68
524.15	0.7
524.346	0.75
524.542	0.7
524.738	0.71
524.934	0.72
525.129	0.69
525.325	0.72
525.521	0.71
525.717	0.77
525.913	0.7
526.109	0.69
526.304	0.7
526.5	0.7
526.696	0.73
526.892	0.66
527.087	0.7
527.283	0.64
527.479	0.71
527.674	0.61
527.87	0.68
528.066	0.64
528.261	0.68
528.457	0.68
528.653	0.66
528.848	0.64
529.044	0.66
529.239	0.64
529.435	0.65
529.63	0.6
529.826	0.66
530.021	0.62
530.217	0.62
530.412	0.58
530.608	0.58
530.803	0.59
530.999	0.58
531.194	0.52
531.389	0.58
531.585	0.53
531.78	0.55
531.975	0.56
532.171	0.59
532.366	0.56
532.561	0.57
532.757	0.51
532.952	0.54
533.147	0.54
533.342	0.51
533.538	0.5
533.733	0.54
533.928	0.47
534.123	0.47
534.318	0.45
534.513	0.45
534.709	0.48
534.904	0.45
535.099	0.45
535.294	0.47
535.489	0.47
535.684	0.44
535.879	0.4
536.074	0.45
536.269	0.41
536.464	0.44
536.659	0.43
536.854	0.42
537.049	0.42
537.244	0.43
537.439	0.39
537.634	0.41
537.828	0.41
538.023	0.39
538.218	0.37
538.413	0.36
538.608	0.35
538.803	0.38
538.997	0.29
539.192	0.42
539.387	0.38
539.582	0.33
539.776	0.36
539.971	0.33
540.166	0.33
540.36	0.31
540.555	0.33
540.75	0.32
540.944	0.31
541.139	0.3
541.334	0.31
541.528	0.34
541.723	0.34
541.917	0.29
542.112	0.26
542.306	0.26
542.501	0.29
542.695	0.28
542.89	0.28
543.084	0.29
543.279	0.26
543.473	0.29
543.668	0.3
543.862	0.27
544.056	0.28
544.251	0.24
544.445	0.27
544.64	0.25
544.834	0.24
545.028	0.24
545.222	0.26
545.417	0.26
545.611	0.24
545.805	0.23
546	0.24
546.194	0.25
546.388	0.2
546.582	0.24
546.776	0.23
546.97	0.22
547.165	0.25
547.359	0.24
547.553	0.21
547.747	0.22
547.941	0.21
548.135	0.2
548.329	0.21
548.523	0.22
548.717	0.19
548.911	0.19
549.105	0.19
549.299	0.2
549.493	0.2
549.687	0.18
549.881	0.18
550.075	0.17
550.269	0.15
550.463	0.22
550.657	0.17
550.85	0.19
551.044	0.16
551.238	0.18
551.432	0.13
551.626	0.14
551.82	0.17
552.013	0.15
552.207	0.18
552.401	0.18
552.594	0.15
552.788	0.14
552.982	0.14
553.176	0.14
553.369	0.17
553.563	0.16
553.756	0.09
553.95	0.12
554.144	0.15
554.337	0.17
554.531	0.15
554.724	0.14
554.918	0.11
555.111	0.16
555.305	0.14
555.498	0.17
555.692	0.15
555.885	0.09
556.079	0.15
556.272	0.08
556.466	0.15
556.659	0.13
556.852	0.09
557.046	0.11
557.239	0.13
557.432	0.06
557.626	0.06
557.819	0.13
558.012	0.1
558.206	0.12
558.399	0.13
558.592	0.11
558.785	0.09
558.979	0.11
559.172	0.12
559.365	0.13
559.558	0.12
559.751	0.09
559.944	0.07
560.138	0.07
560.331	0.1
560.524	0.08
560.717	0.08
560.91	0.08
561.103	0.1
561.296	0.06
561.489	0.11
561.682	0.08
561.875	0.12
562.068	0.1
562.261	0.08
562.454	0.12
562.647	0.08
562.84	0.09
563.032	0.07
563.225	0.08
563.418	0.06
563.611	0.06
563.804	0.09
563.997	0.04
564.19	0.04
564.382	0.08
564.575	0.06
564.768	0.07
564.961	0.05
565.153	0.05
565.346	0.08
565.539	0.09
565.731	0.09
565.924	0.09
566.117	0.08
566.309	0.08
566.502	0.05
566.695	0.06
566.887	0.08
567.08	0.06
567.272	0.05
567.465	0.04
567.657	0.07
567.85	0.06
568.042	0.08
568.235	0.09
568.427	0.04
568.62	0.03
568.812	0.06
569.005	0.07
569.197	-0
569.389	0.05
569.582	0.06
569.774	0.07
569.966	0.02
570.159	0.01
570.351	0.03
570.543	0.02
570.736	0.04
570.928	0.01
571.12	0.03
571.312	0.03
571.505	-0.01
571.697	0.07
571.889	0.02
572.081	0.03
572.273	0.02
572.465	0.06
572.658	0.03
572.85	0.05
573.042	0.05
573.234	0.04
573.426	0.07
573.618	0.01
573.81	0.05
574.002	0.08
574.194	0.06
574.386	0
574.578	-0.04
574.77	-0
574.962	0.04
575.154	-0.02
575.346	0.03
575.538	0.03
575.729	-0.01
575.921	0.01
576.113	-0.01
576.305	0.05
576.497	0.02
576.689	0.03
576.88	0.02
577.072	0.05
577.264	0.04
577.456	0.02
577.647	-0.04
577.839	0.05
578.031	0.05
578.223	-0.01
578.414	-0.02
578.606	0.05
578.798	0.02
578.989	0.01
579.181	0.01
579.372	0.02
579.564	0.02
579.755	0.02
579.947	0.04
580.139	0.03
580.33	-0.03
580.522	-0.01
580.713	-0.04
580.905	0.01
581.096	0.06
581.287	0.01
581.479	0.02
581.67	0.04
581.862	0.04
582.053	0
582.244	-0.02
582.436	0.01
582.627	0.03
582.818	0.02
583.01	-0.03
583.201	0.04
583.392	0.05
583.583	0.01
583.775	0.02
583.966	-0
584.157	0.02
584.348	0.04
584.54	-0.03
584.731	0.04
584.922	0.01
585.113	0.01
585.304	0.02
585.495	0.03
585.686	0.03
585.877	0.04
586.068	0.02
586.259	0.03
586.45	0.01
586.641	-0.01
586.832	-0.03
587.023	0.03
587.214	0.01
587.405	0.03
587.596	-0.01
587.787	0.04
587.978	0.03
588.169	-0.01
588.36	-0
588.551	0.01
588.742	-0.02
588.932	0.05
589.123	0.01
589.314	0.05
589.505	0.01
589.696	0.03
589.886	0
590.077	-0.01
590.268	0.01
590.458	-0.03
590.649	-0.04
590.84	0.05
591.03	-0
591.221	-0.01
591.412	-0.03
591.602	0.03
591.793	0.03
591.984	-0.01
592.174	-0.01
592.365	0.09
592.555	-0.02
592.746	0.04
592.936	0.02
593.127	0.02
593.317	0.06
593.508	-0.03
593.698	0.01
593.889	0.03
594.079	0.03
594.269	-0.01
594.46	-0.01
594.65	0.01
594.84	-0.02
595.031	-0.01
595.221	-0.01
595.411	-0.03
595.602	0.05
595.792	-0.02
595.982	0.01
596.172	0.08
596.363	0.02
596.553	-0.01
596.743	-0.01
596.933	0.02
597.123	0.03
597.314	0.01
597.504	-0.03
597.694	0.04
597.884	0.02
598.074	-0
598.264	0
598.454	0.02
598.644	-0.02
598.834	0
599.024	-0.03
599.214	0
599.404	0.02
599.594	-0.01
599.784	-0.03
599.974	0.06
600.164	0.05
600.354	-0.03
600.544	-0.06
600.734	0.01
600.924	0.04
601.114	-0.04
601.303	-0
601.493	0.04
601.683	-0.04
601.873	0.02
602.063	-0.06
602.252	0.05
602.442	-0.06
602.632	-0.03
602.821	-0.03
603.011	0.04
603.201	0.02
603.39	0
603.58	0
603.77	0.03
603.959	0.04
604.149	0
604.339	-0.02
604.528	0.04
604.718	-0
604.907	0.01
605.097	-0.02
605.286	-0.03
605.476	0.03
605.665	0.01
605.855	-0.01
606.044	0.04
606.234	0
606.423	0.02
606.612	-0.02
606.802	-0
606.991	0.01
607.181	0.02
607.37	-0.03
607.559	-0.01
607.749	-0.04
607.938	-0.02
608.127	-0.01
608.316	-0.01
608.506	-0.01
608.695	-0.02
608.884	-0.03
609.073	-0.02
609.263	-0
609.452	-0
609.641	0.02
609.83	-0.03
610.019	-0
610.208	-0.02
610.397	0.02
610.586	0.02
610.775	-0.03
610.965	-0
611.154	-0.02
611.343	0.03
611.532	-0.01
611.721	-0.03
611.91	-0.03
612.099	0.02
612.287	-0.02
612.476	-0.04
612.665	0
612.854	-0.02
613.043	0.03
613.232	-0.02
613.421	-0.05
613.61	-0.01
613.798	-0
613.987	0.04
614.176	0.02
614.365	0.04
614.554	-0.01
614.742	0.04
614.931	0.01
615.12	0.03
615.309	-0.03
615.497	0.01
615.686	-0.03
615.875	-0.01
616.063	0.01
616.252	-0.02
616.44	-0.02
616.629	-0
616.818	0.02
617.006	-0.01
617.195	-0
617.383	0.03
617.572	-0.02
617.76	-0.04
617.949	-0
618.137	0
618.326	0.05
618.514	-0.04
618.703	-0.03
618.891	0.07
619.079	-0.05
619.268	0.02
619.456	-0.03
619.644	0.04
619.833	-0.01
620.021	-0.04
620.209	-0.05
620.398	-0.01
620.586	0.01
620.774	0.01
620.962	-0.03
621.151	0.04
621.339	-0.01
621.527	-0.03
621.715	-0.06
621.903	-0.03
622.092	-0.02
622.28	0.01
622.468	0.01
622.656	-0.03
622.844	0.03
623.032	-0.02
623.22	-0.04
623.408	0.03
623.596	0.03
623.784	0
623.972	-0.06
624.16	-0.02
624.348	0.05
624.536	-0.02
624.724	-0.03
624.912	0.04
625.1	0.04
625.288	-0.03
625.476	-0.03
625.664	0.05
625.851	-0.05
626.039	-0.01
626.227	0.04
626.415	0.02
626.603	-0.08
626.79	0.01
626.978	-0.01
627.166	-0
627.354	-0.02
627.541	-0.04
627.729	-0.05
627.917	0.01
628.104	0.05
628.292	-0.01
628.48	0.01
628.667	0.02
628.855	-0.01
629.042	0.02
629.23	0
629.418	-0
629.605	-0.01
629.793	-0.05
629.98	-0.02
630.168	-0.01
630.355	-0.02
630.543	0.01
630.73	-0.06
630.917	0.03
631.105	0.03
631.292	-0.01
631.48	-0.02
631.667	0.06
631.854	0.01
632.042	0.01
632.229	-0.03
632.416	-0.01
632.604	-0.03
632.791	-0.07
632.978	0.03
633.165	0.01
633.353	0.08
633.54	0.03
633.727	-0.06
633.914	-0.01
634.101	-0.06
634.289	0.01
634.476	-0.01
634.663	-0.04
634.85	0.01
635.037	-0.03
635.224	-0.08
635.411	0.02
635.598	0.05
635.785	-0.02
635.972	-0
636.159	0.05
636.346	-0.05
636.533	-0.01
636.72	0
636.907	-0.02
637.094	0.01
637.281	-0.01
637.468	0.02
637.655	0
637.842	-0.01
638.029	-0.01
638.215	0.05
638.402	-0.02
638.589	0
638.776	0.01
638.963	-0.04
639.149	0.05
639.336	0.06
639.523	-0.01
639.709	-0
639.896	-0.01
640.083	0.05
640.27	0.01
640.456	-0.05
640.643	0.02
640.829	-0.06
641.016	-0.04
641.203	-0.04
641.389	0
641.576	0.01
641.762	0.02
641.949	-0.06
642.135	0.02
642.322	-0
642.508	-0.05
642.695	0
642.881	-0.01
643.068	-0.02
643.254	-0.02
643.441	0.01
643.627	-0
643.813	-0.02
644	0.05
644.186	-0.03
644.372	0.02
644.559	0.01
644.745	-0.01
644.931	-0.01
645.118	-0.02
645.304	0
645.49	-0.03
645.676	-0
645.862	-0
646.049	0.05
646.235	-0.02
646.421	0.05
646.607	0.07
646.793	-0.02
646.979	-0.04
647.165	-0.01
647.352	0.02
647.538	0.03
647.724	-0.01
647.91	-0.02
648.096	0.04
648.282	0.03
648.468	0.02
648.654	0.02
648.84	-0.01
649.026	0.03
649.212	-0
649.397	-0.03
649.583	-0.04
649.769	0.01
649.955	-0.01
650.141	-0.01
650.327	0.05
650.513	-0.02
650.698	0.01
650.884	-0.08
651.07	0.01
651.256	-0.01
651.442	0.01
651.627	-0.04
651.813	0.05
651.999	0
652.184	-0
652.37	-0.01
652.556	-0.02
652.741	0.06
652.927	-0.06
653.113	-0.03
653.298	0.03
653.484	-0.01
653.669	-0.06
653.855	-0.01
654.04	0.03
654.226	-0.02
654.412	-0.02
654.597	-0.04
654.782	-0.01
654.968	0.05
655.153	0.01
655.339	-0.01
655.524	-0.04
655.71	0.03
655.895	0
656.08	-0.02
656.266	0.07
656.451	0.01
656.636	-0.03
656.822	-0.03
657.007	-0.02
657.192	-0.02
657.378	-0.06
657.563	-0.01
657.748	0
657.933	0
658.118	-0.02
658.304	-0.04
658.489	-0
658.674	0.02
658.859	-0.03
659.044	0.03
659.229	0.01
659.414	-0.03
659.599	0.02
659.785	-0.05
659.97	-0.03
660.155	0.01
660.34	-0.01
660.525	-0.01
660.71	-0.02
660.895	0.01
661.08	-0.01
661.264	-0.04
661.449	0.06
661.634	0.04
661.819	0.04
662.004	0.03
662.189	-0.06
662.374	-0.05
662.559	-0.03
662.743	-0.07
662.928	0.02
663.113	-0.01
663.298	-0.05
663.483	-0.01
663.667	0.01
663.852	-0.04
664.037	0.04
664.221	-0.02
664.406	0.05
664.591	0
664.775	-0.01
664.96	-0.03
665.145	0
665.329	-0.01
665.514	-0
665.698	-0.02
665.883	-0.12
666.068	0.04
666.252	0
666.437	-0.02
666.621	-0.01
666.806	-0
666.99	-0.02
667.174	-0.06
667.359	0.05
667.543	-0.05
667.728	-0.03
667.912	-0.05
668.096	0.01
668.281	-0.01
668.465	-0.02
668.649	-0.03
668.834	-0.03
669.018	-0.01
669.202	-0.04
669.387	-0.03
669.571	0.05
669.755	-0.05
669.939	-0.02
670.124	-0.01
670.308	0.03
670.492	0
670.676	0.01
670.86	-0.01
671.044	-0.06
671.228	0.03
671.413	-0.04
671.597	-0.05
671.781	0
671.965	0.02
672.149	-0.02
672.333	-0.01
672.517	-0.03
672.701	0.02
672.885	-0.02
673.069	-0.06
673.253	0.02
673.437	0.02
673.621	-0.06
673.804	-0.03
673.988	-0
674.172	0.01
674.356	-0.01
674.54	-0.04
674.724	0.08
674.908	0.02
675.091	0.06
675.275	-0.02
675.459	0.03
675.643	0.07
675.826	0.02
676.01	-0.03
676.194	0.01
676.377	0.05
676.561	0.01
676.745	0.01
676.928	0.02
677.112	0.04
677.296	0.02
677.479	-0.05
677.663	-0
677.846	0.01
678.03	-0
678.213	-0.04
678.397	0.04
678.58	-0.03
678.764	-0.02
678.947	-0.05
679.131	-0.08
679.314	0.06
679.498	0
679.681	0.03
679.865	0.07
680.048	-0
680.231	0.02
680.415	-0.01
680.598	-0.03
680.781	0.01
680.965	-0.02
681.148	0.02
681.331	-0.05
681.514	0.04
681.698	-0.02
681.881	-0.03
682.064	0.06
682.247	0.04
682.43	-0.08
682.614	-0
682.797	0.07
682.98	0.03
683.163	-0.02
683.346	0.05
683.529	-0.02
683.712	-0.03
683.895	-0
684.078	-0.04
684.261	0.01
684.444	0.04
684.627	0.02
684.81	-0.01
684.993	0.02
685.176	0
685.359	-0.06
685.542	-0.04
685.725	0.06
685.908	-0
686.091	0.01
686.274	0.06
686.457	0.03
686.639	0.02
686.822	0.02
687.005	-0.01
687.188	0.02
687.371	0.09
687.553	0
687.736	0.01
687.919	0.05
688.102	0.07
688.284	-0.03
688.467	0.03
688.65	-0.03
688.832	-0.05
689.015	-0.02
689.197	-0.07
689.38	0.09
689.563	0.08
689.745	-0.04
689.928	-0.04
690.11	-0
690.293	0.01
690.475	-0.08
690.658	0.05
690.84	0
691.023	0.01
691.205	-0.01
691.388	0.01
691.57	0.01
691.752	0
691.935	-0.07
692.117	-0.01
692.3	0.01
692.482	0.02
692.664	-0
692.847	-0.04
693.029	0.03
693.211	0.01
693.393	-0.03
693.576	-0.06
693.758	0.05
693.94	-0.05
694.122	-0.06
694.304	-0.01
694.487	-0.04
694.669	0.06
694.851	-0.02
695.033	-0.01
695.215	-0.07
695.397	-0.03
695.579	0.01
695.761	-0.03
695.943	-0.08
696.125	0.08
696.308	-0
696.49	-0.09
696.671	0.13
696.853	-0.04
697.035	0.11
697.217	0.04
697.399	0.03
697.581	-0.04
697.763	-0
697.945	-0.04
698.127	0
698.309	0.03
698.491	0
698.672	0.01
698.854	0.06
699.036	0.13
699.218	-0.03
699.399	-0
699.581	0.06
699.763	-0.01
699.945	-0.08
700.126	-0.06
700.308	0.01
700.49	-0.02
700.671	-0.11
700.853	-0.06
701.035	-0.05
701.216	-0
701.398	-0.06
701.579	-0.02
701.761	0.07
701.943	-0.04
702.124	-0.05
702.306	0.03
702.487	0.09
702.669	0
702.85	-0.03
703.031	-0.04
703.213	0.06
703.394	0.05
703.576	-0.05
703.757	0.06
703.938	0.01
704.12	0.16
704.301	-0.03
704.483	-0.03
704.664	0.04
704.845	0.09
705.026	0.09
705.208	-0.03
705.389	0.03
705.57	0.02
705.751	-0.03
705.933	-0.07
706.114	0.09
706.295	0.01
706.476	-0.04
706.657	0.09
706.838	0.04
707.02	0.11
707.201	-0.07
707.382	-0.04
707.563	0.03
707.744	-0.04
707.925	-0.1
708.106	-0.03
708.287	0.04
708.468	0.1
708.649	-0.05
708.83	0.01
709.011	-0.09
709.192	0.08
709.373	-0.05
709.554	-0.04
709.734	0.06
709.915	0.08
710.096	-0.07
710.277	-0.1
710.458	0.03
710.639	0.12
710.819	-0.17
711	-0.04
711.181	0.09
711.362	0.05
711.542	0.02
711.723	0.02
711.904	0.06
712.085	0.04
712.265	0.05
712.446	-0.09
712.627	-0.03
712.807	0
712.988	-0.03
713.168	-0.06
713.349	0.04
713.53	-0.1
713.71	-0.08
713.891	-0.03
714.071	-0.03
714.252	-0.04
714.432	-0.01
714.613	-0.1
714.793	-0.01
714.974	0.08
715.154	0.06
715.334	0.1
715.515	0.07
715.695	0
715.876	0
716.056	-0.03
716.236	0.02
716.417	0.04
716.597	-0.04
716.777	0.17
716.957	0.02
717.138	0.05
717.318	0.03
717.498	-0.08
717.678	-0.01
717.859	0.01
718.039	-0.04
718.219	0.03
718.399	0.08
718.579	-0.11
718.759	-0.06
718.939	0.04
719.12	0.04
719.3	0.03
719.48	-0.14
719.66	-0.09
719.84	0.13
720.02	-0.03
720.2	-0.06
720.38	0.07
720.56	0.02
720.74	-0.03
720.92	-0.03
721.1	0.09
721.279	0.16
721.459	0.05
721.639	-0.1
721.819	0.08
721.999	-0.01
722.179	0.13
722.359	-0.07
722.538	0.05
722.718	0.03
722.898	-0.07
723.078	-0.1
723.257	-0.02
723.437	0.02
723.617	0.04
723.797	0.04
723.976	0.1
724.156	0.08
724.336	0.13
724.515	0.15
724.695	-0.18
724.874	-0.07
725.054	0.04
725.234	-0.06
725.413	0.05
725.593	0.02
725.772	-0.11
725.952	-0.05
726.131	-0.04
726.311	-0.02
726.49	0.02
726.67	-0.08
726.849	-0.11
727.028	0.01
727.208	-0.08
727.387	0.04
727.567	-0.07
727.746	0
727.925	-0.07
728.105	-0.12
728.284	-0.04
728.463	-0.04
728.643	0.1
728.822	-0.12
729.001	-0.1
729.18	-0.04
729.359	0.05
729.539	-0.01
729.718	0.03
729.897	-0.01
730.076	-0.01
730.255	-0.05
730.434	0.02
730.614	0.03
730.793	0.03
730.972	-0.04
731.151	0.04
731.33	0.05
731.509	0.05
731.688	0.03
731.867	0.01
732.046	-0.08
732.225	0.09
732.404	0.01
732.583	-0.05
732.762	-0.09
732.941	0.09
733.12	0.03
733.298	-0.07
733.477	0.14
733.656	-0.01
733.835	-0.04
734.014	-0.04
734.193	-0.01
734.371	0.03
734.55	0.07
734.729	-0.15
734.908	-0.01
735.086	0.07
735.265	0.12
735.444	-0.14
735.623	-0.08
735.801	-0.04
735.98	0.04
736.159	0.01
736.337	0.15
736.516	0.02
736.694	0.07
736.873	0.02
737.052	0.11
737.23	0.16
737.409	-0.05
737.587	0.09
737.766	-0.22
737.944	-0
738.123	0.02
738.301	0.04
738.479	-0.08
738.658	0.04
738.836	-0.19
739.015	0.07
739.193	0.08
739.371	-0.05
739.55	-0.09
739.728	-0.08
739.906	0.13
740.085	0.16
740.263	0.06
740.441	-0.13
740.62	0.26
740.798	0.03
740.976	-0.04
741.154	-0.2
741.332	0.17
741.511	0.05
741.689	0.06
741.867	0.08
742.045	0.04
742.223	-0.01
742.401	0.01
742.579	-0.06
742.757	0.12
742.935	-0.08
743.114	-0.09
743.292	-0.09
743.47	-0.01
743.648	0.07
743.826	-0.11
744.004	0.06
744.181	0.22
744.359	0.03
744.537	-0
744.715	0.03
744.893	0.04
745.071	-0.02
745.249	0.04
745.427	0.05
745.605	0.09
745.782	0.03
745.96	-0.01
746.138	0.08
746.316	0.2
746.493	0.07
746.671	0.01
746.849	-0.06
747.027	0.08
747.204	-0.04
747.382	0.07
747.56	-0.14
747.737	0.05
747.915	-0.03
748.093	0.1
748.27	-0.11
748.448	0.03
748.625	-0.14
748.803	-0.05
748.98	-0.08
749.158	-0.02
749.335	0.01
749.513	-0.02
749.69	-0.07
749.868	0.04
750.045	0.11
750.223	-0.04
750.4	-0.2
750.578	0.18
750.755	0.01
750.932	-0.23
751.11	0.19
751.287	-0.18
751.464	0.08
751.642	-0.08
751.819	0.02
751.996	0.05
752.173	0.01
752.351	-0.09
752.528	0.08
752.705	-0.09
752.882	-0.06
753.06	0.03
753.237	0.09
753.414	0.13
753.591	0.1
753.768	-0.04
753.945	-0.01
754.122	-0.06
754.299	0.06
754.476	-0.02
754.654	0.05
754.831	-0.05
755.008	-0.03
755.185	-0.05
755.362	-0.08
755.539	0.01
755.716	-0.07
755.892	0.03
756.069	-0
756.246	-0.06
756.423	0.03
756.6	0.14
756.777	-0
756.954	0.06
757.131	-0.05
757.307	-0.07
757.484	-0.04
757.661	0.15
757.838	0.06
758.015	-0.12
758.191	0.07
758.368	-0.16
758.545	0.17
758.721	0.11
758.898	-0.12
759.075	0.07
759.251	0.05
759.428	-0.01
759.605	-0.11
759.781	0.01
759.958	0.11
760.134	0.04
760.311	-0.04
760.488	0.14
760.664	0.12
760.841	-0.01
761.017	0.02
761.194	-0.07
761.37	0.04
761.547	-0.03
761.723	-0.02
761.899	0.11
762.076	-0.11
762.252	-0.13
762.429	0.03
762.605	0.16
762.781	-0.11
762.958	0.02
763.134	0.02
763.31	-0.07
763.486	0.09
763.663	-0.22
763.839	0.04
764.015	-0.2
764.191	-0.01
764.368	0.06
764.544	-0.05
764.72	0.09
764.896	0.06
765.072	0.05
765.248	0.05
765.425	-0
765.601	0.13
765.777	0.05
765.953	-0.27
766.129	0.07
766.305	0.04
766.481	0.07
766.657	0.01
766.833	0.16
767.009	-0.16
767.185	-0.1
767.361	-0.08
767.537	-0.16
767.713	0.22
767.889	-0.08
768.065	-0.01
768.24	-0.1
768.416	0.06
768.592	-0.16
768.768	-0.08
768.944	0.16
769.12	-0.08
769.295	-0.1
769.471	-0.02
769.647	-0.1
769.823	0.06
769.998	-0.11
770.174	0.02
770.35	0.29
770.525	0.32
770.701	0.14
770.877	-0.08
771.052	-0.12
771.228	0.06
771.403	0.07
771.579	0.08
771.755	0.27
771.93	-0.04
772.106	-0.2
772.281	-0.04
772.457	0.04
772.632	0.21
772.808	-0.16
772.983	-0.18
773.159	-0.16
773.334	0.08
773.509	0.13
773.685	-0.21
773.86	0.4
774.036	0.12
774.211	0
774.386	-0.02
774.562	-0.03
774.737	0.02
774.912	-0.08
775.087	0.04
775.263	0.1
775.438	-0.04
775.613	-0.07
775.788	0.01
775.964	0.15
776.139	0.29
776.314	-0.22
776.489	0.09
776.664	0.17
776.839	-0.15
777.014	0.04
777.19	0.17
777.365	0.25
777.54	0.17
777.715	-0.09
777.89	-0.02
778.065	-0.13
778.24	-0.16
778.415	0.1
778.59	-0.19
778.765	-0.12
778.94	-0.08
779.115	-0.02
779.289	0.09
779.464	0.12
779.639	0.05
779.814	-0.32
779.989	-0.12
780.164	0.24
780.339	0.18
780.513	-0
780.688	-0.1
780.863	0.1
781.038	0.08
781.212	-0.05
781.387	-0.02
781.562	0.39
781.737	0.08
781.911	0.04
782.086	-0.27
782.261	-0.01
782.435	0.26
782.61	-0.22
782.784	0.07
782.959	0.25
783.134	-0.17
783.308	-0.1
783.483	-0.08
783.657	0.36
783.832	0.06
784.006	-0.24
784.181	-0.13
784.355	0.22
784.53	-0.22
784.704	-0.01
784.878	0.35
785.053	0.18
785.227	0.12
785.402	0.18
785.576	-0.28
785.75	-0.19
785.925	0.18
786.099	0.07
786.273	0.2
786.448	0.14
786.622	0.29
786.796	-0.05
786.97	-0.17
787.145	0.38
787.319	-0.35
787.493	0.02
787.667	-0.27
787.841	-0.06
788.015	0.24
788.19	-0.2
788.364	0.02
788.538	0.31
788.712	0.1
788.886	0.03
789.06	0.24
789.234	0.25
789.408	-0.26
789.582	0.04
789.756	0.1
789.93	-0.3
790.104	-0.05
790.278	-0.11
790.452	-0.06
790.626	0.1
790.8	-0.03
790.973	0.27
791.147	0.03
791.321	0.43
791.495	0.22
791.669	-0.05
791.843	0.04
792.016	0.09
792.19	0.57
792.364	-0.18
792.538	0.48
792.711	0.14
792.885	-0.02
793.059	-0.08
793.233	-0.51
793.406	0.15
793.58	0.04
793.754	-0.03
793.927	0.05
794.101	0.39
794.274	0.12
794.448	0.29
794.622	-0.12
794.795	0.53
794.969	-0.2
795.142	0.17
795.316	-0.08
795.489	-0.02
795.663	0.5
795.836	0.06
796.009	-0.05
796.183	0.29
796.356	0.29
796.53	-0.14
796.703	0.1
796.876	0.51
797.05	0.06
797.223	0.05
797.396	-0.15
797.57	0.24
797.743	0.5
797.916	-0.06
798.09	-0.11
798.263	0.29
798.436	0.15
798.609	0.18
798.782	-0.02
798.956	0.04
799.129	-0.02
799.302	-0.09
799.475	-0.08
799.648	-0.21
799.821	-0.2
799.994	0.03
800.167	-0.33
800.34	0.09
800.514	0.21
800.687	-0.14
800.86	-0.28
801.033	0.27
801.206	0.12
801.379	-0.19
801.551	0.33
801.724	0.33
801.897	0.4
802.07	-0.24
802.243	-0.03
802.416	-0.06
802.589	-0.04
802.762	0.12
802.935	0.03
803.107	0.01
803.28	-0.1
803.453	0.08
803.626	-0.32
803.798	-0.06
803.971	-0.27
804.144	0.25
804.317	0.18
804.489	0.22
804.662	0.13
804.835	-0.21
805.007	-0.4
805.18	0.46
805.353	-0.03
805.525	-0.2
805.698	-0.11
805.87	0.09
806.043	0.19
806.215	-0.46
806.388	-0.32
806.56	0.05
806.733	0.5
806.905	-0.11
807.078	-0.25
807.25	-0.19
807.423	0.06
807.595	0.21
807.768	0.05
807.94	0.55
808.112	0.31
808.285	0.09
808.457	0
808.629	-0.14
808.802	0.03
808.974	0.28
809.146	-0.18
809.318	-0.22
809.491	0.15
809.663	0.2
809.835	-0.41
810.007	0.26
810.18	0.13
810.352	-0.53
810.524	0.07
810.696	0.28
810.868	0.25
811.04	-0.14
811.212	0.06
811.384	0.27
811.556	0.23
811.728	0.02
811.901	0.62
812.073	-0.07
812.245	0.53
812.417	0.19
812.589	-0.86
812.76	0.4
812.932	0.44
813.104	0.16
813.276	0.27
813.448	0.32
813.62	0.11
813.792	0.26
813.964	0.01
814.136	0.03
814.307	-0.12
814.479	-0.08
814.651	-0.52
814.823	0.73
814.995	0.04
815.166	-0.06
815.338	0.13
815.51	-0.39
815.681	0.82
815.853	0.06
816.025	-0.27
816.196	0.39
816.368	0.59
816.54	-0.49
816.711	-0.22
816.883	-0.17
817.054	0.72
817.226	-0.61
817.398	0.24
817.569	-0.07
817.741	0.26
817.912	-0.09
818.084	-0.12
818.255	0.38
818.426	0.03
818.598	-0.16
818.769	-0.39
818.941	0.29
819.112	0.7
819.283	0.49
819.455	-0.3
819.626	0.28
819.798	0.24
819.969	0.01
820.14	0.22
820.311	-0.23
820.483	0.38
820.654	0.51
820.825	0.29
820.996	-0.14
821.168	-0.33
821.339	0.16
821.51	-0.89
821.681	1.17
821.852	-0.11
822.023	-0.29
822.195	-0.45
822.366	0.67
822.537	0.11
822.708	0.06
822.879	-0.97
823.05	0.69
823.221	-0.28
823.392	0.76
823.563	0.17
823.734	0.35
823.905	-0.18
824.076	-0.29
824.247	-0.62
824.418	-0.34
824.589	0.76
824.759	-0.41
824.93	-0.07
825.101	-0.72
825.272	0.64
825.443	0.79
825.614	-0.04
825.784	-1.06
825.955	1.21
826.126	0.86
826.297	0.25
826.467	0.93
826.638	0.45
826.809	-0.43
826.98	0.17
827.15	0.67
827.321	0.53
827.492	0.75
827.662	-0.29
827.833	1.18
828.003	0.4
828.174	-0.34
828.345	-0.45
828.515	0.71
828.686	0.15
828.856	0.11
829.027	0.53
829.197	0.57
829.368	-0.01
829.538	0.01
829.709	-0.18
829.879	0.35
830.049	0.21
830.22	0.04
830.39	0.12
830.56	-0.11
830.731	0.14
830.901	-0.53
831.072	0.15
831.242	0.35
831.412	0.36
831.582	-0.18
831.753	-0.74
831.923	0.65
832.093	0.46
832.263	-0.22
832.434	-0.88
832.604	0.02
832.774	0.61
832.944	-0.13
833.114	-0.11
833.284	0.12
833.454	-0.64
833.624	-0.78
833.795	0.64
833.965	1.03
834.135	0.55
834.305	-0.58
834.475	-1.05
834.645	-0.26
834.815	-0.06
834.985	-0.4
835.155	-0.49
835.325	0.29
835.494	0.35
835.664	-0.15
835.834	-0.4
836.004	-0.18
836.174	0.03
836.344	0.35
836.514	-0.45
836.684	-0.54
836.853	-0.1
837.023	0.87
837.193	-0.24
837.363	0.65
837.532	0.51
837.702	-0.59
837.872	-0.37
838.041	0.71
838.211	1.18
838.381	-1.33
838.55	-0.1
838.72	1.85
838.89	1.31
839.059	0.09
839.229	-0.23
839.398	1.28
839.568	0.7
839.738	0.12
839.907	0.56
840.077	0.43
840.246	-0.78
840.416	-0.37
840.585	-0.21
840.755	1.74
840.924	0.29
841.093	-0.06
841.263	-0.58
841.432	0.52
841.602	-0.6
841.771	-0.15
841.94	0.31
842.11	1.57
842.279	1.44
842.448	-0.85
842.617	-0.14
842.787	1.11
842.956	0.18
843.125	0.21
843.294	-0.34
843.464	0.52
843.633	0.14
843.802	-0.85
843.971	0.21
844.14	0.19
844.309	0.6
844.479	-0.32
844.648	-0.22
844.817	-0.08
844.986	-0.17
845.155	0.05
845.324	0.1
845.493	0.06
845.662	-0.43
845.831	1.08
846	1.12
846.169	-0.11
846.338	1.61
846.507	0.03
846.676	-0.57
846.844	-0.68
847.013	1.02
847.182	0.31
847.351	0.58
847.52	-0.34
847.689	0.59
847.858	-0.56
848.026	-0.45
848.195	-0.05
848.364	-0.7
848.533	-0.24
848.701	-1.03
848.87	0.11
849.039	1.46
849.207	0.97
849.376	1.36
849.545	1.03
849.713	-0.52
849.882	-0.78
850.051	-0.14
850.219	0.49
850.388	0.7
850.556	-0.13
850.725	-0.32
850.893	0.22
851.062	-0.02
851.23	0.35
851.399	-1.17
851.567	-0.27
851.736	0.18
851.904	-0.64
852.073	0.37
852.241	0.1
852.41	0.11
852.578	0.71
852.746	0.03
852.915	0.9
853.083	0.42
853.251	-1.36
853.42	0.33
853.588	0.25
853.756	0.58
853.924	-0.58
854.093	-0.07
854.261	-0.12
854.429	-2.06
854.597	0.36
854.765	-0.33
854.934	0.51
855.102	0.67
855.27	0.32
855.438	0.01
855.606	0.81
855.774	3.31
855.942	-1.57
856.11	-1.61
856.278	0.53
856.446	1.98
856.614	0.79
856.782	-0.28
856.95	1.75
857.118	1.49
857.286	0.31
857.454	-1.61
857.622	1.17
857.79	0.66
857.958	-0.83
858.126	-0.04
858.294	-2.88
858.462	0.63
858.629	0.44
858.797	-0.92
858.965	-0.25
859.133	-0.19
859.301	0.53
859.468	-0.06
859.636	-0.35
859.804	1.58
859.971	0.44
860.139	0.2
860.307	-0.26
860.474	-0.52
860.642	-0.95
860.81	0.21
860.977	-0.93
861.145	0.88
861.313	-0.04
861.48	-1.51
861.648	2.13
861.815	-0.02
861.983	-0.75
862.15	-0.31
862.318	1.04
862.485	1.13
862.653	-0.29
862.82	-0.43
862.988	1.59
863.155	0.72
863.322	-1.98
863.49	-1
863.657	0.24
863.824	2.28
863.992	0.66
864.159	1.01
864.326	1.52
864.494	-0.09
864.661	3.19
864.828	-1.42
864.996	0.61
865.163	2.03
865.33	-1.86
865.497	-2.46
865.664	-0.09
865.832	-2.41
865.999	-0.68
866.166	-0.12
866.333	-0.33
866.5	-0.65
866.667	0.16
866.834	0.3
867.001	1.59
867.168	-2.53
867.335	1.72
867.502	-0.14
867.669	-0
867.836	1.91
868.003	-1.01
868.17	0.74
868.337	-1.44
868.504	2.52
868.671	-1.31
868.838	-0.02
869.005	0.57
869.172	0.9
869.339	-0.63
869.505	-1.47
869.672	-0.07
869.839	3.02
870.006	0.19
870.173	-1.44
870.339	0.42
870.506	2.43
870.673	-0.32
870.84	1.27
871.006	0.88
871.173	0.03
871.34	-0.13
871.506	-0.69
871.673	1.93
871.839	-1.31
872.006	1.78
872.173	0.98
872.339	-1.09
872.506	2.7
872.672	0.25
872.839	-2.13
873.005	1.64
873.172	2.66
873.338	1.56
873.505	0.06
873.671	1.63
873.838	2.69
874.004	-1.99
874.171	0.92
874.337	2.17
874.503	1.3
874.67	-0.07
874.836	1.03
875.002	3.16
875.169	1.23
875.335	0.19
875.501	-1.13
875.668	3.41
875.834	-0.27
876	-1.28
876.166	1.75
876.332	0.12
876.499	2.85
876.665	-0.91
876.831	2.5
876.997	2.41
877.163	0.31
877.329	0.38
877.495	0.31
877.662	1.3
877.828	0.23
877.994	-0.63
878.16	-1.54
878.326	-1.08
878.492	-0.73
878.658	-0.21
878.824	1.31
878.99	0.27
879.156	-0.06
879.322	2.63
879.487	0.07
879.653	1.3
879.819	0.67
879.985	-3.35
880.151	0.59
880.317	2.61
880.483	-0.08
880.648	0.82
880.814	-2.71
880.98	1.42
881.146	-0.44
881.312	-0.27
881.477	1.8
881.643	-0.14
881.809	1.01
881.974	1.97
882.14	-2.24
882.306	-0.98
882.471	2.88
882.637	-1.7
882.803	1.16
882.968	2.91
883.134	3.27
883.299	-0.81
883.465	0.39
883.63	2.38
883.796	0.7
883.961	1.01
884.127	2.67
884.292	-3.16
884.458	-1.35
884.623	-1.35
