Data from Apollo_Calib_20240827__AbsoluteIrradiance__469__06-58-00-494.txt Node

Date: Wed Aug 28 06:58:00 BST 2024
User: biology
Spectrometer: FLMT08252
Trigger mode: 0
Integration Time (sec): 5.000000E-1
Scans to average: 5
Electric dark correction enabled: true
Nonlinearity correction enabled: false
Boxcar width: 0
XAxis mode: Wavelengths
Number of Pixels in Spectrum: 3648
>>>>>Begin Spectral Data<<<<<
179.588	-0
179.809	-0
180.03	-0
180.251	-0
180.473	-0
180.694	0
180.915	0
181.136	-0
181.357	0
181.578	-0
181.799	-0
182.02	-0
182.241	-0
182.462	-0
182.683	0
182.904	-0
183.125	-0
183.346	0
183.567	-0
183.788	-0
184.009	-0
184.23	0
184.451	0
184.672	-0
184.892	-0
185.113	0
185.334	0
185.555	-0
185.776	-0
185.996	0
186.217	-0
186.438	0
186.659	-0
186.879	0
187.1	-0
187.321	-0
187.541	-0
187.762	-0
187.983	-0
188.203	-0
188.424	-0
188.644	-0
188.865	-0
189.086	-0
189.306	-0
189.527	-0
189.747	-0
189.968	-0
190.188	0
190.409	0
190.629	0
190.849	-0
191.07	-0
191.29	0
191.511	0
191.731	-0
191.951	-0
192.172	-0
192.392	-0
192.612	-0
192.833	-0
193.053	0
193.273	-0
193.493	-0
193.714	-0
193.934	0
194.154	0
194.374	-0
194.594	0
194.815	-0
195.035	-0
195.255	-0
195.475	-0
195.695	0
195.915	0
196.135	-0
196.355	0
196.575	0
196.795	-0
197.015	-0
197.235	-0
197.455	-0
197.675	0
197.895	-0
198.115	-0
198.335	0
198.555	-0
198.775	-0
198.995	0
199.214	0
199.434	-0
199.654	-0
199.874	-0
200.094	-1.68
200.313	-0.84
200.533	-0.84
200.753	-0.99
200.973	0.37
201.192	0.34
201.412	-0.89
201.632	-0.38
201.851	0.04
202.071	-0.08
202.291	-0.85
202.51	-0.78
202.73	-0.14
202.95	-0.3
203.169	-0.72
203.389	-0.43
203.608	-0.09
203.828	-0.76
204.047	-0.62
204.267	0.45
204.486	-0.12
204.706	-0.04
204.925	-0.17
205.145	-0.5
205.364	-0.03
205.583	0.48
205.803	-0.3
206.022	-0.89
206.242	-0.25
206.461	-0.16
206.68	-0.33
206.9	0.19
207.119	0.33
207.338	0.2
207.557	-0.35
207.777	-0.37
207.996	-0.05
208.215	0.2
208.434	-0.29
208.654	-0.44
208.873	0.16
209.092	0.22
209.311	-0.26
209.53	-0.19
209.749	-0.34
209.968	-0.3
210.187	-0.25
210.407	-0.5
210.626	-0.51
210.845	0.2
211.064	-0.21
211.283	-0.3
211.502	0.24
211.721	-0.08
211.94	-0.23
212.159	0.12
212.377	0.1
212.596	0.1
212.815	-0.25
213.034	0.07
213.253	0.06
213.472	0.12
213.691	-0.42
213.91	-0.18
214.128	-0.26
214.347	0.26
214.566	-0.63
214.785	-0.48
215.003	-0.03
215.222	-0.03
215.441	-0.13
215.66	-0.37
215.878	-0.31
216.097	0.25
216.316	-0.29
216.534	-0.23
216.753	-0.07
216.972	0.09
217.19	-0.21
217.409	-0.2
217.627	0.02
217.846	-0.31
218.064	-0.12
218.283	-0.23
218.501	0.36
218.72	0.04
218.938	-0.28
219.157	-0.19
219.375	0.04
219.594	0.09
219.812	-0.27
220.031	-0.38
220.249	0.24
220.467	0.06
220.686	-0.33
220.904	-0.43
221.122	-0.12
221.341	0.31
221.559	-0.14
221.777	-0.33
221.995	0.04
222.214	-0.14
222.432	-0.25
222.65	0.06
222.868	0.01
223.086	0.09
223.305	-0.03
223.523	-0.07
223.741	0.06
223.959	-0.25
224.177	-0.28
224.395	-0.16
224.613	-0.13
224.831	0.11
225.049	-0.27
225.267	-0.15
225.485	0.05
225.703	-0.06
225.921	-0.14
226.139	-0.1
226.357	0.03
226.575	-0
226.793	-0.21
227.011	0.39
227.229	-0.2
227.447	0.05
227.665	-0.14
227.883	-0.33
228.1	-0.02
228.318	-0.06
228.536	-0.38
228.754	-0.27
228.972	-0.1
229.189	0.07
229.407	-0.19
229.625	-0.13
229.843	0.18
230.06	-0.05
230.278	-0.14
230.496	0.06
230.713	-0.05
230.931	0.06
231.149	-0.21
231.366	-0.2
231.584	-0.13
231.801	0.22
232.019	-0.06
232.236	-0.17
232.454	-0.12
232.671	-0
232.889	-0.02
233.106	-0.22
233.324	-0.13
233.541	-0.12
233.759	-0.1
233.976	-0.16
234.194	-0.06
234.411	0.02
234.628	-0.2
234.846	-0.11
235.063	0.02
235.28	-0.14
235.498	-0.06
235.715	-0.23
235.932	-0.02
236.149	-0.13
236.367	-0.13
236.584	0.01
236.801	-0.08
237.018	-0.02
237.236	0.02
237.453	-0.2
237.67	-0.03
237.887	-0.1
238.104	-0.11
238.321	-0.15
238.538	-0.08
238.755	0.06
238.973	-0.21
239.19	-0.06
239.407	0.05
239.624	0.02
239.841	-0.23
240.058	-0.13
240.275	0.03
240.492	-0.08
240.709	-0.06
240.925	-0.12
241.142	-0.05
241.359	-0.21
241.576	-0.15
241.793	-0.18
242.01	-0.03
242.227	0.01
242.444	-0.02
242.66	0.05
242.877	-0.02
243.094	-0.13
243.311	-0.07
243.527	-0.1
243.744	-0.06
243.961	0
244.178	-0.12
244.394	-0.16
244.611	-0.02
244.828	0.06
245.044	-0.11
245.261	-0.08
245.477	-0.04
245.694	0.02
245.911	-0.06
246.127	-0.02
246.344	0.1
246.56	0.07
246.777	-0.08
246.993	-0
247.21	-0.05
247.426	0.03
247.643	-0.17
247.859	-0.16
248.076	-0.11
248.292	0.12
248.508	-0.08
248.725	-0.04
248.941	-0.04
249.157	0.1
249.374	-0.15
249.59	-0.06
249.806	-0.04
250.023	0.03
250.239	-0.06
250.455	-0.16
250.671	-0.09
250.888	-0.06
251.104	0.02
251.32	-0.08
251.536	-0.07
251.752	-0.07
251.969	0.01
252.185	-0.06
252.401	0.06
252.617	-0.17
252.833	-0.13
253.049	-0.03
253.265	0.01
253.481	-0.03
253.697	-0.09
253.913	-0.11
254.129	0.01
254.345	0.03
254.561	-0.04
254.777	-0.06
254.993	0.04
255.209	-0.02
255.425	-0.1
255.641	-0.04
255.857	0.01
256.073	0.03
256.288	-0.13
256.504	-0.1
256.72	-0.06
256.936	0.08
257.152	-0.04
257.367	-0.07
257.583	-0.1
257.799	0.04
258.015	-0.08
258.23	-0.08
258.446	0.01
258.662	-0.05
258.877	-0.14
259.093	-0.04
259.309	-0.07
259.524	-0.03
259.74	-0.12
259.955	-0.16
260.171	-0.07
260.387	-0.08
260.602	0.07
260.818	0
261.033	-0.12
261.249	-0.11
261.464	-0.14
261.68	-0.15
261.895	0
262.11	0.06
262.326	-0.08
262.541	-0.12
262.757	-0.01
262.972	0.03
263.187	-0.04
263.403	-0.03
263.618	-0.03
263.833	0.02
264.049	-0.03
264.264	-0.03
264.479	-0.01
264.694	0.1
264.91	-0.09
265.125	-0.06
265.34	0.06
265.555	0.06
265.77	-0.02
265.986	-0.08
266.201	-0.03
266.416	0.07
266.631	-0.03
266.846	-0.02
267.061	-0.02
267.276	-0
267.491	-0.17
267.706	0
267.921	0.14
268.136	0.02
268.351	0.02
268.566	-0.09
268.781	0.04
268.996	0.02
269.211	-0.03
269.426	-0.04
269.641	-0
269.856	0.07
270.071	-0.08
270.285	-0.12
270.5	0.06
270.715	0.05
270.93	-0.03
271.145	-0.03
271.359	0.02
271.574	-0.05
271.789	-0.02
272.004	-0.08
272.218	-0.06
272.433	-0.04
272.648	-0.07
272.862	0.03
273.077	-0.02
273.292	-0.03
273.506	-0.09
273.721	-0.09
273.936	0.07
274.15	0.13
274.365	-0.05
274.579	0.01
274.794	-0.02
275.008	0.02
275.223	-0.08
275.437	0
275.652	0.1
275.866	0.06
276.081	-0.06
276.295	-0.01
276.509	0
276.724	0.02
276.938	-0.01
277.153	0.04
277.367	0.04
277.581	-0.06
277.796	-0.07
278.01	-0.07
278.224	0.03
278.438	0.08
278.653	-0.1
278.867	-0.06
279.081	0.03
279.295	-0.09
279.51	0.01
279.724	-0.1
279.938	0.02
280.152	-0.01
280.366	-0.09
280.58	-0.03
280.794	0.07
281.008	0.03
281.222	0.02
281.437	0.03
281.651	-0.01
281.865	-0
282.079	-0.04
282.293	-0.15
282.507	-0.04
282.721	-0.04
282.935	-0.07
283.148	-0.11
283.362	-0.03
283.576	-0.02
283.79	-0.03
284.004	-0.08
284.218	0.07
284.432	-0
284.646	-0.05
284.859	-0.01
285.073	-0.07
285.287	-0.01
285.501	-0.02
285.714	-0.03
285.928	0.03
286.142	-0.02
286.356	-0.08
286.569	0.01
286.783	0.01
286.997	-0.03
287.21	0.02
287.424	-0.04
287.637	-0.05
287.851	-0.04
288.065	-0.04
288.278	0.02
288.492	-0.02
288.705	0
288.919	0.01
289.132	-0.06
289.346	0.05
289.559	-0.09
289.773	-0.08
289.986	-0.04
290.2	-0
290.413	0.03
290.626	-0.11
290.84	-0.01
291.053	-0.06
291.267	0.05
291.48	0.01
291.693	-0.01
291.906	-0.08
292.12	-0.05
292.333	-0.12
292.546	-0.06
292.76	0.08
292.973	0
293.186	0.02
293.399	-0.01
293.612	0.07
293.826	-0
294.039	-0.04
294.252	-0.03
294.465	0.01
294.678	0
294.891	0.02
295.104	-0.07
295.317	-0.01
295.53	-0.04
295.743	0.02
295.956	-0.02
296.169	0.03
296.382	0.04
296.595	-0.01
296.808	-0.04
297.021	0.04
297.234	0.02
297.447	-0.01
297.66	-0.01
297.873	0.05
298.086	0.07
298.299	-0.03
298.511	-0.06
298.724	-0.05
298.937	-0.06
299.15	0.01
299.363	0.01
299.575	0.01
299.788	0.04
300.001	-0.03
300.213	-0.06
300.426	-0.02
300.639	-0.04
300.852	-0.04
301.064	0.03
301.277	0.06
301.489	0.06
301.702	0.05
301.915	-0.04
302.127	-0.05
302.34	-0.01
302.552	0.01
302.765	-0.03
302.977	0.04
303.19	-0.08
303.402	-0.07
303.615	-0.07
303.827	-0.06
304.04	-0.01
304.252	0
304.464	-0.03
304.677	0.06
304.889	0.04
305.102	-0.07
305.314	-0.05
305.526	-0.02
305.739	0.01
305.951	-0.03
306.163	-0.01
306.375	0.06
306.588	-0.01
306.8	-0.04
307.012	-0.07
307.224	0.03
307.436	0.08
307.649	-0.08
307.861	-0.02
308.073	0.01
308.285	-0.04
308.497	-0.05
308.709	0
308.921	-0.01
309.133	0.02
309.346	-0.04
309.558	-0.03
309.77	0.02
309.982	0.04
310.194	0.03
310.406	-0.03
310.617	0.08
310.829	-0.01
311.041	-0.03
311.253	-0.08
311.465	0.02
311.677	0.02
311.889	-0.04
312.101	-0.04
312.313	0.02
312.524	0.07
312.736	-0.09
312.948	-0.04
313.16	0.08
313.372	-0.02
313.583	0
313.795	-0.06
314.007	-0.03
314.218	0.01
314.43	-0.02
314.642	-0.05
314.853	-0.1
315.065	0.02
315.277	-0.03
315.488	0.01
315.7	0.03
315.912	-0.01
316.123	-0.02
316.335	0
316.546	0.11
316.758	-0.04
316.969	-0.07
317.181	-0.02
317.392	-0.03
317.604	0.08
317.815	-0.04
318.026	-0.04
318.238	-0.06
318.449	0.01
318.661	-0.09
318.872	-0.11
319.083	-0.06
319.295	0.03
319.506	-0.04
319.717	-0
319.929	-0.02
320.14	-0.01
320.351	-0.03
320.562	-0.04
320.774	-0.02
320.985	-0.04
321.196	-0.08
321.407	-0.09
321.618	0.03
321.829	0
322.041	0.02
322.252	-0
322.463	0.06
322.674	0.01
322.885	-0.07
323.096	-0.05
323.307	-0.05
323.518	0.02
323.729	-0.05
323.94	-0.02
324.151	0
324.362	-0.02
324.573	-0.01
324.784	-0.08
324.995	0.02
325.206	-0.01
325.417	-0.02
325.628	-0.04
325.838	-0.04
326.049	0
326.26	0.05
326.471	-0.04
326.682	0.04
326.892	-0.01
327.103	-0.1
327.314	-0.08
327.525	0.06
327.735	-0
327.946	-0.04
328.157	-0.05
328.368	-0.01
328.578	-0.04
328.789	-0.01
328.999	0
329.21	-0
329.421	-0
329.631	-0.1
329.842	-0.04
330.052	-0.03
330.263	0.02
330.473	-0.01
330.684	-0.03
330.894	-0.02
331.105	-0.03
331.315	-0.02
331.526	-0.06
331.736	0.05
331.947	0
332.157	0.01
332.367	-0.06
332.578	-0.02
332.788	0.03
332.999	0.01
333.209	-0.03
333.419	-0.05
333.629	0.03
333.84	0.05
334.05	-0.04
334.26	0.02
334.47	-0
334.681	0.06
334.891	-0.03
335.101	0
335.311	0.08
335.521	-0.04
335.732	-0.09
335.942	0.02
336.152	0.01
336.362	0.03
336.572	0
336.782	0.01
336.992	-0.01
337.202	-0.03
337.412	-0.06
337.622	-0.01
337.832	0.01
338.042	-0.05
338.252	-0.05
338.462	-0.02
338.672	-0.01
338.882	-0.02
339.092	-0.02
339.302	0.06
339.511	-0.01
339.721	-0.05
339.931	-0.05
340.141	0.01
340.351	0.05
340.561	-0.02
340.77	0.03
340.98	-0.02
341.19	0.02
341.4	-0.05
341.609	-0.07
341.819	-0.02
342.029	-0.07
342.238	0
342.448	-0.04
342.658	0.01
342.867	-0.02
343.077	0
343.286	-0.05
343.496	-0.04
343.706	0.05
343.915	-0.06
344.125	-0.02
344.334	-0.01
344.544	-0.07
344.753	-0.03
344.963	-0.02
345.172	-0.07
345.381	-0.07
345.591	-0.03
345.8	-0.01
346.01	0.02
346.219	0.02
346.428	-0.14
346.638	0.01
346.847	-0.04
347.056	0.02
347.266	-0.06
347.475	-0.03
347.684	0.03
347.893	0.01
348.103	-0.01
348.312	-0.04
348.521	-0.01
348.73	-0.04
348.94	-0.01
349.149	-0.06
349.358	-0.02
349.567	-0.07
349.776	-0.07
349.985	-0.11
350.194	0.01
350.403	0.03
350.612	-0.06
350.821	-0.03
351.03	-0.03
351.239	-0.02
351.448	-0.02
351.657	0
351.866	0.04
352.075	-0.02
352.284	0.03
352.493	-0.05
352.702	-0
352.911	0.02
353.12	0.03
353.329	-0.01
353.538	0.01
353.746	-0.03
353.955	-0.04
354.164	0.05
354.373	-0.01
354.582	-0.01
354.79	0.01
354.999	0.07
355.208	-0.03
355.416	0.05
355.625	-0.06
355.834	-0.05
356.042	0.03
356.251	-0.02
356.46	-0.02
356.668	-0.01
356.877	0.04
357.085	0.07
357.294	-0.13
357.503	-0.01
357.711	-0.03
357.92	0.05
358.128	0.02
358.337	-0.04
358.545	0
358.754	-0.06
358.962	-0.01
359.17	-0.03
359.379	0.03
359.587	0.02
359.796	-0.05
360.004	0.01
360.212	0.04
360.421	0.08
360.629	-0.04
360.837	-0.05
361.046	-0.01
361.254	0.06
361.462	-0.04
361.67	-0.03
361.879	-0.01
362.087	0.06
362.295	-0
362.503	-0.05
362.711	-0.07
362.92	-0.06
363.128	-0.06
363.336	-0.06
363.544	-0.08
363.752	-0.04
363.96	-0.06
364.168	-0.01
364.376	-0.04
364.584	-0.01
364.792	0.02
365	-0.02
365.208	0
365.416	0.04
365.624	-0
365.832	-0.02
366.04	0.02
366.248	0.03
366.456	0.04
366.664	-0.02
366.872	-0
367.079	-0.01
367.287	-0.01
367.495	0
367.703	-0.01
367.911	0
368.118	-0.02
368.326	-0
368.534	-0.08
368.742	0.02
368.949	-0.05
369.157	-0.01
369.365	0.01
369.572	-0.03
369.78	-0.05
369.988	-0.03
370.195	0.01
370.403	-0.02
370.61	-0.04
370.818	0.03
371.026	-0.02
371.233	-0.06
371.441	-0.03
371.648	-0.04
371.856	-0.03
372.063	-0.02
372.271	-0.04
372.478	-0.05
372.685	-0.01
372.893	0.02
373.1	-0.05
373.308	-0.04
373.515	0.08
373.722	0.03
373.93	-0.02
374.137	0.03
374.344	0.02
374.552	-0.02
374.759	0.03
374.966	-0.02
375.173	-0.04
375.381	0.05
375.588	-0.01
375.795	-0.06
376.002	0.01
376.209	-0.06
376.417	0.02
376.624	-0.01
376.831	-0.02
377.038	-0.04
377.245	-0.11
377.452	-0.02
377.659	-0.05
377.866	-0.06
378.073	0.02
378.28	0.03
378.487	0.06
378.694	-0.02
378.901	-0.02
379.108	-0.02
379.315	0.02
379.522	0.08
379.729	0
379.936	-0.02
380.143	0.01
380.35	0.01
380.557	-0.04
380.763	-0.05
380.97	-0.03
381.177	0.01
381.384	-0.01
381.591	-0.04
381.797	-0.04
382.004	0.02
382.211	0.01
382.418	-0.02
382.624	-0.01
382.831	0.02
383.038	-0.03
383.244	0.01
383.451	-0.01
383.658	0.03
383.864	0.01
384.071	-0.04
384.277	0.07
384.484	-0.07
384.69	0.01
384.897	-0.06
385.103	-0.03
385.31	-0.03
385.516	-0.04
385.723	-0.12
385.929	-0.01
386.136	0
386.342	-0.02
386.549	-0.02
386.755	0.02
386.961	-0.01
387.168	-0.04
387.374	-0.02
387.58	0.03
387.787	-0.01
387.993	0
388.199	-0.03
388.406	-0.05
388.612	-0.02
388.818	-0.01
389.024	-0.05
389.231	-0.05
389.437	0.03
389.643	0.01
389.849	-0.04
390.055	0.01
390.261	-0.02
390.467	0
390.674	-0.05
390.88	-0.07
391.086	-0.01
391.292	-0.07
391.498	0.01
391.704	-0.02
391.91	-0.04
392.116	-0.06
392.322	-0.09
392.528	0.01
392.734	-0.02
392.94	-0.02
393.146	-0.03
393.352	0.02
393.557	-0.04
393.763	-0.03
393.969	0.03
394.175	-0.01
394.381	-0.04
394.587	-0.08
394.792	-0.03
394.998	0.01
395.204	0.05
395.41	-0.04
395.615	-0.03
395.821	0.02
396.027	0.01
396.233	-0.07
396.438	0
396.644	0.03
396.85	0.01
397.055	-0.02
397.261	-0.03
397.466	0.01
397.672	-0.05
397.878	0
398.083	0.01
398.289	-0.08
398.494	0.02
398.7	-0.02
398.905	-0.08
399.111	0.08
399.316	-0.04
399.522	-0.03
399.727	-0.02
399.932	-0.02
400.138	-0.01
400.343	0.04
400.549	-0.01
400.754	0.01
400.959	-0.04
401.165	-0.04
401.37	-0
401.575	0.02
401.78	-0.01
401.986	-0.01
402.191	-0.01
402.396	-0.04
402.601	0.01
402.807	0
403.012	0
403.217	0.02
403.422	0
403.627	-0.06
403.832	-0.07
404.037	-0.01
404.243	0
404.448	-0.04
404.653	-0
404.858	-0.02
405.063	0.02
405.268	-0.02
405.473	-0.07
405.678	-0.05
405.883	0.1
406.088	0.01
406.293	-0.06
406.498	-0.03
406.703	-0.01
406.907	-0.07
407.112	-0.06
407.317	-0.01
407.522	0.03
407.727	-0.06
407.932	-0.01
408.136	0.02
408.341	-0.03
408.546	-0.01
408.751	-0.05
408.956	-0.02
409.16	-0.02
409.365	-0.05
409.57	-0.09
409.774	-0.02
409.979	0.05
410.184	-0
410.388	-0.03
410.593	0.03
410.798	0.02
411.002	-0.02
411.207	0.04
411.411	0.03
411.616	-0.06
411.82	0.01
412.025	0.01
412.229	-0.1
412.434	0.07
412.638	-0.01
412.843	-0.05
413.047	0
413.252	-0.09
413.456	-0.03
413.66	-0.05
413.865	-0.08
414.069	0.03
414.273	-0.02
414.478	-0.08
414.682	-0.04
414.886	-0.06
415.091	-0.11
415.295	-0.1
415.499	-0
415.703	-0.05
415.908	0.01
416.112	-0.09
416.316	-0.04
416.52	-0.03
416.724	-0.08
416.929	-0.04
417.133	0.08
417.337	-0.06
417.541	-0.07
417.745	-0.09
417.949	-0.03
418.153	0.02
418.357	-0.08
418.561	0.01
418.765	-0.03
418.969	0.1
419.173	0.01
419.377	-0.05
419.581	0.03
419.785	-0.02
419.989	-0.05
420.193	-0.06
420.397	-0.02
420.601	0.06
420.804	0.01
421.008	-0.03
421.212	-0.04
421.416	0.03
421.62	-0.04
421.823	-0.04
422.027	0.09
422.231	-0.03
422.435	-0.02
422.638	0.02
422.842	-0.04
423.046	-0.06
423.249	-0.01
423.453	-0
423.657	-0.01
423.86	-0.04
424.064	-0.06
424.268	0.04
424.471	0.03
424.675	0.04
424.878	0.09
425.082	-0.06
425.285	0.02
425.489	0.02
425.692	-0.02
425.896	-0.08
426.099	-0.03
426.303	-0.05
426.506	-0.09
426.71	0
426.913	-0.01
427.116	0.05
427.32	0.04
427.523	-0.07
427.726	0.05
427.93	-0.07
428.133	-0.04
428.336	-0.07
428.54	-0.05
428.743	-0.03
428.946	0.04
429.149	-0.06
429.353	-0.05
429.556	-0.01
429.759	-0.01
429.962	-0.05
430.165	-0.01
430.368	-0.02
430.571	-0.06
430.775	-0.02
430.978	-0.04
431.181	-0.02
431.384	-0.06
431.587	-0
431.79	-0.05
431.993	0.02
432.196	-0.04
432.399	-0.03
432.602	0.05
432.805	-0.05
433.008	-0.04
433.211	-0.12
433.414	0.03
433.616	0
433.819	-0.04
434.022	-0.08
434.225	-0.01
434.428	-0
434.631	0.04
434.833	-0.02
435.036	-0.06
435.239	0.05
435.442	-0.03
435.645	-0.07
435.847	-0.02
436.05	0.04
436.253	-0.03
436.455	-0.04
436.658	-0.06
436.861	0.05
437.063	-0.04
437.266	-0.02
437.468	0.03
437.671	0.13
437.874	0.01
438.076	-0.06
438.279	-0.11
438.481	-0
438.684	-0.06
438.886	-0.01
439.089	-0.05
439.291	0.01
439.494	-0.02
439.696	-0.07
439.899	-0.08
440.101	-0.03
440.303	-0.11
440.506	0
440.708	-0.05
440.91	-0
441.113	-0.09
441.315	0.01
441.517	-0.06
441.72	0.03
441.922	-0.06
442.124	-0.06
442.326	-0.01
442.529	0.05
442.731	-0.1
442.933	0.02
443.135	-0.05
443.337	-0.06
443.539	-0.01
443.742	-0.03
443.944	-0.03
444.146	-0.07
444.348	-0.11
444.55	-0.06
444.752	-0.01
444.954	-0.11
445.156	-0.03
445.358	-0.06
445.56	0.01
445.762	-0.02
445.964	-0.03
446.166	-0.01
446.368	-0.03
446.57	0.04
446.772	-0.01
446.974	-0.04
447.175	-0.05
447.377	-0.08
447.579	-0.02
447.781	-0.1
447.983	0
448.184	-0.03
448.386	-0.02
448.588	-0.07
448.79	-0
448.991	-0.06
449.193	-0.02
449.395	-0
449.597	0.01
449.798	-0.02
450	0
450.202	-0.05
450.403	-0.03
450.605	0
450.806	-0.03
451.008	-0.09
451.21	-0.07
451.411	0
451.613	-0.06
451.814	-0.03
452.016	0.01
452.217	-0.01
452.419	0.04
452.62	-0.08
452.821	0.02
453.023	0.05
453.224	-0
453.426	-0.08
453.627	-0.01
453.828	-0.01
454.03	-0.01
454.231	-0.04
454.432	-0.03
454.634	0.09
454.835	-0.11
455.036	-0.08
455.238	0.02
455.439	0.1
455.64	-0.06
455.841	-0.02
456.042	0.06
456.244	-0.02
456.445	-0.05
456.646	-0.08
456.847	-0.02
457.048	0.03
457.249	0.02
457.45	0.17
457.651	-0.07
457.852	0.04
458.054	-0.01
458.255	-0.04
458.456	0.03
458.657	-0.02
458.858	-0.07
459.058	-0
459.259	0.04
459.46	-0.03
459.661	-0.01
459.862	0.03
460.063	-0.03
460.264	0.03
460.465	-0.04
460.666	0.09
460.866	-0.04
461.067	-0.02
461.268	-0.04
461.469	-0.08
461.67	-0.06
461.87	-0.03
462.071	-0.02
462.272	-0.02
462.473	-0.02
462.673	0.04
462.874	-0.11
463.075	-0.04
463.275	-0.05
463.476	-0.03
463.676	-0.04
463.877	0
464.078	-0.05
464.278	0.01
464.479	-0.04
464.679	-0.05
464.88	-0.04
465.08	-0.01
465.281	-0.06
465.481	-0.04
465.682	-0.05
465.882	-0
466.083	-0.05
466.283	-0.03
466.483	-0
466.684	-0.07
466.884	-0.03
467.085	-0.04
467.285	0.04
467.485	-0.05
467.686	-0.04
467.886	-0.07
468.086	-0.03
468.286	-0.06
468.487	-0.01
468.687	-0.06
468.887	-0.05
469.087	-0.01
469.287	-0.01
469.488	-0.04
469.688	0.03
469.888	0.02
470.088	-0.01
470.288	0.06
470.488	0.02
470.688	-0.06
470.888	-0.06
471.088	-0.05
471.288	0.03
471.488	0
471.688	-0.03
471.888	-0.08
472.088	0.02
472.288	0.05
472.488	-0.06
472.688	-0.05
472.888	-0
473.088	-0.03
473.288	-0.03
473.488	-0.01
473.688	0.02
473.887	-0.03
474.087	-0.02
474.287	-0.01
474.487	-0.05
474.687	0.01
474.886	-0.04
475.086	-0.02
475.286	0.04
475.486	-0.04
475.685	-0.03
475.885	-0.02
476.085	-0.04
476.284	-0.01
476.484	-0.04
476.684	-0.02
476.883	0.02
477.083	0.02
477.282	-0.04
477.482	0.03
477.681	0.04
477.881	0
478.08	-0.07
478.28	-0.05
478.479	0.02
478.679	0.04
478.878	-0.03
479.078	-0.01
479.277	-0.03
479.477	-0.03
479.676	0.01
479.875	0.01
480.075	-0.07
480.274	-0.01
480.473	0.02
480.673	-0.05
480.872	-0
481.071	-0.01
481.271	0
481.47	-0.06
481.669	-0.01
481.868	-0.05
482.067	-0.04
482.267	-0.05
482.466	-0.05
482.665	-0.04
482.864	-0.06
483.063	-0.03
483.262	0.01
483.461	0.04
483.661	-0.01
483.86	-0.02
484.059	-0.01
484.258	0
484.457	-0.03
484.656	0
484.855	0.04
485.054	-0.06
485.253	-0.03
485.452	-0.05
485.651	-0.01
485.849	-0.03
486.048	-0.04
486.247	-0.04
486.446	-0
486.645	-0.05
486.844	-0.05
487.043	-0.01
487.241	-0
487.44	-0.04
487.639	-0.01
487.838	-0.01
488.037	-0
488.235	0.04
488.434	-0.02
488.633	-0.04
488.831	-0.02
489.03	0.03
489.229	0
489.427	0
489.626	0.02
489.825	0.02
490.023	-0.01
490.222	-0.05
490.42	0.03
490.619	0.02
490.817	0.01
491.016	-0.02
491.214	0.03
491.413	-0.01
491.611	-0.01
491.81	-0.03
492.008	-0
492.207	-0
492.405	-0.01
492.604	-0.03
492.802	-0.03
493	-0.03
493.199	-0.02
493.397	0
493.595	-0.01
493.794	-0
493.992	0.02
494.19	-0.01
494.388	0.01
494.587	-0
494.785	-0.01
494.983	-0.03
495.181	-0.03
495.379	-0
495.578	-0.01
495.776	0
495.974	-0
496.172	-0
496.37	0
496.568	-0.03
496.766	-0.05
496.964	0.01
497.162	-0.01
497.36	-0.04
497.558	0
497.756	0.02
497.954	-0
498.152	-0.05
498.35	-0.02
498.548	-0.02
498.746	0
498.944	-0.02
499.142	-0.04
499.34	-0.05
499.538	0.01
499.736	-0.05
499.933	-0
500.131	0
500.329	-0.01
500.527	0.01
500.725	-0.02
500.922	-0.01
501.12	-0.01
501.318	0
501.516	-0.02
501.713	0.01
501.911	-0.01
502.109	-0.02
502.306	-0
502.504	-0.03
502.701	-0.02
502.899	-0.01
503.097	0.02
503.294	-0.01
503.492	-0.01
503.689	0.01
503.887	0.01
504.084	0.03
504.282	0
504.479	-0.03
504.677	-0.02
504.874	-0.03
505.072	-0.01
505.269	-0.03
505.466	0.02
505.664	0.01
505.861	-0.06
506.059	-0.05
506.256	0.01
506.453	-0.03
506.651	0.04
506.848	-0
507.045	-0
507.242	-0.01
507.44	-0.02
507.637	-0.02
507.834	-0.04
508.031	0.02
508.229	-0.04
508.426	-0.01
508.623	-0.01
508.82	-0.01
509.017	-0.01
509.214	-0.02
509.411	-0.05
509.608	-0.05
509.805	-0.01
510.003	-0.05
510.2	-0.03
510.397	0.02
510.594	-0.05
510.791	-0
510.988	-0.01
511.184	0.02
511.381	-0.01
511.578	-0.03
511.775	0.02
511.972	-0.03
512.169	0
512.366	-0.02
512.563	0.01
512.76	-0.02
512.956	0
513.153	-0.03
513.35	0
513.547	-0.03
513.744	-0.02
513.94	-0.05
514.137	-0.01
514.334	-0.02
514.53	0
514.727	-0.01
514.924	0.04
515.12	-0.02
515.317	-0.04
515.514	-0.01
515.71	-0.04
515.907	-0
516.103	-0.02
516.3	-0
516.497	0.01
516.693	0.02
516.89	-0.01
517.086	-0.03
517.283	0.01
517.479	0
517.676	-0.02
517.872	-0.01
518.068	-0.03
518.265	-0.02
518.461	-0.03
518.658	-0.03
518.854	0.01
519.05	-0.01
519.247	-0.01
519.443	0
519.639	-0.01
519.836	-0
520.032	-0.02
520.228	-0.02
520.424	0.03
520.621	0.02
520.817	-0.02
521.013	0.01
521.209	-0.01
521.405	0.01
521.601	0
521.798	-0.01
521.994	0.03
522.19	-0.02
522.386	-0.04
522.582	0.01
522.778	0.01
522.974	-0.04
523.17	-0.01
523.366	-0.01
523.562	0.01
523.758	-0.02
523.954	-0.03
524.15	-0.02
524.346	0.01
524.542	-0.03
524.738	-0.04
524.934	-0.03
525.129	-0.02
525.325	0
525.521	-0.01
525.717	-0
525.913	-0.01
526.109	-0.02
526.304	-0.03
526.5	-0
526.696	-0.01
526.892	-0
527.087	-0.01
527.283	-0.04
527.479	0.01
527.674	-0.03
527.87	-0.01
528.066	-0.01
528.261	0.01
528.457	-0.01
528.653	-0.02
528.848	-0.01
529.044	0.02
529.239	-0.03
529.435	0
529.63	0.01
529.826	0.04
530.021	-0.02
530.217	0.02
530.412	-0.02
530.608	-0.02
530.803	-0.01
530.999	-0.02
531.194	-0.05
531.389	-0.02
531.585	-0.06
531.78	-0.02
531.975	-0.03
532.171	-0.01
532.366	-0.03
532.561	-0.02
532.757	-0.02
532.952	-0
533.147	0.02
533.342	-0.01
533.538	-0.02
533.733	0.03
533.928	-0.02
534.123	-0.02
534.318	-0.04
534.513	-0.02
534.709	-0.02
534.904	-0.02
535.099	-0.02
535.294	-0.01
535.489	-0.02
535.684	-0.02
535.879	-0.05
536.074	0.01
536.269	-0.02
536.464	-0.01
536.659	-0.01
536.854	-0.02
537.049	-0.01
537.244	0.01
537.439	-0.02
537.634	0.01
537.828	0.01
538.023	-0.03
538.218	-0.05
538.413	-0.02
538.608	-0.05
538.803	0.01
538.997	-0.05
539.192	0.02
539.387	0.02
539.582	-0.01
539.776	0.01
539.971	-0.02
540.166	-0.01
540.36	-0.04
540.555	-0.01
540.75	-0.03
540.944	-0.01
541.139	-0.06
541.334	-0.02
541.528	0
541.723	-0.01
541.917	-0.01
542.112	-0.05
542.306	-0.03
542.501	-0
542.695	-0.02
542.89	-0
543.084	0.01
543.279	-0.02
543.473	-0.02
543.668	-0
543.862	-0.03
544.056	0.02
544.251	-0.01
544.445	-0.02
544.64	-0.03
544.834	-0.01
545.028	0.01
545.222	-0
545.417	0.01
545.611	-0.01
545.805	-0.01
546	-0.03
546.194	-0.01
546.388	-0.01
546.582	0.02
546.776	-0.02
546.97	-0.03
547.165	0
547.359	0.01
547.553	-0.02
547.747	-0.01
547.941	-0.01
548.135	-0.03
548.329	-0.01
548.523	0.01
548.717	-0.02
548.911	-0.01
549.105	-0
549.299	-0.02
549.493	0.03
549.687	0
549.881	0.01
550.075	-0.01
550.269	-0.03
550.463	0.01
550.657	-0.02
550.85	-0
551.044	-0.04
551.238	-0.01
551.432	-0.01
551.626	-0.05
551.82	-0.03
552.013	-0.03
552.207	-0
552.401	0
552.594	0
552.788	-0.01
552.982	-0.01
553.176	-0.01
553.369	0.01
553.563	-0.01
553.756	-0.05
553.95	-0.04
554.144	-0.02
554.337	0.02
554.531	-0.01
554.724	-0.02
554.918	-0.03
555.111	-0.01
555.305	0
555.498	0.03
555.692	0.01
555.885	-0.03
556.079	0.01
556.272	-0.02
556.466	0.02
556.659	-0.01
556.852	-0.01
557.046	-0.01
557.239	0.02
557.432	-0.03
557.626	-0.03
557.819	-0.02
558.012	-0.01
558.206	0.02
558.399	-0.01
558.592	0.01
558.785	-0.01
558.979	0.03
559.172	-0.01
559.365	-0.01
559.558	-0.02
559.751	-0.03
559.944	0.01
560.138	-0.03
560.331	-0.01
560.524	-0.02
560.717	-0.01
560.91	-0.02
561.103	-0.01
561.296	-0
561.489	0.02
561.682	-0
561.875	0
562.068	-0.01
562.261	-0.01
562.454	0.01
562.647	-0.01
562.84	-0
563.032	-0.01
563.225	-0.01
563.418	-0.03
563.611	-0.02
563.804	-0.02
563.997	-0.04
564.19	-0.05
564.382	0.01
564.575	-0.01
564.768	-0.01
564.961	-0.02
565.153	-0.04
565.346	0.02
565.539	0.03
565.731	-0.01
565.924	0.01
566.117	0
566.309	-0.02
566.502	-0.03
566.695	-0.03
566.887	-0.02
567.08	-0.02
567.272	-0.03
567.465	-0.03
567.657	-0.01
567.85	-0.02
568.042	0.02
568.235	0.02
568.427	0.01
568.62	-0.02
568.812	0.01
569.005	-0.01
569.197	-0.05
569.389	0.02
569.582	-0
569.774	-0.01
569.966	-0.02
570.159	-0.01
570.351	-0.02
570.543	-0.03
570.736	-0.01
570.928	-0.04
571.12	0
571.312	-0.05
571.505	-0.04
571.697	0.01
571.889	-0.05
572.081	-0.03
572.273	-0.05
572.465	0.02
572.658	-0.02
572.85	-0.01
573.042	-0.04
573.234	-0.02
573.426	0
573.618	-0.03
573.81	-0.01
574.002	0.02
574.194	0.05
574.386	-0.04
574.578	-0.05
574.77	-0.02
574.962	-0.03
575.154	-0.04
575.346	-0.01
575.538	0.02
575.729	-0.02
575.921	-0.02
576.113	-0.02
576.305	-0.02
576.497	-0.01
576.689	-0.02
576.88	-0.04
577.072	0.01
577.264	-0.02
577.456	-0.01
577.647	-0.07
577.839	-0.03
578.031	0.02
578.223	-0.05
578.414	-0.02
578.606	0.02
578.798	0
578.989	-0.03
579.181	-0.04
579.372	-0
579.564	-0.02
579.755	0.02
579.947	-0
580.139	0.01
580.33	-0.04
580.522	-0.02
580.713	-0.07
580.905	-0.02
581.096	0
581.287	-0.01
581.479	-0.01
581.67	0.01
581.862	-0.01
582.053	-0.02
582.244	-0.04
582.436	-0.02
582.627	-0.01
582.818	-0.01
583.01	-0.04
583.201	0.02
583.392	0.02
583.583	-0.02
583.775	0
583.966	-0.04
584.157	-0.02
584.348	-0.02
584.54	-0.03
584.731	-0.01
584.922	-0.02
585.113	-0.01
585.304	0.01
585.495	0.01
585.686	-0.01
585.877	0
586.068	0.01
586.259	0.02
586.45	0
586.641	-0.04
586.832	-0.05
587.023	0
587.214	-0.01
587.405	-0.01
587.596	-0.01
587.787	0.04
587.978	-0.04
588.169	-0.03
588.36	-0.01
588.551	-0.01
588.742	-0.04
588.932	-0
589.123	0.01
589.314	0.02
589.505	0.02
589.696	-0.01
589.886	-0.03
590.077	-0.06
590.268	0
590.458	-0.04
590.649	-0.04
590.84	-0
591.03	-0.01
591.221	-0.02
591.412	-0.07
591.602	-0
591.793	0.04
591.984	-0.03
592.174	-0.01
592.365	0.06
592.555	-0.01
592.746	0.01
592.936	0.02
593.127	0.03
593.317	0.02
593.508	-0.02
593.698	-0.01
593.889	0.02
594.079	-0.02
594.269	-0.02
594.46	-0
594.65	0
594.84	0.01
595.031	-0.03
595.221	-0.01
595.411	-0.04
595.602	0.04
595.792	0.02
595.982	-0.04
596.172	0.08
596.363	0.03
596.553	0.02
596.743	0.01
596.933	-0
597.123	0.05
597.314	-0.02
597.504	-0.02
597.694	0.04
597.884	0.03
598.074	0.02
598.264	-0.02
598.454	0.05
598.644	0.01
598.834	0.02
599.024	-0.04
599.214	0.01
599.404	0.04
599.594	0
599.784	-0.02
599.974	0.06
600.164	0.02
600.354	-0
600.544	-0.02
600.734	0.02
600.924	0.06
601.114	-0.01
601.303	-0.02
601.493	0.03
601.683	0
601.873	0.04
602.063	-0.01
602.252	0.05
602.442	-0.02
602.632	-0.04
602.821	0.01
603.011	0.05
603.201	0
603.39	0
603.58	0.01
603.77	0.03
603.959	0.04
604.149	0.01
604.339	0.02
604.528	0.06
604.718	0.03
604.907	0.06
605.097	0.03
605.286	0.02
605.476	0.04
605.665	0.07
605.855	0.05
606.044	0.07
606.234	0.06
606.423	0.04
606.612	0
606.802	0.03
606.991	0.06
607.181	0.06
607.37	0.01
607.559	0.03
607.749	0.01
607.938	0.05
608.127	0.05
608.316	0.06
608.506	0.05
608.695	0.06
608.884	0.07
609.073	0.08
609.263	0.09
609.452	0.09
609.641	0.07
609.83	0.07
610.019	0.08
610.208	0.05
610.397	0.05
610.586	0.09
610.775	0.04
610.965	0.05
611.154	0.09
611.343	0.11
611.532	0.1
611.721	0.1
611.91	0.12
612.099	0.11
612.287	0.1
612.476	0.08
612.665	0.12
612.854	0.1
613.043	0.17
613.232	0.12
613.421	0.08
613.61	0.15
613.798	0.1
613.987	0.16
614.176	0.14
614.365	0.16
614.554	0.14
614.742	0.16
614.931	0.12
615.12	0.16
615.309	0.13
615.497	0.18
615.686	0.12
615.875	0.13
616.063	0.17
616.252	0.14
616.44	0.14
616.629	0.16
616.818	0.2
617.006	0.17
617.195	0.17
617.383	0.19
617.572	0.18
617.76	0.18
617.949	0.17
618.137	0.22
618.326	0.22
618.514	0.18
618.703	0.19
618.891	0.27
619.079	0.17
619.268	0.28
619.456	0.19
619.644	0.26
619.833	0.23
620.021	0.21
620.209	0.15
620.398	0.26
620.586	0.24
620.774	0.27
620.962	0.2
621.151	0.29
621.339	0.24
621.527	0.23
621.715	0.19
621.903	0.21
622.092	0.21
622.28	0.24
622.468	0.24
622.656	0.22
622.844	0.24
623.032	0.22
623.22	0.19
623.408	0.26
623.596	0.29
623.784	0.26
623.972	0.21
624.16	0.21
624.348	0.29
624.536	0.21
624.724	0.21
624.912	0.25
625.1	0.28
625.288	0.18
625.476	0.18
625.664	0.24
625.851	0.19
626.039	0.2
626.227	0.23
626.415	0.19
626.603	0.13
626.79	0.21
626.978	0.18
627.166	0.19
627.354	0.17
627.541	0.14
627.729	0.07
627.917	0.19
628.104	0.17
628.292	0.12
628.48	0.12
628.667	0.12
628.855	0.13
629.042	0.13
629.23	0.09
629.418	0.1
629.605	0.09
629.793	0.08
629.98	0.08
630.168	0.07
630.355	0.06
630.543	0.09
630.73	0.06
630.917	0.09
631.105	0.14
631.292	0.06
631.48	0.05
631.667	0.15
631.854	0.09
632.042	0.04
632.229	0.01
632.416	0.05
632.604	0.03
632.791	0
632.978	0.05
633.165	0.04
633.353	0.11
633.54	0.12
633.727	-0.01
633.914	0
634.101	-0.04
634.289	0.07
634.476	-0
634.663	-0.02
634.85	0.02
635.037	-0.04
635.224	-0.06
635.411	0.07
635.598	0.06
635.785	0.01
635.972	0.02
636.159	0.05
636.346	-0.01
636.533	0.03
636.72	0.01
636.907	-0
637.094	0.05
637.281	-0
637.468	0.03
637.655	0.01
637.842	0.02
638.029	-0.03
638.215	0.03
638.402	0.02
638.589	-0.02
638.776	0.02
638.963	-0.03
639.149	0.03
639.336	0.09
639.523	-0.02
639.709	0.01
639.896	-0.01
640.083	0.06
640.27	0.05
640.456	-0.02
640.643	0.02
640.829	-0.06
641.016	-0
641.203	-0.06
641.389	0
641.576	-0.01
641.762	-0.01
641.949	-0.04
642.135	-0.02
642.322	-0.01
642.508	-0.05
642.695	0.01
642.881	-0.01
643.068	-0.04
643.254	-0.05
643.441	0
643.627	-0.04
643.813	-0.04
644	-0
644.186	-0.04
644.372	-0.01
644.559	0.02
644.745	-0.03
644.931	-0.02
645.118	-0.02
645.304	-0.04
645.49	-0.03
645.676	-0.06
645.862	-0.02
646.049	0.03
646.235	-0
646.421	0.05
646.607	0.03
646.793	-0.04
646.979	-0.06
647.165	-0.01
647.352	0.01
647.538	0.03
647.724	0.01
647.91	0.03
648.096	0.01
648.282	0.02
648.468	-0.04
648.654	0.02
648.84	-0.01
649.026	0.01
649.212	-0.02
649.397	-0.05
649.583	-0.07
649.769	0.02
649.955	-0.01
650.141	-0.01
650.327	0.02
650.513	-0.04
650.698	-0.01
650.884	-0.1
651.07	-0
651.256	-0.01
651.442	-0.01
651.627	-0
651.813	-0
651.999	-0.02
652.184	-0.01
652.37	-0.03
652.556	-0.03
652.741	0.05
652.927	-0.08
653.113	-0.02
653.298	-0.02
653.484	-0.03
653.669	-0.08
653.855	-0.02
654.04	0.02
654.226	-0.01
654.412	-0.04
654.597	-0.03
654.782	-0.02
654.968	-0.02
655.153	0.03
655.339	-0.03
655.524	-0.07
655.71	-0.01
655.895	-0.01
656.08	-0.02
656.266	-0.01
656.451	-0.03
656.636	-0.04
656.822	-0
657.007	-0.07
657.192	-0.05
657.378	-0.07
657.563	0
657.748	-0
657.933	-0.02
658.118	-0.03
658.304	-0.02
658.489	0.01
658.674	0.03
658.859	-0.06
659.044	-0.03
659.229	-0
659.414	-0.03
659.599	-0.04
659.785	-0.08
659.97	-0.04
660.155	0.03
660.34	-0.04
660.525	-0.05
660.71	-0.03
660.895	-0
661.08	-0.03
661.264	-0.03
661.449	0.04
661.634	0.02
661.819	-0
662.004	-0.02
662.189	-0.09
662.374	-0.06
662.559	-0.06
662.743	-0.06
662.928	-0.01
663.113	-0.01
663.298	-0.04
663.483	-0.08
663.667	0.04
663.852	-0.09
664.037	0.03
664.221	-0.06
664.406	0.02
664.591	0
664.775	0.01
664.96	-0.05
665.145	-0.01
665.329	0.02
665.514	-0.05
665.698	-0.02
665.883	-0.1
666.068	0.04
666.252	-0.04
666.437	-0.03
666.621	0.01
666.806	0.04
666.99	-0
667.174	-0.06
667.359	0.06
667.543	-0.06
667.728	-0.04
667.912	-0.1
668.096	-0.02
668.281	-0.06
668.465	-0.07
668.649	-0.01
668.834	-0.06
669.018	-0.01
669.202	0.01
669.387	-0.04
669.571	-0.03
669.755	-0.06
669.939	0.01
670.124	-0.01
670.308	0.02
670.492	0.03
670.676	0.01
670.86	-0.03
671.044	-0.06
671.228	0.03
671.413	-0.02
671.597	-0.06
671.781	-0.08
671.965	-0.03
672.149	-0.03
672.333	-0.04
672.517	-0.07
672.701	0.04
672.885	-0.04
673.069	-0.08
673.253	0.02
673.437	-0.04
673.621	-0.06
673.804	-0.08
673.988	-0.01
674.172	-0.02
674.356	-0.11
674.54	-0.09
674.724	0.05
674.908	-0.03
675.091	0
675.275	-0.07
675.459	0
675.643	-0.03
675.826	-0.01
676.01	-0.04
676.194	-0.03
676.377	0.04
676.561	-0.02
676.745	0.01
676.928	-0.08
677.112	0.01
677.296	-0.03
677.479	-0.04
677.663	-0.06
677.846	0.02
678.03	-0.04
678.213	-0.03
678.397	-0
678.58	-0.02
678.764	-0.04
678.947	-0.09
679.131	-0.03
679.314	-0.02
679.498	-0.05
679.681	-0.02
679.865	0.01
680.048	-0.01
680.231	-0.03
680.415	-0.03
680.598	-0.08
680.781	-0.08
680.965	-0.01
681.148	-0.02
681.331	-0.03
681.514	-0.01
681.698	-0.05
681.881	-0.01
682.064	-0.01
682.247	-0.07
682.43	-0.08
682.614	-0
682.797	0.01
682.98	-0.01
683.163	-0.11
683.346	-0
683.529	-0.02
683.712	-0.06
683.895	-0.01
684.078	-0.07
684.261	-0.05
684.444	0
684.627	-0.01
684.81	-0.06
684.993	-0.05
685.176	0.02
685.359	-0.06
685.542	-0.1
685.725	0.05
685.908	-0.04
686.091	-0.06
686.274	0.03
686.457	0.04
686.639	-0.06
686.822	0.05
687.005	-0.03
687.188	0
687.371	0.09
687.553	-0.05
687.736	-0.02
687.919	0
688.102	0.03
688.284	-0.09
688.467	-0.03
688.65	-0.03
688.832	-0.09
689.015	-0.05
689.197	-0.04
689.38	0.05
689.563	-0.02
689.745	-0.02
689.928	-0.07
690.11	-0.07
690.293	-0.02
690.475	-0.08
690.658	-0.04
690.84	-0.06
691.023	0.01
691.205	-0.05
691.388	-0.01
691.57	-0.02
691.752	0.01
691.935	-0.1
692.117	-0.01
692.3	-0.02
692.482	-0
692.664	-0.04
692.847	-0.03
693.029	0.02
693.211	-0.05
693.393	-0.02
693.576	-0.09
693.758	-0.02
693.94	-0.09
694.122	-0.03
694.304	-0.02
694.487	-0.07
694.669	0.05
694.851	-0.11
695.033	0.01
695.215	-0.06
695.397	-0.08
695.579	0.03
695.761	-0.07
695.943	-0.08
696.125	0.06
696.308	0
696.49	-0.13
696.671	0.12
696.853	0.02
697.035	0.05
697.217	0
697.399	0.04
697.581	-0.04
697.763	-0.05
697.945	-0.07
698.127	-0.03
698.309	0.07
698.491	-0.04
698.672	0.04
698.854	0.02
699.036	0.07
699.218	-0.04
699.399	0.04
699.581	0.05
699.763	-0
699.945	-0.07
700.126	-0.07
700.308	0.02
700.49	-0.04
700.671	-0.12
700.853	-0.06
701.035	-0.04
701.216	-0.01
701.398	-0.12
701.579	0.01
701.761	0.01
701.943	-0.07
702.124	-0.09
702.306	-0.04
702.487	0.09
702.669	0.01
702.85	-0.07
703.031	-0.12
703.213	0.03
703.394	0.01
703.576	-0.08
703.757	0.05
703.938	0.03
704.12	0.13
704.301	-0.01
704.483	-0.05
704.664	0.04
704.845	0.03
705.026	0.01
705.208	-0.03
705.389	-0.02
705.57	-0.02
705.751	-0.08
705.933	-0.09
706.114	0.06
706.295	-0.02
706.476	-0.06
706.657	0.07
706.838	-0.03
707.02	0.02
707.201	-0.11
707.382	-0.06
707.563	-0.02
707.744	-0.05
707.925	-0.07
708.106	-0.05
708.287	-0.03
708.468	0.06
708.649	-0.01
708.83	-0
709.011	-0.04
709.192	0.02
709.373	-0.11
709.554	-0.08
709.734	0.01
709.915	-0.02
710.096	-0.02
710.277	-0.14
710.458	0.03
710.639	0.04
710.819	-0.12
711	0.01
711.181	-0.03
711.362	-0.01
711.542	-0.03
711.723	-0.04
711.904	-0.02
712.085	-0.04
712.265	-0.05
712.446	-0.07
712.627	-0.1
712.807	-0
712.988	-0.02
713.168	-0.11
713.349	-0.03
713.53	-0.18
713.71	-0.13
713.891	-0.12
714.071	-0.01
714.252	0.02
714.432	-0.06
714.613	-0.13
714.793	0.01
714.974	0.08
715.154	0.08
715.334	0.02
715.515	0.04
715.695	-0.11
715.876	0.01
716.056	-0.02
716.236	-0
716.417	-0.09
716.597	-0.1
716.777	0.13
716.957	0.01
717.138	-0.11
717.318	-0.03
717.498	-0.09
717.678	-0.03
717.859	0.02
718.039	-0.11
718.219	-0.04
718.399	0.01
718.579	-0.08
718.759	-0.04
718.939	-0.01
719.12	-0.02
719.3	-0.01
719.48	-0.17
719.66	-0.17
719.84	0.03
720.02	-0.02
720.2	-0.07
720.38	-0.05
720.56	-0.01
720.74	-0.11
720.92	-0
721.1	0.03
721.279	0.04
721.459	0.04
721.639	-0.09
721.819	-0.01
721.999	-0.08
722.179	0.03
722.359	-0.11
722.538	-0.03
722.718	-0.01
722.898	-0.07
723.078	0.01
723.257	-0.05
723.437	0
723.617	0.02
723.797	-0.06
723.976	-0.01
724.156	-0.04
724.336	0.09
724.515	0.06
724.695	-0.18
724.874	-0.12
725.054	0.03
725.234	-0.11
725.413	-0.01
725.593	-0.17
725.772	-0.06
725.952	-0.02
726.131	-0.02
726.311	-0.01
726.49	0
726.67	-0.13
726.849	-0.08
727.028	0.01
727.208	-0.07
727.387	-0.01
727.567	-0.1
727.746	-0.07
727.925	-0.05
728.105	-0.11
728.284	0.02
728.463	-0.11
728.643	-0.04
728.822	-0.11
729.001	0.01
729.18	-0.04
729.359	-0
729.539	-0.02
729.718	-0.11
729.897	0.01
730.076	-0.13
730.255	-0.12
730.434	-0.02
730.614	-0.02
730.793	0.02
730.972	-0.1
731.151	0.04
731.33	0
731.509	-0.01
731.688	-0.04
731.867	-0.02
732.046	-0.19
732.225	0.07
732.404	-0.07
732.583	-0.13
732.762	-0.05
732.941	-0.03
733.12	0.02
733.298	-0.09
733.477	0.06
733.656	-0.04
733.835	-0.09
734.014	0.02
734.193	-0.01
734.371	0.02
734.55	0.06
734.729	-0.17
734.908	-0.04
735.086	0
735.265	0.07
735.444	-0.21
735.623	-0.06
735.801	-0.17
735.98	0
736.159	-0.06
736.337	0.04
736.516	-0.05
736.694	-0.09
736.873	-0.12
737.052	0.07
737.23	0.06
737.409	-0.14
737.587	0.13
737.766	-0.17
737.944	-0.08
738.123	0
738.301	0
738.479	-0.1
738.658	-0.12
738.836	-0.29
739.015	0.01
739.193	0.02
739.371	-0.17
739.55	-0.02
739.728	-0.18
739.906	-0.01
740.085	0.07
740.263	0.01
740.441	-0.15
740.62	0.08
740.798	0.01
740.976	-0.05
741.154	-0.11
741.332	0.05
741.511	-0
741.689	0.01
741.867	-0.06
742.045	-0.11
742.223	-0.04
742.401	-0.08
742.579	-0.09
742.757	0.04
742.935	-0.15
743.114	-0.14
743.292	-0.12
743.47	0.02
743.648	-0.04
743.826	-0.04
744.004	0.05
744.181	0.05
744.359	-0.08
744.537	-0.09
744.715	-0.08
744.893	-0.01
745.071	-0.02
745.249	-0.06
745.427	-0.06
745.605	-0.04
745.782	-0.02
745.96	0.07
746.138	-0.03
746.316	0.11
746.493	-0.16
746.671	0.05
746.849	-0.04
747.027	0.01
747.204	-0.14
747.382	0.02
747.56	-0.18
747.737	0.02
747.915	-0.09
748.093	0.01
748.27	-0.09
748.448	-0.16
748.625	-0.18
748.803	-0.05
748.98	-0.14
749.158	0.01
749.335	-0.02
749.513	-0.01
749.69	-0.1
749.868	-0.02
750.045	-0.1
750.223	-0.13
750.4	-0.29
750.578	0.07
750.755	-0.1
750.932	-0.06
751.11	0.05
751.287	-0.18
751.464	0.01
751.642	-0.04
751.819	-0.05
751.996	-0.02
752.173	-0.16
752.351	-0.27
752.528	-0.05
752.705	-0.12
752.882	-0.24
753.06	-0.04
753.237	-0.04
753.414	0.05
753.591	0.14
753.768	-0.04
753.945	-0.07
754.122	-0.13
754.299	0.05
754.476	-0.01
754.654	-0.02
754.831	-0.1
755.008	0.02
755.185	-0.09
755.362	-0.15
755.539	-0.01
755.716	-0.15
755.892	-0.18
756.069	-0.07
756.246	-0.01
756.423	-0.14
756.6	0.04
756.777	-0.07
756.954	0
757.131	-0.09
757.307	-0.05
757.484	-0.21
757.661	0.09
757.838	-0.1
758.015	-0.22
758.191	0.05
758.368	0.06
758.545	0.21
758.721	0.04
758.898	-0.1
759.075	0.1
759.251	0.09
759.428	-0.04
759.605	-0.16
759.781	-0.06
759.958	-0.03
760.134	-0.03
760.311	-0.09
760.488	0.03
760.664	0.11
760.841	-0.11
761.017	-0.07
761.194	0.08
761.37	-0
761.547	-0.01
761.723	-0.07
761.899	0.08
762.076	-0.09
762.252	-0.17
762.429	-0.08
762.605	-0.02
762.781	-0.1
762.958	0.05
763.134	-0.09
763.31	-0.07
763.486	0.05
763.663	-0.18
763.839	-0.01
764.015	-0.17
764.191	-0.21
764.368	-0.16
764.544	-0.22
764.72	-0.04
764.896	0.08
765.072	-0
765.248	-0.14
765.425	-0.02
765.601	-0.09
765.777	-0.13
765.953	-0.2
766.129	-0.07
766.305	-0.16
766.481	-0.02
766.657	0.05
766.833	0.16
767.009	-0.2
767.185	0.06
767.361	0.06
767.537	-0.17
767.713	0.17
767.889	-0.21
768.065	0
768.24	0.03
768.416	0
768.592	-0.16
768.768	-0.13
768.944	-0.04
769.12	-0
769.295	-0.17
769.471	-0.1
769.647	-0.03
769.823	0.01
769.998	-0.21
770.174	-0.16
770.35	0.23
770.525	0.16
770.701	0
770.877	0.02
771.052	-0.07
771.228	0.05
771.403	0.09
771.579	0.04
771.755	0.26
771.93	-0.11
772.106	-0.12
772.281	-0.24
772.457	-0.04
772.632	0.07
772.808	-0.22
772.983	-0.09
773.159	-0.3
773.334	0.03
773.509	-0.12
773.685	-0.13
773.86	0.19
774.036	0.08
774.211	-0.17
774.386	-0.17
774.562	-0.16
774.737	0.06
774.912	-0.03
775.087	0.2
775.263	-0.12
775.438	-0.02
775.613	-0.21
775.788	-0.23
775.964	-0.02
776.139	0.34
776.314	-0.16
776.489	0.1
776.664	-0.01
776.839	-0.07
777.014	0.14
777.19	0.24
777.365	0.07
777.54	0.14
777.715	-0.12
777.89	0
778.065	-0.18
778.24	-0.04
778.415	0.08
778.59	-0.32
778.765	0.03
778.94	0.16
779.115	-0.21
779.289	-0.22
779.464	-0.12
779.639	-0.25
779.814	-0.23
779.989	-0.07
780.164	0
780.339	-0.04
780.513	-0.04
780.688	-0.11
780.863	-0.07
781.038	0.05
781.212	-0.25
781.387	-0.03
781.562	0.14
781.737	-0.19
781.911	0.09
782.086	-0.12
782.261	-0.14
782.435	0.07
782.61	0.01
782.784	-0.08
782.959	0.07
783.134	-0.1
783.308	-0.37
783.483	-0.11
783.657	0.32
783.832	-0.07
784.006	-0.3
784.181	-0.07
784.355	0.05
784.53	-0.29
784.704	-0.27
784.878	0.03
785.053	-0.06
785.227	0.02
785.402	0.18
785.576	-0.3
785.75	-0.12
785.925	-0.18
786.099	-0.05
786.273	-0.15
786.448	-0.13
786.622	0.16
786.796	-0.24
786.97	-0.18
787.145	0.31
787.319	-0.39
787.493	-0.16
787.667	-0.3
787.841	-0.3
788.015	0.12
788.19	-0.42
788.364	0.04
788.538	0.01
788.712	0.18
788.886	-0.05
789.06	0.12
789.234	0.09
789.408	-0.43
789.582	-0.12
789.756	-0.24
789.93	-0.28
790.104	-0.08
790.278	-0.2
790.452	-0.23
790.626	0.08
790.8	-0.11
790.973	0.09
791.147	0.21
791.321	0.24
791.495	0.18
791.669	-0.15
791.843	-0.08
792.016	-0.05
792.19	0.16
792.364	-0.3
792.538	0.31
792.711	0.18
792.885	-0.11
793.059	-0.13
793.233	-0.42
793.406	0.04
793.58	-0.12
793.754	0.09
793.927	-0
794.101	0.19
794.274	-0.23
794.448	0.05
794.622	-0.15
794.795	0.21
794.969	-0.2
795.142	0.19
795.316	-0.25
795.489	-0.11
795.663	0.36
795.836	-0.08
796.009	-0.17
796.183	0.15
796.356	-0
796.53	-0.04
796.703	-0.07
796.876	0.5
797.05	-0.19
797.223	-0.24
797.396	0.22
797.57	0.03
797.743	0.09
797.916	-0.07
798.09	-0.09
798.263	0.09
798.436	0.14
798.609	-0.3
798.782	-0.17
798.956	0.12
799.129	-0.03
799.302	-0.2
799.475	-0.02
799.648	-0.21
799.821	-0.29
799.994	0.05
800.167	-0.42
800.34	-0.11
800.514	-0.28
800.687	-0.06
800.86	-0.09
801.033	-0.13
801.206	0.04
801.379	-0.34
801.551	0.15
801.724	-0.04
801.897	0.37
802.07	-0.2
802.243	-0.44
802.416	-0.1
802.589	-0.71
802.762	-0.15
802.935	-0.06
803.107	0.02
803.28	0.25
803.453	-0
803.626	-0.54
803.798	-0.01
803.971	-0.4
804.144	-0.04
804.317	0.34
804.489	0.07
804.662	-0.37
804.835	-0.38
805.007	-0.37
805.18	0.34
805.353	0.14
805.525	-0.12
805.698	-0.38
805.87	0.05
806.043	0.04
806.215	-0.18
806.388	-0.48
806.56	0.03
806.733	0.14
806.905	0.21
807.078	-0.32
807.25	-0.31
807.423	0.17
807.595	-0.23
807.768	0.08
807.94	0.19
808.112	-0.37
808.285	0.12
808.457	-0.31
808.629	-0.23
808.802	-0.08
808.974	-0.29
809.146	-0.25
809.318	-0.65
809.491	-0.07
809.663	0.35
809.835	-0.42
810.007	0.17
810.18	-0.07
810.352	-0.55
810.524	-0.04
810.696	0.05
810.868	0.38
811.04	-0.24
811.212	-0.53
811.384	0.32
811.556	-0.22
811.728	0.06
811.901	0.53
812.073	-0.29
812.245	0.52
812.417	0.31
812.589	-0.55
812.76	-0.23
812.932	-0.07
813.104	0.44
813.276	-0.09
813.448	0.3
813.62	-0.29
813.792	-0.08
813.964	-0.26
814.136	0.13
814.307	-0.1
814.479	-0.33
814.651	-0.28
814.823	0.74
814.995	-0.7
815.166	-0.45
815.338	-0.37
815.51	-0.53
815.681	0.7
815.853	-0.13
816.025	-0.4
816.196	0.59
816.368	0.13
816.54	-0.4
816.711	-0.2
816.883	0.01
817.054	1.04
817.226	-0.86
817.398	0.05
817.569	0.08
817.741	0.03
817.912	-0.32
818.084	-0.13
818.255	-0.21
818.426	-0.28
818.598	-0.37
818.769	-0.34
818.941	0.32
819.112	0.55
819.283	-0.01
819.455	-0.34
819.626	-0.17
819.798	-0.05
819.969	0.03
820.14	-0.45
820.311	-0.17
820.483	-0.22
820.654	-0
820.825	-0.28
820.996	-0.28
821.168	-0.46
821.339	-0.24
821.51	-0.67
821.681	-0.33
821.852	-0.21
822.023	-0.46
822.195	-0.64
822.366	-0.15
822.537	-0.18
822.708	-0.32
822.879	-0.63
823.05	0.67
823.221	-0.69
823.392	-0.05
823.563	-0.36
823.734	0.02
823.905	-0.23
824.076	-0.44
824.247	-0.77
824.418	-0.17
824.589	0.08
824.759	-0.43
824.93	-0.03
825.101	-0.9
825.272	0.37
825.443	0.38
825.614	0.11
825.784	-1.64
825.955	0.78
826.126	0.63
826.297	0.01
826.467	0.7
826.638	1.28
826.809	-0.85
826.98	0.02
827.15	0.02
827.321	-0.06
827.492	-0.09
827.662	-0.23
827.833	0.79
828.003	0.2
828.174	-0.4
828.345	-0.96
828.515	0.21
828.686	0.2
828.856	-0.25
829.027	-0.12
829.197	-0.67
829.368	0.16
829.538	-0.27
829.709	-0.84
829.879	0.21
830.049	0.45
830.22	-0.27
830.39	-0.4
830.56	0.39
830.731	-0.02
830.901	-0.86
831.072	0.05
831.242	0.33
831.412	-0.32
831.582	0.38
831.753	-1.27
831.923	0.14
832.093	-0.62
832.263	-0.21
832.434	-0.32
832.604	-0.36
832.774	0.31
832.944	-0.32
833.114	0.1
833.284	0.49
833.454	-0.77
833.624	-0.6
833.795	-0.3
833.965	0.62
834.135	-0.06
834.305	-1.06
834.475	-0.68
834.645	-0.62
834.815	-0.18
834.985	-1.2
835.155	-0.88
835.325	0.27
835.494	0.02
835.664	-0.44
835.834	-0.5
836.004	0.31
836.174	0.03
836.344	-0.56
836.514	-1.02
836.684	-0.55
836.853	-0.7
837.023	-0.56
837.193	-0.65
837.363	0.58
837.532	0.9
837.702	-0.2
837.872	-1.18
838.041	0.76
838.211	1.28
838.381	-1.2
838.55	0.05
838.72	1.58
838.89	1.09
839.059	-1.01
839.229	-0.45
839.398	0.6
839.568	-0.65
839.738	-0.81
839.907	0.27
840.077	0.63
840.246	-1.12
840.416	-1.05
840.585	-0.9
840.755	0.51
840.924	1.01
841.093	-0.44
841.263	0.19
841.432	0.42
841.602	-0.86
841.771	-1.12
841.94	-0.24
842.11	1
842.279	0.42
842.448	-0.64
842.617	-0.71
842.787	0.67
842.956	-1.25
843.125	-0.02
843.294	0.04
843.464	0.57
843.633	-0.2
843.802	-0.79
843.971	0.28
844.14	-0.26
844.309	0.6
844.479	-0.47
844.648	-0.92
844.817	-0.61
844.986	-0.08
845.155	-0.4
845.324	0.44
845.493	-0.21
845.662	-0.97
845.831	-0.41
846	-0.02
846.169	-0.22
846.338	0.75
846.507	-0.12
846.676	-0.5
846.844	-0.89
847.013	0.38
847.182	-0.57
847.351	-0.97
847.52	-0.44
847.689	0.78
847.858	-0.7
848.026	-0.9
848.195	0.09
848.364	-0.49
848.533	-0.27
848.701	-0.95
848.87	0.78
849.039	0.72
849.207	1.16
849.376	0.44
849.545	0.05
849.713	-1
849.882	-0.37
850.051	-0.18
850.219	0.14
850.388	1.14
850.556	-1.77
850.725	-0.73
850.893	-0.37
851.062	-0.45
851.23	0.08
851.399	-0.58
851.567	-0.61
851.736	-0.36
851.904	-1.75
852.073	-0.46
852.241	0.27
852.41	-0.1
852.578	-0.53
852.746	-0.22
852.915	0.86
853.083	-0.35
853.251	-1.44
853.42	-0.49
853.588	-0.24
853.756	1.21
853.924	-0.61
854.093	-0.24
854.261	-1.36
854.429	-0.86
854.597	0.13
854.765	-1.34
854.934	0.07
855.102	1.44
855.27	-0.38
855.438	-0.01
855.606	1.28
855.774	1.06
855.942	-1.82
856.11	-0.74
856.278	-0.42
856.446	-0.2
856.614	-1.39
856.782	-0.53
856.95	0.38
857.118	0.42
857.286	0.02
857.454	-1.57
857.622	0.05
857.79	-0.51
857.958	-0.83
858.126	-0.28
858.294	-2.74
858.462	-0.18
858.629	-0.6
858.797	-0.52
858.965	-1.02
859.133	0.42
859.301	-0.68
859.468	1
859.636	-0.5
859.804	1.12
859.971	-0.5
860.139	-1.37
860.307	0.65
860.474	-1.39
860.642	-0.95
860.81	-0.8
860.977	0.72
861.145	0.89
861.313	-0.94
861.48	-0.17
861.648	0.31
861.815	-0.43
861.983	-2.13
862.15	-1.25
862.318	0.46
862.485	0.29
862.653	-0.76
862.82	-1.36
862.988	0.82
863.155	0.11
863.322	-1.17
863.49	-2.19
863.657	-0.76
863.824	1.87
863.992	0.26
864.159	-0.68
864.326	0.15
864.494	-0.62
864.661	3.21
864.828	-2.47
864.996	0.56
865.163	1.59
865.33	-1.45
865.497	-3.02
865.664	-1.08
865.832	-2.37
865.999	-0.95
866.166	-1.32
866.333	-1.09
866.5	-1.35
866.667	-1.13
866.834	-0.79
867.001	0.49
867.168	-1.83
867.335	0.13
867.502	-1.3
867.669	-0.39
867.836	-0.09
868.003	0.06
868.17	1.59
868.337	-1.56
868.504	0.06
868.671	-3.27
868.838	-0.67
869.005	0.05
869.172	-0.22
869.339	-0.24
869.505	-1.24
869.672	0.27
869.839	1.4
870.006	-0.72
870.173	-3.09
870.339	0.27
870.506	1.69
870.673	-2.56
870.84	0.05
871.006	0.3
871.173	-0.41
871.34	-0.16
871.506	-1.32
871.673	1.06
871.839	-2.38
872.006	-0.93
872.173	-1.17
872.339	-1.45
872.506	1.97
872.672	-1.03
872.839	-1.65
873.005	1.07
873.172	2.42
873.338	0.73
873.505	0.32
873.671	0.17
873.838	1.19
874.004	-2.6
874.171	-1.95
874.337	1.76
874.503	1.32
874.67	0.6
874.836	-1.6
875.002	1.97
875.169	-0.76
875.335	0.49
875.501	-0.89
875.668	0.46
875.834	-0.48
876	-0.87
876.166	0.84
876.332	0
876.499	3.97
876.665	-1.31
876.831	-1.79
876.997	2.86
877.163	0.84
877.329	-0.84
877.495	0.38
877.662	-0.27
877.828	-0.42
877.994	-0.55
878.16	-3.68
878.326	-0.26
878.492	0.02
878.658	-1
878.824	0.74
878.99	1.93
879.156	-3.2
879.322	2.48
879.487	-2.17
879.653	0.58
879.819	0.67
879.985	-0.52
880.151	-0.67
880.317	-1.23
880.483	-2.52
880.648	1.74
880.814	-2.48
880.98	0.17
881.146	-5.07
881.312	-3.41
881.477	-1.2
881.643	1.43
881.809	0.85
881.974	-0.45
882.14	-2.7
882.306	0.75
882.471	1.9
882.637	-1.01
882.803	-0.28
882.968	1.01
883.134	2.67
883.299	-0.75
883.465	-0.49
883.63	-0.35
883.796	1.08
883.961	0.66
884.127	-0.26
884.292	-4.6
884.458	-1.85
884.623	-1.84
