Data from Apollo_Calib_20240827__AbsoluteIrradiance__313__04-22-00-850.txt Node

Date: Wed Aug 28 04:22:00 BST 2024
User: biology
Spectrometer: FLMT08252
Trigger mode: 0
Integration Time (sec): 5.000000E-1
Scans to average: 5
Electric dark correction enabled: true
Nonlinearity correction enabled: false
Boxcar width: 0
XAxis mode: Wavelengths
Number of Pixels in Spectrum: 3648
>>>>>Begin Spectral Data<<<<<
179.588	-0
179.809	-0
180.03	-0
180.251	-0
180.473	-0
180.694	0
180.915	0
181.136	-0
181.357	0
181.578	-0
181.799	-0
182.02	-0
182.241	0
182.462	-0
182.683	0
182.904	-0
183.125	-0
183.346	-0
183.567	-0
183.788	-0
184.009	-0
184.23	0
184.451	0
184.672	-0
184.892	-0
185.113	-0
185.334	0
185.555	-0
185.776	-0
185.996	0
186.217	-0
186.438	-0
186.659	-0
186.879	-0
187.1	-0
187.321	-0
187.541	-0
187.762	0
187.983	0
188.203	-0
188.424	0
188.644	-0
188.865	0
189.086	-0
189.306	-0
189.527	-0
189.747	0
189.968	-0
190.188	0
190.409	0
190.629	0
190.849	-0
191.07	-0
191.29	0
191.511	-0
191.731	-0
191.951	-0
192.172	-0
192.392	-0
192.612	-0
192.833	-0
193.053	-0
193.273	0
193.493	-0
193.714	-0
193.934	0
194.154	0
194.374	-0
194.594	0
194.815	-0
195.035	-0
195.255	-0
195.475	-0
195.695	-0
195.915	0
196.135	-0
196.355	0
196.575	0
196.795	0
197.015	-0
197.235	-0
197.455	-0
197.675	0
197.895	-0
198.115	-0
198.335	-0
198.555	-0
198.775	-0
198.995	0
199.214	0
199.434	0
199.654	-0
199.874	-0
200.094	1.16
200.313	-0.32
200.533	-0.51
200.753	-1.19
200.973	0.95
201.192	0.09
201.412	-1.23
201.632	-1
201.851	0.69
202.071	-0.4
202.291	-0.72
202.51	-0.84
202.73	0.16
202.95	-0.49
203.169	-0.87
203.389	-0.3
203.608	-0.35
203.828	-0.66
204.047	-0.75
204.267	0.01
204.486	-0.11
204.706	0.19
204.925	-0.67
205.145	-0.08
205.364	0.02
205.583	0.46
205.803	-0.38
206.022	-0.98
206.242	-0.3
206.461	0.05
206.68	-0.44
206.9	-0.25
207.119	0.51
207.338	0.08
207.557	-0.41
207.777	-0.1
207.996	-0.59
208.215	0.43
208.434	-0.41
208.654	-0.67
208.873	-0.14
209.092	0.38
209.311	-0.51
209.53	-0.48
209.749	0.01
209.968	-0.38
210.187	-0.2
210.407	-0.54
210.626	-0.09
210.845	0.17
211.064	-0.33
211.283	-0.31
211.502	0.03
211.721	-0.01
211.94	-0.28
212.159	-0.07
212.377	-0.22
212.596	0.25
212.815	-0.11
213.034	-0.08
213.253	0.29
213.472	0.15
213.691	-0.16
213.91	-0.35
214.128	-0.19
214.347	0.15
214.566	-0.36
214.785	-0.37
215.003	0.16
215.222	-0.16
215.441	-0.22
215.66	-0.37
215.878	-0.14
216.097	0.12
216.316	-0.24
216.534	-0.19
216.753	0.11
216.972	-0.17
217.19	0.03
217.409	-0.22
217.627	-0.28
217.846	-0.18
218.064	-0.09
218.283	-0.23
218.501	0.17
218.72	0.08
218.938	-0.1
219.157	-0.21
219.375	0.06
219.594	0.23
219.812	-0.33
220.031	-0.2
220.249	0.24
220.467	0.19
220.686	-0.28
220.904	-0.33
221.122	-0.29
221.341	0.38
221.559	-0.05
221.777	-0.43
221.995	-0.04
222.214	0.02
222.432	-0.18
222.65	-0.01
222.868	-0.07
223.086	0.01
223.305	0.08
223.523	-0.04
223.741	0.25
223.959	-0.29
224.177	-0.28
224.395	-0.27
224.613	0.02
224.831	0.13
225.049	-0.21
225.267	-0.19
225.485	0.02
225.703	-0.13
225.921	-0.11
226.139	-0.09
226.357	-0
226.575	0.1
226.793	-0.08
227.011	0.51
227.229	-0.02
227.447	0.04
227.665	-0.18
227.883	-0.23
228.1	-0.12
228.318	0.03
228.536	-0.32
228.754	-0.29
228.972	0.08
229.189	0.04
229.407	-0.07
229.625	-0.18
229.843	-0.04
230.06	0.12
230.278	-0.2
230.496	-0.21
230.713	0.02
230.931	0.01
231.149	-0.16
231.366	-0.27
231.584	-0
231.801	0.3
232.019	-0.13
232.236	-0.18
232.454	-0.17
232.671	-0.1
232.889	-0.13
233.106	-0.17
233.324	0.06
233.541	-0.02
233.759	-0.05
233.976	-0.1
234.194	-0.09
234.411	-0.08
234.628	-0.26
234.846	-0.13
235.063	-0.03
235.28	-0.03
235.498	-0.08
235.715	-0.13
235.932	0.09
236.149	0.02
236.367	-0.1
236.584	-0.09
236.801	-0.18
237.018	0.03
237.236	0.02
237.453	-0.29
237.67	0.07
237.887	-0.14
238.104	-0.22
238.321	-0.11
238.538	-0.2
238.755	0.07
238.973	-0.27
239.19	0.03
239.407	-0.02
239.624	0.09
239.841	-0.24
240.058	-0.15
240.275	0.11
240.492	-0.04
240.709	-0.07
240.925	-0.11
241.142	-0.06
241.359	-0.18
241.576	-0.18
241.793	-0.24
242.01	0.02
242.227	0.13
242.444	0.1
242.66	-0.05
242.877	0
243.094	-0.11
243.311	-0.05
243.527	-0.02
243.744	-0.02
243.961	0.06
244.178	-0.08
244.394	-0.13
244.611	0.04
244.828	0.23
245.044	-0.11
245.261	-0.03
245.477	-0.07
245.694	0.14
245.911	-0.1
246.127	-0.07
246.344	0.11
246.56	0.02
246.777	-0.13
246.993	-0.05
247.21	-0.02
247.426	0.05
247.643	-0.12
247.859	-0.1
248.076	-0.16
248.292	0.1
248.508	-0.11
248.725	-0.05
248.941	-0.03
249.157	0.11
249.374	-0.08
249.59	0.01
249.806	0
250.023	0.02
250.239	-0.11
250.455	-0.08
250.671	-0.01
250.888	-0.02
251.104	-0.02
251.32	-0.07
251.536	-0.02
251.752	-0.14
251.969	-0.02
252.185	-0.11
252.401	0.15
252.617	0.01
252.833	-0.08
253.049	-0.04
253.265	-0.06
253.481	-0.04
253.697	-0.08
253.913	-0.13
254.129	-0.02
254.345	-0.05
254.561	-0.05
254.777	-0.06
254.993	0.06
255.209	-0
255.425	-0.07
255.641	-0.08
255.857	0.06
256.073	-0.03
256.288	-0.13
256.504	-0.09
256.72	0
256.936	0.09
257.152	-0.07
257.367	-0.06
257.583	-0.02
257.799	0.04
258.015	-0.08
258.23	-0.1
258.446	0.03
258.662	-0.02
258.877	-0.07
259.093	-0.1
259.309	0.04
259.524	0.02
259.74	-0.12
259.955	-0.15
260.171	-0.02
260.387	-0.02
260.602	0.07
260.818	0.02
261.033	-0.14
261.249	-0.09
261.464	-0.11
261.68	-0.11
261.895	-0.08
262.11	-0
262.326	-0.05
262.541	-0.15
262.757	0.06
262.972	-0.01
263.187	-0.01
263.403	-0.01
263.618	0.08
263.833	0
264.049	-0.08
264.264	-0.08
264.479	0.09
264.694	0.11
264.91	-0.15
265.125	-0.02
265.34	0.08
265.555	0.1
265.77	-0.02
265.986	-0.05
266.201	0.03
266.416	0.07
266.631	-0.04
266.846	-0.03
267.061	0.01
267.276	0.04
267.491	-0.21
267.706	0.03
267.921	0.05
268.136	-0.02
268.351	-0
268.566	-0.12
268.781	0.09
268.996	0.07
269.211	-0.07
269.426	-0.07
269.641	-0.05
269.856	0.1
270.071	-0.12
270.285	-0.15
270.5	0.05
270.715	0.06
270.93	-0.04
271.145	-0.02
271.359	-0.04
271.574	-0.03
271.789	-0.06
272.004	-0.08
272.218	-0.1
272.433	0.06
272.648	-0.07
272.862	0.05
273.077	0.01
273.292	-0.07
273.506	-0.09
273.721	-0.06
273.936	-0.02
274.15	0.06
274.365	-0.09
274.579	0.03
274.794	0.04
275.008	0.06
275.223	-0.12
275.437	0.02
275.652	0.03
275.866	0.04
276.081	-0.08
276.295	0.07
276.509	-0.05
276.724	0.06
276.938	-0.04
277.153	-0.01
277.367	-0.01
277.581	-0.07
277.796	-0.1
278.01	-0.09
278.224	0.04
278.438	0.13
278.653	-0.14
278.867	-0.13
279.081	-0.22
279.295	-0.02
279.51	0.04
279.724	-0.1
279.938	0.03
280.152	-0.01
280.366	-0.05
280.58	-0.02
280.794	0.08
281.008	0.01
281.222	0.01
281.437	0.09
281.651	0.02
281.865	0.08
282.079	-0.04
282.293	-0.16
282.507	-0.11
282.721	-0.07
282.935	-0.04
283.148	-0.08
283.362	-0.03
283.576	-0.1
283.79	-0.05
284.004	-0.04
284.218	0.04
284.432	-0.06
284.646	-0.02
284.859	-0.07
285.073	-0.04
285.287	0.01
285.501	-0.02
285.714	-0.06
285.928	-0
286.142	-0.03
286.356	-0.07
286.569	-0.04
286.783	0.03
286.997	-0
287.21	-0.02
287.424	0.02
287.637	0.01
287.851	-0.05
288.065	-0.02
288.278	-0.01
288.492	-0.02
288.705	-0.01
288.919	0.04
289.132	-0.04
289.346	-0.02
289.559	-0.13
289.773	-0.04
289.986	-0.01
290.2	-0.05
290.413	0.03
290.626	-0.04
290.84	-0.06
291.053	-0.04
291.267	0.04
291.48	-0
291.693	0.02
291.906	-0.05
292.12	-0.09
292.333	-0.04
292.546	-0.06
292.76	0.1
292.973	0.01
293.186	0
293.399	-0.05
293.612	0.07
293.826	0.01
294.039	0.01
294.252	-0.05
294.465	-0.01
294.678	0.05
294.891	-0.03
295.104	-0.04
295.317	-0.01
295.53	0.03
295.743	-0.01
295.956	-0.04
296.169	0.06
296.382	0.04
296.595	-0.03
296.808	-0.04
297.021	0.03
297.234	0.06
297.447	-0.02
297.66	-0.01
297.873	0.09
298.086	0.03
298.299	-0.03
298.511	-0.07
298.724	-0.05
298.937	-0.02
299.15	-0.07
299.363	-0.03
299.575	0.06
299.788	0.02
300.001	-0.02
300.213	-0.06
300.426	-0.05
300.639	-0.01
300.852	-0.03
301.064	0
301.277	0.04
301.489	-0.01
301.702	-0
301.915	-0
302.127	-0
302.34	-0
302.552	-0.02
302.765	-0.05
302.977	0.05
303.19	-0.05
303.402	-0.03
303.615	-0.02
303.827	-0.01
304.04	-0.02
304.252	0.02
304.464	-0.01
304.677	0.09
304.889	0.02
305.102	-0.07
305.314	0
305.526	0.05
305.739	0.02
305.951	-0.02
306.163	0.02
306.375	0.07
306.588	-0.04
306.8	-0.04
307.012	-0.08
307.224	-0.02
307.436	0.05
307.649	-0.04
307.861	0.01
308.073	-0
308.285	-0.05
308.497	-0.08
308.709	-0.01
308.921	0
309.133	0.01
309.346	-0
309.558	-0.01
309.77	0
309.982	0.09
310.194	-0.01
310.406	-0.04
310.617	0.06
310.829	-0.01
311.041	-0.01
311.253	-0.07
311.465	-0.03
311.677	-0.02
311.889	0.02
312.101	-0.02
312.313	0
312.524	0.07
312.736	-0.07
312.948	-0.01
313.16	0.09
313.372	0.02
313.583	0.01
313.795	-0.01
314.007	-0.04
314.218	0.03
314.43	-0.03
314.642	-0.06
314.853	-0.08
315.065	0.04
315.277	-0.01
315.488	-0
315.7	0.02
315.912	-0.01
316.123	-0.05
316.335	-0
316.546	0.06
316.758	-0.04
316.969	-0.02
317.181	-0
317.392	0.01
317.604	0.02
317.815	-0.07
318.026	-0.08
318.238	-0.03
318.449	0.02
318.661	-0.08
318.872	-0.08
319.083	-0.07
319.295	0
319.506	-0.05
319.717	-0
319.929	0.01
320.14	-0.01
320.351	0.01
320.562	-0.04
320.774	0.01
320.985	0.01
321.196	-0.07
321.407	-0.08
321.618	0.03
321.829	0
322.041	0.01
322.252	-0.02
322.463	0.03
322.674	-0
322.885	-0.06
323.096	-0.03
323.307	-0.03
323.518	0.02
323.729	-0.06
323.94	-0.02
324.151	-0.03
324.362	0.03
324.573	-0
324.784	-0.04
324.995	0.04
325.206	0.01
325.417	-0.02
325.628	0.01
325.838	-0.01
326.049	-0.01
326.26	0.02
326.471	-0.03
326.682	-0.01
326.892	-0.01
327.103	-0.1
327.314	-0.08
327.525	0.06
327.735	0.04
327.946	-0.05
328.157	-0.07
328.368	0
328.578	-0.02
328.789	-0.04
328.999	0.02
329.21	-0.03
329.421	0.05
329.631	-0.1
329.842	-0.06
330.052	0.03
330.263	0.02
330.473	-0.02
330.684	0
330.894	-0.05
331.105	-0.01
331.315	0.01
331.526	-0.06
331.736	0.07
331.947	0
332.157	0.02
332.367	-0.06
332.578	-0.01
332.788	0.04
332.999	0.02
333.209	-0.03
333.419	-0.07
333.629	0.03
333.84	-0.01
334.05	0.01
334.26	0.06
334.47	0.04
334.681	0.06
334.891	-0.06
335.101	0.03
335.311	0.05
335.521	0
335.732	-0.03
335.942	0.05
336.152	0.02
336.362	0.03
336.572	0.02
336.782	0.05
336.992	-0.03
337.202	-0.01
337.412	-0.07
337.622	0.04
337.832	0.02
338.042	-0.01
338.252	-0.06
338.462	-0.03
338.672	-0.01
338.882	-0.05
339.092	-0.06
339.302	0.08
339.511	0.03
339.721	-0.04
339.931	-0.07
340.141	0.01
340.351	0.03
340.561	-0
340.77	-0
340.98	-0
341.19	-0
341.4	-0.04
341.609	-0.04
341.819	-0.03
342.029	-0.01
342.238	-0.01
342.448	-0.04
342.658	0.03
342.867	-0.04
343.077	0
343.286	0.01
343.496	0
343.706	0.06
343.915	-0.08
344.125	-0.01
344.334	-0
344.544	-0.09
344.753	-0.03
344.963	-0.05
345.172	-0.06
345.381	-0.02
345.591	-0.06
345.8	-0.01
346.01	0.07
346.219	0.05
346.428	-0.13
346.638	-0.01
346.847	0.01
347.056	0.03
347.266	-0.03
347.475	-0.02
347.684	0.02
347.893	0.03
348.103	-0.02
348.312	-0.02
348.521	0.01
348.73	-0
348.94	-0
349.149	0.01
349.358	-0.03
349.567	-0.04
349.776	-0.06
349.985	-0.04
350.194	0.03
350.403	0.04
350.612	-0.04
350.821	-0.04
351.03	-0.04
351.239	-0.06
351.448	-0.01
351.657	-0.04
351.866	0.04
352.075	0.04
352.284	0.04
352.493	-0.05
352.702	0.01
352.911	0.02
353.12	-0.03
353.329	-0.01
353.538	-0
353.746	-0.03
353.955	-0.05
354.164	-0.01
354.373	-0.02
354.582	0.06
354.79	0.01
354.999	-0.02
355.208	0
355.416	0.07
355.625	-0.06
355.834	-0.02
356.042	-0.03
356.251	-0.02
356.46	-0.1
356.668	0.01
356.877	0.11
357.085	0.05
357.294	-0.07
357.503	0.01
357.711	-0.04
357.92	0.09
358.128	0.01
358.337	-0.05
358.545	0.02
358.754	-0.04
358.962	0.02
359.17	-0.01
359.379	0.01
359.587	0.03
359.796	-0.01
360.004	0.04
360.212	-0.01
360.421	0.05
360.629	-0.01
360.837	-0.01
361.046	0.03
361.254	0.09
361.462	0
361.67	-0.02
361.879	-0.01
362.087	0.05
362.295	-0.01
362.503	-0.01
362.711	-0.05
362.92	-0.02
363.128	-0.03
363.336	-0.07
363.544	-0.08
363.752	-0.03
363.96	-0.02
364.168	-0.04
364.376	-0.02
364.584	0.01
364.792	0.03
365	0.03
365.208	0.01
365.416	0.03
365.624	0.01
365.832	-0.04
366.04	0.03
366.248	0.02
366.456	-0.01
366.664	0.01
366.872	0.01
367.079	-0.02
367.287	-0.06
367.495	0.02
367.703	-0.03
367.911	-0.05
368.118	-0.01
368.326	-0.05
368.534	-0.03
368.742	0.06
368.949	-0.03
369.157	-0.05
369.365	0.03
369.572	-0.03
369.78	-0.05
369.988	0.04
370.195	0.03
370.403	0.01
370.61	-0.04
370.818	-0
371.026	0.01
371.233	-0.06
371.441	-0
371.648	-0.04
371.856	0
372.063	0.01
372.271	-0.06
372.478	-0.04
372.685	-0.01
372.893	0.02
373.1	-0.03
373.308	-0.02
373.515	0.07
373.722	0.02
373.93	-0.05
374.137	0.03
374.344	0.02
374.552	0
374.759	0.01
374.966	0.04
375.173	-0.02
375.381	0
375.588	0
375.795	-0.11
376.002	-0.02
376.209	-0.03
376.417	-0.06
376.624	0.01
376.831	0.02
377.038	-0.05
377.245	-0.07
377.452	-0.01
377.659	-0.03
377.866	-0.04
378.073	-0.07
378.28	-0.01
378.487	0.02
378.694	0.03
378.901	-0.03
379.108	-0
379.315	0.02
379.522	0.08
379.729	0.01
379.936	-0.02
380.143	0.01
380.35	0.04
380.557	-0.04
380.763	0.01
380.97	-0.02
381.177	-0.01
381.384	-0.01
381.591	-0.05
381.797	0.02
382.004	0.02
382.211	-0.01
382.418	-0.03
382.624	0.04
382.831	0.01
383.038	-0.01
383.244	0
383.451	-0.02
383.658	-0
383.864	0
384.071	-0.05
384.277	0.07
384.484	-0.03
384.69	0.03
384.897	-0.06
385.103	-0.03
385.31	-0.03
385.516	-0.04
385.723	-0.06
385.929	-0.01
386.136	-0.04
386.342	0.01
386.549	-0.05
386.755	0.04
386.961	0.01
387.168	-0.02
387.374	0.01
387.58	0.03
387.787	-0.05
387.993	-0.01
388.199	0.01
388.406	-0.05
388.612	-0
388.818	-0.06
389.024	-0.01
389.231	0.03
389.437	0.08
389.643	0.03
389.849	-0
390.055	-0.03
390.261	-0.01
390.467	0.04
390.674	-0.08
390.88	-0
391.086	-0
391.292	-0.03
391.498	0.01
391.704	-0.03
391.91	-0.02
392.116	-0.07
392.322	-0.09
392.528	0.01
392.734	0.01
392.94	-0.03
393.146	-0.05
393.352	0.01
393.557	-0.01
393.763	-0.05
393.969	0.03
394.175	0
394.381	0.02
394.587	-0.07
394.792	-0.06
394.998	0.05
395.204	0.05
395.41	-0.07
395.615	-0.01
395.821	0.01
396.027	-0.02
396.233	-0.04
396.438	-0.01
396.644	0.07
396.85	0.02
397.055	0
397.261	0.03
397.466	0.07
397.672	0.01
397.878	0
398.083	0.03
398.289	-0.02
398.494	0.02
398.7	0.01
398.905	-0.08
399.111	0.1
399.316	-0.08
399.522	-0.02
399.727	0.01
399.932	-0.04
400.138	-0
400.343	-0.01
400.549	-0.01
400.754	0.02
400.959	0.01
401.165	-0.03
401.37	0.04
401.575	-0.07
401.78	-0
401.986	-0.03
402.191	-0.03
402.396	-0.03
402.601	0.01
402.807	-0.04
403.012	-0.01
403.217	0.01
403.422	-0.08
403.627	-0.05
403.832	-0.07
404.037	0.01
404.243	-0.01
404.448	-0.03
404.653	-0.01
404.858	0
405.063	0.04
405.268	-0.02
405.473	-0.08
405.678	-0.06
405.883	0.12
406.088	0.05
406.293	-0.01
406.498	-0.06
406.703	0.01
406.907	-0.01
407.112	-0.06
407.317	0
407.522	0.02
407.727	-0.05
407.932	-0.01
408.136	0.02
408.341	0
408.546	-0.03
408.751	-0.01
408.956	-0.01
409.16	0.03
409.365	-0.01
409.57	-0.03
409.774	-0.02
409.979	0.05
410.184	0.04
410.388	-0.04
410.593	0.03
410.798	0.01
411.002	-0.01
411.207	0.02
411.411	-0.03
411.616	-0.03
411.82	0.01
412.025	0.01
412.229	-0.03
412.434	0.09
412.638	0.02
412.843	-0
413.047	0.01
413.252	0.01
413.456	-0.02
413.66	0.04
413.865	0.02
414.069	0.09
414.273	-0.01
414.478	-0.04
414.682	0.02
414.886	0
415.091	-0.02
415.295	-0.07
415.499	0.04
415.703	-0
415.908	0.04
416.112	-0.1
416.316	0.04
416.52	0.01
416.724	-0.01
416.929	-0.02
417.133	0.11
417.337	0.03
417.541	-0.02
417.745	-0.01
417.949	0.04
418.153	0.01
418.357	-0.04
418.561	0.1
418.765	0.04
418.969	0.13
419.173	0.08
419.377	0.03
419.581	0.15
419.785	0.01
419.989	-0.01
420.193	0.03
420.397	0.04
420.601	0.12
420.804	0.09
421.008	0.04
421.212	0.08
421.416	0.11
421.62	0.08
421.823	0.06
422.027	0.17
422.231	0.11
422.435	0.09
422.638	0.06
422.842	0.11
423.046	0.1
423.249	0.13
423.453	0.09
423.657	0.16
423.86	0.11
424.064	0.08
424.268	0.21
424.471	0.11
424.675	0.21
424.878	0.23
425.082	0.16
425.285	0.21
425.489	0.17
425.692	0.21
425.896	0.11
426.099	0.19
426.303	0.13
426.506	0.11
426.71	0.2
426.913	0.3
427.116	0.27
427.32	0.23
427.523	0.23
427.726	0.28
427.93	0.22
428.133	0.24
428.336	0.23
428.54	0.24
428.743	0.3
428.946	0.29
429.149	0.27
429.353	0.3
429.556	0.31
429.759	0.28
429.962	0.3
430.165	0.36
430.368	0.25
430.571	0.29
430.775	0.4
430.978	0.3
431.181	0.36
431.384	0.38
431.587	0.39
431.79	0.38
431.993	0.36
432.196	0.37
432.399	0.4
432.602	0.46
432.805	0.38
433.008	0.45
433.211	0.4
433.414	0.5
433.616	0.48
433.819	0.46
434.022	0.37
434.225	0.53
434.428	0.5
434.631	0.63
434.833	0.51
435.036	0.48
435.239	0.56
435.442	0.55
435.645	0.55
435.847	0.58
436.05	0.67
436.253	0.66
436.455	0.6
436.658	0.6
436.861	0.71
437.063	0.63
437.266	0.66
437.468	0.74
437.671	0.87
437.874	0.76
438.076	0.65
438.279	0.71
438.481	0.83
438.684	0.83
438.886	0.79
439.089	0.8
439.291	0.9
439.494	0.92
439.696	0.89
439.899	1
440.101	1.09
440.303	0.99
440.506	1.13
440.708	1.16
440.91	1.17
441.113	1.12
441.315	1.24
441.517	1.14
441.72	1.39
441.922	1.29
442.124	1.32
442.326	1.35
442.529	1.41
442.731	1.34
442.933	1.55
443.135	1.45
443.337	1.48
443.539	1.54
443.742	1.53
443.944	1.66
444.146	1.58
444.348	1.66
444.55	1.6
444.752	1.75
444.954	1.66
445.156	1.8
445.358	1.74
445.56	2
445.762	1.83
445.964	1.97
446.166	1.92
446.368	1.97
446.57	2
446.772	1.97
446.974	1.95
447.175	2.02
447.377	2
447.579	2.05
447.781	2.01
447.983	2.12
448.184	2.01
448.386	2.08
448.588	1.96
448.79	2.07
448.991	2
449.193	2.09
449.395	2.05
449.597	1.97
449.798	1.98
450	1.96
450.202	1.91
450.403	1.86
450.605	1.99
450.806	1.83
451.008	1.8
451.21	1.82
451.411	1.82
451.613	1.62
451.814	1.75
452.016	1.77
452.217	1.62
452.419	1.62
452.62	1.54
452.821	1.57
453.023	1.56
453.224	1.52
453.426	1.45
453.627	1.33
453.828	1.3
454.03	1.29
454.231	1.35
454.432	1.24
454.634	1.32
454.835	1.15
455.036	1.05
455.238	1.18
455.439	1.15
455.64	1.02
455.841	0.93
456.042	1.13
456.244	1
456.445	0.91
456.646	0.86
456.847	0.85
457.048	0.87
457.249	0.91
457.45	1.12
457.651	0.69
457.852	0.8
458.054	0.74
458.255	0.71
458.456	0.76
458.657	0.71
458.858	0.63
459.058	0.63
459.259	0.71
459.46	0.68
459.661	0.59
459.862	0.75
460.063	0.54
460.264	0.71
460.465	0.49
460.666	0.69
460.866	0.53
461.067	0.55
461.268	0.53
461.469	0.51
461.67	0.45
461.87	0.47
462.071	0.46
462.272	0.47
462.473	0.47
462.673	0.52
462.874	0.4
463.075	0.45
463.275	0.4
463.476	0.46
463.676	0.48
463.877	0.48
464.078	0.41
464.278	0.45
464.479	0.43
464.679	0.39
464.88	0.39
465.08	0.52
465.281	0.36
465.481	0.35
465.682	0.32
465.882	0.42
466.083	0.34
466.283	0.31
466.483	0.28
466.684	0.26
466.884	0.29
467.085	0.29
467.285	0.33
467.485	0.22
467.686	0.27
467.886	0.2
468.086	0.23
468.286	0.23
468.487	0.26
468.687	0.21
468.887	0.2
469.087	0.29
469.287	0.27
469.488	0.18
469.688	0.18
469.888	0.22
470.088	0.24
470.288	0.25
470.488	0.23
470.688	0.11
470.888	0.12
471.088	0.09
471.288	0.18
471.488	0.18
471.688	0.21
471.888	0.11
472.088	0.23
472.288	0.18
472.488	0.09
472.688	0.11
472.888	0.13
473.088	0.16
473.288	0.14
473.488	0.11
473.688	0.19
473.887	0.17
474.087	0.08
474.287	0.08
474.487	0.06
474.687	0.13
474.886	0.08
475.086	0.09
475.286	0.08
475.486	0.09
475.685	0.1
475.885	0.08
476.085	0.06
476.284	0.12
476.484	0.04
476.684	0.1
476.883	0.13
477.083	0.07
477.282	0.07
477.482	0.13
477.681	0.13
477.881	0.07
478.08	0.01
478.28	0.05
478.479	0.05
478.679	0.12
478.878	0.02
479.078	0.05
479.277	0.07
479.477	0.06
479.676	0.1
479.875	0.05
480.075	-0.03
480.274	0.08
480.473	0.07
480.673	0.03
480.872	0.09
481.071	0.03
481.271	0.08
481.47	0.01
481.669	0.04
481.868	0.02
482.067	-0.02
482.267	0.03
482.466	0.01
482.665	0.01
482.864	-0.01
483.063	0.02
483.262	0.05
483.461	0.08
483.661	0.1
483.86	0
484.059	0.07
484.258	0.05
484.457	0.02
484.656	0.05
484.855	0.07
485.054	-0.01
485.253	0.02
485.452	-0.01
485.651	0.03
485.849	0
486.048	0.02
486.247	-0.01
486.446	0.03
486.645	-0.02
486.844	-0.02
487.043	0.02
487.241	0.05
487.44	0.01
487.639	0.01
487.838	0.04
488.037	0.06
488.235	0.05
488.434	0.02
488.633	-0.03
488.831	0
489.03	0.05
489.229	0
489.427	-0.01
489.626	0.06
489.825	0.06
490.023	0.01
490.222	-0.01
490.42	0.03
490.619	0.04
490.817	0.01
491.016	-0.02
491.214	0.06
491.413	-0.02
491.611	0.01
491.81	0.01
492.008	0.01
492.207	0.02
492.405	0.03
492.604	-0.01
492.802	0.01
493	-0
493.199	-0.01
493.397	0.01
493.595	0.02
493.794	-0.01
493.992	0.05
494.19	0.01
494.388	0.02
494.587	-0.01
494.785	-0
494.983	-0.04
495.181	0
495.379	0.01
495.578	0.01
495.776	-0
495.974	0.02
496.172	-0
496.37	0
496.568	-0.03
496.766	0
496.964	0.04
497.162	0.01
497.36	-0.01
497.558	0.01
497.756	0
497.954	0.01
498.152	-0.03
498.35	-0.01
498.548	-0.01
498.746	-0.01
498.944	-0.03
499.142	0
499.34	-0.03
499.538	-0.01
499.736	-0.02
499.933	0.02
500.131	0.03
500.329	0.02
500.527	0.03
500.725	0.04
500.922	0.01
501.12	0.01
501.318	-0.01
501.516	-0.03
501.713	0
501.911	0.01
502.109	-0.04
502.306	0.02
502.504	0
502.701	-0.03
502.899	-0.01
503.097	0.04
503.294	-0
503.492	0
503.689	0.02
503.887	0.04
504.084	0.06
504.282	0.01
504.479	-0.03
504.677	0
504.874	-0.03
505.072	-0.01
505.269	0
505.466	0.01
505.664	-0
505.861	-0.04
506.059	-0.02
506.256	0.01
506.453	-0.02
506.651	0.03
506.848	0.03
507.045	0.01
507.242	-0.01
507.44	-0.01
507.637	0.01
507.834	-0.02
508.031	0.03
508.229	-0.04
508.426	-0
508.623	0.01
508.82	-0.01
509.017	-0.04
509.214	-0.02
509.411	0
509.608	-0.03
509.805	0
510.003	-0.02
510.2	-0.03
510.397	0.05
510.594	-0.02
510.791	-0.01
510.988	-0.02
511.184	0
511.381	-0.01
511.578	-0.01
511.775	0.02
511.972	-0.02
512.169	-0.01
512.366	0
512.563	-0
512.76	-0.03
512.956	0.02
513.153	-0.01
513.35	-0.01
513.547	-0.01
513.744	-0.04
513.94	-0.03
514.137	0
514.334	-0.01
514.53	-0.01
514.727	0.01
514.924	0.04
515.12	-0.01
515.317	-0.02
515.514	-0.01
515.71	-0.03
515.907	-0.01
516.103	0
516.3	0
516.497	0.03
516.693	0.04
516.89	-0.02
517.086	-0.05
517.283	0.01
517.479	0.01
517.676	-0.03
517.872	-0.03
518.068	-0.01
518.265	-0.03
518.461	-0.03
518.658	-0.04
518.854	-0.01
519.05	-0.02
519.247	-0.03
519.443	0.01
519.639	0.01
519.836	0.01
520.032	0
520.228	-0
520.424	0.02
520.621	0.03
520.817	-0.01
521.013	-0
521.209	0.01
521.405	0.02
521.601	-0
521.798	-0.01
521.994	0.02
522.19	-0.02
522.386	-0.05
522.582	-0.01
522.778	-0.01
522.974	-0.03
523.17	-0.01
523.366	0.01
523.562	0.02
523.758	-0.02
523.954	-0.03
524.15	-0.01
524.346	0.01
524.542	-0.02
524.738	-0.02
524.934	-0.01
525.129	-0.02
525.325	-0.01
525.521	-0.02
525.717	0.01
525.913	-0.01
526.109	0
526.304	-0.01
526.5	0.02
526.696	0.03
526.892	-0.01
527.087	-0.01
527.283	-0.04
527.479	0.01
527.674	-0.01
527.87	-0.01
528.066	-0.02
528.261	0.01
528.457	-0.01
528.653	-0.01
528.848	-0.01
529.044	-0.01
529.239	-0.01
529.435	0.02
529.63	0.01
529.826	0.05
530.021	-0
530.217	0.02
530.412	-0.01
530.608	-0.04
530.803	-0.01
530.999	-0.02
531.194	-0.06
531.389	0
531.585	-0.06
531.78	-0.03
531.975	-0.02
532.171	0.02
532.366	0.01
532.561	-0.01
532.757	-0.04
532.952	-0.02
533.147	0.01
533.342	-0
533.538	-0
533.733	0.04
533.928	0.01
534.123	-0.02
534.318	-0.06
534.513	0
534.709	-0.02
534.904	-0.01
535.099	-0.03
535.294	-0.02
535.489	-0.01
535.684	0
535.879	-0.04
536.074	-0.01
536.269	-0.03
536.464	-0.01
536.659	-0.03
536.854	-0.02
537.049	-0.02
537.244	-0
537.439	0
537.634	0.03
537.828	-0
538.023	-0.02
538.218	-0.05
538.413	-0.02
538.608	-0.06
538.803	-0
538.997	-0.05
539.192	0
539.387	0
539.582	0.01
539.776	-0.01
539.971	-0
540.166	-0.02
540.36	-0.05
540.555	-0.01
540.75	-0.02
540.944	-0.01
541.139	-0.05
541.334	-0.01
541.528	0
541.723	0.01
541.917	-0.02
542.112	-0.05
542.306	-0.02
542.501	-0.02
542.695	-0.01
542.89	-0.01
543.084	-0
543.279	-0.03
543.473	0
543.668	-0.03
543.862	-0.02
544.056	0.01
544.251	-0.01
544.445	0.02
544.64	-0.01
544.834	-0.03
545.028	-0.02
545.222	0.01
545.417	0.03
545.611	-0.01
545.805	-0.02
546	-0.03
546.194	-0.01
546.388	-0.03
546.582	0.01
546.776	0
546.97	-0.02
547.165	0.01
547.359	0.02
547.553	-0.03
547.747	-0.01
547.941	-0
548.135	0.01
548.329	-0.01
548.523	0.01
548.717	-0.02
548.911	-0.02
549.105	-0.02
549.299	0
549.493	-0
549.687	0.01
549.881	0.03
550.075	-0.01
550.269	-0.05
550.463	-0
550.657	-0.02
550.85	-0.01
551.044	-0.02
551.238	-0
551.432	-0.02
551.626	-0.02
551.82	-0.01
552.013	-0.03
552.207	0
552.401	0
552.594	-0
552.788	-0.01
552.982	-0.01
553.176	-0.03
553.369	-0
553.563	0.02
553.756	-0.04
553.95	-0.05
554.144	-0.01
554.337	-0.01
554.531	-0.01
554.724	-0.01
554.918	-0.01
555.111	0.01
555.305	-0.01
555.498	0.04
555.692	0.03
555.885	-0.02
556.079	-0.01
556.272	-0.01
556.466	0.01
556.659	0
556.852	-0.02
557.046	-0.04
557.239	0.02
557.432	-0.04
557.626	-0.04
557.819	-0.01
558.012	0.02
558.206	0.01
558.399	-0.01
558.592	-0.01
558.785	-0.01
558.979	0
559.172	-0.02
559.365	0
559.558	0.02
559.751	-0.01
559.944	0.01
560.138	-0.01
560.331	-0.02
560.524	-0.02
560.717	-0.03
560.91	-0
561.103	0.01
561.296	-0.01
561.489	0.01
561.682	0.02
561.875	0.02
562.068	-0.01
562.261	0
562.454	0.05
562.647	0
562.84	0
563.032	-0.01
563.225	-0.01
563.418	-0.02
563.611	0.02
563.804	-0.01
563.997	-0.03
564.19	-0.05
564.382	-0.02
564.575	-0.01
564.768	0
564.961	-0.02
565.153	-0.03
565.346	0.01
565.539	0.03
565.731	0
565.924	0
566.117	0.02
566.309	-0.01
566.502	-0.02
566.695	-0.02
566.887	0
567.08	-0.03
567.272	-0.03
567.465	-0.04
567.657	-0.01
567.85	-0.01
568.042	0.01
568.235	0.02
568.427	-0.01
568.62	-0
568.812	0.01
569.005	-0.01
569.197	-0.04
569.389	0
569.582	-0.04
569.774	-0
569.966	-0.04
570.159	-0.06
570.351	0.01
570.543	-0.01
570.736	-0.01
570.928	-0.02
571.12	-0.01
571.312	-0.02
571.505	-0.05
571.697	0.03
571.889	-0.03
572.081	-0.02
572.273	-0.02
572.465	0.04
572.658	-0.04
572.85	-0.01
573.042	-0.03
573.234	0
573.426	0.03
573.618	-0.05
573.81	-0
574.002	0.04
574.194	0.02
574.386	-0.04
574.578	-0.1
574.77	-0.03
574.962	0
575.154	-0.06
575.346	-0.02
575.538	0.02
575.729	-0.02
575.921	-0.05
576.113	-0.02
576.305	0.02
576.497	0
576.689	-0.03
576.88	-0.03
577.072	0
577.264	-0.01
577.456	-0.03
577.647	-0.09
577.839	0
578.031	0.04
578.223	-0.07
578.414	-0.03
578.606	0.01
578.798	0
578.989	-0.02
579.181	-0.01
579.372	0.01
579.564	-0.02
579.755	-0.02
579.947	-0.02
580.139	0.01
580.33	-0.06
580.522	-0.03
580.713	-0.09
580.905	-0.01
581.096	0
581.287	-0.03
581.479	-0.04
581.67	0.02
581.862	-0
582.053	-0.04
582.244	-0.06
582.436	-0.02
582.627	-0
582.818	-0.04
583.01	-0.05
583.201	-0.01
583.392	0.03
583.583	0.01
583.775	-0.02
583.966	-0.03
584.157	-0
584.348	-0.01
584.54	-0.06
584.731	0.02
584.922	-0.03
585.113	-0.06
585.304	-0
585.495	0
585.686	-0.02
585.877	0.01
586.068	0.02
586.259	0.01
586.45	0.01
586.641	-0.04
586.832	-0.07
587.023	-0.01
587.214	-0.01
587.405	-0.03
587.596	-0.05
587.787	0.02
587.978	-0.02
588.169	-0.04
588.36	-0.02
588.551	0.03
588.742	-0.05
588.932	0
589.123	-0.01
589.314	0.02
589.505	0
589.696	-0.02
589.886	-0.04
590.077	-0.05
590.268	0.02
590.458	-0.07
590.649	-0.06
590.84	0.03
591.03	-0.05
591.221	-0.07
591.412	-0.04
591.602	0.01
591.793	0.02
591.984	-0.07
592.174	-0.05
592.365	0.06
592.555	-0.01
592.746	-0.01
592.936	0.01
593.127	0.01
593.317	0.03
593.508	-0.04
593.698	-0.05
593.889	-0.02
594.079	0.02
594.269	-0.02
594.46	-0
594.65	-0.03
594.84	-0.01
595.031	-0.05
595.221	-0.05
595.411	-0.04
595.602	0
595.792	-0.03
595.982	-0.02
596.172	0.03
596.363	-0.01
596.553	-0.02
596.743	-0.03
596.933	0
597.123	0.04
597.314	-0.01
597.504	-0.05
597.694	0.01
597.884	0.01
598.074	-0.04
598.264	-0.04
598.454	0.01
598.644	-0.02
598.834	-0.03
599.024	-0.05
599.214	-0.03
599.404	0
599.594	-0.01
599.784	-0.03
599.974	0.04
600.164	0.02
600.354	-0.05
600.544	-0.08
600.734	0.01
600.924	0.03
601.114	-0.03
601.303	-0
601.493	0.01
601.683	-0.02
601.873	0.01
602.063	-0.08
602.252	0.04
602.442	-0.09
602.632	-0.04
602.821	-0.04
603.011	-0.01
603.201	-0.02
603.39	-0.05
603.58	-0.05
603.77	0.03
603.959	0.03
604.149	-0.01
604.339	-0.03
604.528	0.02
604.718	0.01
604.907	-0
605.097	-0.05
605.286	-0.08
605.476	-0.01
605.665	0.03
605.855	-0.03
606.044	0.03
606.234	-0.03
606.423	-0.02
606.612	-0.05
606.802	-0
606.991	0.02
607.181	0.01
607.37	-0.05
607.559	-0.03
607.749	-0.06
607.938	-0.02
608.127	-0.04
608.316	-0.05
608.506	0.01
608.695	-0.02
608.884	-0.03
609.073	-0.01
609.263	-0.01
609.452	-0.01
609.641	-0.06
609.83	-0.04
610.019	-0.01
610.208	-0.05
610.397	-0.03
610.586	0.02
610.775	-0.02
610.965	-0.04
611.154	-0.04
611.343	-0.01
611.532	0.01
611.721	-0.06
611.91	-0.05
612.099	0.01
612.287	-0.02
612.476	-0.07
612.665	-0.02
612.854	-0.05
613.043	0.02
613.232	-0.04
613.421	-0.08
613.61	-0.01
613.798	-0.05
613.987	0
614.176	-0.02
614.365	0.01
614.554	-0
614.742	0.01
614.931	-0.04
615.12	0.02
615.309	-0.03
615.497	0.02
615.686	-0.04
615.875	-0.04
616.063	-0
616.252	-0.04
616.44	-0.02
616.629	-0.01
616.818	-0.01
617.006	-0.03
617.195	-0.04
617.383	0.01
617.572	-0.02
617.76	-0.01
617.949	-0.01
618.137	-0.01
618.326	0.03
618.514	-0.02
618.703	-0.06
618.891	0.02
619.079	-0.06
619.268	-0.01
619.456	-0.07
619.644	0.05
619.833	-0.05
620.021	-0.04
620.209	-0.1
620.398	0.02
620.586	-0.02
620.774	-0
620.962	-0.05
621.151	0.04
621.339	-0.02
621.527	-0.08
621.715	-0.05
621.903	-0.04
622.092	-0.04
622.28	-0.03
622.468	-0.04
622.656	-0.03
622.844	0.03
623.032	-0.05
623.22	-0.08
623.408	0
623.596	0
623.784	-0.02
623.972	-0.05
624.16	-0.03
624.348	0.04
624.536	-0.06
624.724	-0.04
624.912	0.05
625.1	-0
625.288	-0.06
625.476	-0.03
625.664	0.03
625.851	-0.05
626.039	-0.02
626.227	-0.01
626.415	-0.02
626.603	-0.1
626.79	-0.02
626.978	-0.04
627.166	0.03
627.354	-0.05
627.541	-0.03
627.729	-0.1
627.917	-0
628.104	0.06
628.292	-0.03
628.48	-0.05
628.667	-0.01
628.855	-0.01
629.042	0.01
629.23	-0.01
629.418	-0.04
629.605	-0.04
629.793	-0.06
629.98	-0.05
630.168	-0.03
630.355	-0.02
630.543	0
630.73	-0.06
630.917	0.03
631.105	0.03
631.292	-0.05
631.48	-0.03
631.667	0.05
631.854	-0.02
632.042	-0.02
632.229	-0.1
632.416	-0.03
632.604	0
632.791	-0.07
632.978	-0
633.165	-0.01
633.353	0.06
633.54	0.02
633.727	-0.1
633.914	-0
634.101	-0.09
634.289	0.01
634.476	-0.05
634.663	-0.05
634.85	0.02
635.037	-0.06
635.224	-0.08
635.411	0.01
635.598	-0
635.785	-0.03
635.972	-0.05
636.159	0.03
636.346	-0.07
636.533	-0.02
636.72	-0.02
636.907	0.01
637.094	-0.01
637.281	-0.05
637.468	0.01
637.655	-0.02
637.842	0.01
638.029	-0.06
638.215	0
638.402	-0.03
638.589	-0.05
638.776	-0.02
638.963	-0.05
639.149	0.03
639.336	0.06
639.523	-0.04
639.709	-0.01
639.896	-0.05
640.083	-0.01
640.27	-0
640.456	-0.03
640.643	0.01
640.829	-0.08
641.016	-0.03
641.203	-0.07
641.389	0.02
641.576	-0.01
641.762	-0.01
641.949	-0.06
642.135	-0.01
642.322	0.01
642.508	-0.06
642.695	-0.04
642.881	-0.05
643.068	-0.02
643.254	-0.03
643.441	0
643.627	-0.02
643.813	-0.04
644	0.02
644.186	-0.04
644.372	0
644.559	0.02
644.745	-0.05
644.931	-0.05
645.118	-0.02
645.304	-0.03
645.49	-0.07
645.676	-0.02
645.862	0
646.049	0.03
646.235	-0.03
646.421	0.05
646.607	0.05
646.793	-0.04
646.979	-0.05
647.165	-0.02
647.352	-0.02
647.538	0.01
647.724	-0.01
647.91	-0.04
648.096	-0.01
648.282	-0
648.468	-0.02
648.654	-0.02
648.84	-0.02
649.026	0
649.212	-0.03
649.397	-0.05
649.583	-0.08
649.769	-0
649.955	-0
650.141	0.01
650.327	0.02
650.513	-0.07
650.698	0.01
650.884	-0.07
651.07	-0
651.256	-0
651.442	-0.03
651.627	-0.04
651.813	-0.01
651.999	0
652.184	-0.02
652.37	-0.04
652.556	-0.05
652.741	0.04
652.927	-0.08
653.113	-0.05
653.298	-0
653.484	-0.04
653.669	-0.07
653.855	0
654.04	-0.03
654.226	-0.04
654.412	-0.03
654.597	-0.09
654.782	-0
654.968	0
655.153	-0.06
655.339	-0.04
655.524	-0.07
655.71	0.02
655.895	-0.03
656.08	-0.02
656.266	0.03
656.451	-0.03
656.636	-0.06
656.822	-0.01
657.007	-0.06
657.192	-0.05
657.378	-0.07
657.563	-0.03
657.748	-0
657.933	-0.01
658.118	-0.04
658.304	-0.03
658.489	0.03
658.674	0.01
658.859	-0.04
659.044	-0.01
659.229	-0.03
659.414	-0.03
659.599	-0.05
659.785	-0.09
659.97	-0.08
660.155	-0.02
660.34	-0.02
660.525	-0.02
660.71	-0.05
660.895	0.04
661.08	-0.03
661.264	-0.07
661.449	0.05
661.634	0
661.819	-0
662.004	0.03
662.189	-0.11
662.374	-0.06
662.559	-0.07
662.743	-0.06
662.928	-0.02
663.113	-0.04
663.298	-0.1
663.483	-0.02
663.667	-0.01
663.852	-0.04
664.037	0
664.221	-0.08
664.406	-0
664.591	0.01
664.775	-0.05
664.96	-0.08
665.145	-0.06
665.329	0.01
665.514	-0.06
665.698	-0.04
665.883	-0.1
666.068	0.05
666.252	-0.02
666.437	-0.05
666.621	-0.01
666.806	-0.03
666.99	-0.02
667.174	-0.06
667.359	0.04
667.543	-0.05
667.728	-0.05
667.912	-0.09
668.096	0.03
668.281	-0.05
668.465	-0.04
668.649	-0.05
668.834	-0.08
669.018	-0.02
669.202	-0.04
669.387	-0.05
669.571	0.04
669.755	-0.09
669.939	-0.06
670.124	-0.05
670.308	0.01
670.492	-0.03
670.676	-0.03
670.86	-0.05
671.044	-0.06
671.228	0.02
671.413	-0.08
671.597	-0.06
671.781	-0.01
671.965	0.02
672.149	-0
672.333	0
672.517	-0.07
672.701	-0.02
672.885	-0.04
673.069	-0.08
673.253	0.05
673.437	-0.01
673.621	-0.03
673.804	-0.04
673.988	-0.02
674.172	-0.02
674.356	-0.09
674.54	-0.03
674.724	0.08
674.908	-0.04
675.091	0.04
675.275	-0.04
675.459	0.03
675.643	0.02
675.826	-0.01
676.01	-0.02
676.194	-0.04
676.377	0.02
676.561	-0
676.745	-0.03
676.928	0.01
677.112	0.04
677.296	-0.05
677.479	-0.08
677.663	-0
677.846	0.02
678.03	-0.05
678.213	-0.08
678.397	-0.01
678.58	-0.04
678.764	-0.02
678.947	-0.08
679.131	-0.07
679.314	-0.05
679.498	-0.06
679.681	-0
679.865	0.01
680.048	-0.01
680.231	-0.04
680.415	-0.06
680.598	-0.02
680.781	-0.02
680.965	-0.05
681.148	-0.04
681.331	-0.06
681.514	-0.01
681.698	-0.04
681.881	-0.03
682.064	0
682.247	0
682.43	-0.15
682.614	-0.02
682.797	0.03
682.98	-0.01
683.163	-0.06
683.346	0.01
683.529	-0.05
683.712	-0.09
683.895	0
684.078	-0.08
684.261	-0.02
684.444	-0.02
684.627	-0
684.81	-0.08
684.993	-0.04
685.176	0
685.359	-0.07
685.542	-0.04
685.725	0.03
685.908	-0.04
686.091	-0.05
686.274	0.01
686.457	0
686.639	0.02
686.822	-0.02
687.005	0.01
687.188	-0.01
687.371	0.03
687.553	0.01
687.736	-0.01
687.919	0.03
688.102	0.07
688.284	-0.09
688.467	-0.07
688.65	-0.06
688.832	-0.02
689.015	-0.05
689.197	-0.05
689.38	0.05
689.563	0.1
689.745	-0.05
689.928	-0.06
690.11	-0.01
690.293	0.01
690.475	-0.1
690.658	-0.01
690.84	-0.02
691.023	-0.02
691.205	-0.06
691.388	-0.03
691.57	0.04
691.752	-0.01
691.935	-0.12
692.117	-0.03
692.3	0.01
692.482	-0
692.664	-0.07
692.847	0.02
693.029	0.06
693.211	0
693.393	-0.01
693.576	-0.09
693.758	0.03
693.94	-0.07
694.122	-0.05
694.304	0.01
694.487	-0.05
694.669	0.06
694.851	-0.06
695.033	-0.03
695.215	-0.03
695.397	-0.07
695.579	-0.01
695.761	-0.04
695.943	-0.08
696.125	0.02
696.308	0.02
696.49	-0.08
696.671	0.12
696.853	0.01
697.035	0.11
697.217	-0.01
697.399	-0.01
697.581	-0.08
697.763	-0.03
697.945	-0.11
698.127	-0.01
698.309	0.03
698.491	0
698.672	0
698.854	-0.01
699.036	0.07
699.218	-0.04
699.399	0.06
699.581	-0
699.763	-0.01
699.945	-0.08
700.126	-0.03
700.308	0.02
700.49	-0.03
700.671	-0.11
700.853	-0.08
701.035	-0.08
701.216	-0.03
701.398	-0.09
701.579	-0.06
701.761	-0.01
701.943	-0.08
702.124	-0.08
702.306	-0.05
702.487	0.14
702.669	-0.06
702.85	-0.12
703.031	-0.1
703.213	0.13
703.394	0.04
703.576	-0.07
703.757	-0.01
703.938	0.05
704.12	0.15
704.301	-0.06
704.483	-0.08
704.664	0.03
704.845	0.1
705.026	-0
705.208	-0.02
705.389	-0.01
705.57	0.05
705.751	-0.05
705.933	-0.07
706.114	0.01
706.295	-0.01
706.476	-0.12
706.657	0.08
706.838	0.02
707.02	0
707.201	-0.1
707.382	-0.01
707.563	0.03
707.744	-0.04
707.925	0.02
708.106	-0.06
708.287	-0.09
708.468	0.07
708.649	0.01
708.83	0.01
709.011	-0.07
709.192	0.01
709.373	-0.08
709.554	-0.03
709.734	0.02
709.915	0.04
710.096	-0.05
710.277	-0.14
710.458	-0.02
710.639	0.06
710.819	-0.09
711	-0.06
711.181	0.04
711.362	-0.01
711.542	0.03
711.723	-0.1
711.904	0
712.085	0.02
712.265	-0.02
712.446	-0.14
712.627	-0.02
712.807	-0.01
712.988	-0.03
713.168	-0.08
713.349	-0.01
713.53	-0.18
713.71	-0.06
713.891	-0.13
714.071	-0.03
714.252	-0
714.432	-0.05
714.613	-0.11
714.793	-0.01
714.974	0.07
715.154	0.01
715.334	-0.03
715.515	0.04
715.695	-0.1
715.876	-0.07
716.056	-0.01
716.236	-0.18
716.417	-0.01
716.597	-0.12
716.777	0.14
716.957	-0.01
717.138	0.04
717.318	-0.05
717.498	-0.07
717.678	-0.01
717.859	-0.01
718.039	-0.18
718.219	-0.08
718.399	0.04
718.579	-0.11
718.759	-0.11
718.939	-0
719.12	-0.07
719.3	0.02
719.48	-0.14
719.66	-0.17
719.84	0.09
720.02	-0.02
720.2	-0.12
720.38	-0.06
720.56	0.05
720.74	-0.08
720.92	-0.03
721.1	0.15
721.279	0.03
721.459	0.01
721.639	-0.15
721.819	0.01
721.999	-0.04
722.179	-0.02
722.359	-0.16
722.538	-0.07
722.718	-0.02
722.898	-0.05
723.078	-0.02
723.257	-0.09
723.437	-0.07
723.617	-0.04
723.797	-0.11
723.976	-0.06
724.156	0.01
724.336	0.02
724.515	0.07
724.695	-0.13
724.874	-0.09
725.054	0.03
725.234	-0.13
725.413	-0.07
725.593	-0.05
725.772	-0.05
725.952	-0.05
726.131	-0.11
726.311	0
726.49	-0.01
726.67	-0.13
726.849	-0.13
727.028	-0.01
727.208	-0.13
727.387	-0.08
727.567	-0.13
727.746	-0.15
727.925	-0.14
728.105	-0.18
728.284	-0.01
728.463	-0.06
728.643	0.04
728.822	-0.1
729.001	-0.03
729.18	-0
729.359	0.06
729.539	-0.01
729.718	-0.03
729.897	0.01
730.076	-0.08
730.255	-0.18
730.434	-0.12
730.614	0.02
730.793	0.03
730.972	-0.08
731.151	-0.02
731.33	0.1
731.509	0.09
731.688	-0.06
731.867	0.04
732.046	-0.17
732.225	0.16
732.404	-0.26
732.583	-0.14
732.762	-0.13
732.941	-0.02
733.12	0
733.298	-0.11
733.477	0.1
733.656	-0.05
733.835	-0.11
734.014	0.06
734.193	-0.01
734.371	0.05
734.55	-0.01
734.729	-0.17
734.908	0.02
735.086	0.03
735.265	0.06
735.444	-0.23
735.623	-0.07
735.801	-0.1
735.98	-0.09
736.159	-0.17
736.337	0.12
736.516	0
736.694	-0.07
736.873	-0.11
737.052	0.04
737.23	0.03
737.409	-0.19
737.587	0.08
737.766	-0.22
737.944	-0.19
738.123	0.04
738.301	0.03
738.479	0.03
738.658	-0.08
738.836	-0.26
739.015	0.03
739.193	0.15
739.371	-0.18
739.55	-0
739.728	-0.19
739.906	0.09
740.085	0.04
740.263	-0.05
740.441	-0.29
740.62	0.07
740.798	0.01
740.976	-0.21
741.154	-0.2
741.332	0.16
741.511	-0.07
741.689	-0.01
741.867	-0.02
742.045	0.05
742.223	-0.04
742.401	-0.16
742.579	-0.13
742.757	0.1
742.935	-0.11
743.114	0.08
743.292	-0.09
743.47	-0.06
743.648	0.07
743.826	-0.08
744.004	0.01
744.181	0.09
744.359	-0.11
744.537	-0.03
744.715	-0.09
744.893	-0.07
745.071	-0.02
745.249	-0.05
745.427	-0.09
745.605	-0.03
745.782	0.02
745.96	0.02
746.138	0
746.316	0.15
746.493	-0.14
746.671	-0.04
746.849	-0.08
747.027	0.18
747.204	-0.1
747.382	-0.04
747.56	-0.21
747.737	-0.16
747.915	-0.11
748.093	0.01
748.27	-0.17
748.448	-0.11
748.625	-0.09
748.803	-0.14
748.98	-0.17
749.158	-0.03
749.335	0.06
749.513	-0.12
749.69	-0.01
749.868	0.08
750.045	0.01
750.223	-0.12
750.4	-0.31
750.578	0.09
750.755	0.03
750.932	-0.17
751.11	0.07
751.287	-0.11
751.464	0.03
751.642	-0.21
751.819	-0.04
751.996	-0.08
752.173	-0.04
752.351	-0.22
752.528	-0.05
752.705	-0.08
752.882	-0.1
753.06	-0.05
753.237	0.13
753.414	0.3
753.591	0.15
753.768	-0.05
753.945	-0.09
754.122	-0.11
754.299	-0.01
754.476	-0.22
754.654	-0.04
754.831	-0.03
755.008	-0.08
755.185	-0.11
755.362	-0.1
755.539	0.02
755.716	-0.19
755.892	-0.08
756.069	-0.09
756.246	-0.05
756.423	-0.11
756.6	0.04
756.777	-0.04
756.954	-0
757.131	-0.05
757.307	-0.1
757.484	-0.1
757.661	0.01
757.838	-0.06
758.015	-0.22
758.191	-0.05
758.368	0.02
758.545	0.21
758.721	0.03
758.898	-0.22
759.075	-0.01
759.251	0.01
759.428	0.12
759.605	-0.22
759.781	-0.06
759.958	0
760.134	0.08
760.311	-0.16
760.488	0.07
760.664	0.06
760.841	-0.08
761.017	-0.18
761.194	0.01
761.37	0.15
761.547	-0.07
761.723	0.06
761.899	0.12
762.076	-0.19
762.252	-0.15
762.429	-0.09
762.605	0.03
762.781	-0.09
762.958	0
763.134	-0.16
763.31	-0.09
763.486	0.13
763.663	-0.26
763.839	0.02
764.015	-0.25
764.191	-0.17
764.368	0.03
764.544	-0.17
764.72	-0.01
764.896	-0.01
765.072	-0.02
765.248	-0.13
765.425	-0.2
765.601	-0.13
765.777	-0.03
765.953	-0.31
766.129	-0.12
766.305	-0.18
766.481	-0.01
766.657	0
766.833	0.1
767.009	-0.15
767.185	-0.14
767.361	-0.09
767.537	-0.21
767.713	0.08
767.889	-0.09
768.065	-0.04
768.24	-0.22
768.416	0.09
768.592	-0.08
768.768	-0.12
768.944	0.01
769.12	-0.22
769.295	-0.02
769.471	-0.08
769.647	-0.17
769.823	0.04
769.998	-0.06
770.174	-0.21
770.35	0.27
770.525	0.23
770.701	-0.09
770.877	-0.06
771.052	-0.14
771.228	0.01
771.403	-0.01
771.579	-0
771.755	0.31
771.93	-0.1
772.106	-0.29
772.281	-0.25
772.457	-0.1
772.632	-0.07
772.808	-0.24
772.983	-0.05
773.159	-0.16
773.334	0.18
773.509	-0.04
773.685	-0.18
773.86	0.34
774.036	0.17
774.211	-0.07
774.386	-0.07
774.562	-0
774.737	0.1
774.912	-0.1
775.087	0.02
775.263	-0.21
775.438	0.1
775.613	-0.21
775.788	-0.11
775.964	0.01
776.139	0.28
776.314	-0.27
776.489	-0.03
776.664	0.04
776.839	-0.2
777.014	0.07
777.19	0.04
777.365	0.05
777.54	0.04
777.715	-0.09
777.89	-0.07
778.065	-0.15
778.24	-0.07
778.415	0.11
778.59	-0.23
778.765	-0.02
778.94	0.06
779.115	-0.07
779.289	-0.14
779.464	-0.02
779.639	0.03
779.814	-0.3
779.989	-0.27
780.164	0.04
780.339	-0.04
780.513	-0.16
780.688	-0.27
780.863	0
781.038	0.23
781.212	-0.1
781.387	-0.12
781.562	0.18
781.737	-0.12
781.911	0.14
782.086	-0.3
782.261	0.08
782.435	0.22
782.61	-0.24
782.784	-0.09
782.959	0.15
783.134	-0.11
783.308	-0.22
783.483	-0.26
783.657	0.38
783.832	0.04
784.006	-0.49
784.181	-0.07
784.355	0.08
784.53	-0.3
784.704	-0.1
784.878	0.15
785.053	0.12
785.227	0.12
785.402	0.43
785.576	-0.5
785.75	-0.04
785.925	-0.27
786.099	-0.1
786.273	-0.09
786.448	0.19
786.622	-0.09
786.796	0.04
786.97	-0.11
787.145	0.37
787.319	-0.03
787.493	-0.22
787.667	-0.5
787.841	-0.04
788.015	0.16
788.19	-0.14
788.364	-0.07
788.538	0.19
788.712	0.13
788.886	-0.13
789.06	-0
789.234	0.11
789.408	-0.29
789.582	-0.16
789.756	-0.15
789.93	-0.31
790.104	-0.16
790.278	-0.3
790.452	-0.3
790.626	-0
790.8	-0.23
790.973	0.12
791.147	0.18
791.321	0.25
791.495	0.09
791.669	0.09
791.843	0.03
792.016	-0.01
792.19	0.22
792.364	-0.12
792.538	0.44
792.711	0.01
792.885	-0.13
793.059	-0.34
793.233	-0.67
793.406	0.11
793.58	0.07
793.754	-0.15
793.927	-0.2
794.101	0.14
794.274	-0.17
794.448	-0.12
794.622	-0.23
794.795	0.28
794.969	-0.03
795.142	0.23
795.316	-0.11
795.489	-0.25
795.663	0.4
795.836	0.04
796.009	-0.3
796.183	0.25
796.356	0.09
796.53	-0.05
796.703	-0.12
796.876	0.52
797.05	-0.28
797.223	-0.14
797.396	-0.04
797.57	0.09
797.743	0.37
797.916	-0.07
798.09	-0.03
798.263	0.27
798.436	-0.02
798.609	0.04
798.782	-0.36
798.956	-0.18
799.129	0.23
799.302	-0.02
799.475	-0.34
799.648	-0.37
799.821	-0.34
799.994	-0.11
800.167	-0.51
800.34	-0.15
800.514	-0.13
800.687	-0.32
800.86	-0.33
801.033	-0.21
801.206	0.18
801.379	-0.23
801.551	0.14
801.724	-0.09
801.897	0.14
802.07	-0.25
802.243	-0.76
802.416	-0.07
802.589	-0.15
802.762	0.09
802.935	-0.07
803.107	0.16
803.28	0.21
803.453	0.19
803.626	-0.21
803.798	0.01
803.971	-0.61
804.144	-0.2
804.317	-0.07
804.489	0.09
804.662	-0.23
804.835	-0.06
805.007	-0.48
805.18	0.29
805.353	0.3
805.525	-0.37
805.698	-0.38
805.87	0.24
806.043	0.08
806.215	-0.41
806.388	-0.52
806.56	-0.12
806.733	0.35
806.905	0.1
807.078	-0.38
807.25	-0.32
807.423	0
807.595	-0.34
807.768	-0.12
807.94	-0.22
808.112	-0.02
808.285	-0.12
808.457	-0.54
808.629	-0.54
808.802	0.33
808.974	-0.18
809.146	-0.45
809.318	-0.36
809.491	-0.23
809.663	0.11
809.835	-0.66
810.007	0.02
810.18	-0.07
810.352	-0.57
810.524	-0.25
810.696	0.09
810.868	-0.16
811.04	-0.28
811.212	-0.41
811.384	0.11
811.556	-0.18
811.728	-0.13
811.901	0.54
812.073	-0.17
812.245	0.28
812.417	-0.32
812.589	-0.78
812.76	-0.33
812.932	0.12
813.104	0.23
813.276	-0.05
813.448	0.32
813.62	-0.19
813.792	-0.07
813.964	0.1
814.136	0.06
814.307	-0.15
814.479	-0.38
814.651	-0.14
814.823	0.38
814.995	0.01
815.166	-0.2
815.338	-0.57
815.51	-0.87
815.681	0.7
815.853	-0.31
816.025	-0.16
816.196	0.29
816.368	0.24
816.54	-0.63
816.711	-0.4
816.883	0.28
817.054	0.95
817.226	-0.89
817.398	-0.35
817.569	-0.34
817.741	-0.03
817.912	-0.28
818.084	0
818.255	0.22
818.426	-0.57
818.598	0.16
818.769	-0.3
818.941	0.33
819.112	0.32
819.283	0.11
819.455	-0.42
819.626	-0.05
819.798	0.19
819.969	-0.07
820.14	-0.31
820.311	-0.47
820.483	0.1
820.654	0.04
820.825	0.25
820.996	-0.48
821.168	-0.4
821.339	-0.34
821.51	-0.77
821.681	-0.26
821.852	-0.12
822.023	-0.58
822.195	-0.48
822.366	0.38
822.537	-0.51
822.708	-0.14
822.879	-0.48
823.05	0
823.221	0.06
823.392	0.23
823.563	-0.26
823.734	-0.24
823.905	-0.15
824.076	-0.61
824.247	-1
824.418	-0.18
824.589	0.03
824.759	-0.18
824.93	-0.26
825.101	-0.67
825.272	0.04
825.443	0.23
825.614	-0.12
825.784	-0.77
825.955	1.09
826.126	0.69
826.297	-0.26
826.467	0.5
826.638	0.26
826.809	-0.96
826.98	-0.33
827.15	-0.03
827.321	0.32
827.492	0.25
827.662	-0.19
827.833	1.79
828.003	0.33
828.174	-0.29
828.345	-0.69
828.515	1.07
828.686	-0.04
828.856	-0.1
829.027	-0.36
829.197	-0.62
829.368	0.18
829.538	-0.76
829.709	-0.73
829.879	0.32
830.049	-0.21
830.22	-0.82
830.39	-0.22
830.56	0.25
830.731	-0.31
830.901	-0.25
831.072	-0.66
831.242	0
831.412	0.22
831.582	-0.34
831.753	-0.53
831.923	-0.1
832.093	-0.26
832.263	-0.27
832.434	-0.67
832.604	-0.9
832.774	0.8
832.944	-0.23
833.114	-0.06
833.284	-0.29
833.454	-0.8
833.624	-0.59
833.795	-0.33
833.965	0.58
834.135	0.34
834.305	-1.21
834.475	-0.76
834.645	0.25
834.815	-0.19
834.985	-1.14
835.155	-0.53
835.325	-0.04
835.494	0.43
835.664	-0.6
835.834	-0.62
836.004	0.31
836.174	-0.08
836.344	-0.42
836.514	-1.4
836.684	-0.43
836.853	-0.23
837.023	0.14
837.193	-0.49
837.363	0.73
837.532	0.35
837.702	-0.19
837.872	-0.82
838.041	-0.02
838.211	1.54
838.381	-1.06
838.55	0.17
838.72	1.34
838.89	1.34
839.059	-0.94
839.229	-0.71
839.398	1.91
839.568	0.07
839.738	-0.19
839.907	0.4
840.077	0.05
840.246	-0.46
840.416	-0.53
840.585	-1.08
840.755	1.05
840.924	0.21
841.093	-0.81
841.263	-0.41
841.432	-0.27
841.602	-0.39
841.771	-0.92
841.94	-0.4
842.11	1.65
842.279	0.63
842.448	-0.49
842.617	-1
842.787	1.39
842.956	-0.24
843.125	-0.23
843.294	0.06
843.464	0.38
843.633	-0.91
843.802	-0.88
843.971	-0.85
844.14	0.19
844.309	0.3
844.479	-0.58
844.648	-0.69
844.817	-0.53
844.986	0.47
845.155	-0.99
845.324	-0.68
845.493	-0.92
845.662	-0.95
845.831	-0.26
846	-0.66
846.169	-0.63
846.338	1.35
846.507	-0.27
846.676	0.34
846.844	-0.79
847.013	0.37
847.182	0.46
847.351	-1.36
847.52	-0.26
847.689	0.22
847.858	0.18
848.026	-1
848.195	0.1
848.364	-0.85
848.533	-0.9
848.701	-0.67
848.87	-0.58
849.039	0.53
849.207	-0.06
849.376	1.04
849.545	0.73
849.713	-1.25
849.882	-1.84
850.051	0.04
850.219	-0.27
850.388	0.28
850.556	-1.49
850.725	-1.16
850.893	-0.14
851.062	-1.45
851.23	-0.28
851.399	-1.4
851.567	-1.25
851.736	-0.95
851.904	-0.69
852.073	-0.31
852.241	-0.08
852.41	0.04
852.578	-0.74
852.746	-0.73
852.915	0.67
853.083	-1.35
853.251	-0.23
853.42	-0.99
853.588	0.07
853.756	0.63
853.924	-1.2
854.093	-0.12
854.261	-0.34
854.429	-1.5
854.597	-0.69
854.765	-1.31
854.934	0.47
855.102	-0.05
855.27	0.42
855.438	0.79
855.606	0.5
855.774	0.84
855.942	-2.58
856.11	-1.48
856.278	-0.35
856.446	0.67
856.614	-0.51
856.782	-1.42
856.95	0.89
857.118	-0.1
857.286	-0
857.454	-1.87
857.622	1.24
857.79	0.05
857.958	-1.45
858.126	-1.06
858.294	-3.84
858.462	-1.33
858.629	-1.56
858.797	-1.73
858.965	-0.4
859.133	-0.14
859.301	-0.91
859.468	-0.61
859.636	-1.56
859.804	0.74
859.971	0.75
860.139	-2.06
860.307	0.34
860.474	-0.2
860.642	-0.9
860.81	-0.33
860.977	-0.46
861.145	0.25
861.313	-1.47
861.48	0.17
861.648	0.74
861.815	-0.56
861.983	-2.34
862.15	-1.27
862.318	0.91
862.485	0.98
862.653	-0.77
862.82	-1.11
862.988	0.62
863.155	1.23
863.322	-0.98
863.49	-2.02
863.657	-0.33
863.824	1.45
863.992	-0.28
864.159	-0.71
864.326	1.2
864.494	-0.97
864.661	1.77
864.828	-1.75
864.996	0.89
865.163	1.21
865.33	-1.08
865.497	-2.62
865.664	-2.14
865.832	-3.66
865.999	-1.87
866.166	-1.91
866.333	-0.23
866.5	0.39
866.667	-1.2
866.834	-1.86
867.001	2
867.168	-1.86
867.335	-0.37
867.502	-3.5
867.669	0.53
867.836	1.33
868.003	-0.8
868.17	0.79
868.337	2.54
868.504	3.1
868.671	-3.11
868.838	-2.46
869.005	0.29
869.172	1.37
869.339	-0.82
869.505	0.03
869.672	0.63
869.839	1.49
870.006	-0.14
870.173	-2.1
870.339	-0.13
870.506	1.54
870.673	-3.49
870.84	1.86
871.006	0.22
871.173	0.43
871.34	-0.35
871.506	-1.25
871.673	1.57
871.839	-2.06
872.006	-0.97
872.173	-1.33
872.339	-1.01
872.506	1.55
872.672	-1.83
872.839	-2.37
873.005	0.7
873.172	2.7
873.338	-0.05
873.505	-0.94
873.671	-0.31
873.838	-0.1
874.004	-2.42
874.171	-1.2
874.337	-0.36
874.503	1.05
874.67	-1.43
874.836	-1.64
875.002	1.47
875.169	2.03
875.335	-0.02
875.501	-2.33
875.668	-0.21
875.834	-0.3
876	-2.63
876.166	-0.15
876.332	-0
876.499	1.44
876.665	-1.47
876.831	-0.09
876.997	3.18
877.163	1.3
877.329	-1.38
877.495	0.77
877.662	0.02
877.828	-1.01
877.994	0.25
878.16	-2.89
878.326	-0.71
878.492	-0.98
878.658	-0.95
878.824	1.43
878.99	0.05
879.156	-3.19
879.322	2.27
879.487	-0.77
879.653	1.16
879.819	-0.21
879.985	-1.86
880.151	-1.07
880.317	-0.38
880.483	0.89
880.648	0.99
880.814	-3.38
880.98	-0.25
881.146	-1.04
881.312	-1.75
881.477	-1.19
881.643	-0.29
881.809	3.24
881.974	1.2
882.14	-2.86
882.306	-1.09
882.471	2.22
882.637	-0.4
882.803	-0.55
882.968	2.99
883.134	2.56
883.299	0.71
883.465	-0.08
883.63	0.89
883.796	0.3
883.961	-0
884.127	-0.21
884.292	-4.25
884.458	-3.07
884.623	-3.06
